
Integration time [ms]: 100.000
Averaging Nr. [scans]: 40
Smoothing Nr. [pixels]: 0
Data measured with spectrometer [name]: 2101012U2
Wave   ;Sample   ;Dark     ;Reference
[nm]   ;[counts] ;[counts] ;[counts] 

197.733;   74.050;  516.000;  404.000
197.879;  -86.275; -610.000; -634.000
198.025;  -43.775; -475.000; -420.000
198.171;  -78.000; -602.000; -612.000
198.317;  -24.650; -401.000; -316.000
198.463;  -80.725; -655.000; -404.000
198.609;   42.725;  181.000; -137.000
198.755;  -79.575; -644.000; -410.000
198.901;  -62.200; -505.000; -424.000
199.047;  -79.450; -615.000; -488.000
199.193;  -28.200; -230.000; -468.000
199.339;  -44.700; -222.000; -369.000
199.485;   48.050;  330.000;  271.000
199.631;   11.450;  227.000;  310.000
199.777;  -49.175; -466.000; -398.000
199.923;  -57.475; -610.000; -424.000
200.069;   -6.450; -141.000;  -58.000
200.215;   51.450;  128.000;  453.000
200.361;   43.325;  243.000;  477.000
200.507;  -71.900; -600.000; -373.000
200.653;  -21.400; -371.000; -194.000
200.798;  -38.400; -215.000; -125.000
200.944;    0.525; -146.000;  -41.000
201.090;   27.825;   61.000;  222.000
201.236;    1.850; -116.000; -158.000
201.382;  136.675;  874.000;  903.000
201.528;    8.050;  -58.000;  -48.000
201.674;  -25.975; -386.000; -293.000
201.819;  -56.100; -540.000; -439.000
201.965;  -78.500; -699.000; -447.000
202.111;  -24.050; -273.000; -226.000
202.257;  -34.750; -250.000; -238.000
202.402;    8.200;   13.000;  -36.000
202.548;  -27.175; -169.000; -116.000
202.694;   97.325;  410.000; -183.000
202.840;  -68.375; -603.000; -531.000
202.985;  -72.750; -681.000; -639.000
203.131; -116.400; -832.000; -666.000
203.277;  -30.375; -199.000; -262.000
203.423;  -61.250; -434.000; -520.000
203.568;  -29.825; -462.000; -237.000
203.714;  -50.975; -535.000; -542.000
203.860;  -72.875; -682.000; -641.000
204.005;   20.900;  112.000;  167.000
204.151;   77.200;  561.000;  556.000
204.296;  -41.800; -354.000; -221.000
204.442;  -59.375; -600.000; -547.000
204.588;  -60.275; -592.000; -579.000
204.733;   27.550;  178.000;  168.000
204.879; -128.000;-1018.000; -822.000
205.025;   12.100;  -99.000;  126.000
205.170;    8.975;  -17.000;   94.000
205.316;   93.250;  438.000;  661.000
205.461;  -87.725; -698.000; -554.000
205.607;   87.725;  609.000;  665.000
205.752;  -76.950; -626.000; -551.000
205.898;  -52.600; -501.000; -391.000
206.043;  -74.400; -578.000; -506.000
206.189;  -34.750; -243.000; -285.000
206.334;   74.600;  554.000;  606.000
206.480;   81.875;  409.000;  239.000
206.625;  -84.925; -529.000; -552.000
206.771;  -39.700; -451.000; -373.000
206.916;  -32.625; -210.000; -537.000
207.062;  -63.850; -545.000; -591.000
207.207;  -55.500; -546.000; -443.000
207.353;   64.600;  185.000;  460.000
207.498;    9.550;  196.000;   85.000
207.643;  -54.700; -501.000; -370.000
207.789; -124.450;-1069.000; -910.000
207.934;  -89.225; -665.000; -713.000
208.080;  -26.100; -154.000;   66.000
208.225;   -8.750;  -22.000;  -57.000
208.370;  -77.300; -727.000; -619.000
208.516;  -71.675; -741.000; -487.000
208.661;  -26.850; -127.000;  -69.000
208.806;  -20.925; -165.000; -171.000
208.952; -125.975;-1044.000; -731.000
209.097;   78.550;  378.000;  349.000
209.242;  -52.900; -307.000; -382.000
209.387;   68.425;  392.000;  350.000
209.533;  -59.975; -321.000; -350.000
209.678;   94.500;  472.000;  543.000
209.823;  -57.400; -408.000; -310.000
209.969; -103.525; -860.000; -757.000
210.114;  -98.125; -907.000; -719.000
210.259; -121.500; -939.000; -889.000
210.404;  -24.575; -171.000;  103.000
210.549;   15.850;  108.000;    3.000
210.695;  -26.475;   -3.000;  -95.000
210.840;   31.575;   94.000;   67.000
210.985;  -74.825; -484.000; -303.000
211.130;   78.050;  268.000;  406.000
211.275;   18.975;  207.000;  199.000
211.420;  -55.025; -300.000; -289.000
211.566;  -69.550; -536.000; -489.000
211.711;   23.250;  218.000;  157.000
211.856;  -69.925; -545.000; -519.000
212.001;   17.350;  151.000;   44.000
212.146;   25.925;  153.000;   49.000
212.291;  -14.875; -210.000; -186.000
212.436;  -29.050; -280.000;   -6.000
212.581;  -80.375; -685.000; -653.000
212.726;  -74.850; -487.000; -538.000
212.871;  -48.025; -552.000; -217.000
213.016; -143.450;-1172.000;-1029.000
213.161;   61.125;  406.000;  291.000
213.306;  -73.700; -435.000; -577.000
213.451;  -89.875; -778.000; -689.000
213.596;  -56.075; -455.000; -347.000
213.741;  -36.650; -448.000; -538.000
213.886;  -76.900; -498.000; -517.000
214.031;  -15.225; -294.000; -124.000
214.176;  -50.100; -408.000; -341.000
214.321;  -20.250; -296.000; -157.000
214.466;  -28.125; -163.000;  -43.000
214.611;    5.425;  -61.000;  -10.000
214.756; -113.925; -948.000; -858.000
214.901;  -26.450; -388.000; -226.000
215.046; -137.275; -797.000; -825.000
215.191;   18.375;  128.000;   35.000
215.336;  -23.100; -157.000;  -19.000
215.480;  -65.825; -684.000; -505.000
215.625;  -14.625; -175.000;  -19.000
215.770;  -76.975; -757.000; -662.000
215.915;  -10.650;   -5.000;  -97.000
216.060;   13.500; -113.000;  -21.000
216.205; -119.550; -731.000; -779.000
216.349;  -67.750; -470.000; -533.000
216.494; -129.950; -939.000; -867.000
216.639; -114.000; -823.000; -888.000
216.784;  -83.175; -577.000; -525.000
216.929;   49.825;  392.000;  281.000
217.073;  -18.650; -244.000;  -31.000
217.218;    2.125;   78.000;  -47.000
217.363;  -76.275; -656.000; -618.000
217.507;  -76.825; -623.000; -588.000
217.652; -125.625; -845.000; -874.000
217.797;  -93.050; -708.000; -659.000
217.942; -115.950; -856.000; -720.000
218.086;   72.800;  608.000;  539.000
218.231;  -29.875; -174.000;  -26.000
218.376;  -38.125; -337.000; -229.000
218.520;    3.375;  -41.000;   96.000
218.665;  -12.625; -338.000; -204.000
218.810;  -47.925; -275.000; -233.000
218.954;   12.900;  201.000;   35.000
219.099; -108.350; -713.000; -963.000
219.243;  -75.250; -589.000; -554.000
219.388;  -22.000; -264.000; -136.000
219.532;   -7.475; -116.000; -116.000
219.677;  -81.725; -564.000; -521.000
219.822;    2.975;   33.000;   89.000
219.966;    7.850;   17.000;  -99.000
220.111;  -21.650; -328.000;  -40.000
220.255;  -97.575; -797.000; -750.000
220.400;  -20.975; -180.000; -146.000
220.544;  -67.625; -516.000; -450.000
220.689;  -46.050; -422.000; -451.000
220.833;  -24.625; -123.000;  -58.000
220.978;  -36.350; -393.000; -563.000
221.122;   30.250;  319.000;  307.000
221.267; -114.900; -906.000; -837.000
221.411;  -63.350; -478.000; -394.000
221.555;  -13.400; -104.000;  -23.000
221.700;  -51.750; -329.000; -222.000
221.844;   50.725;  255.000;  272.000
221.989;  -45.225; -328.000; -311.000
222.133;  -33.600; -289.000; -307.000
222.277;   -6.400;    5.000;   78.000
222.422;   26.000;  227.000;  113.000
222.566;  -38.975; -381.000; -214.000
222.711;  -60.250; -414.000; -479.000
222.855;  -95.750; -643.000; -586.000
222.999;  -92.650; -642.000; -717.000
223.144;  -31.250; -195.000; -194.000
223.288;   61.750;  423.000;  251.000
223.432;   21.875;  184.000;  230.000
223.576;   25.700;  152.000;  -21.000
223.721;   40.700;  364.000;  273.000
223.865;  -64.100; -472.000; -475.000
224.009;  244.875; 1673.000; 1631.000
224.153;  -75.000; -660.000; -671.000
224.298;  -67.625; -531.000; -489.000
224.442;   -8.850;  -74.000;  -33.000
224.586;   -2.225; -169.000; -106.000
224.730;  -85.175; -858.000; -670.000
224.875; -104.575; -739.000; -688.000
225.019;   13.150;  102.000;  188.000
225.163;   56.850;  208.000;  341.000
225.307;   14.575;   97.000;  -91.000
225.451;   32.800;  360.000;  481.000
225.595;   31.450;  264.000;  176.000
225.739;  -14.350; -170.000;  -94.000
225.884;   10.275;   86.000;    5.000
226.028; -101.025; -760.000; -626.000
226.172;  -30.100; -260.000; -273.000
226.316; -123.825; -941.000; -902.000
226.460;  -65.425; -645.000; -493.000
226.604;  -51.200; -406.000; -400.000
226.748; -118.475; -836.000; -733.000
226.892;  -45.575; -227.000; -181.000
227.036;  -48.750; -537.000; -447.000
227.180;  -55.050; -551.000; -375.000
227.324;  -66.875; -561.000; -580.000
227.468; -112.450; -819.000; -717.000
227.612;   20.750;  242.000;  -28.000
227.756; -102.850; -845.000; -698.000
227.900;   63.875;  342.000;  441.000
228.044;  -61.500; -509.000; -290.000
228.188;   46.800;  448.000;  568.000
228.332; -101.650; -546.000; -472.000
228.476;  -16.825; -223.000; -149.000
228.620;  -22.875; -210.000; -150.000
228.764;   75.225;  431.000;  349.000
228.908;  -24.950; -155.000;   30.000
229.052;  -76.800; -615.000; -528.000
229.195;  -27.500; -172.000;   13.000
229.339;  -38.075; -235.000; -305.000
229.483;  -24.475;    5.000; -162.000
229.627;   -0.325; -156.000;  139.000
229.771;  -52.025; -218.000; -294.000
229.915;    8.575;  230.000;   79.000
230.059;  -98.725; -648.000; -663.000
230.202;  -43.475; -370.000; -317.000
230.346;  -20.800; -107.000;  107.000
230.490;  -59.175; -489.000; -521.000
230.634; -112.175; -736.000; -553.000
230.777;   79.275;  478.000;  509.000
230.921;  -60.450; -450.000; -359.000
231.065;  -41.750; -246.000; -286.000
231.209;   22.425;  261.000;  265.000
231.352;   13.775;   54.000;   40.000
231.496;    6.650;  568.000;  188.000
231.640;  -82.300; -693.000; -621.000
231.783;   67.000;  546.000;  525.000
231.927;  -35.750; -294.000; -365.000
232.071; -125.150; -962.000; -736.000
232.214; -106.550; -980.000; -764.000
232.358; -110.600; -683.000; -599.000
232.502;   -0.050;  -19.000;    7.000
232.645; -147.850;-1090.000; -927.000
232.789;   -9.800; -257.000; -218.000
232.933;  -46.025; -407.000; -224.000
233.076; -130.675;-1038.000; -897.000
233.220; -111.075; -752.000; -777.000
233.363;  -82.475; -669.000; -477.000
233.507;   54.900;  371.000;  129.000
233.650;  -95.125; -764.000; -834.000
233.794;   34.675;  438.000;  461.000
233.938;  -58.400; -530.000; -362.000
234.081;  -15.400;  -93.000;   31.000
234.225;  -62.150; -631.000; -539.000
234.368; -122.375; -773.000; -723.000
234.512;  -40.550; -385.000; -299.000
234.655;  -83.325; -582.000; -555.000
234.798;  -50.050; -493.000; -466.000
234.942; -135.650; -884.000;-1002.000
235.085;  -76.225; -651.000; -443.000
235.229;  -73.125; -405.000; -410.000
235.372;  -46.675; -247.000; -191.000
235.516;  -62.775; -397.000; -321.000
235.659;   17.325;   92.000;  121.000
235.802;  -14.175;  -38.000;  -22.000
235.946;   25.975;  335.000;  215.000
236.089;   25.400;  126.000;  250.000
236.233;   54.900;  275.000;  298.000
236.376;  -46.500; -235.000; -378.000
236.519;  -49.875; -297.000; -319.000
236.663;  -19.000; -215.000; -117.000
236.806; -137.075;-1029.000; -999.000
236.949;   52.725;  543.000;  431.000
237.092;   48.175;  412.000;  391.000
237.236;  -85.850; -589.000; -502.000
237.379;   68.800;  352.000;  428.000
237.522; -122.900; -879.000; -768.000
237.666;  -11.975; -271.000;   18.000
237.809; -123.800; -851.000; -823.000
237.952;   37.200;  469.000;  271.000
238.095;  -65.625; -447.000; -442.000
238.238;   96.775;  688.000;  700.000
238.382;   -6.450;  166.000;  103.000
238.525;  -60.650; -598.000; -511.000
238.668; -138.925;-1060.000; -985.000
238.811;  -70.725; -638.000; -643.000
238.954;  -66.625; -483.000; -334.000
239.097;  103.825;  617.000;  664.000
239.241;   35.900;  394.000;  326.000
239.384;  -22.950; -254.000; -214.000
239.527;  -53.200; -424.000; -224.000
239.670; -151.900; -994.000;-1091.000
239.813; -119.275; -696.000; -658.000
239.956;   80.250;  579.000;  473.000
240.099; -110.525; -778.000; -725.000
240.242;   64.400;  428.000;  432.000
240.385;   50.700;  466.000;  450.000
240.528;  -78.300; -706.000; -473.000
240.671;   11.700;  189.000;  134.000
240.814;  -47.900; -441.000; -158.000
240.957; -101.275; -767.000; -578.000
241.100;  -91.375; -779.000; -755.000
241.243; -144.825;-1234.000; -893.000
241.386;  -63.900; -508.000; -379.000
241.529; -103.425; -735.000; -547.000
241.672;  -61.200; -566.000; -495.000
241.815; -126.725; -832.000; -808.000
241.958;  -17.100; -125.000; -182.000
242.101;  -75.450; -545.000; -390.000
242.244;  -39.825; -270.000; -325.000
242.387;  -46.000; -304.000; -246.000
242.530;   54.350;  470.000;  134.000
242.673;  -56.850; -381.000; -309.000
242.815; -114.675; -925.000; -899.000
242.958;  -63.850; -482.000; -381.000
243.101;   23.425;  132.000;  187.000
243.244;  -77.500; -564.000; -521.000
243.387;  -46.150; -313.000; -316.000
243.530; -100.075; -657.000; -674.000
243.672;    2.450;   43.000;  -92.000
243.815;  -60.825; -355.000; -283.000
243.958;   -4.175;   98.000;  -26.000
244.101;    1.550;   59.000;  -16.000
244.243;  -18.600;  -47.000;  101.000
244.386; -115.350; -761.000; -630.000
244.529;  -22.700; -132.000; -139.000
244.672; -160.775;-1154.000; -951.000
244.814;  -83.600; -621.000; -794.000
244.957;  -59.900; -380.000; -304.000
245.100;  -82.450; -489.000; -489.000
245.242;  -53.075; -387.000; -374.000
245.385;    1.125;  -59.000;  -39.000
245.528; -126.575; -871.000; -705.000
245.670;   86.775;  612.000;  634.000
245.813;  -89.600; -599.000; -547.000
245.956;  -35.900; -324.000; -275.000
246.098;  -85.825; -508.000; -650.000
246.241;   10.200;  194.000;   48.000
246.383;   -9.350; -119.000;  -73.000
246.526;  -72.125; -454.000; -525.000
246.669; -116.475; -889.000; -780.000
246.811;   15.875;  172.000;   -1.000
246.954;  -61.750; -512.000; -426.000
247.096;  -17.175;  -84.000;   -6.000
247.239;  -73.225; -482.000; -445.000
247.381;  -75.800; -647.000; -488.000
247.524;   82.550;  645.000;  679.000
247.666;   -9.775;   58.000;   11.000
247.809; -120.750; -887.000; -691.000
247.951;   10.475;  -75.000;  138.000
248.094;   19.525;  432.000;  308.000
248.236; -155.650;-1262.000;-1238.000
248.378;   -0.850; -356.000;  -81.000
248.521;  -20.200; -334.000; -337.000
248.663;  -43.200; -236.000; -267.000
248.806;  -12.575; -300.000; -266.000
248.948;  -88.500; -886.000; -763.000
249.090;  -39.350; -428.000; -398.000
249.233;  -54.275; -344.000; -381.000
249.375;  -55.525; -474.000; -451.000
249.518;  -25.125;  -83.000; -133.000
249.660;   -0.925; -103.000;    3.000
249.802; -179.300;-1303.000;-1189.000
249.945;  -77.450; -612.000; -540.000
250.087; -123.700; -834.000; -768.000
250.229;  -46.975; -362.000; -480.000
250.371;  -78.325; -494.000; -439.000
250.514;  -44.575; -310.000; -244.000
250.656;  -59.500;   69.000;  102.000
250.798; -110.125; -849.000; -800.000
250.940;  -65.875; -322.000; -322.000
251.083;  -31.600; -335.000; -111.000
251.225;   45.525;  338.000;  310.000
251.367;  -44.525; -274.000; -373.000
251.509;  -38.800; -265.000; -210.000
251.651;  -85.850; -731.000; -671.000
251.794;   50.475;  538.000;  632.000
251.936; -116.200; -821.000; -747.000
252.078;  -80.725; -540.000; -461.000
252.220;  -72.975; -645.000; -477.000
252.362;   88.275;  344.000;  462.000
252.504;  -64.750; -677.000; -584.000
252.646; -117.900; -875.000; -722.000
252.788;    3.075;   14.000; -128.000
252.931;  -30.000; -257.000; -253.000
253.073;  -44.300; -376.000; -317.000
253.215;   -7.350;  141.000;  122.000
253.357;  -18.600;   82.000; -153.000
253.499;  -44.800; -374.000; -234.000
253.641;  -98.200; -749.000; -594.000
253.783; -101.500; -609.000; -527.000
253.925;  -83.525; -586.000; -591.000
254.067; -122.575; -744.000; -667.000
254.209;  -30.175; -391.000; -259.000
254.351; -138.125; -865.000; -883.000
254.493;  -61.875; -441.000; -417.000
254.635; -135.675; -936.000; -818.000
254.777;  -95.350; -752.000; -687.000
254.918;  -77.225; -512.000; -430.000
255.060;  -59.675; -551.000; -395.000
255.202;  -74.100; -473.000; -261.000
255.344;  -84.375; -658.000; -455.000
255.486;  -69.450; -471.000; -406.000
255.628; -104.850; -780.000; -781.000
255.770;  -98.550; -676.000; -536.000
255.912;  -64.275; -559.000; -468.000
256.053;  -91.025; -730.000; -508.000
256.195;  166.375; 1008.000;  903.000
256.337;  -91.300; -861.000; -595.000
256.479;   60.725;  532.000;  416.000
256.621;  -47.225; -394.000; -212.000
256.762;  -87.775; -789.000; -742.000
256.904;   39.175;  485.000;  487.000
257.046;  -43.350; -381.000; -271.000
257.188;  -44.300; -351.000; -264.000
257.329;  -75.350; -525.000; -464.000
257.471; -121.225; -939.000; -807.000
257.613;  -67.125; -584.000; -498.000
257.755; -142.175;-1073.000; -982.000
257.896;   45.300;  286.000;  392.000
258.038;  -59.825; -403.000; -352.000
258.180;  -42.375; -354.000; -279.000
258.321;  -90.325; -581.000; -457.000
258.463;    2.175;  -71.000;  133.000
258.605;  -91.450; -562.000; -570.000
258.746;  -99.725; -886.000; -772.000
258.888; -151.600;-1026.000;-1020.000
259.029;   18.750;  121.000;   -8.000
259.171;  -86.700; -614.000; -550.000
259.313;    3.150;  -49.000;  -47.000
259.454;  -72.400; -536.000; -414.000
259.596;  -41.425; -483.000; -390.000
259.737;  -88.375; -590.000; -474.000
259.879;   30.200;  217.000;  311.000
260.020;   95.425;  901.000;  636.000
260.162;  -36.900; -146.000; -253.000
260.303; -108.600; -768.000; -687.000
260.445;  -91.350; -609.000; -613.000
260.586;   20.400;  392.000;  157.000
260.728;  -24.600; -360.000; -248.000
260.869;  -88.850; -350.000; -343.000
261.011;   77.400;  706.000;  537.000
261.152;  -63.875; -479.000; -319.000
261.293;  -74.475; -576.000; -595.000
261.435;  -32.600; -219.000; -184.000
261.576;  -49.625; -455.000; -325.000
261.718;   44.950;  420.000;  470.000
261.859; -129.275; -940.000; -949.000
262.000; -142.050; -951.000;-1016.000
262.142;  -30.875;  -52.000;  -60.000
262.283; -130.650; -808.000; -691.000
262.424; -100.675; -666.000; -625.000
262.566; -164.275;-1161.000; -983.000
262.707; -103.000; -840.000; -830.000
262.848; -118.300; -769.000; -726.000
262.990;  -52.975; -362.000; -345.000
263.131;   81.825;  650.000;  681.000
263.272;    0.550;  -61.000;  -41.000
263.413;  -97.125; -589.000; -561.000
263.555;  -61.900; -669.000; -143.000
263.696;  -93.025; -550.000; -641.000
263.837;  -39.375; -449.000; -551.000
263.978;  -14.575;   -5.000;  -77.000
264.119;  -41.225; -283.000; -264.000
264.261; -120.850; -847.000; -630.000
264.402;    0.300;   33.000;   40.000
264.543;  -79.325; -509.000; -524.000
264.684;   -5.825;   61.000;  -50.000
264.825;  -72.600; -816.000; -538.000
264.966;   -8.200;  -84.000;  -67.000
265.107; -102.700; -646.000; -670.000
265.248; -124.500; -825.000; -812.000
265.390;  -10.050;  152.000;   -9.000
265.531;  -12.300; -238.000; -107.000
265.672;  -95.725; -557.000; -630.000
265.813;   56.325;  563.000;  439.000
265.954; -145.150; -959.000; -940.000
266.095;   -9.725; -372.000; -322.000
266.236;  -95.150; -686.000; -548.000
266.377;  -46.325; -243.000; -297.000
266.518;  -60.675; -619.000; -547.000
266.659;   30.500;  170.000;  268.000
266.800;    4.200;   83.000;   85.000
266.941;  -75.525; -487.000; -478.000
267.082;   23.650;  354.000;   99.000
267.223;  -51.825; -344.000; -273.000
267.364; -118.450; -892.000; -686.000
267.504;  -21.450;    3.000;  135.000
267.645;    0.025;  160.000;   67.000
267.786;  -42.100; -147.000;  -86.000
267.927;  -67.125; -473.000; -379.000
268.068;   -9.700; -186.000;  -61.000
268.209;  -51.100; -175.000; -413.000
268.350;  -54.675; -388.000; -532.000
268.490;  -93.725; -648.000; -521.000
268.631;   29.275;  127.000;  225.000
268.772; -102.700; -874.000; -647.000
268.913;  -46.400; -328.000; -476.000
269.054;  -18.425; -117.000;   12.000
269.194;  -50.625; -418.000; -402.000
269.335; -153.500;-1137.000;-1074.000
269.476;  -23.800;   33.000;  -35.000
269.617;  -51.475; -347.000; -392.000
269.757;  -81.675; -713.000; -646.000
269.898; -103.450; -856.000; -613.000
270.039;  -48.975; -415.000; -405.000
270.180; -145.675; -952.000; -816.000
270.320;  -28.400; -190.000; -250.000
270.461;  -42.850; -277.000; -249.000
270.602;   -5.475; -186.000; -156.000
270.742; -126.675; -868.000; -943.000
270.883;  -50.225; -442.000; -390.000
271.023;  -59.650; -358.000; -357.000
271.164;  -67.100; -607.000; -528.000
271.305;  -93.975; -666.000; -654.000
271.445;  -87.825; -722.000; -683.000
271.586;  -65.200; -462.000; -283.000
271.726;  -39.650; -397.000; -322.000
271.867;  -63.600; -594.000; -534.000
272.008;  199.350; -473.000; -285.000
272.148;  137.625;  462.000;  468.000
272.289;   16.550; -113.000; -181.000
272.429;   27.325;   19.000;  185.000
272.570;  -69.650; -633.000; -737.000
272.710;  -93.775; -825.000; -775.000
272.851;  -26.500;  113.000; -130.000
272.991; -168.875;-1173.000;-1077.000
273.131;  -62.825; -419.000; -459.000
273.272; -104.725; -683.000; -723.000
273.412;   17.625; -143.000;  -31.000
273.553;  -54.700; -488.000; -507.000
273.693;  138.125;  913.000;  858.000
273.834;  -92.750; -894.000; -692.000
273.974;  -72.600; -664.000; -615.000
274.114;  -86.750; -772.000; -560.000
274.255;   80.600;  414.000;  373.000
274.395;    8.625; -180.000; -125.000
274.535;   41.950;  199.000;  350.000
274.676;   28.125;  225.000;   94.000
274.816;   -5.150;  110.000;   34.000
274.956;  -76.900; -624.000; -690.000
275.097;  -56.925;-1014.000; -922.000
275.237; -123.800; -913.000; -803.000
275.377;  -99.775; -778.000; -689.000
275.517; -146.250; -878.000; -937.000
275.658;  -56.750; -590.000; -555.000
275.798;  -81.300; -606.000; -413.000
275.938;   25.250;  215.000;  323.000
276.078; -102.050; -626.000; -395.000
276.218;   25.875;   99.000;  104.000
276.359; -136.150;-1026.000;-1024.000
276.499;  -65.475; -605.000; -446.000
276.639;  -32.200; -305.000; -151.000
276.779;  -38.375; -475.000; -357.000
276.919;  -97.900; -783.000; -624.000
277.059;  -10.575; -261.000; -212.000
277.199;  -54.100; -357.000; -259.000
277.340;   64.525;  287.000;  175.000
277.480; -120.250; -840.000; -693.000
277.620;   39.825;  192.000;   16.000
277.760; -216.350;-1533.000;-1294.000
277.900;   39.100;  113.000;   33.000
278.040;   11.425;  137.000;  159.000
278.180;   42.675;  270.000;  170.000
278.320;   -0.075;   21.000;   56.000
278.460;  -63.700; -443.000; -469.000
278.600;  -75.500; -708.000; -598.000
278.740;   52.925;  448.000;  224.000
278.880;  -32.500; -768.000; -791.000
279.020;    1.175; -194.000; -144.000
279.160; -108.025; -672.000; -595.000
279.300; -115.450; -926.000; -873.000
279.440;  -88.175; -709.000; -622.000
279.579;   -9.800;-1014.000; -929.000
279.719;  -49.500; -410.000; -394.000
279.859;   82.400;   -4.000;   41.000
279.999;   31.900; -208.000;  101.000
280.139;  -11.800; -435.000; -387.000
280.279;  -71.400; -708.000; -745.000
280.419;   -2.750; -229.000; -147.000
280.559;  -25.850; -259.000; -180.000
280.698;  -83.100; -790.000; -639.000
280.838;  -98.100; -778.000; -800.000
280.978;  -98.325; -846.000; -790.000
281.118; -111.575; -811.000; -704.000
281.257;   13.950;   24.000;    6.000
281.397;  -97.800;-1094.000; -960.000
281.537;  -74.600; -599.000; -712.000
281.677;  -43.250; -150.000; -101.000
281.816;  -92.925; -700.000; -630.000
281.956;  -31.075; -193.000; -257.000
282.096;  -59.550; -539.000; -396.000
282.235; -107.575; -672.000; -638.000
282.375;  -22.725; -243.000;  -98.000
282.515; -107.225; -715.000; -707.000
282.654;   35.800;   29.000;  106.000
282.794;   24.775;  388.000;  244.000
282.934;  -53.350; -530.000; -491.000
283.073; -122.475;-1030.000; -857.000
283.213;  -48.925; -460.000; -467.000
283.353;  -35.125; -408.000; -349.000
283.492;  -26.975; -264.000; -296.000
283.632;  -47.375; -254.000; -168.000
283.771;  -94.975; -859.000; -730.000
283.911;  -48.075; -369.000; -260.000
284.050; -111.150; -794.000; -748.000
284.190; -163.600;-1229.000;-1096.000
284.329; -146.225;-1055.000; -964.000
284.469;  -66.350; -516.000; -591.000
284.608;  -51.700; -559.000; -598.000
284.748;  -93.975; -614.000; -570.000
284.887;  -10.200;  -87.000;  -20.000
285.027; -128.050; -844.000; -892.000
285.166;  -21.475; -192.000; -249.000
285.306;    3.775; -116.000;  -33.000
285.445;  -37.675; -229.000; -343.000
285.584;  -97.800; -630.000; -494.000
285.724;  -34.650; -282.000; -322.000
285.863; -122.775; -857.000; -507.000
286.002;  -49.550; -366.000; -276.000
286.142; -108.950; -715.000; -622.000
286.281;  -72.475; -525.000; -493.000
286.420;  -85.900; -554.000; -417.000
286.560;  100.075;  653.000;  623.000
286.699; -152.925; -958.000; -912.000
286.838;  -90.425; -590.000; -591.000
286.978;  -79.925; -533.000; -537.000
287.117; -135.950;-1085.000; -950.000
287.256;  -30.400; -228.000; -211.000
287.395;  -39.225; -197.000; -378.000
287.535;  -43.725; -370.000; -298.000
287.674;  -76.175; -509.000; -484.000
287.813;   58.175;  661.000;  533.000
287.952; -120.025;-1010.000; -871.000
288.091; -161.325;-1049.000; -915.000
288.231;   20.675;   13.000;   15.000
288.370; -176.900;-1217.000;-1200.000
288.509;  -87.200; -728.000; -645.000
288.648;  -78.100; -770.000; -548.000
288.787;  -23.900; -243.000;  -87.000
288.926;  -53.475; -454.000; -475.000
289.065;  129.775;  859.000;  672.000
289.204;  -49.525; -377.000; -217.000
289.344;  -87.325; -791.000; -690.000
289.483;   40.475;  416.000;  304.000
289.622;  -28.100; -291.000; -149.000
289.761;  -11.625; -309.000; -166.000
289.900; -113.950; -785.000; -626.000
290.039;  -21.825;  -12.000;  -95.000
290.178;  -30.400; -274.000; -180.000
290.317;  -71.650; -618.000; -479.000
290.456;  -56.775; -463.000; -451.000
290.595; -141.400; -961.000; -833.000
290.734; -135.600; -904.000; -891.000
290.873;  -63.325; -456.000; -420.000
291.011; -106.075; -833.000; -843.000
291.150;  -99.425; -770.000; -682.000
291.289;  -26.575; -343.000; -110.000
291.428;  -89.100; -599.000; -480.000
291.567;  -48.100; -370.000; -442.000
291.706;   -2.150;  109.000;  154.000
291.845;  -79.475; -597.000; -505.000
291.984; -159.250;-1234.000;-1061.000
292.122;   65.950;  602.000;  582.000
292.261;   53.150;  620.000;  463.000
292.400;    2.975; -144.000;  211.000
292.539; -113.125; -959.000; -813.000
292.678;  -13.450; -325.000; -300.000
292.816; -151.075;-1136.000; -965.000
292.955;  -85.350; -844.000; -684.000
293.094;  -21.450; -173.000; -337.000
293.233;  -50.400; -556.000; -400.000
293.371;  -44.975; -225.000;  -84.000
293.510; -113.575; -866.000; -780.000
293.649; -130.725; -959.000; -924.000
293.787;  -40.075;-1083.000;-1012.000
293.926;  -19.175; -113.000;  -32.000
294.065;  -34.000; -379.000; -290.000
294.203;   54.000;  298.000;  406.000
294.342;   29.175;   74.000;  156.000
294.481; 5369.000;51180.000; -836.000
294.619;  -31.900; -425.000; -582.000
294.758; -144.550;-1230.000;-1137.000
294.896;   94.600; -125.000;    5.000
295.035; -107.525;-1040.000;-1006.000
295.174; -108.225;-1082.000; -954.000
295.312;  -32.650; -323.000; -203.000
295.451;   16.700; -307.000; -428.000
295.589;  -56.300; -389.000; -518.000
295.728;   25.375; -292.000; -165.000
295.866;   -1.725;  -36.000;  -51.000
296.005;  -56.300; -584.000; -341.000
296.143;  -74.025; -558.000; -596.000
296.282;  -93.850; -957.000; -881.000
296.420;  -88.700; -657.000; -557.000
296.559;  -78.500; -892.000; -633.000
296.697;   44.900; -847.000; -665.000
296.835;  116.075;-1141.000;-1002.000
296.974;   54.125;  -23.000;   39.000
297.112;   22.500; -443.000; -504.000
297.251;  -82.150; -815.000; -755.000
297.389;  140.825; -576.000; -438.000
297.527;   52.475; -145.000;  -83.000
297.666;  -40.775; -486.000; -438.000
297.804;  -28.250; -404.000; -264.000
297.942;   -4.375; -136.000; -161.000
298.081;   -8.800; -183.000;   63.000
298.219;   80.350;  -17.000;  -19.000
298.357;   78.225; -144.000;  -71.000
298.495;   61.250; -810.000; -812.000
298.634;   90.500;  245.000;  219.000
298.772;   73.800; -220.000; -338.000
298.910;  -43.350; -309.000; -182.000
299.048;   11.625; -130.000; -153.000
299.187;  -35.025; -350.000; -250.000
299.325;    9.400;   52.000;  122.000
299.463;   77.675; -389.000; -299.000
299.601;  145.750; -327.000; -271.000
299.739;  -94.275; -908.000; -883.000
299.877;  -73.850; -791.000; -703.000
300.016;  -36.450;-1095.000; -935.000
300.154;  187.925;  -19.000; -161.000
300.292;   88.050; -428.000; -348.000
300.430;   46.825; -408.000; -291.000
300.568;  -99.100; -940.000; -874.000
300.706;  -57.650; -366.000; -469.000
300.844;  -70.050;-1108.000; -979.000
300.982;  146.175;  246.000;  282.000
301.120; -116.150; -965.000; -866.000
301.258;  -59.725; -812.000; -705.000
301.396;   51.325;  104.000;  -41.000
301.534;  120.875; -218.000; -293.000
301.672;   19.725; -664.000; -521.000
301.810;   71.050; -613.000; -545.000
301.948;  145.525;   53.000;  149.000
302.086;  707.600; -250.000;  -32.000
302.224; 1119.550; -610.000; -585.000
302.362;   65.725; -558.000; -622.000
302.500;   -5.725; -923.000; -893.000
302.638;  138.400;  128.000;  245.000
302.776;    8.050; -352.000; -408.000
302.913;   51.150;  447.000;  236.000
303.051;   -7.825;  -86.000;  -23.000
303.189;   59.725;   90.000;  118.000
303.327;  -39.075; -341.000; -256.000
303.465;  -70.550; -832.000; -588.000
303.603;  -88.050; -805.000; -604.000
303.740;  103.825;  417.000;  241.000
303.878;   50.650; -800.000; -759.000
304.016;  -69.700; -915.000; -790.000
304.154; -125.975;-1123.000;-1152.000
304.291;  -28.250; -505.000; -554.000
304.429;    7.475;  102.000;   74.000
304.567; -123.700; -908.000; -893.000
304.705;  -54.075; -408.000; -515.000
304.842;  138.700; -616.000; -540.000
304.980;   74.075;  215.000;   35.000
305.118;   68.050; -367.000; -365.000
305.255;  -56.675; -945.000; -927.000
305.393;   65.725;  178.000;  239.000
305.531; -101.200;-1173.000; -956.000
305.668;  -55.675; -663.000; -582.000
305.806;  112.000; -358.000; -439.000
305.943;  137.500; -629.000; -637.000
306.081;   54.500; -378.000; -267.000
306.219; -104.500; -863.000; -748.000
306.356;    2.450;  158.000;   27.000
306.494;  113.850;  981.000;  761.000
306.631;    6.150;  -11.000;  -55.000
306.769;   12.075; -613.000; -485.000
306.906;   -1.775; -284.000; -258.000
307.044;  -63.325; -473.000; -488.000
307.181;  -53.375; -410.000; -332.000
307.319;    9.875;  112.000;   87.000
307.456; -177.750;-1191.000;-1153.000
307.594;  -93.700; -980.000; -727.000
307.731;   -4.650; -371.000; -164.000
307.868;   -3.600;  -15.000;   20.000
308.006; -136.650; -961.000; -847.000
308.143;  -72.200; -618.000; -330.000
308.281;  161.450;  -37.000; -254.000
308.418;   -3.825; -748.000; -640.000
308.555;  -62.325; -400.000; -250.000
308.693;  -74.375; -577.000; -573.000
308.830; -108.750; -712.000; -657.000
308.967;  -11.025; -215.000;  -95.000
309.105;  -51.600; -507.000; -396.000
309.242;   26.775; -468.000; -367.000
309.379;  296.025; -577.000; -655.000
309.517;  -60.675; -936.000; -948.000
309.654; -100.325; -910.000; -734.000
309.791;  -58.450; -662.000; -580.000
309.928; -112.350; -977.000; -914.000
310.065;  194.750;  819.000;  697.000
310.203;   21.025; -825.000; -850.000
310.340;    0.025; -465.000; -321.000
310.477;  -75.050; -412.000; -516.000
310.614;  -64.700; -383.000; -473.000
310.751;  -82.550; -427.000; -518.000
310.889;  -21.025;    1.000;   11.000
311.026; -149.725;-1161.000; -939.000
311.163;  -47.025; -386.000; -380.000
311.300;  -70.375; -512.000; -479.000
311.437;  -66.200; -658.000; -619.000
311.574; -151.500;-1226.000; -985.000
311.711;  -49.300; -595.000; -433.000
311.848;  -29.900; -380.000; -388.000
311.985;   30.775;  270.000;   93.000
312.122; -120.950; -932.000; -762.000
312.259; -118.000; -941.000; -994.000
312.396;  -70.825; -508.000; -551.000
312.533;  -95.300; -812.000; -790.000
312.670; -121.075;-1070.000; -898.000
312.807;  -28.150; -352.000; -367.000
312.944;  -71.000; -513.000; -611.000
313.081;  -16.600; -150.000; -415.000
313.218;  -99.000;-1111.000; -867.000
313.355;   30.650; -531.000; -449.000
313.492;   19.275; -455.000; -292.000
313.629;  152.050;  815.000;  735.000
313.766; -156.000;-1176.000;-1008.000
313.902;  -12.450; -186.000;   21.000
314.039;  -44.400; -372.000; -289.000
314.176;   43.350;  286.000;  192.000
314.313;  -67.775; -569.000; -473.000
314.450;  -67.750; -788.000; -684.000
314.587;  -55.650; -468.000; -480.000
314.723;   12.800;  -78.000;  130.000
314.860;   32.225;  318.000;  332.000
314.997;   39.450;  223.000;  142.000
315.134;  -41.775; -385.000; -368.000
315.270;  -23.225; -480.000; -496.000
315.407; -128.875;-1094.000; -967.000
315.544;  -34.125; -657.000; -538.000
315.681;  -59.750; -681.000; -565.000
315.817;   49.850; -133.000; -176.000
315.954;   46.025; -613.000; -392.000
316.091; -114.250;-1045.000;-1023.000
316.227;  -23.575;  -71.000; -179.000
316.364;    5.125;   23.000;    6.000
316.500;  -16.550; -113.000; -300.000
316.637;  -31.475; -181.000; -302.000
316.774;  -75.025; -625.000; -358.000
316.910;  -87.200; -598.000; -629.000
317.047;  -64.525; -487.000; -351.000
317.183;  -35.375; -435.000; -566.000
317.320;  -30.900; -367.000; -321.000
317.456;  -74.575; -733.000; -805.000
317.593;  -92.975; -598.000; -641.000
317.729;    3.300;  168.000;  -67.000
317.866; -200.150;-1434.000;-1285.000
318.002;  -77.325; -708.000; -948.000
318.139;  -80.200; -883.000; -867.000
318.275;  -94.075;-1003.000; -738.000
318.412;  -66.600; -517.000; -336.000
318.548;  -25.475; -751.000; -720.000
318.685;  -88.350; -985.000; -888.000
318.821;  -90.300; -762.000; -735.000
318.957;  -17.125;   34.000;  -23.000
319.094;   28.925;  297.000;  154.000
319.230;  -47.650; -756.000; -742.000
319.367;  180.375; -471.000; -520.000
319.503;   77.125; -538.000; -436.000
319.639;  -90.675; -877.000; -793.000
319.775;  -60.275; -750.000; -685.000
319.912;  -51.175; -424.000; -519.000
320.048;  -81.375;-1184.000;-1184.000
320.184;   74.775;   59.000;   70.000
320.321;  -60.325; -497.000; -467.000
320.457;   78.925;  475.000;  662.000
320.593;  -62.475; -375.000; -382.000
320.729;  -99.975; -732.000; -734.000
320.866;  -68.550; -577.000; -635.000
321.002;  -90.075; -759.000; -809.000
321.138;    4.575; -135.000; -211.000
321.274;   76.150; -148.000; -115.000
321.410;  -10.400; -585.000; -353.000
321.546;   -6.200;-1011.000; -911.000
321.683;   64.550;  400.000;  185.000
321.819;   22.425;  -48.000; -117.000
321.955; -101.075; -743.000; -722.000
322.091;  -35.800; -585.000; -540.000
322.227;   -6.275; -382.000; -202.000
322.363;  -25.025; -320.000; -215.000
322.499;  -31.875; -343.000; -331.000
322.635;  188.450;  636.000;  443.000
322.771;   43.375; -139.000;   12.000
322.907;  110.475;  129.000;  327.000
323.043;  -11.125; -115.000; -206.000
323.179;  -32.825; -394.000; -363.000
323.315;   46.425; -401.000; -371.000
323.451;  130.975; -328.000; -236.000
323.587;   65.975;  -60.000;  -77.000
323.723;   40.825; -682.000; -601.000
323.859;  -14.350; -258.000;  -76.000
323.995;  -21.725; -467.000; -409.000
324.131; -117.775; -967.000; -892.000
324.267;  -31.125; -254.000; -276.000
324.402; -133.700; -960.000; -983.000
324.538;    1.000; -279.000; -104.000
324.674;   20.575;  164.000;   77.000
324.810;  176.250;  226.000;  308.000
324.946;   23.450; -810.000; -658.000
325.082;  -57.325; -568.000; -475.000
325.217;   -8.625;  -62.000;   16.000
325.353; -101.075; -764.000; -659.000
325.489;  -92.300; -540.000; -506.000
325.625;  -63.050; -579.000; -525.000
325.760;   66.675;  517.000;  376.000
325.896;  -31.175; -515.000; -702.000
326.032;  -50.100; -403.000; -352.000
326.168;  -61.675; -462.000; -369.000
326.303;  -64.575; -352.000; -461.000
326.439;  -19.075; -336.000; -276.000
326.575;    3.475; -190.000;  -29.000
326.710;   -4.775; -156.000;  -30.000
326.846;   -6.200;  146.000;  103.000
326.982;  -94.375; -530.000; -548.000
327.117;  -62.825; -481.000; -442.000
327.253;  -91.750; -745.000; -742.000
327.388; -159.450;-1137.000;-1153.000
327.524;  -34.900; -811.000; -578.000
327.659;  -23.525;  -58.000;  -22.000
327.795;  -10.825;   69.000;   45.000
327.931;  -89.325; -723.000; -499.000
328.066;  -12.525; -417.000; -276.000
328.202;  -20.900;   12.000; -129.000
328.337;   95.950;  957.000;  713.000
328.473;   41.350;  -12.000;  -74.000
328.608;  -17.400; -256.000; -267.000
328.743;  -67.375; -799.000; -664.000
328.879;   21.800;  214.000;  114.000
329.014;  -29.775; -102.000; -122.000
329.150;  -79.225; -358.000; -483.000
329.285;  -74.325; -465.000; -466.000
329.421;  -54.100; -548.000; -246.000
329.556;  -21.975;  -36.000;   85.000
329.691;  -85.025; -633.000; -615.000
329.827;  -87.150; -626.000; -480.000
329.962;  -40.225;  131.000; -301.000
330.097;  -90.125; -673.000; -585.000
330.233;  -58.225; -410.000; -223.000
330.368; -128.550; -839.000; -628.000
330.503;   -0.250;    3.000;   98.000
330.638;    9.800;  -93.000; -125.000
330.774;  -40.150; -609.000; -530.000
330.909;  -39.900; -434.000; -244.000
331.044;  -97.675; -714.000; -708.000
331.179; -175.900;-1217.000;-1109.000
331.315;   18.450;   77.000;   20.000
331.450;   20.150;  157.000;  285.000
331.585;  -87.325; -805.000; -706.000
331.720;  -90.050; -510.000; -460.000
331.855;   -5.625;  -35.000; -102.000
331.990;  209.950;   62.000;  138.000
332.126;  103.175; -110.000;   71.000
332.261;  -23.300; -379.000; -265.000
332.396;   -0.050; -135.000; -242.000
332.531; -117.075;-1074.000;-1031.000
332.666;   27.425; -519.000; -363.000
332.801;  -93.475; -726.000; -807.000
332.936;  -20.075; -192.000; -122.000
333.071; -129.625; -870.000; -817.000
333.206;   21.700;  307.000;  379.000
333.341;   39.050;  344.000;  418.000
333.476;  -93.650; -627.000; -623.000
333.611;  -41.300; -251.000; -173.000
333.746;  -38.125; -381.000; -464.000
333.881;  -98.575; -973.000; -935.000
334.016; -107.450; -936.000; -917.000
334.151; -121.375; -746.000; -702.000
334.286;   42.875;  152.000;  186.000
334.421;   -5.300; -125.000; -178.000
334.556;  -70.700; -611.000; -567.000
334.690;  -83.075; -631.000; -577.000
334.825;   79.650;  381.000;   83.000
334.960;  -49.900; -285.000; -413.000
335.095;   24.000;  135.000;  -91.000
335.230;  -84.450; -722.000; -738.000
335.365; -126.925;-1084.000; -990.000
335.499; -118.875;-1108.000;-1037.000
335.634;   43.550;    9.000;  534.000
335.769;  -89.450; -755.000; -720.000
335.904;  -29.225; -603.000; -561.000
336.038;  -56.025; -735.000; -657.000
336.173;  -87.150;-1206.000;-1194.000
336.308;   18.750; -116.000; -189.000
336.443;   30.600; -544.000; -634.000
336.577;  -55.175; -936.000; -787.000
336.712;   84.250;   -4.000;  -12.000
336.847;   -8.800; -724.000; -607.000
336.981;  105.975; -272.000; -208.000
337.116;  335.775;  615.000;  501.000
337.250;  206.325; -434.000; -421.000
337.385;  218.625; -297.000; -208.000
337.520;   48.300; -632.000; -603.000
337.654;  -37.425; -215.000; -126.000
337.789; -135.225; -989.000; -933.000
337.923;  -24.125; -104.000; -205.000
338.058;  -86.250; -673.000; -738.000
338.192;  -19.575; -611.000; -488.000
338.327;   -2.050;  -18.000; -155.000
338.461;  -63.450; -299.000; -469.000
338.596;  -84.925; -780.000; -638.000
338.730;  -96.450; -767.000; -803.000
338.865;   83.825;  -46.000; -140.000
338.999;  -58.150; -846.000; -702.000
339.134;  -33.525; -634.000; -536.000
339.268;   28.000; -741.000; -603.000
339.403;  312.100; -740.000; -775.000
339.537;   86.800; -894.000; -820.000
339.671; -120.875; -829.000; -813.000
339.806;  -63.175; -556.000; -512.000
339.940;   16.225; -261.000; -235.000
340.074;  -95.250; -685.000; -510.000
340.209;  -36.550; -351.000; -230.000
340.343;  -94.375; -517.000; -573.000
340.477;  152.950;  998.000; 1036.000
340.612;  -74.825;-1033.000; -900.000
340.746;  108.675; -199.000; -243.000
340.880;  -72.250; -924.000; -785.000
341.014;  -12.850;  -45.000; -154.000
341.149; -105.575; -756.000; -718.000
341.283;  -92.400; -839.000; -754.000
341.417;  -85.575;-1124.000; -938.000
341.551;  202.875; -768.000; -708.000
341.685;  -18.325; -633.000; -611.000
341.820;  -55.750; -562.000; -493.000
341.954;  -46.650; -218.000; -349.000
342.088; -154.250;-1102.000;-1019.000
342.222;   60.000;  565.000;  618.000
342.356;  -57.325; -395.000; -335.000
342.490;  -81.050; -880.000; -841.000
342.624;  -30.300; -339.000; -242.000
342.758;   19.850; -364.000; -312.000
342.892;  -49.350; -710.000; -585.000
343.026;  -40.850;  -58.000; -116.000
343.160;  -53.750; -426.000; -376.000
343.294;  -89.025; -474.000; -337.000
343.428;   -5.075; -488.000; -448.000
343.562;  -12.150; -172.000;  -23.000
343.696;  -19.225; -385.000; -314.000
343.830;    1.275; -362.000; -356.000
343.964;   22.300; -231.000; -168.000
344.098; 1100.025;  199.000;   70.000
344.232;  926.725; -266.000; -127.000
344.366;   93.350; -567.000; -453.000
344.500;   95.425; -665.000; -744.000
344.634;   51.450; -324.000; -164.000
344.768;   15.550; -531.000; -341.000
344.902;   14.200;  278.000;  256.000
345.035;  -59.800; -556.000; -496.000
345.169; -127.925; -933.000; -656.000
345.303;  -37.600; -308.000; -482.000
345.437;  -62.525; -826.000; -717.000
345.571;  -79.575; -675.000; -594.000
345.704;  -60.400; -309.000; -532.000
345.838;   -5.925; -331.000; -284.000
345.972;  -17.075; -543.000; -495.000
346.106;  141.075; -179.000; -190.000
346.239;  445.150; -312.000; -243.000
346.373;   18.300; -343.000; -302.000
346.507; -147.675; -950.000; -962.000
346.640;  189.375;  -30.000;   13.000
346.774;  -24.275; -650.000; -797.000
346.908;   -1.025; -138.000;  -11.000
347.041; -102.375; -646.000; -593.000
347.175;    7.525;  259.000;   27.000
347.309;  -57.025; -698.000; -628.000
347.442;  -94.775; -883.000; -732.000
347.576;  327.200;  670.000;  668.000
347.709;  261.775; -123.000;  -52.000
347.843;  -75.000; -933.000; -825.000
347.976;   29.025;  235.000;  294.000
348.110; -179.500;-1268.000;-1186.000
348.243; -102.875; -679.000; -772.000
348.377;    8.700;  -26.000;   60.000
348.510;   50.775;  403.000;  540.000
348.644;  -25.075;  -37.000; -159.000
348.777;   13.225;  180.000;  191.000
348.911;  -39.225; -142.000; -112.000
349.044;  195.100;  471.000;  448.000
349.178;  207.800;-1069.000;-1006.000
349.311;  105.300;  141.000;  255.000
349.444;   -5.775; -927.000; -813.000
349.578;  -15.600; -347.000; -200.000
349.711;  -90.550; -959.000; -862.000
349.845;   36.275; -661.000; -591.000
349.978; -131.525;-1224.000;-1137.000
350.111;  -75.075; -546.000; -612.000
350.244;  -71.675; -596.000; -700.000
350.378;   22.125; -392.000; -393.000
350.511;  -76.000; -393.000; -426.000
350.644; -106.075; -808.000; -806.000
350.778;   -0.700;  168.000;  104.000
350.911;   13.700;  134.000;  140.000
351.044;  -81.050; -685.000; -615.000
351.177;  -25.250; -321.000; -281.000
351.310;  -12.550;    3.000; -131.000
351.444;  -65.800; -888.000; -788.000
351.577;  160.625;  140.000;   90.000
351.710;  113.000;  593.000;  417.000
351.843;  -34.825; -165.000;  -77.000
351.976;    4.150;  149.000;  -79.000
352.109;  -86.400; -621.000; -612.000
352.242;   -5.600; -464.000; -419.000
352.376;  -51.050; -580.000; -636.000
352.509;  242.625; -437.000; -356.000
352.642;   56.825; -654.000; -604.000
352.775;   80.275; -141.000;  -98.000
352.908; -114.000; -933.000; -904.000
353.041;  -99.250; -814.000; -824.000
353.174;  -65.675; -551.000; -424.000
353.307;  -82.875; -753.000; -764.000
353.440;   87.000;  541.000;  453.000
353.573;  -97.575; -957.000;-1008.000
353.706;   -2.450; -384.000; -558.000
353.839;    1.225; -264.000; -220.000
353.971;  -66.250; -657.000; -512.000
354.104;  -78.175; -896.000; -835.000
354.237;  -28.275; -627.000; -662.000
354.370;  -68.175; -846.000; -879.000
354.503; -179.350;-1231.000;-1308.000
354.636;  -32.675; -529.000; -348.000
354.769; -120.250; -937.000; -860.000
354.902;    5.100; -230.000; -139.000
355.034;  -13.625; -164.000; -220.000
355.167;   -7.500; -262.000; -162.000
355.300;  -86.325;-1061.000; -880.000
355.433;  905.500;  -71.000;  -14.000
355.565; 1290.750; -402.000; -384.000
355.698;  366.350; -356.000; -296.000
355.831;   14.650; -882.000; -801.000
355.964;  113.650; -285.000; -170.000
356.096;  -63.875; -856.000; -843.000
356.229;   24.350; -523.000; -530.000
356.362;  282.125; -373.000; -266.000
356.494;  542.375; -229.000; -162.000
356.627;  558.750;  269.000;  377.000
356.760;  640.000;  120.000;   53.000
356.892;  842.700; -286.000; -601.000
357.025;  787.650;  403.000;  389.000
357.157;  725.275; -167.000; -179.000
357.290;  549.500; -856.000; -713.000
357.423;  168.600; -667.000; -556.000
357.555;  147.825; -217.000; -228.000
357.688;  169.550; -483.000; -364.000
357.820;  537.875; -870.000; -877.000
357.953; 4167.525; -563.000; -589.000
358.085;  963.925; -632.000; -612.000
358.218; 1533.500;-1131.000; -932.000
358.350;  267.800;  -58.000;  312.000
358.483; -101.475;-1300.000;-1187.000
358.615;   25.400;-1182.000;-1078.000
358.747;  -31.225;-1187.000;-1058.000
358.880;   50.525; -810.000; -744.000
359.012;   11.450; -376.000; -202.000
359.145;  -27.425; -480.000; -511.000
359.277;   94.450; -962.000; -913.000
359.409; 3520.525;  536.000;  231.000
359.542;  911.675; -738.000; -688.000
359.674;   92.250;   46.000;   13.000
359.806;  -70.300; -565.000; -438.000
359.939;  -66.475; -617.000; -516.000
360.071;  -23.250; -583.000; -579.000
360.203;   -7.475; -411.000; -364.000
360.335;   59.875;  164.000;  -16.000
360.468;  221.875; -249.000; -307.000
360.600; 2701.725; -547.000; -454.000
360.732; 2459.100; -546.000; -423.000
360.864;  345.325;-1216.000;-1044.000
360.996;  386.900; -516.000; -554.000
361.129;   72.850; -389.000; -598.000
361.261;   29.700;  110.000; -113.000
361.393;  -27.975; -252.000; -214.000
361.525;   30.125;   94.000;  244.000
361.657;  -24.800; -821.000; -703.000
361.789;   17.975; -139.000; -155.000
361.921;  321.975; -642.000; -593.000
362.053;  317.525;  524.000;  541.000
362.185;   68.000;  288.000;   72.000
362.318;  -54.950; -709.000; -705.000
362.450;  167.125;  294.000;  444.000
362.582;  220.775; -913.000; -870.000
362.714;  -18.100; -353.000; -332.000
362.846;  -79.325; -606.000; -490.000
362.978; -134.925; -941.000; -811.000
363.109;   89.600; -161.000; -260.000
363.241;  548.575; -739.000; -749.000
363.373;  393.800; -649.000; -564.000
363.505;  565.475; -186.000;  -91.000
363.637;  150.700; -787.000; -601.000
363.769; -124.725;-1067.000;-1080.000
363.901;  -63.650; -596.000; -654.000
364.033; -101.675;-1103.000;-1062.000
364.165;   13.850; -283.000; -283.000
364.296;   74.800; -316.000; -177.000
364.428;   51.200;-1344.000;-1220.000
364.560;  -82.425; -679.000; -661.000
364.692;  -56.175; -738.000; -835.000
364.824;  365.175; -588.000; -456.000
364.955;  447.250; -402.000; -564.000
365.087;  715.550;-1097.000; -852.000
365.219;    3.550; -686.000; -816.000
365.351;  -75.425; -526.000; -572.000
365.482;   59.950;  300.000;  240.000
365.614;  -32.375; -402.000; -314.000
365.746;  -95.825; -729.000; -752.000
365.877; -102.875; -706.000; -672.000
366.009;  215.475;  -35.000;  -62.000
366.141; -123.775;-1249.000;-1134.000
366.272; -101.500; -803.000; -719.000
366.404; -106.600;-1005.000; -874.000
366.535;  -16.600; -139.000;  -12.000
366.667;  -93.150; -644.000; -649.000
366.799;   45.650;  353.000;  203.000
366.930; -103.800; -862.000; -996.000
367.062;  114.650; -639.000; -613.000
367.193;   95.625; -872.000; -842.000
367.325;  -52.150; -580.000; -684.000
367.456;   97.200; -246.000;   31.000
367.588;  146.750; -371.000; -318.000
367.719;   34.200;  -44.000;  -45.000
367.851;    0.250; -222.000; -241.000
367.982;  -30.450; -875.000; -732.000
368.113;  164.300; -475.000; -358.000
368.245; -110.950; -960.000; -841.000
368.376;  -18.475; -254.000; -302.000
368.508;  -27.450; -188.000; -263.000
368.639; -120.725;-1166.000;-1034.000
368.770;    2.600; -670.000; -589.000
368.902;  -37.575; -836.000; -926.000
369.033; -114.775; -906.000; -855.000
369.164;  -53.650; -720.000; -653.000
369.296; -100.900; -452.000; -601.000
369.427;    8.550; -209.000; -144.000
369.558;  -43.525; -593.000; -377.000
369.689;  -89.575; -721.000; -569.000
369.821; -123.675; -951.000; -845.000
369.952;   -4.025;   42.000; -108.000
370.083;  -37.600; -229.000; -108.000
370.214;  -74.825; -735.000; -650.000
370.345;    3.025;   65.000;   81.000
370.477;  -64.350; -810.000; -790.000
370.608;  305.775; -328.000; -264.000
370.739;  -24.425;-1233.000;-1292.000
370.870;  -19.575;-1102.000; -923.000
371.001;  130.175; -378.000; -467.000
371.132;  -56.875; -754.000; -735.000
371.263;  -18.100;  -42.000; -148.000
371.394; -129.125; -841.000; -748.000
371.525;   31.100;  345.000;  225.000
371.657;  -80.250; -808.000; -670.000
371.788;   88.150;  103.000;  199.000
371.919;  215.325; -384.000; -304.000
372.050; 4319.525;  -91.000; -156.000
372.181; 1282.600; -188.000; -294.000
372.311;  464.000;   42.000; -127.000
372.442;   58.950; -457.000; -451.000
372.573;  -10.850; -444.000; -340.000
372.704;  -93.700;-1008.000; -980.000
372.835;  116.825; -228.000; -289.000
372.966;  -45.600; -646.000; -554.000
373.097;  -59.825; -575.000; -711.000
373.228;  -16.625; -717.000; -542.000
373.359;  199.125; -824.000; -536.000
373.490; 1175.225; -881.000; -727.000
373.620; 1463.775;-1001.000; -803.000
373.751; 2198.150; -332.000; -396.000
373.882;  999.375; -663.000; -733.000
374.013;   97.175; -449.000; -262.000
374.143;  -29.250; -581.000; -659.000
374.274;  -87.625; -987.000; -908.000
374.405;  213.250; -388.000; -276.000
374.536;  567.875; -526.000; -387.000
374.666; 1409.850; -759.000; -807.000
374.797;  310.950; -817.000; -868.000
374.928; 1103.400; -710.000; -560.000
375.058; 1091.175; -535.000; -500.000
375.189;   95.500;  -59.000;  -93.000
375.320;  -93.550; -928.000;-1034.000
375.450;  -19.375; -625.000; -616.000
375.581;  -41.375; -526.000; -436.000
375.712;  -23.150; -574.000; -250.000
375.842;  389.075; -438.000; -415.000
375.973;  290.400; -554.000; -513.000
376.103;  -10.825; -665.000; -648.000
376.234;  -56.200; -531.000; -552.000
376.364;   -2.625; -944.000; -867.000
376.495;  374.875;  925.000;  529.000
376.625;   32.200; -472.000; -485.000
376.756;   94.575; -709.000; -678.000
376.886;  -61.175;-1178.000;-1026.000
377.017;   28.825;-1048.000;-1061.000
377.147;  291.225; -786.000; -782.000
377.278;   60.600;  174.000;  228.000
377.408; -134.650; -801.000; -815.000
377.538;  -79.350; -707.000; -693.000
377.669;  -73.525; -537.000; -613.000
377.799;  -83.950; -645.000; -635.000
377.929;  -47.550; -610.000; -428.000
378.060; -111.975; -781.000; -847.000
378.190;  -58.375; -726.000; -531.000
378.320;  -49.975; -401.000; -406.000
378.451;  -13.050; -131.000;  -22.000
378.581;   -7.825;  -67.000; -110.000
378.711;  178.025; 1035.000;  866.000
378.841;    1.300; -533.000; -675.000
378.972;  -55.600; -871.000; -751.000
379.102;   20.250; -652.000; -579.000
379.232;   -9.650; -126.000;  -73.000
379.362;  -97.275;-1001.000; -885.000
379.492;   23.475; -373.000; -424.000
379.623;  119.825;    0.000;  111.000
379.753;  -87.975;-1107.000; -974.000
379.883;  239.500;   59.000;  156.000
380.013;   49.075;-1081.000;-1017.000
380.143;  -78.450;-1097.000;-1056.000
380.273;  -84.100; -985.000; -861.000
380.403;   25.450; -344.000; -257.000
380.533;   -0.750; -651.000; -664.000
380.663;  101.525;  173.000;  128.000
380.793;  -78.225;-1027.000;-1074.000
380.923;   -4.525; -103.000;  -34.000
381.053;  -93.050; -613.000; -623.000
381.183;  -14.850; -106.000; -248.000
381.313;   76.300; -656.000; -470.000
381.443;   77.025; -692.000; -473.000
381.573;  265.525; -402.000; -409.000
381.703;  400.425;-1249.000;-1095.000
381.833; -110.600;-1454.000;-1336.000
381.963;  129.300; -134.000;  -87.000
382.093; 1662.175; -925.000; -909.000
382.223;  529.700; -713.000; -602.000
382.353;   19.400; -801.000; -608.000
382.482;  525.650;-1091.000; -964.000
382.612;  930.125; -872.000; -644.000
382.742;  523.100; -695.000; -622.000
382.872;  362.475; -565.000; -551.000
383.002;  101.200;  347.000; -132.000
383.131;   -7.075; -226.000; -160.000
383.261;  -22.400; -706.000; -768.000
383.391;  304.125; -552.000; -377.000
383.521; 2745.300;  451.000;  263.000
383.650;  594.450; -947.000; -904.000
383.780;  -18.550; -783.000; -656.000
383.910;  107.250;  880.000;  802.000
384.039;   59.300; -794.000; -656.000
384.169;  296.650;-1205.000;-1017.000
384.299;    8.800; -650.000; -662.000
384.428;  -58.850; -764.000; -680.000
384.558;  -27.650; -308.000; -275.000
384.687;  -14.650; -414.000; -334.000
384.817;   34.800;   75.000;   -2.000
384.947;   50.925; -234.000; -141.000
385.076;  346.675;  982.000;  912.000
385.206;  106.875;  369.000;  480.000
385.335;   -6.250; -549.000; -417.000
385.465;  -71.300; -655.000; -663.000
385.594;  174.575;  -53.000;  -44.000
385.724;  578.800; -868.000; -838.000
385.853;  165.750; -296.000; -270.000
385.982; 1693.600; -743.000; -787.000
386.112; 2663.150;-1052.000; -871.000
386.241;  180.550; -307.000; -312.000
386.371;   43.650; -174.000;  -87.000
386.500;   18.325; -825.000; -789.000
386.629;   47.350; -874.000; -817.000
386.759;   77.775;  -43.000;   68.000
386.888;   16.125; -170.000; -250.000
387.017;  -48.325; -648.000; -620.000
387.147;  -57.175; -771.000; -798.000
387.276;   25.275; -410.000; -397.000
387.405;   35.875; -398.000; -342.000
387.535;  -34.225; -452.000; -361.000
387.664;  -48.275; -692.000; -620.000
387.793;   90.550; -198.000; -113.000
387.922;  659.050;  255.000;  200.000
388.052;   61.000; -576.000; -423.000
388.181;   65.700; -342.000; -472.000
388.310;   56.100; -889.000; -710.000
388.439;  -14.275; -749.000; -742.000
388.568;  237.675;  365.000;  244.000
388.697; 1299.325; -756.000; -653.000
388.826;  287.000; -768.000; -666.000
388.956;  100.325; -285.000; -307.000
389.085;  -24.425; -347.000; -287.000
389.214; -103.725; -842.000; -872.000
389.343;  -53.700; -645.000; -413.000
389.472;  386.225;  126.000;  149.000
389.601;  513.050;   91.000;    0.000
389.730;   50.025; -568.000; -687.000
389.859;   78.250;  226.000;   46.000
389.988;  245.325; -423.000; -408.000
390.117;  184.175; -168.000; -146.000
390.246;   17.925; -331.000; -320.000
390.375;  167.925; -673.000; -626.000
390.504;  -40.725; -703.000; -621.000
390.633;  -94.700; -672.000; -726.000
390.761;  -42.200; -732.000; -645.000
390.890;   49.750;   -4.000; -130.000
391.019;   -6.125; -421.000; -441.000
391.148; -125.375; -826.000; -855.000
391.277;  -54.700; -576.000; -493.000
391.406;  -56.750; -821.000; -805.000
391.534;   29.400;  574.000; -301.000
391.663;  -49.300; -583.000; -645.000
391.792;  -67.075; -673.000; -701.000
391.921;  163.425;   -3.000;   15.000
392.050;  271.750; -287.000; -228.000
392.178;    3.700;-1206.000;-1061.000
392.307;  219.725; -758.000; -712.000
392.436;  119.950; -427.000; -641.000
392.564;   45.250;  166.000;   -6.000
392.693;  -81.500; -860.000; -682.000
392.822;  294.950; -529.000; -534.000
392.950;  158.775; -880.000; -714.000
393.079;  435.650; -188.000; -328.000
393.208;   50.825; -488.000; -511.000
393.336;   -2.975; -170.000; -145.000
393.465;  -59.950; -317.000; -199.000
393.593;   -2.500;   62.000;   79.000
393.722; -153.150;-1121.000; -916.000
393.850;  -40.600; -188.000;  -61.000
393.979; -145.350; -926.000; -805.000
394.107;  -54.975; -517.000; -537.000
394.236;  -20.350; -570.000; -507.000
394.364;  236.200;  383.000;  206.000
394.493;  333.675; -911.000; -767.000
394.621;  -10.900; -955.000; -916.000
394.750;  617.100; -873.000; -923.000
394.878; 2656.775; -247.000; -149.000
395.007; 3553.100; -721.000; -807.000
395.135;  261.325; -790.000; -721.000
395.263;  -86.925;-1038.000;-1040.000
395.392;    6.775;  -25.000; -107.000
395.520; -144.700; -818.000; -679.000
395.648;  -77.175; -865.000; -915.000
395.777;   -2.750; -366.000; -405.000
395.905;  -46.425; -449.000; -564.000
396.033;    0.150;  217.000;  172.000
396.162;  576.175; -399.000; -453.000
396.290;  512.975;  -17.000;   -2.000
396.418;  149.900; -555.000; -514.000
396.546;  -73.700; -571.000; -466.000
396.674;  -93.975; -850.000; -878.000
396.803;   25.775;  -72.000;  -23.000
396.931;  131.500; -179.000; -199.000
397.059;  101.125;-1026.000; -989.000
397.187;  -88.575;-1026.000; -975.000
397.315; -130.625; -884.000; -649.000
397.443;  -96.025; -592.000; -443.000
397.572;  -77.775; -578.000; -424.000
397.700;   27.025; -607.000; -614.000
397.828;   20.775;  120.000;  -90.000
397.956;  -49.600; -508.000; -478.000
398.084;  -71.925; -767.000; -626.000
398.212;   59.450;  137.000;  124.000
398.340;   10.000;  -56.000;  159.000
398.468;   50.625; -390.000; -169.000
398.596; -132.300; -993.000; -953.000
398.724; -118.900; -762.000; -767.000
398.852; -164.100;-1024.000; -976.000
398.980;  -47.850; -560.000; -560.000
399.108;  -40.625; -982.000; -735.000
399.236;   55.475;   13.000;    8.000
399.363;   15.950;  222.000;  196.000
399.491;  -60.325; -404.000; -398.000
399.619; -131.250; -829.000; -800.000
399.747;  -94.025; -859.000; -771.000
399.875;  100.625;  220.000;  234.000
400.003;  -55.725; -359.000; -284.000
400.130;  -72.650; -421.000; -341.000
400.258;  -20.975;  -83.000;   38.000
400.386;  -80.075; -352.000; -168.000
400.514;  -35.725; -526.000; -587.000
400.641;  -79.625; -928.000; -802.000
400.769; -136.700; -979.000; -888.000
400.897; -104.325; -838.000; -793.000
401.025;   -2.850; -166.000; -152.000
401.152;  -11.125;  220.000;   38.000
401.280;  -67.625; -430.000; -429.000
401.408; -117.975; -712.000; -576.000
401.535;  -96.625; -735.000; -758.000
401.663; -194.450;-1134.000;-1054.000
401.790;  -79.925; -514.000; -525.000
401.918;   46.600;  436.000;  405.000
402.046;  -20.900;  134.000;  122.000
402.173;  -29.675;  -18.000;    7.000
402.301;  -59.225; -519.000; -397.000
402.428;   18.050;  528.000;  383.000
402.556; -144.750;-1188.000; -913.000
402.683;  -28.875;  -20.000;   -1.000
402.811;  -10.250;  -37.000; -206.000
402.938;   -6.750;   20.000;   27.000
403.066;  273.025; -574.000; -558.000
403.193;  418.225;  299.000;  239.000
403.321;  364.300; -396.000; -574.000
403.448;  397.575;   83.000;   27.000
403.575;  194.050;  -90.000;  -46.000
403.703;  -90.025; -732.000; -557.000
403.830;  -49.050; -531.000; -496.000
403.957; -151.550;-1117.000;-1023.000
404.085;   12.425;  -61.000; -172.000
404.212;  104.300;  -50.000;   63.000
404.339;  243.875; -566.000; -306.000
404.467; 5151.050; -612.000; -524.000
404.594; 3676.125; -287.000; -227.000
404.721;  963.100; -869.000; -764.000
404.848;   97.125; -113.000; -202.000
404.976; -101.225; -856.000; -783.000
405.103;    3.850;  -14.000;  -82.000
405.230;   -4.575;  190.000;  226.000
405.357;   15.650;  117.000;   44.000
405.484;  221.975;  -49.000;    5.000
405.612;   32.125; -548.000; -563.000
405.739;  -51.075; -488.000; -243.000
405.866;   95.375;  669.000;  385.000
405.993;  -34.850; -398.000; -102.000
406.120; -133.625; -801.000; -887.000
406.247;  -48.225; -323.000; -342.000
406.374;  562.000;  540.000;  629.000
406.501;  176.600; -632.000; -702.000
406.628;  -69.300; -621.000; -589.000
406.755;  -97.775; -803.000; -620.000
406.882;  -38.975; -228.000; -277.000
407.009;  -97.175; -719.000; -628.000
407.136;   69.600; -480.000; -401.000
407.263;  202.300; -939.000; -829.000
407.390;  -59.250; -692.000; -614.000
407.517; -160.350;-1139.000;-1187.000
407.644;  -54.600; -332.000; -256.000
407.771; -137.475; -249.000; -287.000
407.898;   14.375;  168.000;  328.000
408.025;  -60.375; -421.000; -313.000
408.151;   -4.950;   82.000;  153.000
408.278;  -71.300; -267.000; -216.000
408.405; -119.975; -931.000; -899.000
408.532;  -53.950; -549.000; -542.000
408.659; -101.525; -677.000; -648.000
408.785; -199.100;-1298.000;-1170.000
408.912;  -66.575; -412.000; -296.000
409.039; -117.275; -610.000; -686.000
409.166; -106.575; -591.000; -555.000
409.292; -113.650; -571.000; -534.000
409.419; -120.900; -665.000; -649.000
409.546;  -95.200; -431.000; -192.000
409.672; -125.250; -713.000; -545.000
409.799;  -23.250;  -36.000;   34.000
409.926;  -43.500; -180.000; -179.000
410.052; -163.400;-1127.000;-1091.000
410.179;  -61.500; -368.000; -392.000
410.305;  -83.525; -375.000; -493.000
410.432;  -50.575; -220.000; -333.000
410.558;  -85.150; -305.000; -380.000
410.685;  -99.800; -688.000; -431.000
410.812; -109.800; -409.000; -588.000
410.938; -127.250; -964.000; -808.000
411.065; -107.700; -671.000; -645.000
411.191;  -17.075; -189.000; -174.000
411.317; -114.375; -823.000; -742.000
411.444;  -55.800; -317.000; -246.000
411.570;  -78.600; -339.000; -294.000
411.697; -125.050; -758.000; -752.000
411.823; -168.025; -989.000; -999.000
411.949;  -21.850;  -56.000;   17.000
412.076; -113.300; -539.000; -519.000
412.202; -101.150; -758.000; -757.000
412.329; -125.100; -798.000; -752.000
412.455; -111.775; -821.000; -657.000
412.581;   -9.225;  -15.000;  172.000
412.707;  -44.775; -540.000; -457.000
412.834;   28.375;  156.000;  219.000
412.960;  -91.725; -785.000; -784.000
413.086; -113.950; -743.000; -701.000
413.212;  165.550;  604.000;  578.000
413.339;  -56.025; -685.000; -701.000
413.465;   25.150; -364.000; -310.000
413.591;  -85.050; -757.000; -474.000
413.717;  -54.275; -358.000; -366.000
413.843; -145.475; -839.000; -861.000
413.969;  -56.100;  -47.000; -292.000
414.096; -103.500; -679.000; -679.000
414.222;   -1.475;  -33.000;   85.000
414.348;    7.500; -652.000; -385.000
414.474;  138.150;   38.000;  -52.000
414.600;  -15.350; -126.000; -144.000
414.726;  -21.825;  -96.000;  -55.000
414.852;  -58.175; -365.000; -342.000
414.978;   39.100;  104.000;  -18.000
415.104;   37.275;   38.000;   80.000
415.230;   17.500; -329.000; -330.000
415.356;   45.350; -409.000; -514.000
415.482;  194.050;   13.000;  -35.000
415.608;  246.175; -247.000; -323.000
415.734;  900.325;   67.000;   38.000
415.860;18715.650; -875.000; -767.000
415.986;13432.450; -685.000; -607.000
416.111; 1144.075; -798.000; -652.000
416.237;  235.675; -424.000; -571.000
416.363; 1007.175; -765.000; -733.000
416.489; 3722.225; -324.000; -251.000
416.615;  364.000; -707.000; -742.000
416.741;  -32.975; -677.000; -784.000
416.866; -102.250; -673.000; -736.000
416.992; -117.075; -801.000; -818.000
417.118;  -38.875;  -41.000;  -80.000
417.244;  -57.075; -798.000; -531.000
417.369;  -86.550; -801.000; -612.000
417.495;    7.000; -325.000; -254.000
417.621;  -86.250;-1015.000; -803.000
417.746;   -7.375; -579.000; -572.000
417.872;   52.875; -254.000; -144.000
417.998;   46.950; -515.000; -530.000
418.123;  951.075;-1073.000; -845.000
418.249; 4834.450; -512.000; -601.000
418.374;  635.000; -916.000; -824.000
418.500;  102.150; -383.000; -482.000
418.626;  111.725;   70.000;  -59.000
418.751;  109.350; -549.000; -448.000
418.877;  166.675; -637.000; -643.000
419.002; 1618.650; -688.000; -560.000
419.128;11303.650; -930.000; -721.000
419.253; 2714.275; -967.000; -837.000
419.379;  353.950; -391.000; -338.000
419.504;  359.025;  325.000;  415.000
419.629;  452.000; -393.000; -212.000
419.755; 3103.550; -317.000; -254.000
419.880;18266.825;  -98.000;   67.000
420.006;10274.800; -280.000; -221.000
420.131;26748.200; -662.000; -775.000
420.256; 3849.150; -315.000; -316.000
420.382;  506.300; -665.000; -687.000
420.507;   43.750; -649.000; -778.000
420.632;  178.000; -337.000; -339.000
420.758;  359.375; -251.000; -425.000
420.883;  -65.325; -876.000; -672.000
421.008;  -84.750; -775.000; -619.000
421.133;  -82.975; -509.000; -467.000
421.259;  -47.550; -325.000; -259.000
421.384;  -99.500; -834.000; -693.000
421.509;   -2.175;-1052.000; -862.000
421.634; 1599.400; -936.000; -820.000
421.759;  702.850; -359.000; -327.000
421.885;  -35.975; -717.000; -656.000
422.010;  -79.225; -673.000; -542.000
422.135; -144.525; -695.000; -727.000
422.260;   32.400;  340.000;  280.000
422.385;  -54.700;   12.000;  -98.000
422.510;   11.775;  151.000;  -26.000
422.635;   20.125;  -87.000;  -43.000
422.760;  119.875; -766.000; -791.000
422.885;   57.175;  -57.000;  -80.000
423.010;  -37.950; -112.000; -169.000
423.135; -100.325; -481.000; -561.000
423.260;  -10.575; -150.000; -245.000
423.385;   87.625;  476.000;  222.000
423.510;   32.300;   71.000;  -22.000
423.635;   91.900;  133.000;   45.000
423.760;   65.825;  383.000;  328.000
423.885;   52.325;  336.000;  391.000
424.010;    6.750;  -68.000;  -13.000
424.135;  -27.725;    5.000;  -33.000
424.259;  -92.625; -654.000; -457.000
424.384;  -68.375; -279.000; -272.000
424.509;  -26.825; -260.000; -186.000
424.634; -111.425; -761.000; -623.000
424.759;  -20.700; -688.000; -544.000
424.883;  -23.750; -506.000; -527.000
425.008;  155.550; -502.000; -410.000
425.133; 1837.800; -679.000; -653.000
425.258;  843.125; -517.000; -381.000
425.382; 1209.850; -867.000; -774.000
425.507; 3108.850; -487.000; -543.000
425.632;  461.675; -802.000; -663.000
425.756;  408.250; -256.000; -146.000
425.881; 5600.825; -831.000; -857.000
426.006;14849.525; -604.000; -355.000
426.130; 2382.400; -696.000; -508.000
426.255;  294.550; -611.000; -491.000
426.379;  129.700; -189.000; -577.000
426.504;  355.375;  660.000;  544.000
426.629; 3799.050; -519.000; -466.000
426.753; 2598.875;   64.000;  -46.000
426.878;  275.325; -252.000; -288.000
427.002;  125.575; -651.000; -668.000
427.127; 1491.000;  -35.000; -158.000
427.251;10273.825;  372.000;  401.000
427.375; 2929.575; -191.000; -173.000
427.500; 2663.200; -616.000; -610.000
427.624;  896.900; -234.000; -400.000
427.749;  125.800; -216.000; -225.000
427.873;  -25.125; -499.000; -412.000
427.997;  -34.050; -222.000; -230.000
428.122;   93.225;  795.000;  703.000
428.246;   93.625;  433.000;  434.000
428.371; -119.775; -869.000; -773.000
428.495; -103.925; -624.000; -646.000
428.619;  -23.850; -186.000; -117.000
428.743;   41.825;   65.000;  132.000
428.868;   43.425; -732.000; -643.000
428.992; 1683.200; -219.000; -326.000
429.116;  705.100; -329.000; -357.000
429.240;  352.400;  419.000;  426.000
429.365;  -16.025; -454.000; -574.000
429.489;  -20.150; -638.000; -647.000
429.613;   22.775; -236.000; -177.000
429.737;   30.950; -563.000; -432.000
429.861;  257.150; -247.000; -133.000
429.985; 5067.725; -425.000; -305.000
430.109; 5513.975; -770.000; -908.000
430.234;  655.375;   76.000;  -50.000
430.358;   52.950; -250.000; -160.000
430.482;  -65.600; -672.000; -564.000
430.606;  -71.450; -655.000; -375.000
430.730;   47.225; -437.000; -388.000
430.854;  196.000; -909.000; -835.000
430.978;  -62.625; -795.000; -764.000
431.102;  -92.600; -499.000; -422.000
431.226;  -95.775; -874.000; -815.000
431.350;   48.850;  345.000;  422.000
431.474;  -64.325; -661.000; -373.000
431.597; -152.425;-1060.000; -848.000
431.721;  -86.775; -276.000; -267.000
431.845; -147.950; -704.000; -472.000
431.969;  -72.200; -304.000; -349.000
432.093;  -88.350; -395.000; -317.000
432.217;   -8.925;   32.000;   82.000
432.341;  -90.850; -523.000; -518.000
432.464;   15.550;   96.000;   40.000
432.588;  278.775; -401.000; -329.000
432.712;  139.125;  -52.000;  -52.000
432.836;   48.500;  213.000;  263.000
432.959;  -32.950; -372.000; -311.000
433.083;   76.050;   11.000;    2.000
433.207;  351.900;  285.000;  930.000
433.330; 4542.600; -391.000; -200.000
433.454; 5539.500; -654.000; -638.000
433.578; 3232.325;  583.000;  278.000
433.701;  599.950; -623.000; -675.000
433.825;  188.500; -292.000; -299.000
433.949;  276.850;   28.000;  -72.000
434.072;   88.900; -410.000; -323.000
434.196;   -5.450; -309.000; -117.000
434.319; 3654.725;25482.000;25124.000
434.443;  754.050; -656.000; -603.000
434.566; 2416.050;  281.000;   62.000
434.690;  377.250; -637.000; -383.000
434.813;   42.650; -251.000; -173.000
434.937;  -61.850; -569.000; -696.000
435.060;  -21.675; -423.000; -332.000
435.184;  478.625; -492.000; -217.000
435.307;  254.325;  159.000;  102.000
435.431;  -16.000;  -40.000;   24.000
435.554;  -72.025; -399.000; -240.000
435.677;  -64.150; -350.000; -258.000
435.801;  -38.800;  -25.000;   49.000
435.924;    6.325;    1.000;  -67.000
436.048; -100.625;-1019.000; -732.000
436.171;  -79.975; -240.000;  -66.000
436.294;  -32.100; -248.000; -229.000
436.417;   60.575; -963.000; -849.000
436.541;  -96.925; -814.000; -840.000
436.664;  -64.750; -242.000; -316.000
436.787;  -16.625;   13.000;  113.000
436.910; -111.925; -792.000; -422.000
437.034;   15.550;  142.000;  143.000
437.157;   92.275;  -11.000;    0.000
437.280;  -37.925; -392.000; -292.000
437.403;  -55.900; -982.000; -869.000
437.526;  939.225; -903.000; -865.000
437.649; 3161.725; -505.000; -332.000
437.772;  488.550; -692.000; -540.000
437.896;  143.300;  700.000;  544.000
438.019;  -86.250; -758.000; -503.000
438.142;  -78.450; -596.000; -506.000
438.265;   13.575; -639.000; -670.000
438.388;  754.150; -520.000; -410.000
438.511;  166.625; -597.000; -394.000
438.634;  -31.675; -247.000; -125.000
438.757; -136.700; -693.000; -619.000
438.880;  -17.750;  -34.000;  -57.000
439.003;  -66.200; -417.000; -437.000
439.126;  -63.275; -287.000; -167.000
439.248;  -73.525;  -98.000; -139.000
439.371;  -45.925;    9.000;  -53.000
439.494;   14.675;  510.000;  439.000
439.617;  -52.725;   65.000;  -88.000
439.740; -184.875; -968.000; -816.000
439.863; -140.025; -755.000; -595.000
439.986; -128.225; -476.000; -431.000
440.108;  -48.275; -161.000; -112.000
440.231; -156.575; -950.000; -836.000
440.354;  -36.325;  -64.000; -150.000
440.477;   79.675; -566.000; -542.000
440.599;   40.350; -200.000; -225.000
440.722; -124.700; -709.000; -586.000
440.845;   69.425;  751.000;  928.000
440.968; -124.600; -415.000; -311.000
441.090;  -66.725; -199.000;  -33.000
441.213; -162.200;-1021.000; -825.000
441.336;  -52.125; -159.000;   -5.000
441.458;  -81.225; -549.000; -396.000
441.581;  -60.350; -628.000; -629.000
441.703;  -64.650; -152.000;   13.000
441.826; -116.850; -557.000; -400.000
441.948;  -48.500;   56.000;   51.000
442.071;   24.900;  555.000;  424.000
442.193; -116.075; -531.000; -485.000
442.316;   20.675;  152.000;   97.000
442.438;   31.475; -233.000;  -10.000
442.561;   74.175;  272.000;  262.000
442.683;  734.375; -809.000; -522.000
442.806; 1595.025;   -8.000;   74.000
442.928;   80.525; -859.000; -604.000
443.051;  -55.575; -577.000; -373.000
443.173;  -97.025; -341.000; -339.000
443.295;  -92.550; -263.000; -371.000
443.418;  -73.400; -321.000;  -29.000
443.540;   -7.425; -106.000;   -4.000
443.662; -119.525; -563.000; -465.000
443.785;   -8.600;  335.000;  199.000
443.907; -103.700; -362.000; -208.000
444.029; -133.700; -767.000; -494.000
444.152; -140.825; -644.000; -554.000
444.274;  -31.075;  -18.000;  -24.000
444.396; -137.350; -461.000; -221.000
444.518; -118.800; -691.000; -454.000
444.640; -116.175; -268.000; -111.000
444.763;   -8.525;  388.000;  249.000
444.885; -118.100; -432.000; -392.000
445.007;  -22.150;   35.000;   86.000
445.129; -111.300; -610.000; -515.000
445.251; -102.575; -372.000; -439.000
445.373; -145.475; -537.000; -386.000
445.495;    7.425;  242.000;  350.000
445.617;   46.475;  853.000;  753.000
445.739;  -65.575; -215.000;  -97.000
445.861;  -24.925; -245.000; -112.000
445.984;  -26.300; -267.000; -101.000
446.105;  267.750; -418.000; -251.000
446.227;  802.625; -176.000;  -19.000
446.349;   42.650; -358.000; -249.000
446.471;  -96.875; -615.000; -448.000
446.593;  -49.400; -316.000;   19.000
446.715;   15.850;  -67.000;   41.000
446.837;   55.350;  697.000;  832.000
446.959;  -99.800; -457.000; -478.000
447.081; -132.975; -628.000; -518.000
447.203;   55.400;  862.000;  834.000
447.325;  -92.175; -270.000;   42.000
447.446;    0.200;  286.000;  530.000
447.568; -170.025; -921.000; -803.000
447.690;  -72.250; -236.000; -245.000
447.812; -150.250; -798.000; -519.000
447.933;  -37.700;  155.000;  127.000
448.055;  -61.500; -306.000; -261.000
448.177;  197.450;   31.000;   79.000
448.299;  131.725; -935.000; -727.000
448.420;   32.425;  -25.000;  159.000
448.542;  -37.325;   -3.000;   33.000
448.664;  -17.200;  109.000;  322.000
448.785;  -40.150;  265.000;   83.000
448.907;  -65.875; -614.000; -353.000
449.028;  -20.325; -771.000; -471.000
449.150;   71.500;  492.000;  589.000
449.272; -179.000;-1044.000; -913.000
449.393;   34.375;  612.000;  694.000
449.515; -146.700; -634.000; -581.000
449.636;  -52.125; -264.000; -155.000
449.758;   90.250;  763.000;  622.000
449.879;  -92.525; -498.000; -396.000
450.001;  -81.400; -149.000;  -49.000
450.122;  -38.350;  -95.000;  162.000
450.244;  -39.000;   37.000;  364.000
450.365;  -93.300; -495.000; -301.000
450.486;  -39.375;   80.000;  268.000
450.608;  -12.250;  393.000;  326.000
450.729;   51.875;  578.000;  645.000
450.850;   -9.725; -574.000; -466.000
450.972;  624.950; -552.000; -389.000
451.093; 4251.150;  190.000;  588.000
451.214; 1810.600; -516.000; -337.000
451.336;  316.800;  773.000;  579.000
451.457;   47.250;  264.000;  393.000
451.578;  -46.375; -118.000;  -74.000
451.699; -131.050; -546.000; -540.000
451.821;  -52.925; -284.000;  -50.000
451.942;    2.400;  278.000;  285.000
452.063;   19.725;  228.000;  419.000
452.184;  488.175;  -54.000;  -49.000
452.305;  979.600;  103.000;  170.000
452.427;   88.300; -549.000; -301.000
452.548;  -23.550;   23.000;   79.000
452.669;  -37.450; -257.000;  -89.000
452.790;  -29.475;    3.000;  -18.000
452.911;   -5.950;  195.000;  259.000
453.032;  -59.125; -289.000;  -60.000
453.153;  -47.750;  -29.000;   81.000
453.274;   60.775;  737.000;  868.000
453.395;  -56.550;  -51.000;  175.000
453.516;  139.825; 1317.000; 1388.000
453.637;  -63.475; -205.000; -150.000
453.758;  -57.600;   15.000;   69.000
453.879; -121.400; -462.000; -250.000
454.000;   64.225; 1086.000;  948.000
454.121; -122.725; -554.000; -326.000
454.242; -116.950; -599.000; -383.000
454.362;  -61.325;  -99.000;  114.000
454.483;  -30.950; -309.000; -229.000
454.604;   74.500;  512.000;  580.000
454.725; -120.750; -627.000; -555.000
454.846; -136.225; -474.000; -406.000
454.967;  -21.525;  230.000;  539.000
455.087;  -40.300;  179.000;  153.000
455.208;   11.800;  554.000;  856.000
455.329;  -58.225;  -22.000;   82.000
455.450;   29.850;  473.000;  633.000
455.570;  -86.025; -234.000; -211.000
455.691;  -34.750;  201.000;  407.000
455.812; -113.050; -270.000;  -92.000
455.932;  -57.000;  107.000;  -97.000
456.053;  -78.450;   36.000;   24.000
456.173; -116.700; -433.000; -355.000
456.294; -141.425; -476.000; -303.000
456.415;  -67.125;  -73.000;   70.000
456.535;  -37.100;  297.000;  273.000
456.656;  -37.125;  132.000;  240.000
456.776;  -81.650;    3.000;  298.000
456.897;  -11.725;  308.000;  513.000
457.017;  -87.475; -153.000;   -3.000
457.138; -100.200; -402.000; -249.000
457.258;  -32.075;  263.000;  224.000
457.379;   -6.900;  509.000;  521.000
457.499;  -23.950;  443.000;  432.000
457.620; -127.400; -407.000; -231.000
457.740; -112.625; -132.000;  -11.000
457.860;  -58.950;   87.000;   44.000
457.981;  -58.025;  132.000;  124.000
458.101;  -63.475;  -89.000;   40.000
458.221;  -22.650;  336.000;  402.000
458.342;  -59.350;   -4.000;  -37.000
458.462;    9.225;  617.000;  352.000
458.582;  -57.250; -302.000; -294.000
458.703;   -2.425;  303.000;  154.000
458.823;  -28.325;   22.000;  163.000
458.943;   22.100;  341.000;  467.000
459.063;  -19.500; 1124.000;  192.000
459.183;  -20.925;  328.000;  313.000
459.304;   20.775;  315.000;  517.000
459.424;  -73.400; -246.000;  -89.000
459.544;  287.500;  388.000;  764.000
459.664;  736.875;  499.000;  506.000
459.784;  289.675; 1004.000; 1175.000
459.904;   51.175;  867.000;  744.000
460.024;   67.500;  867.000;  684.000
460.144;    8.825;  449.000;  554.000
460.264;   -4.200;  515.000;  327.000
460.385;  -92.150; -145.000; -119.000
460.505;   23.825;  905.000;  858.000
460.625;  -94.800;  -17.000;  -68.000
460.745;  -21.475;  396.000;  541.000
460.864;  -46.725;  153.000;  469.000
460.984;   12.700;  499.000;  573.000
461.104;  138.725; 1656.000; 1775.000
461.224;   19.825;  657.000;  650.000
461.344;  -34.250;  431.000;  360.000
461.464;  -33.725;  258.000;  513.000
461.584;   -7.925;  283.000;  466.000
461.704;  -47.700;   58.000;  108.000
461.824;  -54.375;  238.000;  259.000
461.943;  -44.250;  191.000;  130.000
462.063;  -75.475;    2.000;  324.000
462.183;   24.850;  639.000;  717.000
462.303;  118.525; 1678.000; 1230.000
462.422;   36.300;  781.000;  840.000
462.542;  -24.550;  271.000;  391.000
462.662;   31.500;  353.000;  380.000
462.782;  211.525;  833.000;  572.000
462.901;  434.950;  545.000;  717.000
463.021;  265.875; 1702.000; 1638.000
463.141;   -7.475;  337.000;  770.000
463.260;  -20.025;  614.000;  474.000
463.380;   21.900;  902.000;  884.000
463.499;  -34.575;  342.000;  332.000
463.619;  -25.725;  581.000;  559.000
463.738;  126.025; 1644.000;  903.000
463.858;   16.875;  657.000;  811.000
463.978;  -42.925;  542.000;  396.000
464.097;   53.525;  921.000; 1114.000
464.217;  108.025; 1196.000; 1143.000
464.336;  115.125; 1068.000; 1130.000
464.455;  -42.975;  328.000;  659.000
464.575;   64.350;  597.000;  602.000
464.694;  165.750; 1204.000; 1179.000
464.814;  131.350; 1190.000; 1138.000
464.933;   74.200; 1095.000; 1027.000
465.052;  104.250; 1412.000; 1054.000
465.172;   81.875;  922.000;  799.000
465.291;  150.450; 1376.000; 1320.000
465.410;   17.300;  462.000;  735.000
465.530;   79.675; 1355.000; 1310.000
465.649;   70.500; 1209.000; 1273.000
465.768;  149.675; 1673.000; 1508.000
465.888;   36.200;  941.000; 1174.000
466.007;   98.150; 1335.000; 1440.000
466.126;   -6.875;  721.000;  641.000
466.245;   50.325; 1176.000; 1187.000
466.364;   22.150;  950.000; 1060.000
466.484;   50.875; 1024.000; 1213.000
466.603;   32.525; 1101.000; 1222.000
466.722;  104.225; 1490.000; 1769.000
466.841;   73.875; 1151.000; 1401.000
466.960;   46.325; 1069.000;  972.000
467.079;  133.325; 1971.000; 1786.000
467.198;   48.200; 1238.000; 1181.000
467.317;   85.000; 1768.000; 1162.000
467.436;   63.300; 1709.000; 1261.000
467.555;  119.625; 1796.000; 1746.000
467.674;   67.625; 1227.000; 1329.000
467.793;   52.250; 1376.000; 1374.000
467.912;   94.825; 1658.000; 1539.000
468.031;  128.475; 2038.000; 1930.000
468.150;  128.175; 1842.000; 1837.000
468.269;  200.375; 2313.000; 2090.000
468.388;  179.950; 2168.000; 2339.000
468.507;  244.700; 2884.000; 2903.000
468.626;  231.275; 2555.000; 2541.000
468.744;  133.425; 2018.000; 2174.000
468.863;  203.750; 2312.000; 2523.000
468.982;   85.175; 1503.000; 1555.000
469.101;  218.775; 2788.000; 2692.000
469.220;  147.975; 2333.000; 2176.000
469.338;  265.400; 2935.000; 3051.000
469.457;  193.675; 2719.000; 2545.000
469.576;  334.625; 3953.000; 3784.000
469.695;  242.725; 2877.000; 3066.000
469.813;  433.450; 4148.000; 4192.000
469.932;  411.600; 4255.000; 4485.000
470.051;  431.000; 4075.000; 4161.000
470.169;  805.850; 4470.000; 4338.000
470.288; 1372.000; 4700.000; 4809.000
470.406;  816.675; 5059.000; 5194.000
470.525;  620.875; 6101.000; 5787.000
470.644;  649.125; 6847.000; 6794.000
470.762;  835.350; 8397.000; 7873.000
470.881;  892.575; 8651.000; 8464.000
470.999; 1033.050; 9685.000; 9151.000
471.118; 1122.600;11174.000;10711.000

