
Integration time [ms]: 100.000
Averaging Nr. [scans]: 40
Smoothing Nr. [pixels]: 0
Data measured with spectrometer [name]: 2101012U2
Wave   ;Sample   ;Dark     ;Reference
[nm]   ;[counts] ;[counts] ;[counts] 

197.733;   52.575;  516.000;  404.000
197.879;  -83.525; -610.000; -634.000
198.025;  -51.600; -475.000; -420.000
198.171;  -71.725; -602.000; -612.000
198.317;  -32.475; -401.000; -316.000
198.463;  -66.350; -655.000; -404.000
198.609;   23.650;  181.000; -137.000
198.755;  -73.275; -644.000; -410.000
198.901;  -71.625; -505.000; -424.000
199.047;  -61.425; -615.000; -488.000
199.193;  -54.475; -230.000; -468.000
199.339;  -51.525; -222.000; -369.000
199.485;   34.800;  330.000;  271.000
199.631;    4.400;  227.000;  310.000
199.777;  -56.275; -466.000; -398.000
199.923;  -59.150; -610.000; -424.000
200.069;  -12.375; -141.000;  -58.000
200.215;   63.100;  128.000;  453.000
200.361;   44.200;  243.000;  477.000
200.507;  -47.350; -600.000; -373.000
200.653;  -42.550; -371.000; -194.000
200.798;  -34.450; -215.000; -125.000
200.944;   -3.875; -146.000;  -41.000
201.090;   20.900;   61.000;  222.000
201.236;    7.775; -116.000; -158.000
201.382;  109.250;  874.000;  903.000
201.528;   -2.200;  -58.000;  -48.000
201.674;  -38.200; -386.000; -293.000
201.819;  -66.575; -540.000; -439.000
201.965;  -79.800; -699.000; -447.000
202.111;  -23.275; -273.000; -226.000
202.257;  -34.475; -250.000; -238.000
202.402;    2.750;   13.000;  -36.000
202.548;  -24.200; -169.000; -116.000
202.694;   74.725;  410.000; -183.000
202.840;  -80.225; -603.000; -531.000
202.985;  -70.750; -681.000; -639.000
203.131; -108.350; -832.000; -666.000
203.277;  -14.525; -199.000; -262.000
203.423;  -65.125; -434.000; -520.000
203.568;  -31.900; -462.000; -237.000
203.714;  -56.775; -535.000; -542.000
203.860;  -84.700; -682.000; -641.000
204.005;   15.200;  112.000;  167.000
204.151;   72.925;  561.000;  556.000
204.296;  -46.550; -354.000; -221.000
204.442;  -77.175; -600.000; -547.000
204.588;  -72.575; -592.000; -579.000
204.733;    7.100;  178.000;  168.000
204.879; -132.875;-1018.000; -822.000
205.025;   10.975;  -99.000;  126.000
205.170;    1.550;  -17.000;   94.000
205.316;   72.625;  438.000;  661.000
205.461;  -76.550; -698.000; -554.000
205.607;   77.900;  609.000;  665.000
205.752;  -73.925; -626.000; -551.000
205.898;  -55.750; -501.000; -391.000
206.043;  -69.125; -578.000; -506.000
206.189;  -49.750; -243.000; -285.000
206.334;   68.525;  554.000;  606.000
206.480;   67.650;  409.000;  239.000
206.625;  -79.625; -529.000; -552.000
206.771;  -45.100; -451.000; -373.000
206.916;  -33.550; -210.000; -537.000
207.062;  -60.975; -545.000; -591.000
207.207;  -59.250; -546.000; -443.000
207.353;   38.750;  185.000;  460.000
207.498;    6.300;  196.000;   85.000
207.643;  -56.025; -501.000; -370.000
207.789; -122.050;-1069.000; -910.000
207.934;  -90.350; -665.000; -713.000
208.080;  -30.800; -154.000;   66.000
208.225;  -10.000;  -22.000;  -57.000
208.370;  -91.350; -727.000; -619.000
208.516;  -74.750; -741.000; -487.000
208.661;  -21.675; -127.000;  -69.000
208.806;  -22.100; -165.000; -171.000
208.952; -115.200;-1044.000; -731.000
209.097;   56.100;  378.000;  349.000
209.242;  -52.475; -307.000; -382.000
209.387;   54.475;  392.000;  350.000
209.533;  -63.925; -321.000; -350.000
209.678;   66.425;  472.000;  543.000
209.823;  -35.825; -408.000; -310.000
209.969; -104.775; -860.000; -757.000
210.114;  -97.050; -907.000; -719.000
210.259; -118.100; -939.000; -889.000
210.404;  -15.150; -171.000;  103.000
210.549;   -2.250;  108.000;    3.000
210.695;  -25.525;   -3.000;  -95.000
210.840;   13.775;   94.000;   67.000
210.985;  -56.600; -484.000; -303.000
211.130;   61.900;  268.000;  406.000
211.275;    9.975;  207.000;  199.000
211.420;  -52.900; -300.000; -289.000
211.566;  -75.850; -536.000; -489.000
211.711;   21.700;  218.000;  157.000
211.856;  -69.425; -545.000; -519.000
212.001;   19.150;  151.000;   44.000
212.146;   22.950;  153.000;   49.000
212.291;  -16.375; -210.000; -186.000
212.436;  -29.375; -280.000;   -6.000
212.581;  -84.175; -685.000; -653.000
212.726;  -74.575; -487.000; -538.000
212.871;  -53.700; -552.000; -217.000
213.016; -143.050;-1172.000;-1029.000
213.161;   69.750;  406.000;  291.000
213.306;  -66.775; -435.000; -577.000
213.451;  -88.575; -778.000; -689.000
213.596;  -49.175; -455.000; -347.000
213.741;  -66.250; -448.000; -538.000
213.886;  -68.625; -498.000; -517.000
214.031;  -39.225; -294.000; -124.000
214.176;  -61.200; -408.000; -341.000
214.321;  -25.175; -296.000; -157.000
214.466;  -21.750; -163.000;  -43.000
214.611;   -7.400;  -61.000;  -10.000
214.756; -131.900; -948.000; -858.000
214.901;  -23.575; -388.000; -226.000
215.046; -122.425; -797.000; -825.000
215.191;   14.700;  128.000;   35.000
215.336;  -14.450; -157.000;  -19.000
215.480;  -72.300; -684.000; -505.000
215.625;  -17.475; -175.000;  -19.000
215.770;  -81.025; -757.000; -662.000
215.915;   -3.250;   -5.000;  -97.000
216.060;   -9.825; -113.000;  -21.000
216.205; -117.575; -731.000; -779.000
216.349;  -65.175; -470.000; -533.000
216.494; -135.625; -939.000; -867.000
216.639; -101.175; -823.000; -888.000
216.784;  -80.525; -577.000; -525.000
216.929;   53.975;  392.000;  281.000
217.073;  -15.450; -244.000;  -31.000
217.218;    7.850;   78.000;  -47.000
217.363;  -85.800; -656.000; -618.000
217.507;  -74.150; -623.000; -588.000
217.652; -113.275; -845.000; -874.000
217.797;  -90.150; -708.000; -659.000
217.942;  -96.925; -856.000; -720.000
218.086;   75.325;  608.000;  539.000
218.231;  -21.075; -174.000;  -26.000
218.376;  -38.550; -337.000; -229.000
218.520;  -17.325;  -41.000;   96.000
218.665;  -29.925; -338.000; -204.000
218.810;  -52.875; -275.000; -233.000
218.954;   16.825;  201.000;   35.000
219.099; -111.400; -713.000; -963.000
219.243;  -65.350; -589.000; -554.000
219.388;  -36.450; -264.000; -136.000
219.532;   -8.325; -116.000; -116.000
219.677;  -80.500; -564.000; -521.000
219.822;    8.700;   33.000;   89.000
219.966;   -4.300;   17.000;  -99.000
220.111;  -33.200; -328.000;  -40.000
220.255;  -78.825; -797.000; -750.000
220.400;  -20.375; -180.000; -146.000
220.544;  -67.875; -516.000; -450.000
220.689;  -49.650; -422.000; -451.000
220.833;  -32.075; -123.000;  -58.000
220.978;  -46.300; -393.000; -563.000
221.122;   15.725;  319.000;  307.000
221.267; -117.200; -906.000; -837.000
221.411;  -67.075; -478.000; -394.000
221.555;  -23.425; -104.000;  -23.000
221.700;  -59.300; -329.000; -222.000
221.844;   24.050;  255.000;  272.000
221.989;  -54.425; -328.000; -311.000
222.133;  -27.700; -289.000; -307.000
222.277;  -10.625;    5.000;   78.000
222.422;   18.875;  227.000;  113.000
222.566;  -33.225; -381.000; -214.000
222.711;  -63.475; -414.000; -479.000
222.855;  -81.650; -643.000; -586.000
222.999;  -76.950; -642.000; -717.000
223.144;  -29.425; -195.000; -194.000
223.288;   56.450;  423.000;  251.000
223.432;   21.525;  184.000;  230.000
223.576;   21.475;  152.000;  -21.000
223.721;   35.075;  364.000;  273.000
223.865;  -55.025; -472.000; -475.000
224.009;  234.650; 1673.000; 1631.000
224.153;  -81.325; -660.000; -671.000
224.298;  -70.825; -531.000; -489.000
224.442;  -18.925;  -74.000;  -33.000
224.586;  -22.775; -169.000; -106.000
224.730;  -89.750; -858.000; -670.000
224.875; -118.450; -739.000; -688.000
225.019;   10.175;  102.000;  188.000
225.163;   45.100;  208.000;  341.000
225.307;   13.300;   97.000;  -91.000
225.451;   33.675;  360.000;  481.000
225.595;   33.500;  264.000;  176.000
225.739;  -20.475; -170.000;  -94.000
225.884;   -3.400;   86.000;    5.000
226.028;  -97.375; -760.000; -626.000
226.172;  -37.725; -260.000; -273.000
226.316; -108.250; -941.000; -902.000
226.460;  -68.650; -645.000; -493.000
226.604;  -57.425; -406.000; -400.000
226.748;  -91.550; -836.000; -733.000
226.892;  -32.425; -227.000; -181.000
227.036;  -51.850; -537.000; -447.000
227.180;  -62.125; -551.000; -375.000
227.324;  -65.000; -561.000; -580.000
227.468; -125.700; -819.000; -717.000
227.612;    4.725;  242.000;  -28.000
227.756;  -92.950; -845.000; -698.000
227.900;   44.825;  342.000;  441.000
228.044;  -62.175; -509.000; -290.000
228.188;   56.400;  448.000;  568.000
228.332;  -92.750; -546.000; -472.000
228.476;  -28.100; -223.000; -149.000
228.620;  -34.900; -210.000; -150.000
228.764;   61.550;  431.000;  349.000
228.908;  -12.475; -155.000;   30.000
229.052;  -59.975; -615.000; -528.000
229.195;  -14.675; -172.000;   13.000
229.339;  -26.950; -235.000; -305.000
229.483;  -30.000;    5.000; -162.000
229.627;   -7.525; -156.000;  139.000
229.771;  -57.450; -218.000; -294.000
229.915;   11.700;  230.000;   79.000
230.059;  -90.725; -648.000; -663.000
230.202;  -43.075; -370.000; -317.000
230.346;  -18.075; -107.000;  107.000
230.490;  -55.075; -489.000; -521.000
230.634; -114.850; -736.000; -553.000
230.777;   62.900;  478.000;  509.000
230.921;  -52.900; -450.000; -359.000
231.065;  -38.775; -246.000; -286.000
231.209;   23.450;  261.000;  265.000
231.352;   20.500;   54.000;   40.000
231.496;   27.525;  568.000;  188.000
231.640;  -81.675; -693.000; -621.000
231.783;   64.700;  546.000;  525.000
231.927;  -40.950; -294.000; -365.000
232.071; -120.875; -962.000; -736.000
232.214; -111.675; -980.000; -764.000
232.358;  -97.875; -683.000; -599.000
232.502;    4.975;  -19.000;    7.000
232.645; -132.375;-1090.000; -927.000
232.789;  -25.200; -257.000; -218.000
232.933;  -35.750; -407.000; -224.000
233.076; -131.950;-1038.000; -897.000
233.220; -110.050; -752.000; -777.000
233.363;  -66.875; -669.000; -477.000
233.507;   49.175;  371.000;  129.000
233.650;  -96.250; -764.000; -834.000
233.794;   45.525;  438.000;  461.000
233.938;  -53.625; -530.000; -362.000
234.081;  -29.325;  -93.000;   31.000
234.225;  -60.925; -631.000; -539.000
234.368; -117.900; -773.000; -723.000
234.512;  -34.850; -385.000; -299.000
234.655;  -90.050; -582.000; -555.000
234.798;  -55.425; -493.000; -466.000
234.942; -126.650; -884.000;-1002.000
235.085;  -64.275; -651.000; -443.000
235.229;  -48.800; -405.000; -410.000
235.372;  -47.175; -247.000; -191.000
235.516;  -69.225; -397.000; -321.000
235.659;   22.200;   92.000;  121.000
235.802;  -11.550;  -38.000;  -22.000
235.946;   26.125;  335.000;  215.000
236.089;   12.675;  126.000;  250.000
236.233;   41.275;  275.000;  298.000
236.376;  -52.100; -235.000; -378.000
236.519;  -49.825; -297.000; -319.000
236.663;  -27.025; -215.000; -117.000
236.806; -133.650;-1029.000; -999.000
236.949;   36.600;  543.000;  431.000
237.092;   59.200;  412.000;  391.000
237.236;  -91.225; -589.000; -502.000
237.379;   60.450;  352.000;  428.000
237.522; -116.925; -879.000; -768.000
237.666;  -16.175; -271.000;   18.000
237.809; -129.425; -851.000; -823.000
237.952;   26.725;  469.000;  271.000
238.095;  -65.200; -447.000; -442.000
238.238;   82.425;  688.000;  700.000
238.382;    0.825;  166.000;  103.000
238.525;  -71.575; -598.000; -511.000
238.668; -134.250;-1060.000; -985.000
238.811;  -85.800; -638.000; -643.000
238.954;  -58.925; -483.000; -334.000
239.097;   77.800;  617.000;  664.000
239.241;   22.175;  394.000;  326.000
239.384;  -40.225; -254.000; -214.000
239.527;  -63.925; -424.000; -224.000
239.670; -137.250; -994.000;-1091.000
239.813; -104.350; -696.000; -658.000
239.956;   78.400;  579.000;  473.000
240.099; -105.825; -778.000; -725.000
240.242;   45.125;  428.000;  432.000
240.385;   43.575;  466.000;  450.000
240.528;  -87.650; -706.000; -473.000
240.671;    1.375;  189.000;  134.000
240.814;  -51.000; -441.000; -158.000
240.957; -104.725; -767.000; -578.000
241.100;  -96.000; -779.000; -755.000
241.243; -140.975;-1234.000; -893.000
241.386;  -68.600; -508.000; -379.000
241.529;  -87.450; -735.000; -547.000
241.672;  -74.275; -566.000; -495.000
241.815; -120.425; -832.000; -808.000
241.958;  -24.125; -125.000; -182.000
242.101;  -79.350; -545.000; -390.000
242.244;  -44.950; -270.000; -325.000
242.387;  -31.775; -304.000; -246.000
242.530;   42.050;  470.000;  134.000
242.673;  -47.425; -381.000; -309.000
242.815; -108.675; -925.000; -899.000
242.958;  -67.025; -482.000; -381.000
243.101;    5.425;  132.000;  187.000
243.244;  -69.725; -564.000; -521.000
243.387;  -53.825; -313.000; -316.000
243.530; -102.575; -657.000; -674.000
243.672;   -0.075;   43.000;  -92.000
243.815;  -64.050; -355.000; -283.000
243.958;   -1.625;   98.000;  -26.000
244.101;   -9.875;   59.000;  -16.000
244.243;  -19.425;  -47.000;  101.000
244.386;  -90.925; -761.000; -630.000
244.529;  -22.125; -132.000; -139.000
244.672; -142.000;-1154.000; -951.000
244.814; -102.800; -621.000; -794.000
244.957;  -51.125; -380.000; -304.000
245.100;  -81.625; -489.000; -489.000
245.242;  -70.425; -387.000; -374.000
245.385;  -12.625;  -59.000;  -39.000
245.528; -137.600; -871.000; -705.000
245.670;   61.750;  612.000;  634.000
245.813;  -84.475; -599.000; -547.000
245.956;  -40.450; -324.000; -275.000
246.098;  -62.425; -508.000; -650.000
246.241;    4.350;  194.000;   48.000
246.383;  -19.850; -119.000;  -73.000
246.526;  -70.250; -454.000; -525.000
246.669; -117.700; -889.000; -780.000
246.811;   20.250;  172.000;   -1.000
246.954;  -83.375; -512.000; -426.000
247.096;  -16.400;  -84.000;   -6.000
247.239;  -67.150; -482.000; -445.000
247.381;  -84.325; -647.000; -488.000
247.524;   79.800;  645.000;  679.000
247.666;  -11.950;   58.000;   11.000
247.809; -120.175; -887.000; -691.000
247.951;  -17.925;  -75.000;  138.000
248.094;   19.800;  432.000;  308.000
248.236; -160.075;-1262.000;-1238.000
248.378;   17.225; -356.000;  -81.000
248.521;  -34.550; -334.000; -337.000
248.663;  -40.975; -236.000; -267.000
248.806;  -26.925; -300.000; -266.000
248.948;  -87.600; -886.000; -763.000
249.090;  -43.750; -428.000; -398.000
249.233;  -48.425; -344.000; -381.000
249.375;  -56.825; -474.000; -451.000
249.518;  -17.700;  -83.000; -133.000
249.660;  -15.725; -103.000;    3.000
249.802; -164.650;-1303.000;-1189.000
249.945;  -78.700; -612.000; -540.000
250.087; -103.175; -834.000; -768.000
250.229;  -57.650; -362.000; -480.000
250.371;  -71.550; -494.000; -439.000
250.514;  -56.300; -310.000; -244.000
250.656;  -49.100;   69.000;  102.000
250.798; -110.700; -849.000; -800.000
250.940;  -60.000; -322.000; -322.000
251.083;  -33.075; -335.000; -111.000
251.225;   60.300;  338.000;  310.000
251.367;  -47.250; -274.000; -373.000
251.509;  -37.100; -265.000; -210.000
251.651;  -91.050; -731.000; -671.000
251.794;   48.350;  538.000;  632.000
251.936; -105.050; -821.000; -747.000
252.078;  -70.550; -540.000; -461.000
252.220;  -60.675; -645.000; -477.000
252.362;   85.000;  344.000;  462.000
252.504;  -66.775; -677.000; -584.000
252.646; -117.800; -875.000; -722.000
252.788;    6.200;   14.000; -128.000
252.931;  -42.325; -257.000; -253.000
253.073;  -33.150; -376.000; -317.000
253.215;   -9.750;  141.000;  122.000
253.357;  -14.500;   82.000; -153.000
253.499;  -45.200; -374.000; -234.000
253.641;  -84.025; -749.000; -594.000
253.783;  -83.150; -609.000; -527.000
253.925;  -87.650; -586.000; -591.000
254.067; -104.400; -744.000; -667.000
254.209;  -35.425; -391.000; -259.000
254.351; -126.450; -865.000; -883.000
254.493;  -60.400; -441.000; -417.000
254.635; -120.075; -936.000; -818.000
254.777;  -89.800; -752.000; -687.000
254.918;  -76.050; -512.000; -430.000
255.060;  -63.650; -551.000; -395.000
255.202;  -67.200; -473.000; -261.000
255.344;  -77.325; -658.000; -455.000
255.486;  -78.050; -471.000; -406.000
255.628; -115.375; -780.000; -781.000
255.770;  -87.675; -676.000; -536.000
255.912;  -67.200; -559.000; -468.000
256.053;  -88.950; -730.000; -508.000
256.195;  140.300; 1008.000;  903.000
256.337;  -93.000; -861.000; -595.000
256.479;   55.875;  532.000;  416.000
256.621;  -45.250; -394.000; -212.000
256.762;  -88.225; -789.000; -742.000
256.904;   42.500;  485.000;  487.000
257.046;  -44.100; -381.000; -271.000
257.188;  -47.325; -351.000; -264.000
257.329;  -73.125; -525.000; -464.000
257.471; -121.650; -939.000; -807.000
257.613;  -59.350; -584.000; -498.000
257.755; -142.400;-1073.000; -982.000
257.896;   34.450;  286.000;  392.000
258.038;  -71.900; -403.000; -352.000
258.180;  -36.075; -354.000; -279.000
258.321;  -91.750; -581.000; -457.000
258.463;   -3.275;  -71.000;  133.000
258.605;  -82.100; -562.000; -570.000
258.746; -108.875; -886.000; -772.000
258.888; -152.250;-1026.000;-1020.000
259.029;   12.300;  121.000;   -8.000
259.171;  -91.975; -614.000; -550.000
259.313;    1.575;  -49.000;  -47.000
259.454;  -69.350; -536.000; -414.000
259.596;  -56.525; -483.000; -390.000
259.737;  -80.150; -590.000; -474.000
259.879;   35.275;  217.000;  311.000
260.020;   77.875;  901.000;  636.000
260.162;  -22.450; -146.000; -253.000
260.303; -123.250; -768.000; -687.000
260.445;  -85.125; -609.000; -613.000
260.586;   16.450;  392.000;  157.000
260.728;  -41.925; -360.000; -248.000
260.869; -121.425; -350.000; -343.000
261.011;   78.600;  706.000;  537.000
261.152;  -65.700; -479.000; -319.000
261.293;  -90.775; -576.000; -595.000
261.435;  -36.700; -219.000; -184.000
261.576;  -48.375; -455.000; -325.000
261.718;   60.725;  420.000;  470.000
261.859; -127.925; -940.000; -949.000
262.000; -132.625; -951.000;-1016.000
262.142;  -39.350;  -52.000;  -60.000
262.283; -110.750; -808.000; -691.000
262.424;  -82.925; -666.000; -625.000
262.566; -147.250;-1161.000; -983.000
262.707; -121.800; -840.000; -830.000
262.848; -125.125; -769.000; -726.000
262.990;  -38.875; -362.000; -345.000
263.131;   57.300;  650.000;  681.000
263.272;   -4.950;  -61.000;  -41.000
263.413;  -80.625; -589.000; -561.000
263.555;  -63.000; -669.000; -143.000
263.696;  -82.500; -550.000; -641.000
263.837;  -59.675; -449.000; -551.000
263.978;  -15.150;   -5.000;  -77.000
264.119;  -63.800; -283.000; -264.000
264.261; -114.125; -847.000; -630.000
264.402;  -12.750;   33.000;   40.000
264.543;  -82.600; -509.000; -524.000
264.684;   -5.375;   61.000;  -50.000
264.825;  -70.800; -816.000; -538.000
264.966;  -14.475;  -84.000;  -67.000
265.107; -117.350; -646.000; -670.000
265.248; -110.275; -825.000; -812.000
265.390;   -9.275;  152.000;   -9.000
265.531;  -26.300; -238.000; -107.000
265.672; -101.850; -557.000; -630.000
265.813;   56.800;  563.000;  439.000
265.954; -138.900; -959.000; -940.000
266.095;  -16.875; -372.000; -322.000
266.236;  -99.500; -686.000; -548.000
266.377;  -39.775; -243.000; -297.000
266.518;  -66.550; -619.000; -547.000
266.659;   19.400;  170.000;  268.000
266.800;   -2.200;   83.000;   85.000
266.941;  -80.200; -487.000; -478.000
267.082;    5.550;  354.000;   99.000
267.223;  -49.500; -344.000; -273.000
267.364; -116.800; -892.000; -686.000
267.504;  -21.000;    3.000;  135.000
267.645;   -6.600;  160.000;   67.000
267.786;  -32.300; -147.000;  -86.000
267.927;  -70.200; -473.000; -379.000
268.068;  -25.125; -186.000;  -61.000
268.209;  -39.875; -175.000; -413.000
268.350;  -56.025; -388.000; -532.000
268.490;  -98.450; -648.000; -521.000
268.631;   42.400;  127.000;  225.000
268.772; -113.325; -874.000; -647.000
268.913;  -54.225; -328.000; -476.000
269.054;   -8.850; -117.000;   12.000
269.194;  -55.225; -418.000; -402.000
269.335; -150.200;-1137.000;-1074.000
269.476;  -13.975;   33.000;  -35.000
269.617;  -42.075; -347.000; -392.000
269.757;  -85.550; -713.000; -646.000
269.898;  -93.925; -856.000; -613.000
270.039;  -72.850; -415.000; -405.000
270.180; -146.200; -952.000; -816.000
270.320;  -33.900; -190.000; -250.000
270.461;  -39.250; -277.000; -249.000
270.602;   -9.250; -186.000; -156.000
270.742; -115.800; -868.000; -943.000
270.883;  -63.200; -442.000; -390.000
271.023;  -56.200; -358.000; -357.000
271.164;  -63.825; -607.000; -528.000
271.305; -103.375; -666.000; -654.000
271.445;  -81.675; -722.000; -683.000
271.586;  -65.075; -462.000; -283.000
271.726;  -43.825; -397.000; -322.000
271.867;  -55.450; -594.000; -534.000
272.008;  198.925; -473.000; -285.000
272.148;  149.150;  462.000;  468.000
272.289;   22.550; -113.000; -181.000
272.429;   11.125;   19.000;  185.000
272.570;  -84.925; -633.000; -737.000
272.710; -100.550; -825.000; -775.000
272.851;  -10.700;  113.000; -130.000
272.991; -152.000;-1173.000;-1077.000
273.131;  -79.075; -419.000; -459.000
273.272;  -97.100; -683.000; -723.000
273.412;    8.375; -143.000;  -31.000
273.553;  -53.850; -488.000; -507.000
273.693;  132.000;  913.000;  858.000
273.834;  -89.650; -894.000; -692.000
273.974;  -77.500; -664.000; -615.000
274.114; -106.850; -772.000; -560.000
274.255;   65.625;  414.000;  373.000
274.395;   18.575; -180.000; -125.000
274.535;   39.075;  199.000;  350.000
274.676;   23.650;  225.000;   94.000
274.816;   -3.900;  110.000;   34.000
274.956;  -75.525; -624.000; -690.000
275.097;  -44.750;-1014.000; -922.000
275.237; -103.375; -913.000; -803.000
275.377;  -96.300; -778.000; -689.000
275.517; -144.050; -878.000; -937.000
275.658;  -45.275; -590.000; -555.000
275.798;  -67.950; -606.000; -413.000
275.938;    7.475;  215.000;  323.000
276.078;  -99.825; -626.000; -395.000
276.218;   10.625;   99.000;  104.000
276.359; -124.550;-1026.000;-1024.000
276.499;  -76.825; -605.000; -446.000
276.639;  -44.625; -305.000; -151.000
276.779;  -48.350; -475.000; -357.000
276.919; -103.425; -783.000; -624.000
277.059;   -3.600; -261.000; -212.000
277.199;  -35.350; -357.000; -259.000
277.340;   46.475;  287.000;  175.000
277.480; -108.175; -840.000; -693.000
277.620;   19.475;  192.000;   16.000
277.760; -193.275;-1533.000;-1294.000
277.900;   12.175;  113.000;   33.000
278.040;   16.150;  137.000;  159.000
278.180;   33.550;  270.000;  170.000
278.320;   -1.575;   21.000;   56.000
278.460;  -60.025; -443.000; -469.000
278.600;  -92.200; -708.000; -598.000
278.740;   39.050;  448.000;  224.000
278.880;  -44.600; -768.000; -791.000
279.020;    6.075; -194.000; -144.000
279.160;  -78.250; -672.000; -595.000
279.300; -120.425; -926.000; -873.000
279.440;  -75.925; -709.000; -622.000
279.579;   -5.500;-1014.000; -929.000
279.719;  -42.850; -410.000; -394.000
279.859;   81.300;   -4.000;   41.000
279.999;   34.500; -208.000;  101.000
280.139;  -13.075; -435.000; -387.000
280.279;  -68.900; -708.000; -745.000
280.419;  -12.550; -229.000; -147.000
280.559;  -37.225; -259.000; -180.000
280.698;  -76.175; -790.000; -639.000
280.838;  -84.200; -778.000; -800.000
280.978;  -98.850; -846.000; -790.000
281.118; -117.975; -811.000; -704.000
281.257;    8.075;   24.000;    6.000
281.397; -102.200;-1094.000; -960.000
281.537;  -82.975; -599.000; -712.000
281.677;  -33.400; -150.000; -101.000
281.816;  -89.925; -700.000; -630.000
281.956;  -26.575; -193.000; -257.000
282.096;  -53.025; -539.000; -396.000
282.235;  -96.300; -672.000; -638.000
282.375;  -20.675; -243.000;  -98.000
282.515;  -97.900; -715.000; -707.000
282.654;   30.900;   29.000;  106.000
282.794;   23.025;  388.000;  244.000
282.934;  -65.175; -530.000; -491.000
283.073; -141.450;-1030.000; -857.000
283.213;  -56.925; -460.000; -467.000
283.353;  -31.600; -408.000; -349.000
283.492;  -34.600; -264.000; -296.000
283.632;  -43.450; -254.000; -168.000
283.771;  -92.625; -859.000; -730.000
283.911;  -48.500; -369.000; -260.000
284.050;  -89.525; -794.000; -748.000
284.190; -153.850;-1229.000;-1096.000
284.329; -139.825;-1055.000; -964.000
284.469;  -52.800; -516.000; -591.000
284.608;  -58.750; -559.000; -598.000
284.748;  -86.875; -614.000; -570.000
284.887;    4.875;  -87.000;  -20.000
285.027; -121.400; -844.000; -892.000
285.166;  -19.625; -192.000; -249.000
285.306;    8.125; -116.000;  -33.000
285.445;  -38.650; -229.000; -343.000
285.584;  -95.625; -630.000; -494.000
285.724;  -45.400; -282.000; -322.000
285.863; -110.300; -857.000; -507.000
286.002;  -52.675; -366.000; -276.000
286.142;  -99.350; -715.000; -622.000
286.281;  -73.350; -525.000; -493.000
286.420;  -81.075; -554.000; -417.000
286.560;   98.700;  653.000;  623.000
286.699; -132.925; -958.000; -912.000
286.838;  -74.275; -590.000; -591.000
286.978;  -76.950; -533.000; -537.000
287.117; -127.875;-1085.000; -950.000
287.256;  -30.875; -228.000; -211.000
287.395;  -52.025; -197.000; -378.000
287.535;  -43.775; -370.000; -298.000
287.674;  -80.750; -509.000; -484.000
287.813;   52.550;  661.000;  533.000
287.952; -124.575;-1010.000; -871.000
288.091; -140.050;-1049.000; -915.000
288.231;   32.100;   13.000;   15.000
288.370; -162.350;-1217.000;-1200.000
288.509;  -89.350; -728.000; -645.000
288.648;  -88.050; -770.000; -548.000
288.787;  -30.675; -243.000;  -87.000
288.926;  -52.650; -454.000; -475.000
289.065;  110.550;  859.000;  672.000
289.204;  -52.350; -377.000; -217.000
289.344;  -90.400; -791.000; -690.000
289.483;   27.900;  416.000;  304.000
289.622;  -28.250; -291.000; -149.000
289.761;  -16.425; -309.000; -166.000
289.900; -111.250; -785.000; -626.000
290.039;   -8.800;  -12.000;  -95.000
290.178;  -39.100; -274.000; -180.000
290.317;  -81.100; -618.000; -479.000
290.456;  -65.725; -463.000; -451.000
290.595; -127.300; -961.000; -833.000
290.734; -140.525; -904.000; -891.000
290.873;  -65.225; -456.000; -420.000
291.011;  -90.850; -833.000; -843.000
291.150;  -98.450; -770.000; -682.000
291.289;  -17.950; -343.000; -110.000
291.428;  -88.875; -599.000; -480.000
291.567;  -55.350; -370.000; -442.000
291.706;    1.250;  109.000;  154.000
291.845;  -77.025; -597.000; -505.000
291.984; -159.550;-1234.000;-1061.000
292.122;   70.600;  602.000;  582.000
292.261;   31.875;  620.000;  463.000
292.400;    8.000; -144.000;  211.000
292.539; -123.350; -959.000; -813.000
292.678;  -34.550; -325.000; -300.000
292.816; -152.575;-1136.000; -965.000
292.955;  -80.550; -844.000; -684.000
293.094;  -23.500; -173.000; -337.000
293.233;  -48.775; -556.000; -400.000
293.371;  -34.400; -225.000;  -84.000
293.510; -104.475; -866.000; -780.000
293.649; -121.150; -959.000; -924.000
293.787;  -47.375;-1083.000;-1012.000
293.926;   -4.200; -113.000;  -32.000
294.065;  -35.050; -379.000; -290.000
294.203;   37.425;  298.000;  406.000
294.342;   17.675;   74.000;  156.000
294.481; 5361.025;51180.000; -836.000
294.619;  -24.400; -425.000; -582.000
294.758; -129.250;-1230.000;-1137.000
294.896;   72.550; -125.000;    5.000
295.035; -107.050;-1040.000;-1006.000
295.174; -112.400;-1082.000; -954.000
295.312;  -39.150; -323.000; -203.000
295.451;   -5.250; -307.000; -428.000
295.589;  -60.800; -389.000; -518.000
295.728;   31.125; -292.000; -165.000
295.866;   20.825;  -36.000;  -51.000
296.005;  -57.150; -584.000; -341.000
296.143;  -53.300; -558.000; -596.000
296.282;  -94.550; -957.000; -881.000
296.420;  -89.650; -657.000; -557.000
296.559;  -72.575; -892.000; -633.000
296.697;   57.475; -847.000; -665.000
296.835;  108.025;-1141.000;-1002.000
296.974;   54.025;  -23.000;   39.000
297.112;   20.950; -443.000; -504.000
297.251;  -57.100; -815.000; -755.000
297.389;  150.025; -576.000; -438.000
297.527;   51.975; -145.000;  -83.000
297.666;  -36.825; -486.000; -438.000
297.804;  -59.275; -404.000; -264.000
297.942;  -14.875; -136.000; -161.000
298.081;  -17.150; -183.000;   63.000
298.219;   73.400;  -17.000;  -19.000
298.357;   66.250; -144.000;  -71.000
298.495;   75.550; -810.000; -812.000
298.634;   93.800;  245.000;  219.000
298.772;   82.675; -220.000; -338.000
298.910;  -23.975; -309.000; -182.000
299.048;   -2.050; -130.000; -153.000
299.187;  -20.425; -350.000; -250.000
299.325;    3.425;   52.000;  122.000
299.463;   89.050; -389.000; -299.000
299.601;  150.675; -327.000; -271.000
299.739;  -91.625; -908.000; -883.000
299.877;  -75.775; -791.000; -703.000
300.016;  -19.600;-1095.000; -935.000
300.154;  197.025;  -19.000; -161.000
300.292;   80.425; -428.000; -348.000
300.430;   36.250; -408.000; -291.000
300.568;  -93.425; -940.000; -874.000
300.706;  -36.025; -366.000; -469.000
300.844;  -49.850;-1108.000; -979.000
300.982;  122.150;  246.000;  282.000
301.120; -107.025; -965.000; -866.000
301.258;  -70.225; -812.000; -705.000
301.396;   36.225;  104.000;  -41.000
301.534;  110.850; -218.000; -293.000
301.672;    7.250; -664.000; -521.000
301.810;   76.725; -613.000; -545.000
301.948;  144.475;   53.000;  149.000
302.086;  744.650; -250.000;  -32.000
302.224; 1120.900; -610.000; -585.000
302.362;   69.900; -558.000; -622.000
302.500;    8.700; -923.000; -893.000
302.638;  129.300;  128.000;  245.000
302.776;    8.950; -352.000; -408.000
302.913;   48.925;  447.000;  236.000
303.051;   10.225;  -86.000;  -23.000
303.189;   64.250;   90.000;  118.000
303.327;  -25.250; -341.000; -256.000
303.465;  -58.900; -832.000; -588.000
303.603;  -97.650; -805.000; -604.000
303.740;  110.000;  417.000;  241.000
303.878;   47.000; -800.000; -759.000
304.016;  -76.775; -915.000; -790.000
304.154; -109.600;-1123.000;-1152.000
304.291;  -33.725; -505.000; -554.000
304.429;    4.375;  102.000;   74.000
304.567; -115.425; -908.000; -893.000
304.705;  -39.525; -408.000; -515.000
304.842;  132.900; -616.000; -540.000
304.980;   73.975;  215.000;   35.000
305.118;   86.100; -367.000; -365.000
305.255;  -49.525; -945.000; -927.000
305.393;   55.375;  178.000;  239.000
305.531;  -94.800;-1173.000; -956.000
305.668;  -64.650; -663.000; -582.000
305.806;  128.400; -358.000; -439.000
305.943;  134.725; -629.000; -637.000
306.081;   78.375; -378.000; -267.000
306.219;  -96.650; -863.000; -748.000
306.356;   -3.625;  158.000;   27.000
306.494;  106.875;  981.000;  761.000
306.631;   -8.200;  -11.000;  -55.000
306.769;    9.150; -613.000; -485.000
306.906;    6.750; -284.000; -258.000
307.044;  -51.875; -473.000; -488.000
307.181;  -54.250; -410.000; -332.000
307.319;    5.725;  112.000;   87.000
307.456; -155.700;-1191.000;-1153.000
307.594;  -85.125; -980.000; -727.000
307.731;   -7.800; -371.000; -164.000
307.868;   -0.875;  -15.000;   20.000
308.006; -113.000; -961.000; -847.000
308.143;  -47.875; -618.000; -330.000
308.281;  220.275;  -37.000; -254.000
308.418;   11.100; -748.000; -640.000
308.555;  -62.700; -400.000; -250.000
308.693;  -61.125; -577.000; -573.000
308.830; -108.525; -712.000; -657.000
308.967;   -7.375; -215.000;  -95.000
309.105;  -35.875; -507.000; -396.000
309.242;   72.700; -468.000; -367.000
309.379;  421.700; -577.000; -655.000
309.517;  -42.150; -936.000; -948.000
309.654;  -92.350; -910.000; -734.000
309.791;  -68.075; -662.000; -580.000
309.928; -102.275; -977.000; -914.000
310.065;  182.525;  819.000;  697.000
310.203;   22.400; -825.000; -850.000
310.340;   12.725; -465.000; -321.000
310.477;  -79.425; -412.000; -516.000
310.614;  -66.075; -383.000; -473.000
310.751;  -77.625; -427.000; -518.000
310.889;  -13.775;    1.000;   11.000
311.026; -141.925;-1161.000; -939.000
311.163;  -37.925; -386.000; -380.000
311.300;  -81.400; -512.000; -479.000
311.437;  -65.400; -658.000; -619.000
311.574; -157.525;-1226.000; -985.000
311.711;  -50.100; -595.000; -433.000
311.848;  -25.025; -380.000; -388.000
311.985;    9.725;  270.000;   93.000
312.122; -122.050; -932.000; -762.000
312.259; -115.575; -941.000; -994.000
312.396;  -70.425; -508.000; -551.000
312.533;  -89.375; -812.000; -790.000
312.670; -118.800;-1070.000; -898.000
312.807;  -38.275; -352.000; -367.000
312.944;  -78.075; -513.000; -611.000
313.081;  -24.175; -150.000; -415.000
313.218;  -88.075;-1111.000; -867.000
313.355;   12.750; -531.000; -449.000
313.492;   23.250; -455.000; -292.000
313.629;  124.525;  815.000;  735.000
313.766; -146.000;-1176.000;-1008.000
313.902;  -13.250; -186.000;   21.000
314.039;  -47.950; -372.000; -289.000
314.176;   22.200;  286.000;  192.000
314.313;  -70.425; -569.000; -473.000
314.450;  -70.525; -788.000; -684.000
314.587;  -54.550; -468.000; -480.000
314.723;   -1.350;  -78.000;  130.000
314.860;   30.725;  318.000;  332.000
314.997;   39.350;  223.000;  142.000
315.134;  -27.950; -385.000; -368.000
315.270;  -19.250; -480.000; -496.000
315.407; -121.600;-1094.000; -967.000
315.544;  -41.825; -657.000; -538.000
315.681;  -51.825; -681.000; -565.000
315.817;   28.500; -133.000; -176.000
315.954;   25.550; -613.000; -392.000
316.091; -119.325;-1045.000;-1023.000
316.227;   -8.250;  -71.000; -179.000
316.364;  -11.225;   23.000;    6.000
316.500;  -32.925; -113.000; -300.000
316.637;  -38.950; -181.000; -302.000
316.774;  -91.200; -625.000; -358.000
316.910;  -96.300; -598.000; -629.000
317.047;  -69.025; -487.000; -351.000
317.183;  -39.100; -435.000; -566.000
317.320;  -16.725; -367.000; -321.000
317.456;  -71.275; -733.000; -805.000
317.593;  -72.450; -598.000; -641.000
317.729;    1.925;  168.000;  -67.000
317.866; -187.300;-1434.000;-1285.000
318.002;  -89.350; -708.000; -948.000
318.139;  -80.500; -883.000; -867.000
318.275; -106.175;-1003.000; -738.000
318.412;  -66.300; -517.000; -336.000
318.548;   -6.025; -751.000; -720.000
318.685;  -80.975; -985.000; -888.000
318.821;  -99.350; -762.000; -735.000
318.957;  -22.975;   34.000;  -23.000
319.094;   23.850;  297.000;  154.000
319.230;  -42.500; -756.000; -742.000
319.367;  181.925; -471.000; -520.000
319.503;   67.950; -538.000; -436.000
319.639;  -87.050; -877.000; -793.000
319.775;  -47.275; -750.000; -685.000
319.912;  -50.575; -424.000; -519.000
320.048;  -73.475;-1184.000;-1184.000
320.184;   93.950;   59.000;   70.000
320.321;  -63.725; -497.000; -467.000
320.457;   60.750;  475.000;  662.000
320.593;  -59.800; -375.000; -382.000
320.729; -103.850; -732.000; -734.000
320.866;  -79.025; -577.000; -635.000
321.002;  -66.550; -759.000; -809.000
321.138;  -12.675; -135.000; -211.000
321.274;   99.425; -148.000; -115.000
321.410;    2.800; -585.000; -353.000
321.546;   -5.325;-1011.000; -911.000
321.683;   51.350;  400.000;  185.000
321.819;    8.200;  -48.000; -117.000
321.955; -103.900; -743.000; -722.000
322.091;  -38.925; -585.000; -540.000
322.227;  -18.600; -382.000; -202.000
322.363;   -7.100; -320.000; -215.000
322.499;  -30.600; -343.000; -331.000
322.635;  177.350;  636.000;  443.000
322.771;   35.100; -139.000;   12.000
322.907;   91.325;  129.000;  327.000
323.043;  -18.575; -115.000; -206.000
323.179;  -24.525; -394.000; -363.000
323.315;   43.650; -401.000; -371.000
323.451;  132.175; -328.000; -236.000
323.587;   75.700;  -60.000;  -77.000
323.723;   28.025; -682.000; -601.000
323.859;  -23.175; -258.000;  -76.000
323.995;  -29.850; -467.000; -409.000
324.131; -114.125; -967.000; -892.000
324.267;  -39.850; -254.000; -276.000
324.402; -130.950; -960.000; -983.000
324.538;   -9.250; -279.000; -104.000
324.674;    5.025;  164.000;   77.000
324.810;  161.100;  226.000;  308.000
324.946;   45.175; -810.000; -658.000
325.082;  -69.225; -568.000; -475.000
325.217;  -14.000;  -62.000;   16.000
325.353;  -93.850; -764.000; -659.000
325.489;  -76.975; -540.000; -506.000
325.625;  -62.600; -579.000; -525.000
325.760;   47.600;  517.000;  376.000
325.896;  -14.025; -515.000; -702.000
326.032;  -52.725; -403.000; -352.000
326.168;  -58.925; -462.000; -369.000
326.303;  -53.225; -352.000; -461.000
326.439;  -36.800; -336.000; -276.000
326.575;   -1.325; -190.000;  -29.000
326.710;   -5.925; -156.000;  -30.000
326.846;  -19.600;  146.000;  103.000
326.982;  -89.950; -530.000; -548.000
327.117;  -63.650; -481.000; -442.000
327.253;  -83.425; -745.000; -742.000
327.388; -155.100;-1137.000;-1153.000
327.524;  -39.975; -811.000; -578.000
327.659;  -16.175;  -58.000;  -22.000
327.795;  -14.600;   69.000;   45.000
327.931;  -87.625; -723.000; -499.000
328.066;  -23.650; -417.000; -276.000
328.202;   -9.150;   12.000; -129.000
328.337;   87.575;  957.000;  713.000
328.473;   41.950;  -12.000;  -74.000
328.608;  -21.100; -256.000; -267.000
328.743;  -72.250; -799.000; -664.000
328.879;    8.650;  214.000;  114.000
329.014;  -36.925; -102.000; -122.000
329.150;  -79.775; -358.000; -483.000
329.285;  -77.900; -465.000; -466.000
329.421;  -43.775; -548.000; -246.000
329.556;  -21.700;  -36.000;   85.000
329.691; -107.150; -633.000; -615.000
329.827;  -90.300; -626.000; -480.000
329.962;  -42.375;  131.000; -301.000
330.097;  -99.625; -673.000; -585.000
330.233;  -52.425; -410.000; -223.000
330.368; -124.900; -839.000; -628.000
330.503;  -14.075;    3.000;   98.000
330.638;    7.750;  -93.000; -125.000
330.774;  -55.750; -609.000; -530.000
330.909;  -37.250; -434.000; -244.000
331.044; -104.925; -714.000; -708.000
331.179; -173.300;-1217.000;-1109.000
331.315;    4.700;   77.000;   20.000
331.450;   24.250;  157.000;  285.000
331.585;  -79.100; -805.000; -706.000
331.720;  -83.225; -510.000; -460.000
331.855;  -10.750;  -35.000; -102.000
331.990;  229.525;   62.000;  138.000
332.126;  122.075; -110.000;   71.000
332.261;  -14.450; -379.000; -265.000
332.396;   -0.550; -135.000; -242.000
332.531; -103.425;-1074.000;-1031.000
332.666;   34.900; -519.000; -363.000
332.801;  -96.875; -726.000; -807.000
332.936;  -16.475; -192.000; -122.000
333.071; -135.425; -870.000; -817.000
333.206;   23.675;  307.000;  379.000
333.341;   27.725;  344.000;  418.000
333.476;  -89.650; -627.000; -623.000
333.611;  -44.225; -251.000; -173.000
333.746;  -38.600; -381.000; -464.000
333.881; -108.625; -973.000; -935.000
334.016; -111.925; -936.000; -917.000
334.151; -113.600; -746.000; -702.000
334.286;   32.750;  152.000;  186.000
334.421;  -16.475; -125.000; -178.000
334.556;  -85.150; -611.000; -567.000
334.690;  -80.925; -631.000; -577.000
334.825;   50.700;  381.000;   83.000
334.960;  -48.325; -285.000; -413.000
335.095;    1.900;  135.000;  -91.000
335.230; -107.750; -722.000; -738.000
335.365; -140.025;-1084.000; -990.000
335.499; -123.100;-1108.000;-1037.000
335.634;   33.600;    9.000;  534.000
335.769;  -99.925; -755.000; -720.000
335.904;  -47.350; -603.000; -561.000
336.038;  -46.125; -735.000; -657.000
336.173;  -86.500;-1206.000;-1194.000
336.308;   17.100; -116.000; -189.000
336.443;   24.025; -544.000; -634.000
336.577;  -48.000; -936.000; -787.000
336.712;   63.125;   -4.000;  -12.000
336.847;  -11.875; -724.000; -607.000
336.981;   81.800; -272.000; -208.000
337.116;  325.150;  615.000;  501.000
337.250;  192.125; -434.000; -421.000
337.385;  222.150; -297.000; -208.000
337.520;   55.350; -632.000; -603.000
337.654;  -43.425; -215.000; -126.000
337.789; -119.925; -989.000; -933.000
337.923;  -26.725; -104.000; -205.000
338.058;  -73.375; -673.000; -738.000
338.192;  -19.800; -611.000; -488.000
338.327;   -5.150;  -18.000; -155.000
338.461;  -60.100; -299.000; -469.000
338.596;  -79.250; -780.000; -638.000
338.730;  -96.100; -767.000; -803.000
338.865;   64.950;  -46.000; -140.000
338.999;  -58.675; -846.000; -702.000
339.134;  -34.375; -634.000; -536.000
339.268;   12.950; -741.000; -603.000
339.403;  342.150; -740.000; -775.000
339.537;  110.700; -894.000; -820.000
339.671; -110.675; -829.000; -813.000
339.806;  -65.750; -556.000; -512.000
339.940;    4.050; -261.000; -235.000
340.074;  -93.175; -685.000; -510.000
340.209;  -31.150; -351.000; -230.000
340.343;  -84.850; -517.000; -573.000
340.477;  160.350;  998.000; 1036.000
340.612;  -52.850;-1033.000; -900.000
340.746;  118.725; -199.000; -243.000
340.880;  -56.625; -924.000; -785.000
341.014;   -6.450;  -45.000; -154.000
341.149;  -97.375; -756.000; -718.000
341.283;  -93.575; -839.000; -754.000
341.417;  -68.425;-1124.000; -938.000
341.551;  175.500; -768.000; -708.000
341.685;  -12.900; -633.000; -611.000
341.820;  -56.500; -562.000; -493.000
341.954;  -43.225; -218.000; -349.000
342.088; -158.725;-1102.000;-1019.000
342.222;   45.500;  565.000;  618.000
342.356;  -60.175; -395.000; -335.000
342.490;  -79.275; -880.000; -841.000
342.624;  -40.975; -339.000; -242.000
342.758;   19.150; -364.000; -312.000
342.892;  -46.200; -710.000; -585.000
343.026;  -32.200;  -58.000; -116.000
343.160;  -58.850; -426.000; -376.000
343.294;  -76.600; -474.000; -337.000
343.428;    4.375; -488.000; -448.000
343.562;  -13.100; -172.000;  -23.000
343.696;  -22.075; -385.000; -314.000
343.830;   -7.225; -362.000; -356.000
343.964;   33.850; -231.000; -168.000
344.098; 1072.350;  199.000;   70.000
344.232;  925.500; -266.000; -127.000
344.366;  112.875; -567.000; -453.000
344.500;  106.725; -665.000; -744.000
344.634;   54.825; -324.000; -164.000
344.768;    3.775; -531.000; -341.000
344.902;    4.425;  278.000;  256.000
345.035;  -79.025; -556.000; -496.000
345.169; -123.500; -933.000; -656.000
345.303;  -24.950; -308.000; -482.000
345.437;  -49.000; -826.000; -717.000
345.571;  -72.775; -675.000; -594.000
345.704;  -71.575; -309.000; -532.000
345.838;    6.775; -331.000; -284.000
345.972;  -38.775; -543.000; -495.000
346.106;  153.150; -179.000; -190.000
346.239;  430.550; -312.000; -243.000
346.373;   28.875; -343.000; -302.000
346.507; -135.600; -950.000; -962.000
346.640;  189.725;  -30.000;   13.000
346.774;  -28.150; -650.000; -797.000
346.908;   -9.300; -138.000;  -11.000
347.041; -102.825; -646.000; -593.000
347.175;    4.575;  259.000;   27.000
347.309;  -59.225; -698.000; -628.000
347.442;  -77.525; -883.000; -732.000
347.576;  315.475;  670.000;  668.000
347.709;  258.200; -123.000;  -52.000
347.843;  -78.500; -933.000; -825.000
347.976;   27.650;  235.000;  294.000
348.110; -169.725;-1268.000;-1186.000
348.243;  -98.025; -679.000; -772.000
348.377;   -1.725;  -26.000;   60.000
348.510;   46.225;  403.000;  540.000
348.644;  -22.225;  -37.000; -159.000
348.777;    1.475;  180.000;  191.000
348.911;  -45.500; -142.000; -112.000
349.044;  183.125;  471.000;  448.000
349.178;  231.175;-1069.000;-1006.000
349.311;  126.750;  141.000;  255.000
349.444;   -6.500; -927.000; -813.000
349.578;  -28.825; -347.000; -200.000
349.711;  -77.425; -959.000; -862.000
349.845;   30.350; -661.000; -591.000
349.978; -137.050;-1224.000;-1137.000
350.111;  -73.425; -546.000; -612.000
350.244;  -77.725; -596.000; -700.000
350.378;   13.400; -392.000; -393.000
350.511;  -58.200; -393.000; -426.000
350.644; -103.925; -808.000; -806.000
350.778;   10.825;  168.000;  104.000
350.911;   -0.125;  134.000;  140.000
351.044;  -91.075; -685.000; -615.000
351.177;  -24.925; -321.000; -281.000
351.310;  -30.125;    3.000; -131.000
351.444;  -61.800; -888.000; -788.000
351.577;  136.400;  140.000;   90.000
351.710;   91.400;  593.000;  417.000
351.843;  -24.975; -165.000;  -77.000
351.976;    2.850;  149.000;  -79.000
352.109;  -81.750; -621.000; -612.000
352.242;  -17.850; -464.000; -419.000
352.376;  -35.675; -580.000; -636.000
352.509;  224.300; -437.000; -356.000
352.642;   58.775; -654.000; -604.000
352.775;   74.200; -141.000;  -98.000
352.908; -118.025; -933.000; -904.000
353.041;  -94.050; -814.000; -824.000
353.174;  -60.075; -551.000; -424.000
353.307;  -93.600; -753.000; -764.000
353.440;   79.475;  541.000;  453.000
353.573; -103.900; -957.000;-1008.000
353.706;  -17.625; -384.000; -558.000
353.839;   -3.975; -264.000; -220.000
353.971;  -86.500; -657.000; -512.000
354.104;  -69.550; -896.000; -835.000
354.237;  -18.450; -627.000; -662.000
354.370;  -72.075; -846.000; -879.000
354.503; -175.675;-1231.000;-1308.000
354.636;  -27.725; -529.000; -348.000
354.769; -122.125; -937.000; -860.000
354.902;   -5.400; -230.000; -139.000
355.034;  -12.250; -164.000; -220.000
355.167;  -20.875; -262.000; -162.000
355.300;  -79.525;-1061.000; -880.000
355.433;  929.450;  -71.000;  -14.000
355.565; 1470.225; -402.000; -384.000
355.698;  356.125; -356.000; -296.000
355.831;   12.875; -882.000; -801.000
355.964;  100.875; -285.000; -170.000
356.096;  -72.875; -856.000; -843.000
356.229;   29.875; -523.000; -530.000
356.362;  292.525; -373.000; -266.000
356.494;  570.175; -229.000; -162.000
356.627;  553.425;  269.000;  377.000
356.760;  644.550;  120.000;   53.000
356.892;  911.350; -286.000; -601.000
357.025;  760.125;  403.000;  389.000
357.157;  736.675; -167.000; -179.000
357.290;  593.125; -856.000; -713.000
357.423;  203.925; -667.000; -556.000
357.555;  139.775; -217.000; -228.000
357.688;  163.650; -483.000; -364.000
357.820;  557.375; -870.000; -877.000
357.953; 4228.175; -563.000; -589.000
358.085;  987.450; -632.000; -612.000
358.218; 1509.575;-1131.000; -932.000
358.350;  275.250;  -58.000;  312.000
358.483;  -91.550;-1300.000;-1187.000
358.615;   38.450;-1182.000;-1078.000
358.747;   -5.175;-1187.000;-1058.000
358.880;   66.100; -810.000; -744.000
359.012;    2.800; -376.000; -202.000
359.145;  -43.700; -480.000; -511.000
359.277;  123.150; -962.000; -913.000
359.409; 3496.700;  536.000;  231.000
359.542;  970.050; -738.000; -688.000
359.674;   99.625;   46.000;   13.000
359.806;  -61.325; -565.000; -438.000
359.939;  -34.900; -617.000; -516.000
360.071;   -8.575; -583.000; -579.000
360.203;  -10.025; -411.000; -364.000
360.335;   45.050;  164.000;  -16.000
360.468;  226.850; -249.000; -307.000
360.600; 2726.025; -547.000; -454.000
360.732; 2694.600; -546.000; -423.000
360.864;  385.900;-1216.000;-1044.000
360.996;  366.000; -516.000; -554.000
361.129;   85.400; -389.000; -598.000
361.261;   39.475;  110.000; -113.000
361.393;  -34.050; -252.000; -214.000
361.525;   31.575;   94.000;  244.000
361.657;  -20.675; -821.000; -703.000
361.789;   25.700; -139.000; -155.000
361.921;  308.150; -642.000; -593.000
362.053;  307.525;  524.000;  541.000
362.185;   51.250;  288.000;   72.000
362.318;  -47.200; -709.000; -705.000
362.450;  150.900;  294.000;  444.000
362.582;  194.175; -913.000; -870.000
362.714;  -16.475; -353.000; -332.000
362.846;  -81.150; -606.000; -490.000
362.978; -141.700; -941.000; -811.000
363.109;   71.350; -161.000; -260.000
363.241;  544.850; -739.000; -749.000
363.373;  425.575; -649.000; -564.000
363.505;  605.650; -186.000;  -91.000
363.637;  156.450; -787.000; -601.000
363.769; -110.950;-1067.000;-1080.000
363.901;  -45.025; -596.000; -654.000
364.033; -101.600;-1103.000;-1062.000
364.165;   14.675; -283.000; -283.000
364.296;   73.000; -316.000; -177.000
364.428;   58.625;-1344.000;-1220.000
364.560;  -55.250; -679.000; -661.000
364.692;  -56.500; -738.000; -835.000
364.824;  351.525; -588.000; -456.000
364.955;  451.450; -402.000; -564.000
365.087;  813.150;-1097.000; -852.000
365.219;   42.500; -686.000; -816.000
365.351;  -61.775; -526.000; -572.000
365.482;   58.275;  300.000;  240.000
365.614;  -38.175; -402.000; -314.000
365.746; -101.550; -729.000; -752.000
365.877; -100.075; -706.000; -672.000
366.009;  237.025;  -35.000;  -62.000
366.141;  -86.450;-1249.000;-1134.000
366.272; -103.975; -803.000; -719.000
366.404; -103.300;-1005.000; -874.000
366.535;  -24.350; -139.000;  -12.000
366.667; -106.825; -644.000; -649.000
366.799;   46.625;  353.000;  203.000
366.930; -106.400; -862.000; -996.000
367.062;  108.925; -639.000; -613.000
367.193;  144.075; -872.000; -842.000
367.325;  -61.975; -580.000; -684.000
367.456;   71.575; -246.000;   31.000
367.588;  151.400; -371.000; -318.000
367.719;   20.350;  -44.000;  -45.000
367.851;  -15.250; -222.000; -241.000
367.982;  -27.700; -875.000; -732.000
368.113;  136.075; -475.000; -358.000
368.245;  -96.275; -960.000; -841.000
368.376;   -8.775; -254.000; -302.000
368.508;  -19.075; -188.000; -263.000
368.639; -133.825;-1166.000;-1034.000
368.770;    5.750; -670.000; -589.000
368.902;  -33.850; -836.000; -926.000
369.033; -106.550; -906.000; -855.000
369.164;  -36.450; -720.000; -653.000
369.296; -101.425; -452.000; -601.000
369.427;    5.350; -209.000; -144.000
369.558;  -43.800; -593.000; -377.000
369.689;  -79.675; -721.000; -569.000
369.821; -121.600; -951.000; -845.000
369.952;  -18.750;   42.000; -108.000
370.083;  -51.650; -229.000; -108.000
370.214;  -79.525; -735.000; -650.000
370.345;   -2.150;   65.000;   81.000
370.477;  -68.125; -810.000; -790.000
370.608;  282.525; -328.000; -264.000
370.739;  -10.675;-1233.000;-1292.000
370.870;    1.950;-1102.000; -923.000
371.001;  125.925; -378.000; -467.000
371.132;  -68.575; -754.000; -735.000
371.263;   -6.275;  -42.000; -148.000
371.394; -124.950; -841.000; -748.000
371.525;   36.550;  345.000;  225.000
371.657;  -77.875; -808.000; -670.000
371.788;   97.225;  103.000;  199.000
371.919;  214.325; -384.000; -304.000
372.050; 4246.600;  -91.000; -156.000
372.181; 1321.275; -188.000; -294.000
372.311;  464.850;   42.000; -127.000
372.442;   66.800; -457.000; -451.000
372.573;   -2.000; -444.000; -340.000
372.704; -109.050;-1008.000; -980.000
372.835;  101.350; -228.000; -289.000
372.966;  -49.825; -646.000; -554.000
373.097;  -44.375; -575.000; -711.000
373.228;  -18.850; -717.000; -542.000
373.359;  196.725; -824.000; -536.000
373.490; 1142.050; -881.000; -727.000
373.620; 1475.025;-1001.000; -803.000
373.751; 2191.625; -332.000; -396.000
373.882; 1029.350; -663.000; -733.000
374.013;   94.850; -449.000; -262.000
374.143;  -18.825; -581.000; -659.000
374.274;  -95.625; -987.000; -908.000
374.405;  208.925; -388.000; -276.000
374.536;  549.600; -526.000; -387.000
374.666; 1420.675; -759.000; -807.000
374.797;  311.575; -817.000; -868.000
374.928; 1080.475; -710.000; -560.000
375.058; 1131.450; -535.000; -500.000
375.189;  112.475;  -59.000;  -93.000
375.320; -105.350; -928.000;-1034.000
375.450;  -26.825; -625.000; -616.000
375.581;  -39.350; -526.000; -436.000
375.712;  -16.400; -574.000; -250.000
375.842;  384.575; -438.000; -415.000
375.973;  306.325; -554.000; -513.000
376.103;  -18.550; -665.000; -648.000
376.234;  -56.850; -531.000; -552.000
376.364;   -8.125; -944.000; -867.000
376.495;  386.175;  925.000;  529.000
376.625;   23.100; -472.000; -485.000
376.756;  102.150; -709.000; -678.000
376.886;  -43.925;-1178.000;-1026.000
377.017;   38.400;-1048.000;-1061.000
377.147;  315.875; -786.000; -782.000
377.278;   56.025;  174.000;  228.000
377.408; -113.175; -801.000; -815.000
377.538;  -98.200; -707.000; -693.000
377.669;  -65.950; -537.000; -613.000
377.799;  -79.875; -645.000; -635.000
377.929;  -48.075; -610.000; -428.000
378.060; -129.000; -781.000; -847.000
378.190;  -59.625; -726.000; -531.000
378.320;  -42.225; -401.000; -406.000
378.451;   -8.125; -131.000;  -22.000
378.581;   -6.900;  -67.000; -110.000
378.711;  163.000; 1035.000;  866.000
378.841;   -4.325; -533.000; -675.000
378.972;  -42.800; -871.000; -751.000
379.102;   11.075; -652.000; -579.000
379.232;  -10.250; -126.000;  -73.000
379.362;  -98.175;-1001.000; -885.000
379.492;   59.350; -373.000; -424.000
379.623;  126.625;    0.000;  111.000
379.753;  -74.800;-1107.000; -974.000
379.883;  242.100;   59.000;  156.000
380.013;   44.575;-1081.000;-1017.000
380.143;  -69.550;-1097.000;-1056.000
380.273;  -81.125; -985.000; -861.000
380.403;    4.625; -344.000; -257.000
380.533;  -20.425; -651.000; -664.000
380.663;   95.200;  173.000;  128.000
380.793;  -68.675;-1027.000;-1074.000
380.923;  -19.000; -103.000;  -34.000
381.053;  -77.100; -613.000; -623.000
381.183;  -13.600; -106.000; -248.000
381.313;   67.925; -656.000; -470.000
381.443;   86.825; -692.000; -473.000
381.573;  283.425; -402.000; -409.000
381.703;  427.950;-1249.000;-1095.000
381.833;  -94.650;-1454.000;-1336.000
381.963;  115.375; -134.000;  -87.000
382.093; 1641.775; -925.000; -909.000
382.223;  561.425; -713.000; -602.000
382.353;    5.175; -801.000; -608.000
382.482;  507.575;-1091.000; -964.000
382.612;  916.375; -872.000; -644.000
382.742;  535.500; -695.000; -622.000
382.872;  368.650; -565.000; -551.000
383.002;   88.650;  347.000; -132.000
383.131;   -7.575; -226.000; -160.000
383.261;  -36.250; -706.000; -768.000
383.391;  316.275; -552.000; -377.000
383.521; 2943.825;  451.000;  263.000
383.650;  714.550; -947.000; -904.000
383.780;  -18.425; -783.000; -656.000
383.910;  116.450;  880.000;  802.000
384.039;   63.025; -794.000; -656.000
384.169;  324.125;-1205.000;-1017.000
384.299;    7.775; -650.000; -662.000
384.428;  -73.125; -764.000; -680.000
384.558;  -32.275; -308.000; -275.000
384.687;  -37.025; -414.000; -334.000
384.817;   22.850;   75.000;   -2.000
384.947;   40.875; -234.000; -141.000
385.076;  332.525;  982.000;  912.000
385.206;  116.150;  369.000;  480.000
385.335;  -16.300; -549.000; -417.000
385.465;  -69.550; -655.000; -663.000
385.594;  166.225;  -53.000;  -44.000
385.724;  566.875; -868.000; -838.000
385.853;  149.575; -296.000; -270.000
385.982; 1610.025; -743.000; -787.000
386.112; 2706.800;-1052.000; -871.000
386.241;  211.275; -307.000; -312.000
386.371;   46.700; -174.000;  -87.000
386.500;   34.300; -825.000; -789.000
386.629;   42.600; -874.000; -817.000
386.759;   75.625;  -43.000;   68.000
386.888;   25.075; -170.000; -250.000
387.017;  -70.350; -648.000; -620.000
387.147;  -70.525; -771.000; -798.000
387.276;   23.600; -410.000; -397.000
387.405;   42.800; -398.000; -342.000
387.535;  -23.500; -452.000; -361.000
387.664;  -57.575; -692.000; -620.000
387.793;   64.800; -198.000; -113.000
387.922;  633.050;  255.000;  200.000
388.052;   78.600; -576.000; -423.000
388.181;   45.025; -342.000; -472.000
388.310;   59.525; -889.000; -710.000
388.439;   -5.575; -749.000; -742.000
388.568;  226.325;  365.000;  244.000
388.697; 1308.725; -756.000; -653.000
388.826;  298.350; -768.000; -666.000
388.956;   85.225; -285.000; -307.000
389.085;  -11.400; -347.000; -287.000
389.214;  -91.225; -842.000; -872.000
389.343;  -51.800; -645.000; -413.000
389.472;  379.075;  126.000;  149.000
389.601;  530.675;   91.000;    0.000
389.730;   50.675; -568.000; -687.000
389.859;   64.600;  226.000;   46.000
389.988;  238.350; -423.000; -408.000
390.117;  199.025; -168.000; -146.000
390.246;   20.650; -331.000; -320.000
390.375;  154.525; -673.000; -626.000
390.504;  -47.425; -703.000; -621.000
390.633;  -89.350; -672.000; -726.000
390.761;  -56.650; -732.000; -645.000
390.890;   39.175;   -4.000; -130.000
391.019;   -2.025; -421.000; -441.000
391.148; -127.875; -826.000; -855.000
391.277;  -51.125; -576.000; -493.000
391.406;  -59.150; -821.000; -805.000
391.534;   29.000;  574.000; -301.000
391.663;  -49.725; -583.000; -645.000
391.792;  -66.200; -673.000; -701.000
391.921;  138.425;   -3.000;   15.000
392.050;  259.025; -287.000; -228.000
392.178;   11.775;-1206.000;-1061.000
392.307;  210.625; -758.000; -712.000
392.436;  109.300; -427.000; -641.000
392.564;   27.125;  166.000;   -6.000
392.693;  -80.775; -860.000; -682.000
392.822;  251.275; -529.000; -534.000
392.950;  137.900; -880.000; -714.000
393.079;  412.950; -188.000; -328.000
393.208;   53.225; -488.000; -511.000
393.336;  -22.650; -170.000; -145.000
393.465;  -40.900; -317.000; -199.000
393.593;    7.575;   62.000;   79.000
393.722; -147.150;-1121.000; -916.000
393.850;  -37.475; -188.000;  -61.000
393.979; -147.775; -926.000; -805.000
394.107;  -63.800; -517.000; -537.000
394.236;    4.025; -570.000; -507.000
394.364;  257.225;  383.000;  206.000
394.493;  493.400; -911.000; -767.000
394.621;   12.150; -955.000; -916.000
394.750;  647.575; -873.000; -923.000
394.878; 2709.500; -247.000; -149.000
395.007; 3892.875; -721.000; -807.000
395.135;  305.100; -790.000; -721.000
395.263;  -86.525;-1038.000;-1040.000
395.392;    2.050;  -25.000; -107.000
395.520; -127.000; -818.000; -679.000
395.648;  -79.025; -865.000; -915.000
395.777;   14.625; -366.000; -405.000
395.905;  -40.475; -449.000; -564.000
396.033;   31.650;  217.000;  172.000
396.162;  735.600; -399.000; -453.000
396.290;  698.550;  -17.000;   -2.000
396.418;  161.250; -555.000; -514.000
396.546;  -49.400; -571.000; -466.000
396.674;  -78.975; -850.000; -878.000
396.803;   12.000;  -72.000;  -23.000
396.931;  129.750; -179.000; -199.000
397.059;  119.700;-1026.000; -989.000
397.187; -107.050;-1026.000; -975.000
397.315; -142.900; -884.000; -649.000
397.443;  -98.925; -592.000; -443.000
397.572;  -99.700; -578.000; -424.000
397.700;   13.700; -607.000; -614.000
397.828;   43.875;  120.000;  -90.000
397.956;  -53.075; -508.000; -478.000
398.084;  -78.075; -767.000; -626.000
398.212;   53.075;  137.000;  124.000
398.340;   27.400;  -56.000;  159.000
398.468;   57.800; -390.000; -169.000
398.596; -121.225; -993.000; -953.000
398.724; -116.325; -762.000; -767.000
398.852; -168.525;-1024.000; -976.000
398.980;  -56.925; -560.000; -560.000
399.108;  -25.925; -982.000; -735.000
399.236;   49.600;   13.000;    8.000
399.363;   29.300;  222.000;  196.000
399.491;  -68.225; -404.000; -398.000
399.619; -124.850; -829.000; -800.000
399.747; -108.150; -859.000; -771.000
399.875;   73.025;  220.000;  234.000
400.003;  -48.100; -359.000; -284.000
400.130;  -92.900; -421.000; -341.000
400.258;  -26.125;  -83.000;   38.000
400.386;  -60.250; -352.000; -168.000
400.514;  -33.750; -526.000; -587.000
400.641;  -59.900; -928.000; -802.000
400.769; -127.175; -979.000; -888.000
400.897;  -99.875; -838.000; -793.000
401.025;    4.650; -166.000; -152.000
401.152;    7.375;  220.000;   38.000
401.280;  -75.325; -430.000; -429.000
401.408; -117.000; -712.000; -576.000
401.535;  -93.925; -735.000; -758.000
401.663; -182.025;-1134.000;-1054.000
401.790;  -69.700; -514.000; -525.000
401.918;   38.850;  436.000;  405.000
402.046;   -6.575;  134.000;  122.000
402.173;  -36.675;  -18.000;    7.000
402.301;  -81.000; -519.000; -397.000
402.428;   38.050;  528.000;  383.000
402.556; -134.450;-1188.000; -913.000
402.683;  -27.450;  -20.000;   -1.000
402.811;  -25.600;  -37.000; -206.000
402.938;   -9.000;   20.000;   27.000
403.066;  258.550; -574.000; -558.000
403.193;  434.850;  299.000;  239.000
403.321;  336.800; -396.000; -574.000
403.448;  411.325;   83.000;   27.000
403.575;  178.075;  -90.000;  -46.000
403.703;  -83.375; -732.000; -557.000
403.830;  -68.700; -531.000; -496.000
403.957; -129.050;-1117.000;-1023.000
404.085;    6.250;  -61.000; -172.000
404.212;  111.350;  -50.000;   63.000
404.339;  254.050; -566.000; -306.000
404.467; 5389.400; -612.000; -524.000
404.594; 3962.300; -287.000; -227.000
404.721; 1073.125; -869.000; -764.000
404.848;   91.050; -113.000; -202.000
404.976;  -87.475; -856.000; -783.000
405.103;   -4.200;  -14.000;  -82.000
405.230;    1.575;  190.000;  226.000
405.357;   20.025;  117.000;   44.000
405.484;  256.650;  -49.000;    5.000
405.612;   62.050; -548.000; -563.000
405.739;  -57.600; -488.000; -243.000
405.866;  102.800;  669.000;  385.000
405.993;  -33.200; -398.000; -102.000
406.120; -128.300; -801.000; -887.000
406.247;  -48.425; -323.000; -342.000
406.374;  520.175;  540.000;  629.000
406.501;  192.025; -632.000; -702.000
406.628;  -66.775; -621.000; -589.000
406.755;  -76.525; -803.000; -620.000
406.882;  -36.675; -228.000; -277.000
407.009; -115.450; -719.000; -628.000
407.136;   82.650; -480.000; -401.000
407.263;  221.500; -939.000; -829.000
407.390;  -47.400; -692.000; -614.000
407.517; -154.275;-1139.000;-1187.000
407.644;  -43.500; -332.000; -256.000
407.771;  -67.075; -249.000; -287.000
407.898;    4.825;  168.000;  328.000
408.025;  -56.675; -421.000; -313.000
408.151;  -17.000;   82.000;  153.000
408.278;  -58.350; -267.000; -216.000
408.405; -107.975; -931.000; -899.000
408.532;  -48.525; -549.000; -542.000
408.659; -105.000; -677.000; -648.000
408.785; -194.700;-1298.000;-1170.000
408.912;  -65.700; -412.000; -296.000
409.039; -111.875; -610.000; -686.000
409.166; -110.725; -591.000; -555.000
409.292; -112.325; -571.000; -534.000
409.419; -123.200; -665.000; -649.000
409.546;  -94.600; -431.000; -192.000
409.672; -112.000; -713.000; -545.000
409.799;  -19.625;  -36.000;   34.000
409.926;  -31.625; -180.000; -179.000
410.052; -165.325;-1127.000;-1091.000
410.179;  -60.100; -368.000; -392.000
410.305;  -85.575; -375.000; -493.000
410.432;  -45.000; -220.000; -333.000
410.558;  -82.075; -305.000; -380.000
410.685; -103.950; -688.000; -431.000
410.812;  -91.975; -409.000; -588.000
410.938; -136.525; -964.000; -808.000
411.065; -103.425; -671.000; -645.000
411.191;  -11.450; -189.000; -174.000
411.317; -105.225; -823.000; -742.000
411.444;  -61.200; -317.000; -246.000
411.570;  -61.425; -339.000; -294.000
411.697; -114.725; -758.000; -752.000
411.823; -167.275; -989.000; -999.000
411.949;  -24.725;  -56.000;   17.000
412.076; -103.325; -539.000; -519.000
412.202; -101.225; -758.000; -757.000
412.329; -125.325; -798.000; -752.000
412.455; -105.725; -821.000; -657.000
412.581;  -26.675;  -15.000;  172.000
412.707;  -56.675; -540.000; -457.000
412.834;   24.125;  156.000;  219.000
412.960;  -80.075; -785.000; -784.000
413.086;  -89.600; -743.000; -701.000
413.212;  160.675;  604.000;  578.000
413.339;  -48.875; -685.000; -701.000
413.465;   29.175; -364.000; -310.000
413.591;  -78.325; -757.000; -474.000
413.717;  -56.000; -358.000; -366.000
413.843; -135.375; -839.000; -861.000
413.969;  -69.975;  -47.000; -292.000
414.096;  -96.350; -679.000; -679.000
414.222;   -2.225;  -33.000;   85.000
414.348;  -13.875; -652.000; -385.000
414.474;  143.800;   38.000;  -52.000
414.600;  -11.775; -126.000; -144.000
414.726;   -3.900;  -96.000;  -55.000
414.852;  -61.100; -365.000; -342.000
414.978;   42.150;  104.000;  -18.000
415.104;   55.000;   38.000;   80.000
415.230;   34.400; -329.000; -330.000
415.356;   53.150; -409.000; -514.000
415.482;  200.800;   13.000;  -35.000
415.608;  269.000; -247.000; -323.000
415.734;  906.400;   67.000;   38.000
415.860;18905.175; -875.000; -767.000
415.986;14986.850; -685.000; -607.000
416.111; 1357.550; -798.000; -652.000
416.237;  245.675; -424.000; -571.000
416.363;  993.450; -765.000; -733.000
416.489; 4012.625; -324.000; -251.000
416.615;  476.500; -707.000; -742.000
416.741;  -21.800; -677.000; -784.000
416.866;  -86.700; -673.000; -736.000
416.992; -122.400; -801.000; -818.000
417.118;  -34.900;  -41.000;  -80.000
417.244;  -65.700; -798.000; -531.000
417.369;  -83.100; -801.000; -612.000
417.495;    4.925; -325.000; -254.000
417.621;  -66.200;-1015.000; -803.000
417.746;   -3.775; -579.000; -572.000
417.872;   50.700; -254.000; -144.000
417.998;   35.750; -515.000; -530.000
418.123;  905.750;-1073.000; -845.000
418.249; 5183.150; -512.000; -601.000
418.374;  780.500; -916.000; -824.000
418.500;  122.750; -383.000; -482.000
418.626;   99.025;   70.000;  -59.000
418.751;  128.700; -549.000; -448.000
418.877;  192.400; -637.000; -643.000
419.002; 1596.650; -688.000; -560.000
419.128;11899.700; -930.000; -721.000
419.253; 3183.475; -967.000; -837.000
419.379;  414.675; -391.000; -338.000
419.504;  376.150;  325.000;  415.000
419.629;  484.175; -393.000; -212.000
419.755; 3083.650; -317.000; -254.000
419.880;19502.900;  -98.000;   67.000
420.006;10756.450; -280.000; -221.000
420.131;28643.800; -662.000; -775.000
420.256; 4551.075; -315.000; -316.000
420.382;  598.600; -665.000; -687.000
420.507;   78.475; -649.000; -778.000
420.632;  157.275; -337.000; -339.000
420.758;  344.250; -251.000; -425.000
420.883;  -60.575; -876.000; -672.000
421.008;  -87.950; -775.000; -619.000
421.133;  -76.950; -509.000; -467.000
421.259;  -52.500; -325.000; -259.000
421.384; -101.825; -834.000; -693.000
421.509;  -31.400;-1052.000; -862.000
421.634; 1458.850; -936.000; -820.000
421.759;  719.425; -359.000; -327.000
421.885;  -25.850; -717.000; -656.000
422.010;  -75.125; -673.000; -542.000
422.135; -142.575; -695.000; -727.000
422.260;   38.450;  340.000;  280.000
422.385;  -40.600;   12.000;  -98.000
422.510;    3.425;  151.000;  -26.000
422.635;   25.950;  -87.000;  -43.000
422.760;  138.925; -766.000; -791.000
422.885;   75.900;  -57.000;  -80.000
423.010;  -44.025; -112.000; -169.000
423.135; -107.400; -481.000; -561.000
423.260;    4.575; -150.000; -245.000
423.385;   77.700;  476.000;  222.000
423.510;   41.800;   71.000;  -22.000
423.635;  112.450;  133.000;   45.000
423.760;   61.425;  383.000;  328.000
423.885;   53.200;  336.000;  391.000
424.010;   18.175;  -68.000;  -13.000
424.135;   -2.875;    5.000;  -33.000
424.259;  -90.400; -654.000; -457.000
424.384;  -68.600; -279.000; -272.000
424.509;  -22.250; -260.000; -186.000
424.634;  -83.750; -761.000; -623.000
424.759;  -24.475; -688.000; -544.000
424.883;  -14.400; -506.000; -527.000
425.008;  172.300; -502.000; -410.000
425.133; 1862.775; -679.000; -653.000
425.258;  958.150; -517.000; -381.000
425.382; 1116.950; -867.000; -774.000
425.507; 3138.125; -487.000; -543.000
425.632;  522.025; -802.000; -663.000
425.756;  427.925; -256.000; -146.000
425.881; 5553.675; -831.000; -857.000
426.006;16262.725; -604.000; -355.000
426.130; 2850.375; -696.000; -508.000
426.255;  375.800; -611.000; -491.000
426.379;  149.025; -189.000; -577.000
426.504;  353.125;  660.000;  544.000
426.629; 3827.350; -519.000; -466.000
426.753; 2896.525;   64.000;  -46.000
426.878;  342.650; -252.000; -288.000
427.002;  182.900; -651.000; -668.000
427.127; 1435.175;  -35.000; -158.000
427.251;10764.375;  372.000;  401.000
427.375; 3384.650; -191.000; -173.000
427.500; 2634.025; -616.000; -610.000
427.624; 1010.750; -234.000; -400.000
427.749;  119.350; -216.000; -225.000
427.873;  -26.000; -499.000; -412.000
427.997;  -26.600; -222.000; -230.000
428.122;   77.550;  795.000;  703.000
428.246;   83.850;  433.000;  434.000
428.371; -103.075; -869.000; -773.000
428.495; -102.725; -624.000; -646.000
428.619;  -18.550; -186.000; -117.000
428.743;   20.500;   65.000;  132.000
428.868;   53.200; -732.000; -643.000
428.992; 1626.875; -219.000; -326.000
429.116;  750.750; -329.000; -357.000
429.240;  346.400;  419.000;  426.000
429.365;   -5.700; -454.000; -574.000
429.489;  -11.650; -638.000; -647.000
429.613;   32.175; -236.000; -177.000
429.737;   37.100; -563.000; -432.000
429.861;  261.800; -247.000; -133.000
429.985; 5090.225; -425.000; -305.000
430.109; 6187.650; -770.000; -908.000
430.234;  768.150;   76.000;  -50.000
430.358;   76.075; -250.000; -160.000
430.482;  -54.000; -672.000; -564.000
430.606;  -44.175; -655.000; -375.000
430.730;   37.600; -437.000; -388.000
430.854;  204.550; -909.000; -835.000
430.978;  -53.650; -795.000; -764.000
431.102;  -79.725; -499.000; -422.000
431.226; -108.525; -874.000; -815.000
431.350;   36.250;  345.000;  422.000
431.474;  -53.675; -661.000; -373.000
431.597; -141.025;-1060.000; -848.000
431.721;  -80.875; -276.000; -267.000
431.845; -135.850; -704.000; -472.000
431.969;  -77.900; -304.000; -349.000
432.093;  -85.625; -395.000; -317.000
432.217;  -21.050;   32.000;   82.000
432.341;  -82.775; -523.000; -518.000
432.464;    2.400;   96.000;   40.000
432.588;  294.700; -401.000; -329.000
432.712;  141.250;  -52.000;  -52.000
432.836;   64.800;  213.000;  263.000
432.959;  -28.550; -372.000; -311.000
433.083;   83.450;   11.000;    2.000
433.207;  349.800;  285.000;  930.000
433.330; 4553.675; -391.000; -200.000
433.454; 6133.425; -654.000; -638.000
433.578; 3532.450;  583.000;  278.000
433.701;  740.125; -623.000; -675.000
433.825;  183.325; -292.000; -299.000
433.949;  231.275;   28.000;  -72.000
434.072;  123.550; -410.000; -323.000
434.196;   -2.200; -309.000; -117.000
434.319; 3555.900;25482.000;25124.000
434.443;  696.475; -656.000; -603.000
434.566; 2587.775;  281.000;   62.000
434.690;  480.225; -637.000; -383.000
434.813;   56.200; -251.000; -173.000
434.937;  -68.800; -569.000; -696.000
435.060;  -20.325; -423.000; -332.000
435.184;  416.825; -492.000; -217.000
435.307;  255.100;  159.000;  102.000
435.431;   -5.075;  -40.000;   24.000
435.554;  -70.500; -399.000; -240.000
435.677;  -79.400; -350.000; -258.000
435.801;  -43.250;  -25.000;   49.000
435.924;   15.000;    1.000;  -67.000
436.048; -102.325;-1019.000; -732.000
436.171;  -70.025; -240.000;  -66.000
436.294;  -41.050; -248.000; -229.000
436.417;   85.750; -963.000; -849.000
436.541;  -81.950; -814.000; -840.000
436.664;  -47.275; -242.000; -316.000
436.787;  -35.875;   13.000;  113.000
436.910; -118.275; -792.000; -422.000
437.034;    5.125;  142.000;  143.000
437.157;   69.775;  -11.000;    0.000
437.280;  -39.375; -392.000; -292.000
437.403;  -54.375; -982.000; -869.000
437.526;  792.975; -903.000; -865.000
437.649; 2996.725; -505.000; -332.000
437.772;  538.000; -692.000; -540.000
437.896;  153.825;  700.000;  544.000
438.019;  -96.350; -758.000; -503.000
438.142;  -95.150; -596.000; -506.000
438.265;    6.475; -639.000; -670.000
438.388;  704.450; -520.000; -410.000
438.511;  173.375; -597.000; -394.000
438.634;  -27.850; -247.000; -125.000
438.757; -133.225; -693.000; -619.000
438.880;  -32.075;  -34.000;  -57.000
439.003;  -74.450; -417.000; -437.000
439.126;  -64.925; -287.000; -167.000
439.248;  -60.375;  -98.000; -139.000
439.371;  -45.575;    9.000;  -53.000
439.494;   18.675;  510.000;  439.000
439.617;  -58.875;   65.000;  -88.000
439.740; -181.550; -968.000; -816.000
439.863; -140.250; -755.000; -595.000
439.986; -126.100; -476.000; -431.000
440.108;  -55.700; -161.000; -112.000
440.231; -155.400; -950.000; -836.000
440.354;  -39.800;  -64.000; -150.000
440.477;   67.675; -566.000; -542.000
440.599;   28.850; -200.000; -225.000
440.722; -114.825; -709.000; -586.000
440.845;   68.000;  751.000;  928.000
440.968; -103.400; -415.000; -311.000
441.090;  -62.750; -199.000;  -33.000
441.213; -170.325;-1021.000; -825.000
441.336;  -54.325; -159.000;   -5.000
441.458;  -78.775; -549.000; -396.000
441.581;  -81.150; -628.000; -629.000
441.703;  -75.800; -152.000;   13.000
441.826; -105.850; -557.000; -400.000
441.948;  -53.900;   56.000;   51.000
442.071;   18.175;  555.000;  424.000
442.193; -106.100; -531.000; -485.000
442.316;   18.650;  152.000;   97.000
442.438;   46.975; -233.000;  -10.000
442.561;   81.275;  272.000;  262.000
442.683;  656.475; -809.000; -522.000
442.806; 1501.700;   -8.000;   74.000
442.928;  105.550; -859.000; -604.000
443.051;  -45.700; -577.000; -373.000
443.173;  -83.875; -341.000; -339.000
443.295;  -89.900; -263.000; -371.000
443.418;  -66.575; -321.000;  -29.000
443.540;  -13.075; -106.000;   -4.000
443.662; -104.200; -563.000; -465.000
443.785;  -20.575;  335.000;  199.000
443.907;  -86.575; -362.000; -208.000
444.029; -130.925; -767.000; -494.000
444.152; -141.125; -644.000; -554.000
444.274;  -31.325;  -18.000;  -24.000
444.396; -111.125; -461.000; -221.000
444.518; -125.775; -691.000; -454.000
444.640; -102.250; -268.000; -111.000
444.763;  -17.525;  388.000;  249.000
444.885; -122.850; -432.000; -392.000
445.007;  -34.550;   35.000;   86.000
445.129; -110.350; -610.000; -515.000
445.251;  -97.925; -372.000; -439.000
445.373; -139.025; -537.000; -386.000
445.495;   -9.075;  242.000;  350.000
445.617;   53.175;  853.000;  753.000
445.739;  -72.575; -215.000;  -97.000
445.861;  -26.275; -245.000; -112.000
445.984;  -27.150; -267.000; -101.000
446.105;  245.075; -418.000; -251.000
446.227;  775.950; -176.000;  -19.000
446.349;   52.950; -358.000; -249.000
446.471;  -71.550; -615.000; -448.000
446.593;  -71.450; -316.000;   19.000
446.715;    1.625;  -67.000;   41.000
446.837;   49.800;  697.000;  832.000
446.959;  -87.450; -457.000; -478.000
447.081; -126.800; -628.000; -518.000
447.203;   52.800;  862.000;  834.000
447.325;  -82.025; -270.000;   42.000
447.446;  -11.450;  286.000;  530.000
447.568; -156.625; -921.000; -803.000
447.690;  -78.700; -236.000; -245.000
447.812; -144.525; -798.000; -519.000
447.933;  -23.675;  155.000;  127.000
448.055;  -54.425; -306.000; -261.000
448.177;  164.925;   31.000;   79.000
448.299;  145.400; -935.000; -727.000
448.420;   44.650;  -25.000;  159.000
448.542;  -38.300;   -3.000;   33.000
448.664;  -19.125;  109.000;  322.000
448.785;  -38.650;  265.000;   83.000
448.907;  -72.025; -614.000; -353.000
449.028;  -19.500; -771.000; -471.000
449.150;   71.825;  492.000;  589.000
449.272; -162.300;-1044.000; -913.000
449.393;   11.625;  612.000;  694.000
449.515; -144.400; -634.000; -581.000
449.636;  -29.350; -264.000; -155.000
449.758;   87.925;  763.000;  622.000
449.879;  -92.000; -498.000; -396.000
450.001;  -80.975; -149.000;  -49.000
450.122;  -40.400;  -95.000;  162.000
450.244;  -28.875;   37.000;  364.000
450.365;  -93.025; -495.000; -301.000
450.486;  -41.425;   80.000;  268.000
450.608;   14.000;  393.000;  326.000
450.729;   49.675;  578.000;  645.000
450.850;    8.750; -574.000; -466.000
450.972;  619.375; -552.000; -389.000
451.093; 4434.475;  190.000;  588.000
451.214; 2149.525; -516.000; -337.000
451.336;  395.325;  773.000;  579.000
451.457;   74.150;  264.000;  393.000
451.578;  -42.025; -118.000;  -74.000
451.699; -123.925; -546.000; -540.000
451.821;  -74.125; -284.000;  -50.000
451.942;  -14.425;  278.000;  285.000
452.063;   41.825;  228.000;  419.000
452.184;  484.225;  -54.000;  -49.000
452.305; 1075.150;  103.000;  170.000
452.427;  151.250; -549.000; -301.000
452.548;  -21.400;   23.000;   79.000
452.669;  -40.825; -257.000;  -89.000
452.790;  -26.325;    3.000;  -18.000
452.911;   -4.425;  195.000;  259.000
453.032;  -72.750; -289.000;  -60.000
453.153;  -36.925;  -29.000;   81.000
453.274;   67.825;  737.000;  868.000
453.395;  -45.550;  -51.000;  175.000
453.516;  141.575; 1317.000; 1388.000
453.637;  -59.975; -205.000; -150.000
453.758;  -59.650;   15.000;   69.000
453.879; -118.325; -462.000; -250.000
454.000;   72.350; 1086.000;  948.000
454.121; -102.675; -554.000; -326.000
454.242; -120.300; -599.000; -383.000
454.362;  -54.300;  -99.000;  114.000
454.483;  -29.375; -309.000; -229.000
454.604;   54.200;  512.000;  580.000
454.725; -116.150; -627.000; -555.000
454.846; -120.450; -474.000; -406.000
454.967;  -31.475;  230.000;  539.000
455.087;  -51.525;  179.000;  153.000
455.208;   14.975;  554.000;  856.000
455.329;  -70.525;  -22.000;   82.000
455.450;   19.375;  473.000;  633.000
455.570;  -81.075; -234.000; -211.000
455.691;  -28.875;  201.000;  407.000
455.812; -107.100; -270.000;  -92.000
455.932;  -50.450;  107.000;  -97.000
456.053;  -91.650;   36.000;   24.000
456.173; -105.200; -433.000; -355.000
456.294; -136.200; -476.000; -303.000
456.415;  -76.300;  -73.000;   70.000
456.535;  -28.050;  297.000;  273.000
456.656;  -51.075;  132.000;  240.000
456.776;  -74.525;    3.000;  298.000
456.897;  -13.925;  308.000;  513.000
457.017;  -86.550; -153.000;   -3.000
457.138; -107.000; -402.000; -249.000
457.258;  -41.300;  263.000;  224.000
457.379;   -9.800;  509.000;  521.000
457.499;  -29.575;  443.000;  432.000
457.620; -127.525; -407.000; -231.000
457.740;  -97.875; -132.000;  -11.000
457.860;  -50.525;   87.000;   44.000
457.981;  -40.250;  132.000;  124.000
458.101;  -58.650;  -89.000;   40.000
458.221;  -27.100;  336.000;  402.000
458.342;  -73.000;   -4.000;  -37.000
458.462;   12.775;  617.000;  352.000
458.582;  -56.925; -302.000; -294.000
458.703;  -12.775;  303.000;  154.000
458.823;  -31.400;   22.000;  163.000
458.943;   17.450;  341.000;  467.000
459.063;  -20.600; 1124.000;  192.000
459.183;  -30.000;  328.000;  313.000
459.304;    9.475;  315.000;  517.000
459.424;  -59.775; -246.000;  -89.000
459.544;  274.975;  388.000;  764.000
459.664;  795.675;  499.000;  506.000
459.784;  318.875; 1004.000; 1175.000
459.904;   58.725;  867.000;  744.000
460.024;   66.200;  867.000;  684.000
460.144;   24.425;  449.000;  554.000
460.264;    2.225;  515.000;  327.000
460.385; -102.625; -145.000; -119.000
460.505;   31.800;  905.000;  858.000
460.625; -106.075;  -17.000;  -68.000
460.745;  -33.925;  396.000;  541.000
460.864;  -49.275;  153.000;  469.000
460.984;    8.700;  499.000;  573.000
461.104;  141.425; 1656.000; 1775.000
461.224;    6.675;  657.000;  650.000
461.344;  -33.275;  431.000;  360.000
461.464;  -35.525;  258.000;  513.000
461.584;   -3.475;  283.000;  466.000
461.704;  -40.275;   58.000;  108.000
461.824;  -46.600;  238.000;  259.000
461.943;  -39.025;  191.000;  130.000
462.063;  -74.525;    2.000;  324.000
462.183;   33.975;  639.000;  717.000
462.303;  107.350; 1678.000; 1230.000
462.422;   37.400;  781.000;  840.000
462.542;  -37.200;  271.000;  391.000
462.662;   34.725;  353.000;  380.000
462.782;  230.400;  833.000;  572.000
462.901;  447.950;  545.000;  717.000
463.021;  270.975; 1702.000; 1638.000
463.141;    2.125;  337.000;  770.000
463.260;  -40.450;  614.000;  474.000
463.380;    8.850;  902.000;  884.000
463.499;  -55.875;  342.000;  332.000
463.619;  -36.875;  581.000;  559.000
463.738;  124.000; 1644.000;  903.000
463.858;   20.400;  657.000;  811.000
463.978;  -32.325;  542.000;  396.000
464.097;   54.500;  921.000; 1114.000
464.217;  107.100; 1196.000; 1143.000
464.336;  107.150; 1068.000; 1130.000
464.455;  -49.075;  328.000;  659.000
464.575;   39.350;  597.000;  602.000
464.694;  192.500; 1204.000; 1179.000
464.814;  138.175; 1190.000; 1138.000
464.933;   70.575; 1095.000; 1027.000
465.052;   92.175; 1412.000; 1054.000
465.172;   98.725;  922.000;  799.000
465.291;  150.475; 1376.000; 1320.000
465.410;   13.200;  462.000;  735.000
465.530;   68.750; 1355.000; 1310.000
465.649;   73.650; 1209.000; 1273.000
465.768;  135.075; 1673.000; 1508.000
465.888;   47.350;  941.000; 1174.000
466.007;   93.875; 1335.000; 1440.000
466.126;    1.200;  721.000;  641.000
466.245;   40.825; 1176.000; 1187.000
466.364;   28.550;  950.000; 1060.000
466.484;   61.975; 1024.000; 1213.000
466.603;   40.550; 1101.000; 1222.000
466.722;  129.150; 1490.000; 1769.000
466.841;   71.650; 1151.000; 1401.000
466.960;   47.275; 1069.000;  972.000
467.079;  138.325; 1971.000; 1786.000
467.198;   44.050; 1238.000; 1181.000
467.317;   81.200; 1768.000; 1162.000
467.436;   58.450; 1709.000; 1261.000
467.555;  115.375; 1796.000; 1746.000
467.674;   52.825; 1227.000; 1329.000
467.793;   60.950; 1376.000; 1374.000
467.912;   75.050; 1658.000; 1539.000
468.031;  119.575; 2038.000; 1930.000
468.150;  139.925; 1842.000; 1837.000
468.269;  201.625; 2313.000; 2090.000
468.388;  178.575; 2168.000; 2339.000
468.507;  241.150; 2884.000; 2903.000
468.626;  253.575; 2555.000; 2541.000
468.744;  147.825; 2018.000; 2174.000
468.863;  187.525; 2312.000; 2523.000
468.982;   94.975; 1503.000; 1555.000
469.101;  229.675; 2788.000; 2692.000
469.220;  141.275; 2333.000; 2176.000
469.338;  267.350; 2935.000; 3051.000
469.457;  197.575; 2719.000; 2545.000
469.576;  347.475; 3953.000; 3784.000
469.695;  231.375; 2877.000; 3066.000
469.813;  421.100; 4148.000; 4192.000
469.932;  407.725; 4255.000; 4485.000
470.051;  407.325; 4075.000; 4161.000
470.169;  821.125; 4470.000; 4338.000
470.288; 1409.175; 4700.000; 4809.000
470.406;  886.800; 5059.000; 5194.000
470.525;  633.125; 6101.000; 5787.000
470.644;  649.300; 6847.000; 6794.000
470.762;  812.025; 8397.000; 7873.000
470.881;  883.325; 8651.000; 8464.000
470.999; 1015.050; 9685.000; 9151.000
471.118; 1088.475;11174.000;10711.000

