
Integration time [ms]: 100.000
Averaging Nr. [scans]: 40
Smoothing Nr. [pixels]: 0
Data measured with spectrometer [name]: 2101012U2
Wave   ;Sample   ;Dark     ;Reference
[nm]   ;[counts] ;[counts] ;[counts] 

197.733;   53.425;  516.000;  404.000
197.879;  -82.350; -610.000; -634.000
198.025;  -42.625; -475.000; -420.000
198.171;  -70.925; -602.000; -612.000
198.317;  -27.725; -401.000; -316.000
198.463;  -62.225; -655.000; -404.000
198.609;   28.150;  181.000; -137.000
198.755;  -67.875; -644.000; -410.000
198.901;  -54.700; -505.000; -424.000
199.047;  -65.825; -615.000; -488.000
199.193;  -39.350; -230.000; -468.000
199.339;  -35.150; -222.000; -369.000
199.485;   38.350;  330.000;  271.000
199.631;   17.200;  227.000;  310.000
199.777;  -55.600; -466.000; -398.000
199.923;  -58.625; -610.000; -424.000
200.069;    4.275; -141.000;  -58.000
200.215;   47.850;  128.000;  453.000
200.361;   40.925;  243.000;  477.000
200.507;  -57.725; -600.000; -373.000
200.653;  -29.875; -371.000; -194.000
200.798;  -27.000; -215.000; -125.000
200.944;  -11.925; -146.000;  -41.000
201.090;   27.800;   61.000;  222.000
201.236;   -9.650; -116.000; -158.000
201.382;  122.575;  874.000;  903.000
201.528;   -4.075;  -58.000;  -48.000
201.674;  -42.325; -386.000; -293.000
201.819;  -68.025; -540.000; -439.000
201.965;  -79.075; -699.000; -447.000
202.111;  -18.525; -273.000; -226.000
202.257;  -38.150; -250.000; -238.000
202.402;    3.775;   13.000;  -36.000
202.548;  -34.275; -169.000; -116.000
202.694;   85.025;  410.000; -183.000
202.840;  -77.575; -603.000; -531.000
202.985;  -70.300; -681.000; -639.000
203.131;  -94.750; -832.000; -666.000
203.277;  -34.425; -199.000; -262.000
203.423;  -50.675; -434.000; -520.000
203.568;  -38.700; -462.000; -237.000
203.714;  -61.475; -535.000; -542.000
203.860;  -74.625; -682.000; -641.000
204.005;   13.300;  112.000;  167.000
204.151;   73.600;  561.000;  556.000
204.296;  -36.400; -354.000; -221.000
204.442;  -69.750; -600.000; -547.000
204.588;  -77.325; -592.000; -579.000
204.733;   14.625;  178.000;  168.000
204.879; -122.700;-1018.000; -822.000
205.025;    2.150;  -99.000;  126.000
205.170;    3.575;  -17.000;   94.000
205.316;   78.400;  438.000;  661.000
205.461;  -70.300; -698.000; -554.000
205.607;   79.050;  609.000;  665.000
205.752;  -88.225; -626.000; -551.000
205.898;  -60.775; -501.000; -391.000
206.043;  -59.125; -578.000; -506.000
206.189;  -35.375; -243.000; -285.000
206.334;   81.850;  554.000;  606.000
206.480;   88.700;  409.000;  239.000
206.625;  -81.100; -529.000; -552.000
206.771;  -41.950; -451.000; -373.000
206.916;  -35.925; -210.000; -537.000
207.062;  -69.950; -545.000; -591.000
207.207;  -63.425; -546.000; -443.000
207.353;   53.125;  185.000;  460.000
207.498;    0.250;  196.000;   85.000
207.643;  -49.300; -501.000; -370.000
207.789; -119.800;-1069.000; -910.000
207.934;  -81.175; -665.000; -713.000
208.080;  -30.525; -154.000;   66.000
208.225;  -11.975;  -22.000;  -57.000
208.370;  -79.525; -727.000; -619.000
208.516;  -61.400; -741.000; -487.000
208.661;  -20.775; -127.000;  -69.000
208.806;  -29.275; -165.000; -171.000
208.952; -114.250;-1044.000; -731.000
209.097;   81.175;  378.000;  349.000
209.242;  -55.250; -307.000; -382.000
209.387;   55.550;  392.000;  350.000
209.533;  -51.950; -321.000; -350.000
209.678;   71.925;  472.000;  543.000
209.823;  -70.900; -408.000; -310.000
209.969;  -98.000; -860.000; -757.000
210.114;  -89.150; -907.000; -719.000
210.259; -117.800; -939.000; -889.000
210.404;   -3.750; -171.000;  103.000
210.549;   18.450;  108.000;    3.000
210.695;  -14.525;   -3.000;  -95.000
210.840;   41.225;   94.000;   67.000
210.985;  -67.250; -484.000; -303.000
211.130;   53.975;  268.000;  406.000
211.275;   10.400;  207.000;  199.000
211.420;  -59.525; -300.000; -289.000
211.566;  -68.025; -536.000; -489.000
211.711;   28.725;  218.000;  157.000
211.856;  -62.325; -545.000; -519.000
212.001;    6.900;  151.000;   44.000
212.146;   23.775;  153.000;   49.000
212.291;  -31.100; -210.000; -186.000
212.436;  -20.450; -280.000;   -6.000
212.581;  -73.700; -685.000; -653.000
212.726;  -73.900; -487.000; -538.000
212.871;  -36.725; -552.000; -217.000
213.016; -145.725;-1172.000;-1029.000
213.161;   63.650;  406.000;  291.000
213.306;  -73.300; -435.000; -577.000
213.451;  -84.250; -778.000; -689.000
213.596;  -40.975; -455.000; -347.000
213.741;  -48.250; -448.000; -538.000
213.886;  -67.650; -498.000; -517.000
214.031;   -8.025; -294.000; -124.000
214.176;  -54.825; -408.000; -341.000
214.321;  -22.300; -296.000; -157.000
214.466;  -17.600; -163.000;  -43.000
214.611;  -11.375;  -61.000;  -10.000
214.756; -119.225; -948.000; -858.000
214.901;  -21.975; -388.000; -226.000
215.046; -116.975; -797.000; -825.000
215.191;   24.025;  128.000;   35.000
215.336;  -17.625; -157.000;  -19.000
215.480;  -67.225; -684.000; -505.000
215.625;   -4.625; -175.000;  -19.000
215.770;  -82.675; -757.000; -662.000
215.915;   -8.975;   -5.000;  -97.000
216.060;  -24.025; -113.000;  -21.000
216.205; -100.750; -731.000; -779.000
216.349;  -64.900; -470.000; -533.000
216.494; -126.400; -939.000; -867.000
216.639; -115.325; -823.000; -888.000
216.784; -104.900; -577.000; -525.000
216.929;   48.000;  392.000;  281.000
217.073;   -5.325; -244.000;  -31.000
217.218;    7.100;   78.000;  -47.000
217.363;  -86.200; -656.000; -618.000
217.507;  -79.800; -623.000; -588.000
217.652; -116.800; -845.000; -874.000
217.797;  -82.750; -708.000; -659.000
217.942; -104.600; -856.000; -720.000
218.086;   76.075;  608.000;  539.000
218.231;  -25.825; -174.000;  -26.000
218.376;  -31.700; -337.000; -229.000
218.520;   -0.825;  -41.000;   96.000
218.665;  -33.200; -338.000; -204.000
218.810;  -38.125; -275.000; -233.000
218.954;    9.450;  201.000;   35.000
219.099; -117.575; -713.000; -963.000
219.243;  -68.100; -589.000; -554.000
219.388;  -33.800; -264.000; -136.000
219.532;   -4.925; -116.000; -116.000
219.677;  -75.000; -564.000; -521.000
219.822;    8.125;   33.000;   89.000
219.966;    0.675;   17.000;  -99.000
220.111;  -28.500; -328.000;  -40.000
220.255;  -96.175; -797.000; -750.000
220.400;  -12.800; -180.000; -146.000
220.544;  -64.825; -516.000; -450.000
220.689;  -45.925; -422.000; -451.000
220.833;  -34.525; -123.000;  -58.000
220.978;  -39.950; -393.000; -563.000
221.122;   23.925;  319.000;  307.000
221.267; -103.975; -906.000; -837.000
221.411;  -69.500; -478.000; -394.000
221.555;   -4.350; -104.000;  -23.000
221.700;  -50.025; -329.000; -222.000
221.844;   30.225;  255.000;  272.000
221.989;  -52.300; -328.000; -311.000
222.133;  -40.025; -289.000; -307.000
222.277;  -20.600;    5.000;   78.000
222.422;   17.525;  227.000;  113.000
222.566;  -40.175; -381.000; -214.000
222.711;  -54.450; -414.000; -479.000
222.855;  -80.275; -643.000; -586.000
222.999;  -77.525; -642.000; -717.000
223.144;  -25.725; -195.000; -194.000
223.288;   50.600;  423.000;  251.000
223.432;   11.425;  184.000;  230.000
223.576;   18.325;  152.000;  -21.000
223.721;   33.600;  364.000;  273.000
223.865;  -60.100; -472.000; -475.000
224.009;  257.200; 1673.000; 1631.000
224.153;  -76.575; -660.000; -671.000
224.298;  -62.275; -531.000; -489.000
224.442;  -18.100;  -74.000;  -33.000
224.586;  -20.375; -169.000; -106.000
224.730;  -92.475; -858.000; -670.000
224.875; -103.925; -739.000; -688.000
225.019;   11.775;  102.000;  188.000
225.163;   48.675;  208.000;  341.000
225.307;   10.400;   97.000;  -91.000
225.451;   59.400;  360.000;  481.000
225.595;   28.875;  264.000;  176.000
225.739;  -33.775; -170.000;  -94.000
225.884;   -0.350;   86.000;    5.000
226.028;  -97.575; -760.000; -626.000
226.172;  -25.750; -260.000; -273.000
226.316; -122.800; -941.000; -902.000
226.460;  -75.925; -645.000; -493.000
226.604;  -62.925; -406.000; -400.000
226.748;  -92.900; -836.000; -733.000
226.892;  -37.425; -227.000; -181.000
227.036;  -51.325; -537.000; -447.000
227.180;  -60.500; -551.000; -375.000
227.324;  -76.725; -561.000; -580.000
227.468; -117.550; -819.000; -717.000
227.612;   11.150;  242.000;  -28.000
227.756; -113.425; -845.000; -698.000
227.900;   48.000;  342.000;  441.000
228.044;  -68.650; -509.000; -290.000
228.188;   54.050;  448.000;  568.000
228.332;  -74.125; -546.000; -472.000
228.476;  -28.175; -223.000; -149.000
228.620;  -29.450; -210.000; -150.000
228.764;   55.150;  431.000;  349.000
228.908;  -23.900; -155.000;   30.000
229.052;  -62.650; -615.000; -528.000
229.195;  -21.475; -172.000;   13.000
229.339;  -28.425; -235.000; -305.000
229.483;  -37.875;    5.000; -162.000
229.627;  -14.600; -156.000;  139.000
229.771;  -43.150; -218.000; -294.000
229.915;   12.750;  230.000;   79.000
230.059;  -95.725; -648.000; -663.000
230.202;  -32.750; -370.000; -317.000
230.346;  -15.275; -107.000;  107.000
230.490;  -65.750; -489.000; -521.000
230.634; -103.250; -736.000; -553.000
230.777;   66.350;  478.000;  509.000
230.921;  -58.575; -450.000; -359.000
231.065;  -43.700; -246.000; -286.000
231.209;   27.925;  261.000;  265.000
231.352;    4.375;   54.000;   40.000
231.496;   21.850;  568.000;  188.000
231.640;  -80.825; -693.000; -621.000
231.783;   53.075;  546.000;  525.000
231.927;  -41.625; -294.000; -365.000
232.071; -121.350; -962.000; -736.000
232.214; -120.550; -980.000; -764.000
232.358; -110.850; -683.000; -599.000
232.502;  -13.525;  -19.000;    7.000
232.645; -138.500;-1090.000; -927.000
232.789;  -31.025; -257.000; -218.000
232.933;  -45.250; -407.000; -224.000
233.076; -132.225;-1038.000; -897.000
233.220; -116.050; -752.000; -777.000
233.363;  -77.200; -669.000; -477.000
233.507;   45.500;  371.000;  129.000
233.650;  -96.225; -764.000; -834.000
233.794;   41.375;  438.000;  461.000
233.938;  -64.425; -530.000; -362.000
234.081;  -19.700;  -93.000;   31.000
234.225;  -72.450; -631.000; -539.000
234.368; -112.350; -773.000; -723.000
234.512;  -37.450; -385.000; -299.000
234.655;  -96.425; -582.000; -555.000
234.798;  -63.900; -493.000; -466.000
234.942; -126.075; -884.000;-1002.000
235.085;  -74.275; -651.000; -443.000
235.229;  -77.000; -405.000; -410.000
235.372;  -53.475; -247.000; -191.000
235.516;  -62.700; -397.000; -321.000
235.659;   19.725;   92.000;  121.000
235.802;  -11.825;  -38.000;  -22.000
235.946;   38.225;  335.000;  215.000
236.089;   22.200;  126.000;  250.000
236.233;   43.025;  275.000;  298.000
236.376;  -50.950; -235.000; -378.000
236.519;  -59.350; -297.000; -319.000
236.663;  -33.000; -215.000; -117.000
236.806; -124.525;-1029.000; -999.000
236.949;   46.950;  543.000;  431.000
237.092;   44.325;  412.000;  391.000
237.236;  -78.250; -589.000; -502.000
237.379;   52.925;  352.000;  428.000
237.522; -117.250; -879.000; -768.000
237.666;  -25.600; -271.000;   18.000
237.809; -131.950; -851.000; -823.000
237.952;   26.250;  469.000;  271.000
238.095;  -64.750; -447.000; -442.000
238.238;   77.550;  688.000;  700.000
238.382;   -4.875;  166.000;  103.000
238.525;  -72.900; -598.000; -511.000
238.668; -137.250;-1060.000; -985.000
238.811;  -86.625; -638.000; -643.000
238.954;  -61.925; -483.000; -334.000
239.097;   89.325;  617.000;  664.000
239.241;   17.400;  394.000;  326.000
239.384;  -43.800; -254.000; -214.000
239.527;  -56.400; -424.000; -224.000
239.670; -138.050; -994.000;-1091.000
239.813; -108.300; -696.000; -658.000
239.956;   70.575;  579.000;  473.000
240.099; -107.825; -778.000; -725.000
240.242;   45.275;  428.000;  432.000
240.385;   31.250;  466.000;  450.000
240.528;  -62.875; -706.000; -473.000
240.671;    9.350;  189.000;  134.000
240.814;  -46.050; -441.000; -158.000
240.957; -102.700; -767.000; -578.000
241.100;  -88.750; -779.000; -755.000
241.243; -137.825;-1234.000; -893.000
241.386;  -71.000; -508.000; -379.000
241.529;  -86.850; -735.000; -547.000
241.672;  -69.800; -566.000; -495.000
241.815; -112.125; -832.000; -808.000
241.958;  -21.650; -125.000; -182.000
242.101;  -83.250; -545.000; -390.000
242.244;  -45.475; -270.000; -325.000
242.387;  -44.750; -304.000; -246.000
242.530;   60.625;  470.000;  134.000
242.673;  -54.200; -381.000; -309.000
242.815; -118.650; -925.000; -899.000
242.958;  -71.575; -482.000; -381.000
243.101;    6.825;  132.000;  187.000
243.244;  -86.150; -564.000; -521.000
243.387;  -46.975; -313.000; -316.000
243.530; -102.600; -657.000; -674.000
243.672;  -10.650;   43.000;  -92.000
243.815;  -50.200; -355.000; -283.000
243.958;    4.850;   98.000;  -26.000
244.101;    1.100;   59.000;  -16.000
244.243;  -18.000;  -47.000;  101.000
244.386; -111.750; -761.000; -630.000
244.529;  -25.300; -132.000; -139.000
244.672; -143.325;-1154.000; -951.000
244.814;  -91.625; -621.000; -794.000
244.957;  -53.400; -380.000; -304.000
245.100;  -71.750; -489.000; -489.000
245.242;  -71.675; -387.000; -374.000
245.385;   -4.850;  -59.000;  -39.000
245.528; -117.025; -871.000; -705.000
245.670;   81.125;  612.000;  634.000
245.813;  -77.200; -599.000; -547.000
245.956;  -39.750; -324.000; -275.000
246.098;  -72.825; -508.000; -650.000
246.241;    7.675;  194.000;   48.000
246.383;  -30.775; -119.000;  -73.000
246.526;  -72.250; -454.000; -525.000
246.669; -117.300; -889.000; -780.000
246.811;    9.900;  172.000;   -1.000
246.954;  -66.350; -512.000; -426.000
247.096;  -28.850;  -84.000;   -6.000
247.239;  -70.925; -482.000; -445.000
247.381;  -72.850; -647.000; -488.000
247.524;   84.925;  645.000;  679.000
247.666;   -3.900;   58.000;   11.000
247.809; -113.050; -887.000; -691.000
247.951;   -7.625;  -75.000;  138.000
248.094;   11.525;  432.000;  308.000
248.236; -155.025;-1262.000;-1238.000
248.378;    4.275; -356.000;  -81.000
248.521;  -32.000; -334.000; -337.000
248.663;  -34.700; -236.000; -267.000
248.806;  -26.200; -300.000; -266.000
248.948;  -92.775; -886.000; -763.000
249.090;  -41.975; -428.000; -398.000
249.233;  -34.575; -344.000; -381.000
249.375;  -66.525; -474.000; -451.000
249.518;  -34.450;  -83.000; -133.000
249.660;   -7.325; -103.000;    3.000
249.802; -166.500;-1303.000;-1189.000
249.945;  -73.175; -612.000; -540.000
250.087; -108.275; -834.000; -768.000
250.229;  -40.000; -362.000; -480.000
250.371;  -79.850; -494.000; -439.000
250.514;  -44.250; -310.000; -244.000
250.656;  -68.700;   69.000;  102.000
250.798; -118.675; -849.000; -800.000
250.940;  -64.675; -322.000; -322.000
251.083;  -30.200; -335.000; -111.000
251.225;   52.400;  338.000;  310.000
251.367;  -44.725; -274.000; -373.000
251.509;  -47.275; -265.000; -210.000
251.651; -102.975; -731.000; -671.000
251.794;   50.450;  538.000;  632.000
251.936;  -99.175; -821.000; -747.000
252.078;  -65.900; -540.000; -461.000
252.220;  -75.925; -645.000; -477.000
252.362;   76.900;  344.000;  462.000
252.504;  -66.600; -677.000; -584.000
252.646; -103.000; -875.000; -722.000
252.788;    4.250;   14.000; -128.000
252.931;  -49.350; -257.000; -253.000
253.073;  -45.025; -376.000; -317.000
253.215;  -20.325;  141.000;  122.000
253.357;   -7.650;   82.000; -153.000
253.499;  -58.650; -374.000; -234.000
253.641;  -79.975; -749.000; -594.000
253.783;  -77.675; -609.000; -527.000
253.925;  -93.175; -586.000; -591.000
254.067; -114.350; -744.000; -667.000
254.209;  -17.450; -391.000; -259.000
254.351; -124.900; -865.000; -883.000
254.493;  -53.900; -441.000; -417.000
254.635; -119.350; -936.000; -818.000
254.777;  -81.975; -752.000; -687.000
254.918;  -59.600; -512.000; -430.000
255.060;  -58.100; -551.000; -395.000
255.202;  -60.650; -473.000; -261.000
255.344;  -80.275; -658.000; -455.000
255.486;  -65.950; -471.000; -406.000
255.628; -102.350; -780.000; -781.000
255.770;  -93.400; -676.000; -536.000
255.912;  -58.450; -559.000; -468.000
256.053;  -99.075; -730.000; -508.000
256.195;  160.425; 1008.000;  903.000
256.337;  -90.550; -861.000; -595.000
256.479;   55.700;  532.000;  416.000
256.621;  -57.850; -394.000; -212.000
256.762;  -97.500; -789.000; -742.000
256.904;   59.850;  485.000;  487.000
257.046;  -45.175; -381.000; -271.000
257.188;  -43.350; -351.000; -264.000
257.329;  -73.025; -525.000; -464.000
257.471; -111.450; -939.000; -807.000
257.613;  -55.050; -584.000; -498.000
257.755; -143.825;-1073.000; -982.000
257.896;   35.675;  286.000;  392.000
258.038;  -76.825; -403.000; -352.000
258.180;  -40.650; -354.000; -279.000
258.321;  -94.600; -581.000; -457.000
258.463;   -0.325;  -71.000;  133.000
258.605;  -82.225; -562.000; -570.000
258.746; -109.000; -886.000; -772.000
258.888; -147.650;-1026.000;-1020.000
259.029;   24.450;  121.000;   -8.000
259.171;  -84.500; -614.000; -550.000
259.313;    6.375;  -49.000;  -47.000
259.454;  -69.175; -536.000; -414.000
259.596;  -57.825; -483.000; -390.000
259.737;  -78.300; -590.000; -474.000
259.879;   24.450;  217.000;  311.000
260.020;   77.175;  901.000;  636.000
260.162;  -31.375; -146.000; -253.000
260.303; -110.275; -768.000; -687.000
260.445;  -97.525; -609.000; -613.000
260.586;   25.350;  392.000;  157.000
260.728;  -29.400; -360.000; -248.000
260.869; -112.125; -350.000; -343.000
261.011;   77.025;  706.000;  537.000
261.152;  -62.150; -479.000; -319.000
261.293;  -81.325; -576.000; -595.000
261.435;  -32.950; -219.000; -184.000
261.576;  -53.800; -455.000; -325.000
261.718;   38.650;  420.000;  470.000
261.859; -117.650; -940.000; -949.000
262.000; -138.000; -951.000;-1016.000
262.142;  -24.025;  -52.000;  -60.000
262.283; -113.525; -808.000; -691.000
262.424;  -86.975; -666.000; -625.000
262.566; -141.600;-1161.000; -983.000
262.707; -116.025; -840.000; -830.000
262.848; -116.400; -769.000; -726.000
262.990;  -46.175; -362.000; -345.000
263.131;   71.575;  650.000;  681.000
263.272;   -3.375;  -61.000;  -41.000
263.413; -105.800; -589.000; -561.000
263.555;  -64.350; -669.000; -143.000
263.696;  -87.150; -550.000; -641.000
263.837;  -62.675; -449.000; -551.000
263.978;  -19.025;   -5.000;  -77.000
264.119;  -34.175; -283.000; -264.000
264.261; -122.075; -847.000; -630.000
264.402;   12.150;   33.000;   40.000
264.543;  -73.100; -509.000; -524.000
264.684;   -5.250;   61.000;  -50.000
264.825;  -64.350; -816.000; -538.000
264.966;   -5.550;  -84.000;  -67.000
265.107; -115.325; -646.000; -670.000
265.248; -120.275; -825.000; -812.000
265.390;   -0.750;  152.000;   -9.000
265.531;  -35.325; -238.000; -107.000
265.672;  -84.500; -557.000; -630.000
265.813;   48.450;  563.000;  439.000
265.954; -144.300; -959.000; -940.000
266.095;  -13.175; -372.000; -322.000
266.236;  -92.925; -686.000; -548.000
266.377;  -51.625; -243.000; -297.000
266.518;  -70.800; -619.000; -547.000
266.659;   33.475;  170.000;  268.000
266.800;    5.750;   83.000;   85.000
266.941;  -74.525; -487.000; -478.000
267.082;   11.400;  354.000;   99.000
267.223;  -59.475; -344.000; -273.000
267.364; -126.575; -892.000; -686.000
267.504;  -23.375;    3.000;  135.000
267.645;   -9.600;  160.000;   67.000
267.786;  -36.675; -147.000;  -86.000
267.927;  -72.425; -473.000; -379.000
268.068;  -12.550; -186.000;  -61.000
268.209;  -45.200; -175.000; -413.000
268.350;  -58.125; -388.000; -532.000
268.490;  -90.025; -648.000; -521.000
268.631;   20.100;  127.000;  225.000
268.772; -115.600; -874.000; -647.000
268.913;  -49.900; -328.000; -476.000
269.054;  -17.400; -117.000;   12.000
269.194;  -51.375; -418.000; -402.000
269.335; -152.500;-1137.000;-1074.000
269.476;  -17.975;   33.000;  -35.000
269.617;  -66.000; -347.000; -392.000
269.757;  -84.800; -713.000; -646.000
269.898; -108.000; -856.000; -613.000
270.039;  -49.925; -415.000; -405.000
270.180; -135.250; -952.000; -816.000
270.320;  -28.275; -190.000; -250.000
270.461;  -46.325; -277.000; -249.000
270.602;  -26.475; -186.000; -156.000
270.742; -127.900; -868.000; -943.000
270.883;  -48.750; -442.000; -390.000
271.023;  -63.775; -358.000; -357.000
271.164;  -94.500; -607.000; -528.000
271.305;  -90.650; -666.000; -654.000
271.445; -100.100; -722.000; -683.000
271.586;  -70.500; -462.000; -283.000
271.726;  -31.750; -397.000; -322.000
271.867;  -54.200; -594.000; -534.000
272.008;  197.475; -473.000; -285.000
272.148;  141.875;  462.000;  468.000
272.289;   22.625; -113.000; -181.000
272.429;   23.225;   19.000;  185.000
272.570;  -90.775; -633.000; -737.000
272.710; -106.250; -825.000; -775.000
272.851;  -26.200;  113.000; -130.000
272.991; -164.650;-1173.000;-1077.000
273.131;  -70.275; -419.000; -459.000
273.272; -104.925; -683.000; -723.000
273.412;    9.825; -143.000;  -31.000
273.553;  -39.575; -488.000; -507.000
273.693;  132.175;  913.000;  858.000
273.834;  -82.550; -894.000; -692.000
273.974;  -79.075; -664.000; -615.000
274.114; -100.975; -772.000; -560.000
274.255;   78.650;  414.000;  373.000
274.395;   12.675; -180.000; -125.000
274.535;   44.425;  199.000;  350.000
274.676;   20.625;  225.000;   94.000
274.816;    6.700;  110.000;   34.000
274.956;  -71.475; -624.000; -690.000
275.097;  -55.175;-1014.000; -922.000
275.237;  -95.800; -913.000; -803.000
275.377;  -96.275; -778.000; -689.000
275.517; -147.725; -878.000; -937.000
275.658;  -54.400; -590.000; -555.000
275.798;  -73.150; -606.000; -413.000
275.938;   17.425;  215.000;  323.000
276.078;  -79.650; -626.000; -395.000
276.218;   10.775;   99.000;  104.000
276.359; -140.600;-1026.000;-1024.000
276.499;  -74.075; -605.000; -446.000
276.639;  -36.025; -305.000; -151.000
276.779;  -47.000; -475.000; -357.000
276.919; -105.800; -783.000; -624.000
277.059;  -25.350; -261.000; -212.000
277.199;  -49.025; -357.000; -259.000
277.340;   34.950;  287.000;  175.000
277.480; -126.725; -840.000; -693.000
277.620;   20.350;  192.000;   16.000
277.760; -190.200;-1533.000;-1294.000
277.900;   30.325;  113.000;   33.000
278.040;   25.875;  137.000;  159.000
278.180;   24.950;  270.000;  170.000
278.320;  -10.175;   21.000;   56.000
278.460;  -73.700; -443.000; -469.000
278.600;  -91.675; -708.000; -598.000
278.740;   51.150;  448.000;  224.000
278.880;  -41.300; -768.000; -791.000
279.020;   -2.550; -194.000; -144.000
279.160;  -78.675; -672.000; -595.000
279.300; -112.025; -926.000; -873.000
279.440;  -86.100; -709.000; -622.000
279.579;    1.225;-1014.000; -929.000
279.719;  -53.875; -410.000; -394.000
279.859;   74.700;   -4.000;   41.000
279.999;   33.250; -208.000;  101.000
280.139;  -12.775; -435.000; -387.000
280.279;  -71.300; -708.000; -745.000
280.419;  -16.850; -229.000; -147.000
280.559;  -45.300; -259.000; -180.000
280.698;  -73.225; -790.000; -639.000
280.838;  -88.075; -778.000; -800.000
280.978;  -95.750; -846.000; -790.000
281.118; -108.650; -811.000; -704.000
281.257;    6.350;   24.000;    6.000
281.397; -109.125;-1094.000; -960.000
281.537;  -82.975; -599.000; -712.000
281.677;  -24.350; -150.000; -101.000
281.816;  -92.525; -700.000; -630.000
281.956;  -28.525; -193.000; -257.000
282.096;  -62.375; -539.000; -396.000
282.235; -101.150; -672.000; -638.000
282.375;  -31.175; -243.000;  -98.000
282.515;  -94.425; -715.000; -707.000
282.654;   23.550;   29.000;  106.000
282.794;   23.775;  388.000;  244.000
282.934;  -46.850; -530.000; -491.000
283.073; -136.650;-1030.000; -857.000
283.213;  -54.700; -460.000; -467.000
283.353;  -32.775; -408.000; -349.000
283.492;  -38.450; -264.000; -296.000
283.632;  -47.750; -254.000; -168.000
283.771;  -88.425; -859.000; -730.000
283.911;  -45.450; -369.000; -260.000
284.050; -115.650; -794.000; -748.000
284.190; -159.200;-1229.000;-1096.000
284.329; -135.875;-1055.000; -964.000
284.469;  -58.700; -516.000; -591.000
284.608;  -61.525; -559.000; -598.000
284.748;  -84.625; -614.000; -570.000
284.887;   -4.250;  -87.000;  -20.000
285.027; -117.075; -844.000; -892.000
285.166;  -31.825; -192.000; -249.000
285.306;   17.700; -116.000;  -33.000
285.445;  -45.600; -229.000; -343.000
285.584;  -90.825; -630.000; -494.000
285.724;  -37.400; -282.000; -322.000
285.863; -117.725; -857.000; -507.000
286.002;  -46.775; -366.000; -276.000
286.142; -106.375; -715.000; -622.000
286.281;  -78.425; -525.000; -493.000
286.420;  -83.400; -554.000; -417.000
286.560;   78.650;  653.000;  623.000
286.699; -135.875; -958.000; -912.000
286.838;  -78.600; -590.000; -591.000
286.978;  -83.975; -533.000; -537.000
287.117; -126.100;-1085.000; -950.000
287.256;  -29.350; -228.000; -211.000
287.395;  -46.775; -197.000; -378.000
287.535;  -46.125; -370.000; -298.000
287.674;  -81.175; -509.000; -484.000
287.813;   38.975;  661.000;  533.000
287.952; -133.850;-1010.000; -871.000
288.091; -133.425;-1049.000; -915.000
288.231;   12.150;   13.000;   15.000
288.370; -162.225;-1217.000;-1200.000
288.509;  -78.075; -728.000; -645.000
288.648;  -97.175; -770.000; -548.000
288.787;  -36.600; -243.000;  -87.000
288.926;  -69.900; -454.000; -475.000
289.065;  108.450;  859.000;  672.000
289.204;  -55.500; -377.000; -217.000
289.344;  -91.450; -791.000; -690.000
289.483;   22.900;  416.000;  304.000
289.622;  -31.875; -291.000; -149.000
289.761;   -2.375; -309.000; -166.000
289.900; -105.000; -785.000; -626.000
290.039;  -22.000;  -12.000;  -95.000
290.178;  -46.125; -274.000; -180.000
290.317;  -73.625; -618.000; -479.000
290.456;  -67.000; -463.000; -451.000
290.595; -115.300; -961.000; -833.000
290.734; -132.625; -904.000; -891.000
290.873;  -69.625; -456.000; -420.000
291.011;  -93.525; -833.000; -843.000
291.150;  -94.925; -770.000; -682.000
291.289;  -20.675; -343.000; -110.000
291.428;  -94.600; -599.000; -480.000
291.567;  -49.400; -370.000; -442.000
291.706;  -13.950;  109.000;  154.000
291.845;  -92.875; -597.000; -505.000
291.984; -171.600;-1234.000;-1061.000
292.122;   64.125;  602.000;  582.000
292.261;   50.275;  620.000;  463.000
292.400;    6.400; -144.000;  211.000
292.539; -119.625; -959.000; -813.000
292.678;  -43.225; -325.000; -300.000
292.816; -159.800;-1136.000; -965.000
292.955;  -85.600; -844.000; -684.000
293.094;  -13.850; -173.000; -337.000
293.233;  -45.500; -556.000; -400.000
293.371;  -30.650; -225.000;  -84.000
293.510; -107.950; -866.000; -780.000
293.649; -125.900; -959.000; -924.000
293.787;  -55.700;-1083.000;-1012.000
293.926;   -2.350; -113.000;  -32.000
294.065;  -47.325; -379.000; -290.000
294.203;   34.675;  298.000;  406.000
294.342;   17.350;   74.000;  156.000
294.481; 5813.500;51180.000; -836.000
294.619;  -22.125; -425.000; -582.000
294.758; -137.700;-1230.000;-1137.000
294.896;   66.725; -125.000;    5.000
295.035; -113.325;-1040.000;-1006.000
295.174;  -97.775;-1082.000; -954.000
295.312;  -36.125; -323.000; -203.000
295.451;   -5.750; -307.000; -428.000
295.589;  -46.525; -389.000; -518.000
295.728;   17.850; -292.000; -165.000
295.866;   14.125;  -36.000;  -51.000
296.005;  -53.025; -584.000; -341.000
296.143;  -67.500; -558.000; -596.000
296.282;  -97.350; -957.000; -881.000
296.420;  -83.025; -657.000; -557.000
296.559;  -77.450; -892.000; -633.000
296.697;   54.775; -847.000; -665.000
296.835;   98.650;-1141.000;-1002.000
296.974;   59.175;  -23.000;   39.000
297.112;   22.825; -443.000; -504.000
297.251;  -64.350; -815.000; -755.000
297.389;  116.200; -576.000; -438.000
297.527;   34.200; -145.000;  -83.000
297.666;  -37.700; -486.000; -438.000
297.804;  -57.475; -404.000; -264.000
297.942;  -15.675; -136.000; -161.000
298.081;   -2.725; -183.000;   63.000
298.219;   82.125;  -17.000;  -19.000
298.357;   64.275; -144.000;  -71.000
298.495;   56.925; -810.000; -812.000
298.634;   89.675;  245.000;  219.000
298.772;   74.925; -220.000; -338.000
298.910;  -33.700; -309.000; -182.000
299.048;   -5.750; -130.000; -153.000
299.187;  -29.875; -350.000; -250.000
299.325;   28.125;   52.000;  122.000
299.463;   85.775; -389.000; -299.000
299.601;  139.100; -327.000; -271.000
299.739;  -95.450; -908.000; -883.000
299.877;  -80.225; -791.000; -703.000
300.016;  -32.350;-1095.000; -935.000
300.154;  192.050;  -19.000; -161.000
300.292;   56.725; -428.000; -348.000
300.430;   39.625; -408.000; -291.000
300.568;  -88.300; -940.000; -874.000
300.706;  -40.850; -366.000; -469.000
300.844;  -51.550;-1108.000; -979.000
300.982;  126.725;  246.000;  282.000
301.120; -116.500; -965.000; -866.000
301.258;  -64.300; -812.000; -705.000
301.396;   29.775;  104.000;  -41.000
301.534;  102.700; -218.000; -293.000
301.672;    4.325; -664.000; -521.000
301.810;   54.700; -613.000; -545.000
301.948;  136.500;   53.000;  149.000
302.086;  722.925; -250.000;  -32.000
302.224; 1069.775; -610.000; -585.000
302.362;   74.625; -558.000; -622.000
302.500;   -5.250; -923.000; -893.000
302.638;  127.175;  128.000;  245.000
302.776;   -6.150; -352.000; -408.000
302.913;   37.600;  447.000;  236.000
303.051;    6.975;  -86.000;  -23.000
303.189;   52.350;   90.000;  118.000
303.327;  -37.225; -341.000; -256.000
303.465;  -80.175; -832.000; -588.000
303.603;  -92.675; -805.000; -604.000
303.740;  112.225;  417.000;  241.000
303.878;   33.550; -800.000; -759.000
304.016;  -86.575; -915.000; -790.000
304.154; -102.975;-1123.000;-1152.000
304.291;  -30.250; -505.000; -554.000
304.429;   18.125;  102.000;   74.000
304.567; -125.450; -908.000; -893.000
304.705;  -52.000; -408.000; -515.000
304.842;  130.325; -616.000; -540.000
304.980;   54.025;  215.000;   35.000
305.118;   50.800; -367.000; -365.000
305.255;  -62.600; -945.000; -927.000
305.393;   67.075;  178.000;  239.000
305.531;  -87.050;-1173.000; -956.000
305.668;  -63.350; -663.000; -582.000
305.806;  121.900; -358.000; -439.000
305.943;  127.350; -629.000; -637.000
306.081;   57.175; -378.000; -267.000
306.219; -103.150; -863.000; -748.000
306.356;   -2.800;  158.000;   27.000
306.494;  110.800;  981.000;  761.000
306.631;    3.550;  -11.000;  -55.000
306.769;   22.250; -613.000; -485.000
306.906;  -12.600; -284.000; -258.000
307.044;  -62.800; -473.000; -488.000
307.181;  -59.075; -410.000; -332.000
307.319;    3.250;  112.000;   87.000
307.456; -181.575;-1191.000;-1153.000
307.594; -107.075; -980.000; -727.000
307.731;    1.825; -371.000; -164.000
307.868;    0.900;  -15.000;   20.000
308.006; -130.700; -961.000; -847.000
308.143;  -54.900; -618.000; -330.000
308.281;  200.850;  -37.000; -254.000
308.418;    7.600; -748.000; -640.000
308.555;  -74.275; -400.000; -250.000
308.693;  -74.750; -577.000; -573.000
308.830;  -99.400; -712.000; -657.000
308.967;   -9.400; -215.000;  -95.000
309.105;  -38.350; -507.000; -396.000
309.242;   62.600; -468.000; -367.000
309.379;  408.525; -577.000; -655.000
309.517;  -40.325; -936.000; -948.000
309.654;  -97.025; -910.000; -734.000
309.791;  -63.150; -662.000; -580.000
309.928; -106.525; -977.000; -914.000
310.065;  205.500;  819.000;  697.000
310.203;   10.250; -825.000; -850.000
310.340;   -6.250; -465.000; -321.000
310.477;  -82.250; -412.000; -516.000
310.614;  -55.550; -383.000; -473.000
310.751;  -76.900; -427.000; -518.000
310.889;   -9.975;    1.000;   11.000
311.026; -137.200;-1161.000; -939.000
311.163;  -48.325; -386.000; -380.000
311.300;  -72.175; -512.000; -479.000
311.437;  -65.200; -658.000; -619.000
311.574; -156.550;-1226.000; -985.000
311.711;  -62.850; -595.000; -433.000
311.848;  -24.125; -380.000; -388.000
311.985;    4.025;  270.000;   93.000
312.122; -116.675; -932.000; -762.000
312.259; -104.100; -941.000; -994.000
312.396;  -80.100; -508.000; -551.000
312.533;  -87.525; -812.000; -790.000
312.670; -132.300;-1070.000; -898.000
312.807;  -29.675; -352.000; -367.000
312.944;  -66.225; -513.000; -611.000
313.081;  -19.725; -150.000; -415.000
313.218;  -99.775;-1111.000; -867.000
313.355;    1.625; -531.000; -449.000
313.492;   12.875; -455.000; -292.000
313.629;  136.850;  815.000;  735.000
313.766; -153.625;-1176.000;-1008.000
313.902;  -17.475; -186.000;   21.000
314.039;  -51.925; -372.000; -289.000
314.176;   17.475;  286.000;  192.000
314.313;  -73.375; -569.000; -473.000
314.450;  -71.700; -788.000; -684.000
314.587;  -50.550; -468.000; -480.000
314.723;    2.775;  -78.000;  130.000
314.860;   21.600;  318.000;  332.000
314.997;   33.975;  223.000;  142.000
315.134;  -31.700; -385.000; -368.000
315.270;  -12.525; -480.000; -496.000
315.407; -118.750;-1094.000; -967.000
315.544;  -39.800; -657.000; -538.000
315.681;  -66.375; -681.000; -565.000
315.817;   28.575; -133.000; -176.000
315.954;   27.575; -613.000; -392.000
316.091; -115.725;-1045.000;-1023.000
316.227;  -14.725;  -71.000; -179.000
316.364;   -2.600;   23.000;    6.000
316.500;  -52.775; -113.000; -300.000
316.637;  -40.925; -181.000; -302.000
316.774;  -86.175; -625.000; -358.000
316.910;  -85.850; -598.000; -629.000
317.047;  -61.900; -487.000; -351.000
317.183;  -38.250; -435.000; -566.000
317.320;  -24.775; -367.000; -321.000
317.456;  -71.325; -733.000; -805.000
317.593;  -84.850; -598.000; -641.000
317.729;   21.750;  168.000;  -67.000
317.866; -185.175;-1434.000;-1285.000
318.002;  -83.925; -708.000; -948.000
318.139;  -91.350; -883.000; -867.000
318.275;  -89.225;-1003.000; -738.000
318.412;  -48.650; -517.000; -336.000
318.548;  -12.350; -751.000; -720.000
318.685;  -87.425; -985.000; -888.000
318.821;  -92.425; -762.000; -735.000
318.957;  -10.650;   34.000;  -23.000
319.094;   31.600;  297.000;  154.000
319.230;  -63.025; -756.000; -742.000
319.367;  151.425; -471.000; -520.000
319.503;   70.975; -538.000; -436.000
319.639; -103.250; -877.000; -793.000
319.775;  -64.300; -750.000; -685.000
319.912;  -52.075; -424.000; -519.000
320.048;  -75.700;-1184.000;-1184.000
320.184;   67.625;   59.000;   70.000
320.321;  -51.950; -497.000; -467.000
320.457;   52.125;  475.000;  662.000
320.593;  -60.775; -375.000; -382.000
320.729; -110.925; -732.000; -734.000
320.866;  -76.575; -577.000; -635.000
321.002;  -62.225; -759.000; -809.000
321.138;  -11.525; -135.000; -211.000
321.274;   84.550; -148.000; -115.000
321.410;  -24.450; -585.000; -353.000
321.546;   -2.050;-1011.000; -911.000
321.683;   54.325;  400.000;  185.000
321.819;   -0.175;  -48.000; -117.000
321.955; -105.175; -743.000; -722.000
322.091;  -52.325; -585.000; -540.000
322.227;  -11.125; -382.000; -202.000
322.363;  -15.625; -320.000; -215.000
322.499;  -32.900; -343.000; -331.000
322.635;  188.325;  636.000;  443.000
322.771;   37.450; -139.000;   12.000
322.907;   95.500;  129.000;  327.000
323.043;   -3.325; -115.000; -206.000
323.179;  -31.225; -394.000; -363.000
323.315;   37.750; -401.000; -371.000
323.451;  113.275; -328.000; -236.000
323.587;   70.825;  -60.000;  -77.000
323.723;   29.975; -682.000; -601.000
323.859;  -19.825; -258.000;  -76.000
323.995;  -35.000; -467.000; -409.000
324.131; -133.325; -967.000; -892.000
324.267;  -43.475; -254.000; -276.000
324.402; -134.750; -960.000; -983.000
324.538;  -19.925; -279.000; -104.000
324.674;   15.550;  164.000;   77.000
324.810;  147.625;  226.000;  308.000
324.946;    8.700; -810.000; -658.000
325.082;  -55.250; -568.000; -475.000
325.217;  -14.175;  -62.000;   16.000
325.353;  -95.350; -764.000; -659.000
325.489;  -79.750; -540.000; -506.000
325.625;  -61.900; -579.000; -525.000
325.760;   56.000;  517.000;  376.000
325.896;  -26.300; -515.000; -702.000
326.032;  -54.675; -403.000; -352.000
326.168;  -69.075; -462.000; -369.000
326.303;  -69.625; -352.000; -461.000
326.439;  -24.900; -336.000; -276.000
326.575;  -10.375; -190.000;  -29.000
326.710;   -6.875; -156.000;  -30.000
326.846;  -10.575;  146.000;  103.000
326.982;  -85.775; -530.000; -548.000
327.117;  -73.875; -481.000; -442.000
327.253;  -85.000; -745.000; -742.000
327.388; -148.325;-1137.000;-1153.000
327.524;  -35.400; -811.000; -578.000
327.659;  -25.850;  -58.000;  -22.000
327.795;  -16.775;   69.000;   45.000
327.931;  -91.450; -723.000; -499.000
328.066;  -25.550; -417.000; -276.000
328.202;   -3.775;   12.000; -129.000
328.337;   89.850;  957.000;  713.000
328.473;   39.475;  -12.000;  -74.000
328.608;  -27.225; -256.000; -267.000
328.743;  -77.725; -799.000; -664.000
328.879;   22.250;  214.000;  114.000
329.014;  -36.250; -102.000; -122.000
329.150;  -84.975; -358.000; -483.000
329.285;  -73.650; -465.000; -466.000
329.421;  -47.075; -548.000; -246.000
329.556;  -18.925;  -36.000;   85.000
329.691; -105.000; -633.000; -615.000
329.827;  -70.950; -626.000; -480.000
329.962;  -42.800;  131.000; -301.000
330.097;  -80.925; -673.000; -585.000
330.233;  -54.425; -410.000; -223.000
330.368; -129.575; -839.000; -628.000
330.503;  -13.525;    3.000;   98.000
330.638;   15.775;  -93.000; -125.000
330.774;  -40.150; -609.000; -530.000
330.909;  -52.075; -434.000; -244.000
331.044;  -97.750; -714.000; -708.000
331.179; -158.525;-1217.000;-1109.000
331.315;   16.650;   77.000;   20.000
331.450;   -1.450;  157.000;  285.000
331.585;  -74.100; -805.000; -706.000
331.720;  -76.050; -510.000; -460.000
331.855;  -22.125;  -35.000; -102.000
331.990;  219.750;   62.000;  138.000
332.126;  116.300; -110.000;   71.000
332.261;  -18.825; -379.000; -265.000
332.396;  -10.725; -135.000; -242.000
332.531;  -93.925;-1074.000;-1031.000
332.666;   23.600; -519.000; -363.000
332.801; -102.200; -726.000; -807.000
332.936;  -29.125; -192.000; -122.000
333.071; -151.600; -870.000; -817.000
333.206;    7.925;  307.000;  379.000
333.341;   22.500;  344.000;  418.000
333.476;  -94.750; -627.000; -623.000
333.611;  -44.275; -251.000; -173.000
333.746;  -40.775; -381.000; -464.000
333.881; -116.525; -973.000; -935.000
334.016; -122.025; -936.000; -917.000
334.151; -118.900; -746.000; -702.000
334.286;   30.975;  152.000;  186.000
334.421;  -22.375; -125.000; -178.000
334.556;  -72.625; -611.000; -567.000
334.690;  -75.325; -631.000; -577.000
334.825;   48.825;  381.000;   83.000
334.960;  -63.525; -285.000; -413.000
335.095;   13.400;  135.000;  -91.000
335.230; -107.775; -722.000; -738.000
335.365; -129.975;-1084.000; -990.000
335.499; -139.650;-1108.000;-1037.000
335.634;   20.325;    9.000;  534.000
335.769; -102.900; -755.000; -720.000
335.904;  -50.500; -603.000; -561.000
336.038;  -38.725; -735.000; -657.000
336.173; -101.375;-1206.000;-1194.000
336.308;   14.900; -116.000; -189.000
336.443;    8.500; -544.000; -634.000
336.577;  -64.225; -936.000; -787.000
336.712;   70.325;   -4.000;  -12.000
336.847;  -27.650; -724.000; -607.000
336.981;   97.050; -272.000; -208.000
337.116;  298.350;  615.000;  501.000
337.250;  172.150; -434.000; -421.000
337.385;  241.575; -297.000; -208.000
337.520;   88.225; -632.000; -603.000
337.654;  -44.725; -215.000; -126.000
337.789; -119.050; -989.000; -933.000
337.923;  -25.225; -104.000; -205.000
338.058;  -81.775; -673.000; -738.000
338.192;  -30.675; -611.000; -488.000
338.327;   -1.650;  -18.000; -155.000
338.461;  -53.025; -299.000; -469.000
338.596;  -92.050; -780.000; -638.000
338.730;  -91.450; -767.000; -803.000
338.865;   74.850;  -46.000; -140.000
338.999;  -60.125; -846.000; -702.000
339.134;  -18.175; -634.000; -536.000
339.268;   19.525; -741.000; -603.000
339.403;  353.775; -740.000; -775.000
339.537;   95.125; -894.000; -820.000
339.671; -117.425; -829.000; -813.000
339.806;  -64.175; -556.000; -512.000
339.940;   10.375; -261.000; -235.000
340.074;  -89.000; -685.000; -510.000
340.209;  -41.600; -351.000; -230.000
340.343;  -85.950; -517.000; -573.000
340.477;  161.075;  998.000; 1036.000
340.612;  -49.900;-1033.000; -900.000
340.746;  125.475; -199.000; -243.000
340.880;  -58.625; -924.000; -785.000
341.014;  -21.750;  -45.000; -154.000
341.149; -103.800; -756.000; -718.000
341.283; -110.325; -839.000; -754.000
341.417;  -68.825;-1124.000; -938.000
341.551;  181.075; -768.000; -708.000
341.685;  -14.625; -633.000; -611.000
341.820;  -53.775; -562.000; -493.000
341.954;  -34.500; -218.000; -349.000
342.088; -158.425;-1102.000;-1019.000
342.222;   57.650;  565.000;  618.000
342.356;  -49.300; -395.000; -335.000
342.490;  -90.575; -880.000; -841.000
342.624;  -40.000; -339.000; -242.000
342.758;   -5.175; -364.000; -312.000
342.892;  -46.650; -710.000; -585.000
343.026;  -37.050;  -58.000; -116.000
343.160;  -66.175; -426.000; -376.000
343.294;  -77.900; -474.000; -337.000
343.428;   -0.625; -488.000; -448.000
343.562;  -11.675; -172.000;  -23.000
343.696;  -17.375; -385.000; -314.000
343.830;   -9.525; -362.000; -356.000
343.964;   36.500; -231.000; -168.000
344.098; 1045.100;  199.000;   70.000
344.232;  869.200; -266.000; -127.000
344.366;   93.700; -567.000; -453.000
344.500;   93.375; -665.000; -744.000
344.634;   42.525; -324.000; -164.000
344.768;   -0.450; -531.000; -341.000
344.902;   26.650;  278.000;  256.000
345.035;  -76.000; -556.000; -496.000
345.169; -122.650; -933.000; -656.000
345.303;  -11.950; -308.000; -482.000
345.437;  -64.525; -826.000; -717.000
345.571;  -72.250; -675.000; -594.000
345.704;  -61.750; -309.000; -532.000
345.838;   -9.825; -331.000; -284.000
345.972;  -19.575; -543.000; -495.000
346.106;  157.450; -179.000; -190.000
346.239;  437.875; -312.000; -243.000
346.373;   17.825; -343.000; -302.000
346.507; -137.175; -950.000; -962.000
346.640;  172.325;  -30.000;   13.000
346.774;  -22.925; -650.000; -797.000
346.908;  -21.925; -138.000;  -11.000
347.041;  -86.000; -646.000; -593.000
347.175;    5.675;  259.000;   27.000
347.309;  -62.825; -698.000; -628.000
347.442;  -90.325; -883.000; -732.000
347.576;  297.600;  670.000;  668.000
347.709;  222.700; -123.000;  -52.000
347.843;  -87.850; -933.000; -825.000
347.976;   31.425;  235.000;  294.000
348.110; -173.075;-1268.000;-1186.000
348.243;  -98.950; -679.000; -772.000
348.377;   -4.300;  -26.000;   60.000
348.510;   61.900;  403.000;  540.000
348.644;  -32.875;  -37.000; -159.000
348.777;    1.000;  180.000;  191.000
348.911;  -45.600; -142.000; -112.000
349.044;  179.500;  471.000;  448.000
349.178;  191.475;-1069.000;-1006.000
349.311;  112.250;  141.000;  255.000
349.444;  -23.450; -927.000; -813.000
349.578;  -19.150; -347.000; -200.000
349.711;  -80.575; -959.000; -862.000
349.845;   10.250; -661.000; -591.000
349.978; -141.950;-1224.000;-1137.000
350.111;  -74.050; -546.000; -612.000
350.244;  -69.975; -596.000; -700.000
350.378;   26.475; -392.000; -393.000
350.511;  -69.350; -393.000; -426.000
350.644; -104.125; -808.000; -806.000
350.778;    7.300;  168.000;  104.000
350.911;   -4.075;  134.000;  140.000
351.044;  -71.600; -685.000; -615.000
351.177;  -17.600; -321.000; -281.000
351.310;  -14.250;    3.000; -131.000
351.444;  -70.175; -888.000; -788.000
351.577;  138.050;  140.000;   90.000
351.710;  102.000;  593.000;  417.000
351.843;  -43.575; -165.000;  -77.000
351.976;   -9.025;  149.000;  -79.000
352.109;  -70.000; -621.000; -612.000
352.242;  -22.850; -464.000; -419.000
352.376;  -47.525; -580.000; -636.000
352.509;  218.275; -437.000; -356.000
352.642;   44.600; -654.000; -604.000
352.775;   69.250; -141.000;  -98.000
352.908;  -96.325; -933.000; -904.000
353.041;  -81.725; -814.000; -824.000
353.174;  -53.600; -551.000; -424.000
353.307;  -78.475; -753.000; -764.000
353.440;   75.375;  541.000;  453.000
353.573; -100.950; -957.000;-1008.000
353.706;  -30.000; -384.000; -558.000
353.839;   -6.375; -264.000; -220.000
353.971;  -90.400; -657.000; -512.000
354.104;  -71.000; -896.000; -835.000
354.237;  -16.350; -627.000; -662.000
354.370;  -75.425; -846.000; -879.000
354.503; -168.425;-1231.000;-1308.000
354.636;  -34.950; -529.000; -348.000
354.769; -112.625; -937.000; -860.000
354.902;   -3.075; -230.000; -139.000
355.034;  -29.725; -164.000; -220.000
355.167;  -27.475; -262.000; -162.000
355.300;  -75.375;-1061.000; -880.000
355.433;  932.975;  -71.000;  -14.000
355.565; 1478.975; -402.000; -384.000
355.698;  362.275; -356.000; -296.000
355.831;   14.675; -882.000; -801.000
355.964;  118.425; -285.000; -170.000
356.096;  -70.675; -856.000; -843.000
356.229;   29.650; -523.000; -530.000
356.362;  293.275; -373.000; -266.000
356.494;  580.350; -229.000; -162.000
356.627;  546.250;  269.000;  377.000
356.760;  662.000;  120.000;   53.000
356.892;  920.625; -286.000; -601.000
357.025;  731.650;  403.000;  389.000
357.157;  696.950; -167.000; -179.000
357.290;  612.875; -856.000; -713.000
357.423;  215.100; -667.000; -556.000
357.555;  130.500; -217.000; -228.000
357.688;  155.675; -483.000; -364.000
357.820;  530.000; -870.000; -877.000
357.953; 4046.700; -563.000; -589.000
358.085;  957.400; -632.000; -612.000
358.218; 1403.525;-1131.000; -932.000
358.350;  256.750;  -58.000;  312.000
358.483; -106.175;-1300.000;-1187.000
358.615;    3.000;-1182.000;-1078.000
358.747;  -23.475;-1187.000;-1058.000
358.880;   49.700; -810.000; -744.000
359.012;    1.875; -376.000; -202.000
359.145;  -23.875; -480.000; -511.000
359.277;   82.725; -962.000; -913.000
359.409; 3327.525;  536.000;  231.000
359.542;  926.875; -738.000; -688.000
359.674;   93.225;   46.000;   13.000
359.806;  -57.550; -565.000; -438.000
359.939;  -34.650; -617.000; -516.000
360.071;   -2.575; -583.000; -579.000
360.203;  -19.650; -411.000; -364.000
360.335;   61.625;  164.000;  -16.000
360.468;  220.200; -249.000; -307.000
360.600; 2677.775; -547.000; -454.000
360.732; 2717.500; -546.000; -423.000
360.864;  411.525;-1216.000;-1044.000
360.996;  358.475; -516.000; -554.000
361.129;   59.900; -389.000; -598.000
361.261;   27.850;  110.000; -113.000
361.393;  -22.150; -252.000; -214.000
361.525;   41.975;   94.000;  244.000
361.657;  -31.150; -821.000; -703.000
361.789;   26.075; -139.000; -155.000
361.921;  285.050; -642.000; -593.000
362.053;  300.500;  524.000;  541.000
362.185;   63.500;  288.000;   72.000
362.318;  -77.650; -709.000; -705.000
362.450;  127.575;  294.000;  444.000
362.582;  177.150; -913.000; -870.000
362.714;  -35.400; -353.000; -332.000
362.846;  -89.125; -606.000; -490.000
362.978; -137.425; -941.000; -811.000
363.109;   73.650; -161.000; -260.000
363.241;  542.850; -739.000; -749.000
363.373;  436.475; -649.000; -564.000
363.505;  632.150; -186.000;  -91.000
363.637;  167.825; -787.000; -601.000
363.769; -115.500;-1067.000;-1080.000
363.901;  -66.250; -596.000; -654.000
364.033; -108.275;-1103.000;-1062.000
364.165;    0.125; -283.000; -283.000
364.296;   74.150; -316.000; -177.000
364.428;   53.275;-1344.000;-1220.000
364.560;  -59.225; -679.000; -661.000
364.692;  -52.225; -738.000; -835.000
364.824;  342.350; -588.000; -456.000
364.955;  460.800; -402.000; -564.000
365.087;  831.800;-1097.000; -852.000
365.219;   29.700; -686.000; -816.000
365.351;  -65.350; -526.000; -572.000
365.482;   66.100;  300.000;  240.000
365.614;  -57.875; -402.000; -314.000
365.746;  -91.400; -729.000; -752.000
365.877;  -92.200; -706.000; -672.000
366.009;  235.750;  -35.000;  -62.000
366.141; -100.300;-1249.000;-1134.000
366.272; -107.900; -803.000; -719.000
366.404; -115.025;-1005.000; -874.000
366.535;   -6.625; -139.000;  -12.000
366.667; -102.250; -644.000; -649.000
366.799;   42.050;  353.000;  203.000
366.930; -111.225; -862.000; -996.000
367.062;  121.375; -639.000; -613.000
367.193;  161.075; -872.000; -842.000
367.325;  -56.600; -580.000; -684.000
367.456;   71.225; -246.000;   31.000
367.588;  153.875; -371.000; -318.000
367.719;   27.450;  -44.000;  -45.000
367.851;    1.425; -222.000; -241.000
367.982;  -40.100; -875.000; -732.000
368.113;  129.150; -475.000; -358.000
368.245;  -99.125; -960.000; -841.000
368.376;  -23.700; -254.000; -302.000
368.508;  -36.600; -188.000; -263.000
368.639; -140.550;-1166.000;-1034.000
368.770;    2.275; -670.000; -589.000
368.902;  -49.825; -836.000; -926.000
369.033; -101.125; -906.000; -855.000
369.164;  -43.550; -720.000; -653.000
369.296; -111.150; -452.000; -601.000
369.427;  -10.575; -209.000; -144.000
369.558;  -37.075; -593.000; -377.000
369.689;  -79.475; -721.000; -569.000
369.821; -112.125; -951.000; -845.000
369.952;  -16.175;   42.000; -108.000
370.083;  -49.700; -229.000; -108.000
370.214;  -78.525; -735.000; -650.000
370.345;  -21.975;   65.000;   81.000
370.477;  -69.150; -810.000; -790.000
370.608;  255.875; -328.000; -264.000
370.739;  -25.450;-1233.000;-1292.000
370.870;   -9.800;-1102.000; -923.000
371.001;  123.600; -378.000; -467.000
371.132;  -64.625; -754.000; -735.000
371.263;  -14.150;  -42.000; -148.000
371.394; -109.775; -841.000; -748.000
371.525;   19.775;  345.000;  225.000
371.657;  -90.200; -808.000; -670.000
371.788;   76.675;  103.000;  199.000
371.919;  195.150; -384.000; -304.000
372.050; 3988.375;  -91.000; -156.000
372.181; 1296.000; -188.000; -294.000
372.311;  420.950;   42.000; -127.000
372.442;   61.450; -457.000; -451.000
372.573;  -21.325; -444.000; -340.000
372.704; -112.275;-1008.000; -980.000
372.835;  110.450; -228.000; -289.000
372.966;  -55.800; -646.000; -554.000
373.097;  -50.550; -575.000; -711.000
373.228;  -23.725; -717.000; -542.000
373.359;  187.200; -824.000; -536.000
373.490; 1089.425; -881.000; -727.000
373.620; 1401.125;-1001.000; -803.000
373.751; 2065.225; -332.000; -396.000
373.882;  977.775; -663.000; -733.000
374.013;   97.600; -449.000; -262.000
374.143;  -17.200; -581.000; -659.000
374.274;  -94.250; -987.000; -908.000
374.405;  203.800; -388.000; -276.000
374.536;  529.425; -526.000; -387.000
374.666; 1319.250; -759.000; -807.000
374.797;  263.750; -817.000; -868.000
374.928; 1016.575; -710.000; -560.000
375.058; 1086.400; -535.000; -500.000
375.189;  104.750;  -59.000;  -93.000
375.320;  -97.150; -928.000;-1034.000
375.450;  -34.925; -625.000; -616.000
375.581;  -44.350; -526.000; -436.000
375.712;  -37.200; -574.000; -250.000
375.842;  361.350; -438.000; -415.000
375.973;  280.025; -554.000; -513.000
376.103;   -8.300; -665.000; -648.000
376.234;  -74.600; -531.000; -552.000
376.364;  -29.800; -944.000; -867.000
376.495;  358.450;  925.000;  529.000
376.625;   14.300; -472.000; -485.000
376.756;   82.650; -709.000; -678.000
376.886;  -48.850;-1178.000;-1026.000
377.017;   26.325;-1048.000;-1061.000
377.147;  325.950; -786.000; -782.000
377.278;   66.850;  174.000;  228.000
377.408; -116.950; -801.000; -815.000
377.538;  -91.650; -707.000; -693.000
377.669;  -83.575; -537.000; -613.000
377.799;  -73.350; -645.000; -635.000
377.929;  -41.075; -610.000; -428.000
378.060; -126.250; -781.000; -847.000
378.190;  -46.500; -726.000; -531.000
378.320;  -58.025; -401.000; -406.000
378.451;  -15.025; -131.000;  -22.000
378.581;   -1.100;  -67.000; -110.000
378.711;  156.600; 1035.000;  866.000
378.841;    4.275; -533.000; -675.000
378.972;  -59.825; -871.000; -751.000
379.102;   11.100; -652.000; -579.000
379.232;   -1.800; -126.000;  -73.000
379.362;  -93.400;-1001.000; -885.000
379.492;   31.175; -373.000; -424.000
379.623;  128.200;    0.000;  111.000
379.753;  -92.075;-1107.000; -974.000
379.883;  227.425;   59.000;  156.000
380.013;   24.775;-1081.000;-1017.000
380.143;  -89.700;-1097.000;-1056.000
380.273;  -85.850; -985.000; -861.000
380.403;    2.550; -344.000; -257.000
380.533;  -19.950; -651.000; -664.000
380.663;   70.250;  173.000;  128.000
380.793;  -74.050;-1027.000;-1074.000
380.923;   -5.325; -103.000;  -34.000
381.053;  -91.275; -613.000; -623.000
381.183;  -18.450; -106.000; -248.000
381.313;   53.600; -656.000; -470.000
381.443;   74.400; -692.000; -473.000
381.573;  243.850; -402.000; -409.000
381.703;  372.400;-1249.000;-1095.000
381.833;  -89.850;-1454.000;-1336.000
381.963;  124.350; -134.000;  -87.000
382.093; 1576.800; -925.000; -909.000
382.223;  536.575; -713.000; -602.000
382.353;   -0.150; -801.000; -608.000
382.482;  452.850;-1091.000; -964.000
382.612;  905.050; -872.000; -644.000
382.742;  532.300; -695.000; -622.000
382.872;  350.550; -565.000; -551.000
383.002;   81.775;  347.000; -132.000
383.131;   -3.300; -226.000; -160.000
383.261;  -43.975; -706.000; -768.000
383.391;  282.175; -552.000; -377.000
383.521; 3021.250;  451.000;  263.000
383.650;  752.675; -947.000; -904.000
383.780;  -17.225; -783.000; -656.000
383.910;   96.550;  880.000;  802.000
384.039;   47.800; -794.000; -656.000
384.169;  286.100;-1205.000;-1017.000
384.299;   20.225; -650.000; -662.000
384.428;  -80.975; -764.000; -680.000
384.558;  -35.800; -308.000; -275.000
384.687;  -28.325; -414.000; -334.000
384.817;   27.250;   75.000;   -2.000
384.947;   41.975; -234.000; -141.000
385.076;  337.475;  982.000;  912.000
385.206;  126.425;  369.000;  480.000
385.335;  -15.400; -549.000; -417.000
385.465;  -60.900; -655.000; -663.000
385.594;  172.450;  -53.000;  -44.000
385.724;  509.825; -868.000; -838.000
385.853;  145.475; -296.000; -270.000
385.982; 1523.725; -743.000; -787.000
386.112; 2546.025;-1052.000; -871.000
386.241;  203.525; -307.000; -312.000
386.371;   36.000; -174.000;  -87.000
386.500;   19.425; -825.000; -789.000
386.629;   50.400; -874.000; -817.000
386.759;   74.375;  -43.000;   68.000
386.888;    6.425; -170.000; -250.000
387.017;  -73.450; -648.000; -620.000
387.147;  -70.975; -771.000; -798.000
387.276;   19.200; -410.000; -397.000
387.405;   39.200; -398.000; -342.000
387.535;  -31.225; -452.000; -361.000
387.664;  -51.325; -692.000; -620.000
387.793;   76.450; -198.000; -113.000
387.922;  593.800;  255.000;  200.000
388.052;   55.900; -576.000; -423.000
388.181;   32.925; -342.000; -472.000
388.310;   42.250; -889.000; -710.000
388.439;   -7.675; -749.000; -742.000
388.568;  206.850;  365.000;  244.000
388.697; 1223.925; -756.000; -653.000
388.826;  275.800; -768.000; -666.000
388.956;   76.650; -285.000; -307.000
389.085;  -21.425; -347.000; -287.000
389.214; -103.925; -842.000; -872.000
389.343;  -65.825; -645.000; -413.000
389.472;  374.175;  126.000;  149.000
389.601;  536.350;   91.000;    0.000
389.730;   36.100; -568.000; -687.000
389.859;   79.825;  226.000;   46.000
389.988;  215.700; -423.000; -408.000
390.117;  174.500; -168.000; -146.000
390.246;    8.000; -331.000; -320.000
390.375;  142.175; -673.000; -626.000
390.504;  -45.575; -703.000; -621.000
390.633;  -83.225; -672.000; -726.000
390.761;  -56.975; -732.000; -645.000
390.890;   20.850;   -4.000; -130.000
391.019;  -27.775; -421.000; -441.000
391.148; -118.575; -826.000; -855.000
391.277;  -64.275; -576.000; -493.000
391.406;  -66.350; -821.000; -805.000
391.534;   24.775;  574.000; -301.000
391.663;  -40.650; -583.000; -645.000
391.792;  -66.650; -673.000; -701.000
391.921;  123.575;   -3.000;   15.000
392.050;  243.875; -287.000; -228.000
392.178;  -13.200;-1206.000;-1061.000
392.307;  198.900; -758.000; -712.000
392.436;  119.250; -427.000; -641.000
392.564;   18.075;  166.000;   -6.000
392.693;  -82.975; -860.000; -682.000
392.822;  240.050; -529.000; -534.000
392.950;  135.425; -880.000; -714.000
393.079;  369.025; -188.000; -328.000
393.208;   44.800; -488.000; -511.000
393.336;  -19.025; -170.000; -145.000
393.465;  -55.200; -317.000; -199.000
393.593;    1.950;   62.000;   79.000
393.722; -155.850;-1121.000; -916.000
393.850;  -29.900; -188.000;  -61.000
393.979; -140.525; -926.000; -805.000
394.107;  -56.325; -517.000; -537.000
394.236;  -21.150; -570.000; -507.000
394.364;  231.200;  383.000;  206.000
394.493;  458.000; -911.000; -767.000
394.621;   16.800; -955.000; -916.000
394.750;  667.075; -873.000; -923.000
394.878; 2788.575; -247.000; -149.000
395.007; 3947.675; -721.000; -807.000
395.135;  317.225; -790.000; -721.000
395.263;  -79.950;-1038.000;-1040.000
395.392;    3.825;  -25.000; -107.000
395.520; -131.100; -818.000; -679.000
395.648;  -73.300; -865.000; -915.000
395.777;  -10.675; -366.000; -405.000
395.905;  -39.150; -449.000; -564.000
396.033;   15.225;  217.000;  172.000
396.162;  693.450; -399.000; -453.000
396.290;  663.800;  -17.000;   -2.000
396.418;  145.650; -555.000; -514.000
396.546;  -56.750; -571.000; -466.000
396.674;  -86.550; -850.000; -878.000
396.803;   20.350;  -72.000;  -23.000
396.931;  119.475; -179.000; -199.000
397.059;  106.875;-1026.000; -989.000
397.187;  -97.575;-1026.000; -975.000
397.315; -140.400; -884.000; -649.000
397.443;  -88.050; -592.000; -443.000
397.572;  -87.350; -578.000; -424.000
397.700;   19.075; -607.000; -614.000
397.828;   24.350;  120.000;  -90.000
397.956;  -44.950; -508.000; -478.000
398.084;  -76.250; -767.000; -626.000
398.212;   36.200;  137.000;  124.000
398.340;   20.350;  -56.000;  159.000
398.468;   46.250; -390.000; -169.000
398.596; -129.525; -993.000; -953.000
398.724; -125.550; -762.000; -767.000
398.852; -150.250;-1024.000; -976.000
398.980;  -42.675; -560.000; -560.000
399.108;  -40.725; -982.000; -735.000
399.236;   49.775;   13.000;    8.000
399.363;   13.675;  222.000;  196.000
399.491;  -72.350; -404.000; -398.000
399.619; -119.325; -829.000; -800.000
399.747;  -93.375; -859.000; -771.000
399.875;   91.700;  220.000;  234.000
400.003;  -25.175; -359.000; -284.000
400.130;  -91.300; -421.000; -341.000
400.258;  -30.925;  -83.000;   38.000
400.386;  -71.050; -352.000; -168.000
400.514;  -25.425; -526.000; -587.000
400.641;  -57.975; -928.000; -802.000
400.769; -142.100; -979.000; -888.000
400.897;  -95.600; -838.000; -793.000
401.025;  -13.450; -166.000; -152.000
401.152;   -5.825;  220.000;   38.000
401.280;  -78.050; -430.000; -429.000
401.408; -114.250; -712.000; -576.000
401.535; -108.350; -735.000; -758.000
401.663; -185.875;-1134.000;-1054.000
401.790;  -78.400; -514.000; -525.000
401.918;   31.900;  436.000;  405.000
402.046;  -15.175;  134.000;  122.000
402.173;  -39.975;  -18.000;    7.000
402.301;  -66.275; -519.000; -397.000
402.428;   32.225;  528.000;  383.000
402.556; -130.000;-1188.000; -913.000
402.683;  -22.925;  -20.000;   -1.000
402.811;  -40.000;  -37.000; -206.000
402.938;  -23.500;   20.000;   27.000
403.066;  224.075; -574.000; -558.000
403.193;  386.500;  299.000;  239.000
403.321;  292.975; -396.000; -574.000
403.448;  378.625;   83.000;   27.000
403.575;  180.000;  -90.000;  -46.000
403.703;  -87.500; -732.000; -557.000
403.830;  -69.725; -531.000; -496.000
403.957; -140.200;-1117.000;-1023.000
404.085;    9.600;  -61.000; -172.000
404.212;  112.175;  -50.000;   63.000
404.339;  250.525; -566.000; -306.000
404.467; 5478.100; -612.000; -524.000
404.594; 4021.600; -287.000; -227.000
404.721; 1072.975; -869.000; -764.000
404.848;   98.000; -113.000; -202.000
404.976; -101.700; -856.000; -783.000
405.103;  -20.175;  -14.000;  -82.000
405.230;  -18.125;  190.000;  226.000
405.357;   22.675;  117.000;   44.000
405.484;  250.625;  -49.000;    5.000
405.612;   55.225; -548.000; -563.000
405.739;  -60.275; -488.000; -243.000
405.866;   76.450;  669.000;  385.000
405.993;  -29.075; -398.000; -102.000
406.120; -122.975; -801.000; -887.000
406.247;  -51.275; -323.000; -342.000
406.374;  496.650;  540.000;  629.000
406.501;  162.650; -632.000; -702.000
406.628;  -80.600; -621.000; -589.000
406.755;  -87.175; -803.000; -620.000
406.882;  -41.100; -228.000; -277.000
407.009;  -95.525; -719.000; -628.000
407.136;   69.025; -480.000; -401.000
407.263;  196.675; -939.000; -829.000
407.390;  -67.875; -692.000; -614.000
407.517; -160.675;-1139.000;-1187.000
407.644;  -35.650; -332.000; -256.000
407.771;  -68.075; -249.000; -287.000
407.898;    4.600;  168.000;  328.000
408.025;  -61.750; -421.000; -313.000
408.151;  -17.425;   82.000;  153.000
408.278;  -68.725; -267.000; -216.000
408.405; -107.550; -931.000; -899.000
408.532;  -49.775; -549.000; -542.000
408.659; -110.575; -677.000; -648.000
408.785; -204.925;-1298.000;-1170.000
408.912;  -50.050; -412.000; -296.000
409.039; -112.050; -610.000; -686.000
409.166; -116.325; -591.000; -555.000
409.292; -102.050; -571.000; -534.000
409.419; -122.925; -665.000; -649.000
409.546;  -93.050; -431.000; -192.000
409.672; -103.700; -713.000; -545.000
409.799;  -14.450;  -36.000;   34.000
409.926;  -35.950; -180.000; -179.000
410.052; -171.700;-1127.000;-1091.000
410.179;  -49.600; -368.000; -392.000
410.305;  -82.425; -375.000; -493.000
410.432;  -33.325; -220.000; -333.000
410.558;  -76.775; -305.000; -380.000
410.685; -107.375; -688.000; -431.000
410.812;  -87.425; -409.000; -588.000
410.938; -135.500; -964.000; -808.000
411.065;  -92.600; -671.000; -645.000
411.191;  -15.650; -189.000; -174.000
411.317; -102.125; -823.000; -742.000
411.444;  -61.800; -317.000; -246.000
411.570;  -74.500; -339.000; -294.000
411.697; -116.775; -758.000; -752.000
411.823; -159.600; -989.000; -999.000
411.949;  -25.650;  -56.000;   17.000
412.076; -104.125; -539.000; -519.000
412.202; -102.275; -758.000; -757.000
412.329; -129.050; -798.000; -752.000
412.455; -106.050; -821.000; -657.000
412.581;  -34.800;  -15.000;  172.000
412.707;  -54.000; -540.000; -457.000
412.834;   21.075;  156.000;  219.000
412.960;  -76.950; -785.000; -784.000
413.086;  -92.550; -743.000; -701.000
413.212;  161.425;  604.000;  578.000
413.339;  -47.800; -685.000; -701.000
413.465;   19.450; -364.000; -310.000
413.591;  -79.225; -757.000; -474.000
413.717;  -61.375; -358.000; -366.000
413.843; -123.850; -839.000; -861.000
413.969;  -55.525;  -47.000; -292.000
414.096;  -97.000; -679.000; -679.000
414.222;    9.200;  -33.000;   85.000
414.348;   -9.175; -652.000; -385.000
414.474;  117.400;   38.000;  -52.000
414.600;  -15.575; -126.000; -144.000
414.726;  -17.700;  -96.000;  -55.000
414.852;  -50.275; -365.000; -342.000
414.978;   36.325;  104.000;  -18.000
415.104;   45.125;   38.000;   80.000
415.230;   25.825; -329.000; -330.000
415.356;   47.500; -409.000; -514.000
415.482;  210.000;   13.000;  -35.000
415.608;  283.000; -247.000; -323.000
415.734;  936.350;   67.000;   38.000
415.860;19144.325; -875.000; -767.000
415.986;15214.200; -685.000; -607.000
416.111; 1343.725; -798.000; -652.000
416.237;  272.350; -424.000; -571.000
416.363; 1002.075; -765.000; -733.000
416.489; 4061.825; -324.000; -251.000
416.615;  490.375; -707.000; -742.000
416.741;  -12.350; -677.000; -784.000
416.866;  -87.300; -673.000; -736.000
416.992; -121.300; -801.000; -818.000
417.118;  -30.875;  -41.000;  -80.000
417.244;  -61.450; -798.000; -531.000
417.369;  -77.150; -801.000; -612.000
417.495;   -0.175; -325.000; -254.000
417.621;  -77.600;-1015.000; -803.000
417.746;   10.800; -579.000; -572.000
417.872;   45.500; -254.000; -144.000
417.998;   42.850; -515.000; -530.000
418.123;  927.350;-1073.000; -845.000
418.249; 5243.325; -512.000; -601.000
418.374;  823.400; -916.000; -824.000
418.500;  122.700; -383.000; -482.000
418.626;  116.100;   70.000;  -59.000
418.751;  122.700; -549.000; -448.000
418.877;  199.150; -637.000; -643.000
419.002; 1638.575; -688.000; -560.000
419.128;12118.100; -930.000; -721.000
419.253; 3269.400; -967.000; -837.000
419.379;  415.200; -391.000; -338.000
419.504;  380.875;  325.000;  415.000
419.629;  498.850; -393.000; -212.000
419.755; 3133.975; -317.000; -254.000
419.880;19983.250;  -98.000;   67.000
420.006;10981.850; -280.000; -221.000
420.131;29223.825; -662.000; -775.000
420.256; 4636.500; -315.000; -316.000
420.382;  590.675; -665.000; -687.000
420.507;   84.150; -649.000; -778.000
420.632;  162.400; -337.000; -339.000
420.758;  310.150; -251.000; -425.000
420.883;  -76.075; -876.000; -672.000
421.008;  -93.325; -775.000; -619.000
421.133;  -75.575; -509.000; -467.000
421.259;  -43.900; -325.000; -259.000
421.384; -112.950; -834.000; -693.000
421.509;  -24.850;-1052.000; -862.000
421.634; 1371.125; -936.000; -820.000
421.759;  658.525; -359.000; -327.000
421.885;  -51.775; -717.000; -656.000
422.010;  -65.200; -673.000; -542.000
422.135; -134.550; -695.000; -727.000
422.260;   36.475;  340.000;  280.000
422.385;  -40.175;   12.000;  -98.000
422.510;   16.625;  151.000;  -26.000
422.635;   30.150;  -87.000;  -43.000
422.760;  122.250; -766.000; -791.000
422.885;   60.975;  -57.000;  -80.000
423.010;  -44.750; -112.000; -169.000
423.135;  -93.300; -481.000; -561.000
423.260;  -14.225; -150.000; -245.000
423.385;   70.575;  476.000;  222.000
423.510;   35.725;   71.000;  -22.000
423.635;   94.650;  133.000;   45.000
423.760;   62.575;  383.000;  328.000
423.885;   49.300;  336.000;  391.000
424.010;   27.025;  -68.000;  -13.000
424.135;  -10.050;    5.000;  -33.000
424.259;  -79.675; -654.000; -457.000
424.384;  -42.650; -279.000; -272.000
424.509;  -38.175; -260.000; -186.000
424.634;  -83.350; -761.000; -623.000
424.759;  -24.725; -688.000; -544.000
424.883;   -9.200; -506.000; -527.000
425.008;  150.100; -502.000; -410.000
425.133; 1899.950; -679.000; -653.000
425.258;  998.125; -517.000; -381.000
425.382; 1090.650; -867.000; -774.000
425.507; 2980.475; -487.000; -543.000
425.632;  510.875; -802.000; -663.000
425.756;  429.700; -256.000; -146.000
425.881; 5684.575; -831.000; -857.000
426.006;16866.400; -604.000; -355.000
426.130; 2927.850; -696.000; -508.000
426.255;  378.375; -611.000; -491.000
426.379;  152.400; -189.000; -577.000
426.504;  348.400;  660.000;  544.000
426.629; 3891.200; -519.000; -466.000
426.753; 2983.675;   64.000;  -46.000
426.878;  350.250; -252.000; -288.000
427.002;  199.625; -651.000; -668.000
427.127; 1452.650;  -35.000; -158.000
427.251;10944.875;  372.000;  401.000
427.375; 3497.800; -191.000; -173.000
427.500; 2561.725; -616.000; -610.000
427.624;  954.900; -234.000; -400.000
427.749;  125.300; -216.000; -225.000
427.873;  -17.650; -499.000; -412.000
427.997;  -39.475; -222.000; -230.000
428.122;   75.925;  795.000;  703.000
428.246;   70.325;  433.000;  434.000
428.371; -107.375; -869.000; -773.000
428.495;  -97.500; -624.000; -646.000
428.619;  -37.575; -186.000; -117.000
428.743;   28.275;   65.000;  132.000
428.868;   13.775; -732.000; -643.000
428.992; 1545.250; -219.000; -326.000
429.116;  708.225; -329.000; -357.000
429.240;  332.400;  419.000;  426.000
429.365;    4.800; -454.000; -574.000
429.489;  -24.125; -638.000; -647.000
429.613;   22.175; -236.000; -177.000
429.737;   50.125; -563.000; -432.000
429.861;  254.300; -247.000; -133.000
429.985; 5177.925; -425.000; -305.000
430.109; 6311.750; -770.000; -908.000
430.234;  753.575;   76.000;  -50.000
430.358;   90.600; -250.000; -160.000
430.482;  -50.900; -672.000; -564.000
430.606;  -64.150; -655.000; -375.000
430.730;   44.675; -437.000; -388.000
430.854;  183.250; -909.000; -835.000
430.978;  -46.425; -795.000; -764.000
431.102;  -77.225; -499.000; -422.000
431.226; -105.825; -874.000; -815.000
431.350;   32.425;  345.000;  422.000
431.474;  -63.400; -661.000; -373.000
431.597; -139.400;-1060.000; -848.000
431.721;  -69.425; -276.000; -267.000
431.845; -135.175; -704.000; -472.000
431.969;  -86.475; -304.000; -349.000
432.093;  -91.725; -395.000; -317.000
432.217;  -31.850;   32.000;   82.000
432.341;  -94.000; -523.000; -518.000
432.464;    2.725;   96.000;   40.000
432.588;  247.550; -401.000; -329.000
432.712;  145.500;  -52.000;  -52.000
432.836;   48.550;  213.000;  263.000
432.959;  -26.175; -372.000; -311.000
433.083;   67.400;   11.000;    2.000
433.207;  356.900;  285.000;  930.000
433.330; 4647.650; -391.000; -200.000
433.454; 6251.625; -654.000; -638.000
433.578; 3568.175;  583.000;  278.000
433.701;  751.625; -623.000; -675.000
433.825;  184.325; -292.000; -299.000
433.949;  219.825;   28.000;  -72.000
434.072;   88.375; -410.000; -323.000
434.196;   -3.225; -309.000; -117.000
434.319; 3520.700;25482.000;25124.000
434.443;  700.100; -656.000; -603.000
434.566; 2596.600;  281.000;   62.000
434.690;  496.375; -637.000; -383.000
434.813;   53.125; -251.000; -173.000
434.937;  -69.475; -569.000; -696.000
435.060;  -38.500; -423.000; -332.000
435.184;  377.050; -492.000; -217.000
435.307;  238.475;  159.000;  102.000
435.431;  -12.300;  -40.000;   24.000
435.554;  -62.000; -399.000; -240.000
435.677;  -87.925; -350.000; -258.000
435.801;  -31.975;  -25.000;   49.000
435.924;  -13.600;    1.000;  -67.000
436.048;  -92.550;-1019.000; -732.000
436.171;  -55.825; -240.000;  -66.000
436.294;  -32.500; -248.000; -229.000
436.417;   79.825; -963.000; -849.000
436.541;  -80.925; -814.000; -840.000
436.664;  -44.800; -242.000; -316.000
436.787;  -33.825;   13.000;  113.000
436.910; -108.750; -792.000; -422.000
437.034;    5.550;  142.000;  143.000
437.157;   62.175;  -11.000;    0.000
437.280;  -46.250; -392.000; -292.000
437.403;  -67.375; -982.000; -869.000
437.526;  715.000; -903.000; -865.000
437.649; 2735.975; -505.000; -332.000
437.772;  486.550; -692.000; -540.000
437.896;  132.825;  700.000;  544.000
438.019;  -96.125; -758.000; -503.000
438.142;  -81.400; -596.000; -506.000
438.265;   -9.925; -639.000; -670.000
438.388;  664.750; -520.000; -410.000
438.511;  174.750; -597.000; -394.000
438.634;  -33.150; -247.000; -125.000
438.757; -132.300; -693.000; -619.000
438.880;  -27.100;  -34.000;  -57.000
439.003;  -74.325; -417.000; -437.000
439.126;  -55.325; -287.000; -167.000
439.248;  -60.075;  -98.000; -139.000
439.371;  -61.550;    9.000;  -53.000
439.494;   28.125;  510.000;  439.000
439.617;  -60.575;   65.000;  -88.000
439.740; -174.175; -968.000; -816.000
439.863; -142.600; -755.000; -595.000
439.986; -119.825; -476.000; -431.000
440.108;  -51.125; -161.000; -112.000
440.231; -160.200; -950.000; -836.000
440.354;  -36.325;  -64.000; -150.000
440.477;   51.700; -566.000; -542.000
440.599;   25.175; -200.000; -225.000
440.722; -115.825; -709.000; -586.000
440.845;   51.400;  751.000;  928.000
440.968; -108.025; -415.000; -311.000
441.090;  -56.675; -199.000;  -33.000
441.213; -174.225;-1021.000; -825.000
441.336;  -54.025; -159.000;   -5.000
441.458;  -75.925; -549.000; -396.000
441.581;  -74.200; -628.000; -629.000
441.703;  -66.450; -152.000;   13.000
441.826; -107.575; -557.000; -400.000
441.948;  -46.550;   56.000;   51.000
442.071;   31.325;  555.000;  424.000
442.193; -106.675; -531.000; -485.000
442.316;   21.450;  152.000;   97.000
442.438;   32.700; -233.000;  -10.000
442.561;   71.625;  272.000;  262.000
442.683;  592.125; -809.000; -522.000
442.806; 1428.600;   -8.000;   74.000
442.928;   97.525; -859.000; -604.000
443.051;  -57.900; -577.000; -373.000
443.173;  -87.400; -341.000; -339.000
443.295;  -98.275; -263.000; -371.000
443.418;  -80.825; -321.000;  -29.000
443.540;   -5.150; -106.000;   -4.000
443.662; -108.925; -563.000; -465.000
443.785;  -13.550;  335.000;  199.000
443.907; -105.750; -362.000; -208.000
444.029; -120.350; -767.000; -494.000
444.152; -144.225; -644.000; -554.000
444.274;  -38.925;  -18.000;  -24.000
444.396; -109.750; -461.000; -221.000
444.518; -138.850; -691.000; -454.000
444.640; -107.225; -268.000; -111.000
444.763;  -24.875;  388.000;  249.000
444.885; -123.075; -432.000; -392.000
445.007;  -35.150;   35.000;   86.000
445.129; -127.100; -610.000; -515.000
445.251;  -91.500; -372.000; -439.000
445.373; -139.900; -537.000; -386.000
445.495;   13.750;  242.000;  350.000
445.617;   55.425;  853.000;  753.000
445.739;  -54.075; -215.000;  -97.000
445.861;  -26.425; -245.000; -112.000
445.984;  -29.250; -267.000; -101.000
446.105;  221.900; -418.000; -251.000
446.227;  709.750; -176.000;  -19.000
446.349;   46.725; -358.000; -249.000
446.471;  -88.475; -615.000; -448.000
446.593;  -47.825; -316.000;   19.000
446.715;   -1.125;  -67.000;   41.000
446.837;   65.750;  697.000;  832.000
446.959;  -90.275; -457.000; -478.000
447.081; -127.425; -628.000; -518.000
447.203;   59.225;  862.000;  834.000
447.325;  -74.575; -270.000;   42.000
447.446;  -14.925;  286.000;  530.000
447.568; -146.750; -921.000; -803.000
447.690;  -68.025; -236.000; -245.000
447.812; -145.000; -798.000; -519.000
447.933;  -17.125;  155.000;  127.000
448.055;  -63.825; -306.000; -261.000
448.177;  157.800;   31.000;   79.000
448.299;  140.600; -935.000; -727.000
448.420;   37.525;  -25.000;  159.000
448.542;  -43.650;   -3.000;   33.000
448.664;  -31.475;  109.000;  322.000
448.785;  -51.200;  265.000;   83.000
448.907;  -70.675; -614.000; -353.000
449.028;  -16.250; -771.000; -471.000
449.150;   68.125;  492.000;  589.000
449.272; -166.950;-1044.000; -913.000
449.393;   21.400;  612.000;  694.000
449.515; -147.950; -634.000; -581.000
449.636;  -43.100; -264.000; -155.000
449.758;   96.975;  763.000;  622.000
449.879;  -88.575; -498.000; -396.000
450.001;  -84.075; -149.000;  -49.000
450.122;  -34.950;  -95.000;  162.000
450.244;  -34.850;   37.000;  364.000
450.365; -102.300; -495.000; -301.000
450.486;  -27.350;   80.000;  268.000
450.608;   22.225;  393.000;  326.000
450.729;   60.775;  578.000;  645.000
450.850;   -4.000; -574.000; -466.000
450.972;  637.850; -552.000; -389.000
451.093; 4589.950;  190.000;  588.000
451.214; 2251.525; -516.000; -337.000
451.336;  407.725;  773.000;  579.000
451.457;   56.150;  264.000;  393.000
451.578;  -45.725; -118.000;  -74.000
451.699; -114.050; -546.000; -540.000
451.821;  -63.875; -284.000;  -50.000
451.942;   -4.600;  278.000;  285.000
452.063;   30.600;  228.000;  419.000
452.184;  487.650;  -54.000;  -49.000
452.305; 1094.000;  103.000;  170.000
452.427;  153.950; -549.000; -301.000
452.548;  -15.975;   23.000;   79.000
452.669;  -38.750; -257.000;  -89.000
452.790;  -48.625;    3.000;  -18.000
452.911;   -7.950;  195.000;  259.000
453.032;  -65.925; -289.000;  -60.000
453.153;  -44.925;  -29.000;   81.000
453.274;   56.925;  737.000;  868.000
453.395;  -43.050;  -51.000;  175.000
453.516;  122.050; 1317.000; 1388.000
453.637;  -62.700; -205.000; -150.000
453.758;  -55.525;   15.000;   69.000
453.879; -126.800; -462.000; -250.000
454.000;   66.375; 1086.000;  948.000
454.121; -121.825; -554.000; -326.000
454.242; -113.500; -599.000; -383.000
454.362;  -55.650;  -99.000;  114.000
454.483;  -46.275; -309.000; -229.000
454.604;   54.650;  512.000;  580.000
454.725; -116.000; -627.000; -555.000
454.846; -114.250; -474.000; -406.000
454.967;  -25.350;  230.000;  539.000
455.087;  -48.025;  179.000;  153.000
455.208;   13.475;  554.000;  856.000
455.329;  -72.825;  -22.000;   82.000
455.450;   11.625;  473.000;  633.000
455.570;  -77.650; -234.000; -211.000
455.691;  -51.875;  201.000;  407.000
455.812;  -98.475; -270.000;  -92.000
455.932;  -70.075;  107.000;  -97.000
456.053;  -91.200;   36.000;   24.000
456.173; -112.025; -433.000; -355.000
456.294; -138.000; -476.000; -303.000
456.415;  -63.975;  -73.000;   70.000
456.535;  -39.425;  297.000;  273.000
456.656;  -43.075;  132.000;  240.000
456.776;  -68.575;    3.000;  298.000
456.897;  -19.700;  308.000;  513.000
457.017;  -85.850; -153.000;   -3.000
457.138; -116.650; -402.000; -249.000
457.258;  -30.575;  263.000;  224.000
457.379;  -14.250;  509.000;  521.000
457.499;  -26.250;  443.000;  432.000
457.620; -128.200; -407.000; -231.000
457.740;  -82.900; -132.000;  -11.000
457.860;  -57.975;   87.000;   44.000
457.981;  -54.750;  132.000;  124.000
458.101;  -72.500;  -89.000;   40.000
458.221;  -32.700;  336.000;  402.000
458.342;  -64.650;   -4.000;  -37.000
458.462;   12.525;  617.000;  352.000
458.582;  -36.575; -302.000; -294.000
458.703;    7.650;  303.000;  154.000
458.823;  -40.200;   22.000;  163.000
458.943;   24.450;  341.000;  467.000
459.063;  -39.225; 1124.000;  192.000
459.183;  -31.875;  328.000;  313.000
459.304;    3.625;  315.000;  517.000
459.424;  -60.825; -246.000;  -89.000
459.544;  294.325;  388.000;  764.000
459.664;  790.550;  499.000;  506.000
459.784;  338.175; 1004.000; 1175.000
459.904;   62.850;  867.000;  744.000
460.024;   70.150;  867.000;  684.000
460.144;   19.825;  449.000;  554.000
460.264;   -8.225;  515.000;  327.000
460.385;  -99.975; -145.000; -119.000
460.505;   36.375;  905.000;  858.000
460.625;  -82.475;  -17.000;  -68.000
460.745;  -17.950;  396.000;  541.000
460.864;  -58.550;  153.000;  469.000
460.984;   -2.150;  499.000;  573.000
461.104;  130.750; 1656.000; 1775.000
461.224;   22.325;  657.000;  650.000
461.344;  -30.725;  431.000;  360.000
461.464;  -21.075;  258.000;  513.000
461.584;  -18.950;  283.000;  466.000
461.704;  -38.125;   58.000;  108.000
461.824;  -57.850;  238.000;  259.000
461.943;  -34.675;  191.000;  130.000
462.063;  -55.375;    2.000;  324.000
462.183;   25.300;  639.000;  717.000
462.303;  103.850; 1678.000; 1230.000
462.422;   14.650;  781.000;  840.000
462.542;  -36.950;  271.000;  391.000
462.662;   41.950;  353.000;  380.000
462.782;  213.525;  833.000;  572.000
462.901;  477.975;  545.000;  717.000
463.021;  307.850; 1702.000; 1638.000
463.141;  -11.650;  337.000;  770.000
463.260;  -21.125;  614.000;  474.000
463.380;   14.575;  902.000;  884.000
463.499;  -50.750;  342.000;  332.000
463.619;  -35.175;  581.000;  559.000
463.738;  117.375; 1644.000;  903.000
463.858;   12.125;  657.000;  811.000
463.978;  -37.100;  542.000;  396.000
464.097;   53.775;  921.000; 1114.000
464.217;  100.400; 1196.000; 1143.000
464.336;  107.950; 1068.000; 1130.000
464.455;  -31.400;  328.000;  659.000
464.575;   32.075;  597.000;  602.000
464.694;  181.875; 1204.000; 1179.000
464.814;  133.250; 1190.000; 1138.000
464.933;   77.350; 1095.000; 1027.000
465.052;   88.375; 1412.000; 1054.000
465.172;   76.225;  922.000;  799.000
465.291;  141.950; 1376.000; 1320.000
465.410;   17.350;  462.000;  735.000
465.530;   99.975; 1355.000; 1310.000
465.649;   66.125; 1209.000; 1273.000
465.768;  135.275; 1673.000; 1508.000
465.888;   46.125;  941.000; 1174.000
466.007;   97.175; 1335.000; 1440.000
466.126;    6.425;  721.000;  641.000
466.245;   44.350; 1176.000; 1187.000
466.364;   15.475;  950.000; 1060.000
466.484;   57.025; 1024.000; 1213.000
466.603;   44.400; 1101.000; 1222.000
466.722;  122.150; 1490.000; 1769.000
466.841;   84.950; 1151.000; 1401.000
466.960;   38.000; 1069.000;  972.000
467.079;  128.100; 1971.000; 1786.000
467.198;   46.825; 1238.000; 1181.000
467.317;   82.450; 1768.000; 1162.000
467.436;   71.900; 1709.000; 1261.000
467.555;  117.350; 1796.000; 1746.000
467.674;   59.000; 1227.000; 1329.000
467.793;   56.450; 1376.000; 1374.000
467.912;   71.700; 1658.000; 1539.000
468.031;  148.250; 2038.000; 1930.000
468.150;  133.350; 1842.000; 1837.000
468.269;  182.200; 2313.000; 2090.000
468.388;  199.175; 2168.000; 2339.000
468.507;  241.475; 2884.000; 2903.000
468.626;  263.900; 2555.000; 2541.000
468.744;  134.025; 2018.000; 2174.000
468.863;  205.975; 2312.000; 2523.000
468.982;  122.475; 1503.000; 1555.000
469.101;  228.150; 2788.000; 2692.000
469.220;  157.475; 2333.000; 2176.000
469.338;  262.025; 2935.000; 3051.000
469.457;  186.150; 2719.000; 2545.000
469.576;  336.550; 3953.000; 3784.000
469.695;  237.475; 2877.000; 3066.000
469.813;  410.075; 4148.000; 4192.000
469.932;  411.925; 4255.000; 4485.000
470.051;  413.350; 4075.000; 4161.000
470.169;  814.750; 4470.000; 4338.000
470.288; 1428.350; 4700.000; 4809.000
470.406;  896.825; 5059.000; 5194.000
470.525;  636.950; 6101.000; 5787.000
470.644;  632.925; 6847.000; 6794.000
470.762;  803.800; 8397.000; 7873.000
470.881;  881.775; 8651.000; 8464.000
470.999; 1035.675; 9685.000; 9151.000
471.118; 1108.250;11174.000;10711.000

