
Integration time [ms]: 100.000
Averaging Nr. [scans]: 40
Smoothing Nr. [pixels]: 0
Data measured with spectrometer [name]: 2101012U2
Wave   ;Sample   ;Dark     ;Reference
[nm]   ;[counts] ;[counts] ;[counts] 

197.733;   52.425;  516.000;  404.000
197.879;  -74.350; -610.000; -634.000
198.025;  -54.400; -475.000; -420.000
198.171;  -65.675; -602.000; -612.000
198.317;  -39.625; -401.000; -316.000
198.463;  -68.800; -655.000; -404.000
198.609;   13.925;  181.000; -137.000
198.755;  -69.200; -644.000; -410.000
198.901;  -70.225; -505.000; -424.000
199.047;  -80.575; -615.000; -488.000
199.193;  -38.350; -230.000; -468.000
199.339;  -32.075; -222.000; -369.000
199.485;   44.400;  330.000;  271.000
199.631;   23.600;  227.000;  310.000
199.777;  -56.100; -466.000; -398.000
199.923;  -68.100; -610.000; -424.000
200.069;  -10.875; -141.000;  -58.000
200.215;   58.975;  128.000;  453.000
200.361;   30.050;  243.000;  477.000
200.507;  -57.250; -600.000; -373.000
200.653;  -25.850; -371.000; -194.000
200.798;  -36.550; -215.000; -125.000
200.944;    9.825; -146.000;  -41.000
201.090;   32.350;   61.000;  222.000
201.236;    6.700; -116.000; -158.000
201.382;  124.150;  874.000;  903.000
201.528;   -0.575;  -58.000;  -48.000
201.674;  -56.800; -386.000; -293.000
201.819;  -55.750; -540.000; -439.000
201.965;  -71.375; -699.000; -447.000
202.111;  -18.275; -273.000; -226.000
202.257;  -30.750; -250.000; -238.000
202.402;   18.950;   13.000;  -36.000
202.548;  -37.100; -169.000; -116.000
202.694;   94.975;  410.000; -183.000
202.840;  -72.100; -603.000; -531.000
202.985;  -68.475; -681.000; -639.000
203.131; -115.150; -832.000; -666.000
203.277;  -19.225; -199.000; -262.000
203.423;  -43.025; -434.000; -520.000
203.568;  -50.200; -462.000; -237.000
203.714;  -53.525; -535.000; -542.000
203.860;  -78.725; -682.000; -641.000
204.005;   22.700;  112.000;  167.000
204.151;   75.425;  561.000;  556.000
204.296;  -54.350; -354.000; -221.000
204.442;  -71.450; -600.000; -547.000
204.588;  -74.875; -592.000; -579.000
204.733;   22.625;  178.000;  168.000
204.879; -119.750;-1018.000; -822.000
205.025;   16.700;  -99.000;  126.000
205.170;   -0.250;  -17.000;   94.000
205.316;   87.425;  438.000;  661.000
205.461;  -77.900; -698.000; -554.000
205.607;   77.575;  609.000;  665.000
205.752;  -82.575; -626.000; -551.000
205.898;  -31.675; -501.000; -391.000
206.043;  -63.300; -578.000; -506.000
206.189;  -46.225; -243.000; -285.000
206.334;   76.875;  554.000;  606.000
206.480;   79.975;  409.000;  239.000
206.625;  -84.800; -529.000; -552.000
206.771;  -47.900; -451.000; -373.000
206.916;  -33.050; -210.000; -537.000
207.062;  -59.950; -545.000; -591.000
207.207;  -48.950; -546.000; -443.000
207.353;   50.500;  185.000;  460.000
207.498;   15.375;  196.000;   85.000
207.643;  -56.000; -501.000; -370.000
207.789; -129.500;-1069.000; -910.000
207.934;  -99.175; -665.000; -713.000
208.080;  -26.800; -154.000;   66.000
208.225;    2.125;  -22.000;  -57.000
208.370;  -73.575; -727.000; -619.000
208.516;  -83.025; -741.000; -487.000
208.661;  -32.700; -127.000;  -69.000
208.806;  -24.275; -165.000; -171.000
208.952; -129.000;-1044.000; -731.000
209.097;   70.675;  378.000;  349.000
209.242;  -40.875; -307.000; -382.000
209.387;   72.100;  392.000;  350.000
209.533;  -51.650; -321.000; -350.000
209.678;   75.725;  472.000;  543.000
209.823;  -51.575; -408.000; -310.000
209.969; -103.325; -860.000; -757.000
210.114; -107.025; -907.000; -719.000
210.259; -114.750; -939.000; -889.000
210.404;   -5.050; -171.000;  103.000
210.549;    1.800;  108.000;    3.000
210.695;  -21.825;   -3.000;  -95.000
210.840;   35.450;   94.000;   67.000
210.985;  -64.450; -484.000; -303.000
211.130;   75.300;  268.000;  406.000
211.275;   23.050;  207.000;  199.000
211.420;  -52.725; -300.000; -289.000
211.566;  -69.150; -536.000; -489.000
211.711;   33.675;  218.000;  157.000
211.856;  -61.625; -545.000; -519.000
212.001;   10.350;  151.000;   44.000
212.146;   25.175;  153.000;   49.000
212.291;  -35.525; -210.000; -186.000
212.436;  -23.550; -280.000;   -6.000
212.581;  -80.650; -685.000; -653.000
212.726;  -67.425; -487.000; -538.000
212.871;  -52.550; -552.000; -217.000
213.016; -150.625;-1172.000;-1029.000
213.161;   67.475;  406.000;  291.000
213.306;  -72.200; -435.000; -577.000
213.451;  -84.775; -778.000; -689.000
213.596;  -47.325; -455.000; -347.000
213.741;  -47.425; -448.000; -538.000
213.886;  -81.675; -498.000; -517.000
214.031;   -9.900; -294.000; -124.000
214.176;  -45.750; -408.000; -341.000
214.321;  -13.675; -296.000; -157.000
214.466;  -17.900; -163.000;  -43.000
214.611;    2.375;  -61.000;  -10.000
214.756; -112.150; -948.000; -858.000
214.901;   -3.225; -388.000; -226.000
215.046; -127.850; -797.000; -825.000
215.191;   27.900;  128.000;   35.000
215.336;   -5.750; -157.000;  -19.000
215.480;  -65.850; -684.000; -505.000
215.625;   -7.150; -175.000;  -19.000
215.770;  -85.125; -757.000; -662.000
215.915;   -1.600;   -5.000;  -97.000
216.060;   -7.300; -113.000;  -21.000
216.205; -104.175; -731.000; -779.000
216.349;  -62.350; -470.000; -533.000
216.494; -126.550; -939.000; -867.000
216.639; -120.550; -823.000; -888.000
216.784;  -94.350; -577.000; -525.000
216.929;   48.875;  392.000;  281.000
217.073;   -5.200; -244.000;  -31.000
217.218;   13.375;   78.000;  -47.000
217.363;  -85.175; -656.000; -618.000
217.507;  -75.200; -623.000; -588.000
217.652; -118.950; -845.000; -874.000
217.797;  -75.725; -708.000; -659.000
217.942; -103.425; -856.000; -720.000
218.086;   73.375;  608.000;  539.000
218.231;  -11.275; -174.000;  -26.000
218.376;  -23.200; -337.000; -229.000
218.520;    4.925;  -41.000;   96.000
218.665;  -27.650; -338.000; -204.000
218.810;  -43.750; -275.000; -233.000
218.954;   18.875;  201.000;   35.000
219.099; -118.550; -713.000; -963.000
219.243;  -70.900; -589.000; -554.000
219.388;  -38.200; -264.000; -136.000
219.532;  -10.000; -116.000; -116.000
219.677;  -85.100; -564.000; -521.000
219.822;    7.575;   33.000;   89.000
219.966;    2.300;   17.000;  -99.000
220.111;  -35.325; -328.000;  -40.000
220.255;  -88.200; -797.000; -750.000
220.400;  -13.975; -180.000; -146.000
220.544;  -66.750; -516.000; -450.000
220.689;  -50.500; -422.000; -451.000
220.833;   -6.175; -123.000;  -58.000
220.978;  -43.250; -393.000; -563.000
221.122;   28.375;  319.000;  307.000
221.267; -120.425; -906.000; -837.000
221.411;  -65.200; -478.000; -394.000
221.555;  -10.725; -104.000;  -23.000
221.700;  -39.550; -329.000; -222.000
221.844;   42.725;  255.000;  272.000
221.989;  -38.800; -328.000; -311.000
222.133;  -23.250; -289.000; -307.000
222.277;  -10.700;    5.000;   78.000
222.422;   12.250;  227.000;  113.000
222.566;  -28.975; -381.000; -214.000
222.711;  -62.250; -414.000; -479.000
222.855;  -66.100; -643.000; -586.000
222.999;  -79.825; -642.000; -717.000
223.144;  -29.500; -195.000; -194.000
223.288;   58.675;  423.000;  251.000
223.432;   26.975;  184.000;  230.000
223.576;   33.025;  152.000;  -21.000
223.721;   50.075;  364.000;  273.000
223.865;  -48.650; -472.000; -475.000
224.009;  230.650; 1673.000; 1631.000
224.153;  -74.650; -660.000; -671.000
224.298;  -75.425; -531.000; -489.000
224.442;  -11.200;  -74.000;  -33.000
224.586;   -5.150; -169.000; -106.000
224.730;  -96.800; -858.000; -670.000
224.875; -108.925; -739.000; -688.000
225.019;   14.925;  102.000;  188.000
225.163;   52.175;  208.000;  341.000
225.307;   20.150;   97.000;  -91.000
225.451;   45.525;  360.000;  481.000
225.595;   28.000;  264.000;  176.000
225.739;   -8.725; -170.000;  -94.000
225.884;    7.100;   86.000;    5.000
226.028;  -93.200; -760.000; -626.000
226.172;  -38.250; -260.000; -273.000
226.316; -119.000; -941.000; -902.000
226.460;  -69.325; -645.000; -493.000
226.604;  -44.600; -406.000; -400.000
226.748;  -90.875; -836.000; -733.000
226.892;  -39.350; -227.000; -181.000
227.036;  -47.225; -537.000; -447.000
227.180;  -55.125; -551.000; -375.000
227.324;  -65.725; -561.000; -580.000
227.468; -103.225; -819.000; -717.000
227.612;   12.400;  242.000;  -28.000
227.756;  -99.400; -845.000; -698.000
227.900;   58.825;  342.000;  441.000
228.044;  -45.625; -509.000; -290.000
228.188;   61.425;  448.000;  568.000
228.332;  -93.425; -546.000; -472.000
228.476;  -19.025; -223.000; -149.000
228.620;  -31.000; -210.000; -150.000
228.764;   49.625;  431.000;  349.000
228.908;  -16.575; -155.000;   30.000
229.052;  -52.375; -615.000; -528.000
229.195;  -19.950; -172.000;   13.000
229.339;  -34.125; -235.000; -305.000
229.483;  -15.100;    5.000; -162.000
229.627;   -0.325; -156.000;  139.000
229.771;  -40.150; -218.000; -294.000
229.915;    9.775;  230.000;   79.000
230.059;  -83.725; -648.000; -663.000
230.202;  -37.475; -370.000; -317.000
230.346;  -16.500; -107.000;  107.000
230.490;  -52.475; -489.000; -521.000
230.634; -101.400; -736.000; -553.000
230.777;   74.875;  478.000;  509.000
230.921;  -57.975; -450.000; -359.000
231.065;  -22.350; -246.000; -286.000
231.209;   41.625;  261.000;  265.000
231.352;   18.575;   54.000;   40.000
231.496;   19.300;  568.000;  188.000
231.640;  -94.550; -693.000; -621.000
231.783;   62.425;  546.000;  525.000
231.927;  -44.300; -294.000; -365.000
232.071; -122.800; -962.000; -736.000
232.214; -108.875; -980.000; -764.000
232.358; -100.625; -683.000; -599.000
232.502;   15.050;  -19.000;    7.000
232.645; -134.825;-1090.000; -927.000
232.789;  -32.775; -257.000; -218.000
232.933;  -45.325; -407.000; -224.000
233.076; -115.775;-1038.000; -897.000
233.220; -119.050; -752.000; -777.000
233.363;  -68.975; -669.000; -477.000
233.507;   64.625;  371.000;  129.000
233.650;  -98.750; -764.000; -834.000
233.794;   57.375;  438.000;  461.000
233.938;  -61.975; -530.000; -362.000
234.081;  -22.750;  -93.000;   31.000
234.225;  -71.600; -631.000; -539.000
234.368; -108.400; -773.000; -723.000
234.512;  -44.900; -385.000; -299.000
234.655;  -85.650; -582.000; -555.000
234.798;  -63.275; -493.000; -466.000
234.942; -131.550; -884.000;-1002.000
235.085;  -76.800; -651.000; -443.000
235.229;  -81.650; -405.000; -410.000
235.372;  -62.650; -247.000; -191.000
235.516;  -54.675; -397.000; -321.000
235.659;   11.800;   92.000;  121.000
235.802;  -13.300;  -38.000;  -22.000
235.946;   28.950;  335.000;  215.000
236.089;   31.825;  126.000;  250.000
236.233;   58.350;  275.000;  298.000
236.376;  -45.075; -235.000; -378.000
236.519;  -51.600; -297.000; -319.000
236.663;  -31.200; -215.000; -117.000
236.806; -121.500;-1029.000; -999.000
236.949;   62.850;  543.000;  431.000
237.092;   66.800;  412.000;  391.000
237.236;  -79.000; -589.000; -502.000
237.379;   68.025;  352.000;  428.000
237.522; -123.425; -879.000; -768.000
237.666;  -27.150; -271.000;   18.000
237.809; -119.950; -851.000; -823.000
237.952;   45.625;  469.000;  271.000
238.095;  -63.500; -447.000; -442.000
238.238;   94.700;  688.000;  700.000
238.382;   -3.525;  166.000;  103.000
238.525;  -62.350; -598.000; -511.000
238.668; -144.125;-1060.000; -985.000
238.811;  -90.550; -638.000; -643.000
238.954;  -48.050; -483.000; -334.000
239.097;   96.225;  617.000;  664.000
239.241;   28.675;  394.000;  326.000
239.384;  -26.200; -254.000; -214.000
239.527;  -54.525; -424.000; -224.000
239.670; -143.875; -994.000;-1091.000
239.813; -104.750; -696.000; -658.000
239.956;   76.125;  579.000;  473.000
240.099; -115.900; -778.000; -725.000
240.242;   63.050;  428.000;  432.000
240.385;   42.150;  466.000;  450.000
240.528;  -64.575; -706.000; -473.000
240.671;   15.275;  189.000;  134.000
240.814;  -54.450; -441.000; -158.000
240.957;  -89.075; -767.000; -578.000
241.100;  -91.800; -779.000; -755.000
241.243; -151.650;-1234.000; -893.000
241.386;  -73.450; -508.000; -379.000
241.529;  -94.100; -735.000; -547.000
241.672;  -61.050; -566.000; -495.000
241.815; -113.475; -832.000; -808.000
241.958;  -28.475; -125.000; -182.000
242.101;  -65.700; -545.000; -390.000
242.244;  -43.450; -270.000; -325.000
242.387;  -44.225; -304.000; -246.000
242.530;   56.000;  470.000;  134.000
242.673;  -39.700; -381.000; -309.000
242.815; -111.300; -925.000; -899.000
242.958;  -59.000; -482.000; -381.000
243.101;    7.200;  132.000;  187.000
243.244;  -87.125; -564.000; -521.000
243.387;  -43.950; -313.000; -316.000
243.530; -103.025; -657.000; -674.000
243.672;   -6.725;   43.000;  -92.000
243.815;  -46.775; -355.000; -283.000
243.958;    5.400;   98.000;  -26.000
244.101;   25.250;   59.000;  -16.000
244.243;   -7.875;  -47.000;  101.000
244.386; -105.900; -761.000; -630.000
244.529;  -34.875; -132.000; -139.000
244.672; -154.050;-1154.000; -951.000
244.814; -100.150; -621.000; -794.000
244.957;  -47.475; -380.000; -304.000
245.100;  -66.825; -489.000; -489.000
245.242;  -65.700; -387.000; -374.000
245.385;    1.175;  -59.000;  -39.000
245.528; -116.450; -871.000; -705.000
245.670;   84.600;  612.000;  634.000
245.813;  -66.950; -599.000; -547.000
245.956;  -42.475; -324.000; -275.000
246.098;  -77.300; -508.000; -650.000
246.241;   11.850;  194.000;   48.000
246.383;   -7.875; -119.000;  -73.000
246.526;  -68.900; -454.000; -525.000
246.669; -118.125; -889.000; -780.000
246.811;   15.050;  172.000;   -1.000
246.954;  -66.775; -512.000; -426.000
247.096;  -24.475;  -84.000;   -6.000
247.239;  -64.575; -482.000; -445.000
247.381;  -68.400; -647.000; -488.000
247.524;   78.100;  645.000;  679.000
247.666;   -7.625;   58.000;   11.000
247.809; -107.025; -887.000; -691.000
247.951;  -17.850;  -75.000;  138.000
248.094;   41.900;  432.000;  308.000
248.236; -170.625;-1262.000;-1238.000
248.378;   -7.450; -356.000;  -81.000
248.521;  -16.500; -334.000; -337.000
248.663;  -49.525; -236.000; -267.000
248.806;   -8.850; -300.000; -266.000
248.948; -101.575; -886.000; -763.000
249.090;  -43.675; -428.000; -398.000
249.233;  -53.500; -344.000; -381.000
249.375;  -75.050; -474.000; -451.000
249.518;  -11.800;  -83.000; -133.000
249.660;    2.500; -103.000;    3.000
249.802; -156.675;-1303.000;-1189.000
249.945;  -79.175; -612.000; -540.000
250.087; -110.375; -834.000; -768.000
250.229;  -61.300; -362.000; -480.000
250.371;  -62.125; -494.000; -439.000
250.514;  -51.625; -310.000; -244.000
250.656;  -13.225;   69.000;  102.000
250.798; -121.250; -849.000; -800.000
250.940;  -61.425; -322.000; -322.000
251.083;  -21.550; -335.000; -111.000
251.225;   50.275;  338.000;  310.000
251.367;  -45.800; -274.000; -373.000
251.509;  -35.350; -265.000; -210.000
251.651;  -97.850; -731.000; -671.000
251.794;   66.300;  538.000;  632.000
251.936; -111.350; -821.000; -747.000
252.078;  -74.925; -540.000; -461.000
252.220;  -70.350; -645.000; -477.000
252.362;   92.250;  344.000;  462.000
252.504;  -80.175; -677.000; -584.000
252.646; -109.825; -875.000; -722.000
252.788;   13.350;   14.000; -128.000
252.931;  -40.475; -257.000; -253.000
253.073;  -43.375; -376.000; -317.000
253.215;  -10.575;  141.000;  122.000
253.357;  -13.825;   82.000; -153.000
253.499;  -52.450; -374.000; -234.000
253.641;  -80.400; -749.000; -594.000
253.783; -100.625; -609.000; -527.000
253.925;  -97.375; -586.000; -591.000
254.067; -115.900; -744.000; -667.000
254.209;  -27.925; -391.000; -259.000
254.351; -148.075; -865.000; -883.000
254.493;  -60.825; -441.000; -417.000
254.635; -123.600; -936.000; -818.000
254.777;  -88.425; -752.000; -687.000
254.918;  -70.500; -512.000; -430.000
255.060;  -58.200; -551.000; -395.000
255.202;  -61.525; -473.000; -261.000
255.344;  -65.900; -658.000; -455.000
255.486;  -80.300; -471.000; -406.000
255.628; -127.000; -780.000; -781.000
255.770;  -93.225; -676.000; -536.000
255.912;  -63.400; -559.000; -468.000
256.053;  -91.650; -730.000; -508.000
256.195;  154.500; 1008.000;  903.000
256.337; -104.225; -861.000; -595.000
256.479;   66.900;  532.000;  416.000
256.621;  -49.525; -394.000; -212.000
256.762; -111.475; -789.000; -742.000
256.904;   59.300;  485.000;  487.000
257.046;  -46.175; -381.000; -271.000
257.188;  -49.150; -351.000; -264.000
257.329;  -87.700; -525.000; -464.000
257.471;  -99.050; -939.000; -807.000
257.613;  -72.875; -584.000; -498.000
257.755; -153.275;-1073.000; -982.000
257.896;   41.150;  286.000;  392.000
258.038;  -70.025; -403.000; -352.000
258.180;  -53.750; -354.000; -279.000
258.321;  -86.700; -581.000; -457.000
258.463;   -7.300;  -71.000;  133.000
258.605;  -86.400; -562.000; -570.000
258.746;  -97.875; -886.000; -772.000
258.888; -153.725;-1026.000;-1020.000
259.029;   14.650;  121.000;   -8.000
259.171;  -83.400; -614.000; -550.000
259.313;   -8.075;  -49.000;  -47.000
259.454;  -86.275; -536.000; -414.000
259.596;  -56.100; -483.000; -390.000
259.737;  -83.625; -590.000; -474.000
259.879;   33.500;  217.000;  311.000
260.020;   88.300;  901.000;  636.000
260.162;  -35.050; -146.000; -253.000
260.303; -108.475; -768.000; -687.000
260.445;  -84.950; -609.000; -613.000
260.586;   28.975;  392.000;  157.000
260.728;  -38.825; -360.000; -248.000
260.869;  -71.075; -350.000; -343.000
261.011;   62.200;  706.000;  537.000
261.152;  -55.750; -479.000; -319.000
261.293;  -89.125; -576.000; -595.000
261.435;  -37.350; -219.000; -184.000
261.576;  -47.125; -455.000; -325.000
261.718;   55.300;  420.000;  470.000
261.859; -118.825; -940.000; -949.000
262.000; -123.275; -951.000;-1016.000
262.142;  -35.500;  -52.000;  -60.000
262.283; -121.475; -808.000; -691.000
262.424;  -87.400; -666.000; -625.000
262.566; -153.225;-1161.000; -983.000
262.707; -114.850; -840.000; -830.000
262.848; -129.000; -769.000; -726.000
262.990;  -56.825; -362.000; -345.000
263.131;   89.100;  650.000;  681.000
263.272;  -13.225;  -61.000;  -41.000
263.413;  -99.125; -589.000; -561.000
263.555;  -71.100; -669.000; -143.000
263.696;  -85.325; -550.000; -641.000
263.837;  -59.550; -449.000; -551.000
263.978;  -12.975;   -5.000;  -77.000
264.119;  -56.225; -283.000; -264.000
264.261; -121.625; -847.000; -630.000
264.402;  -12.350;   33.000;   40.000
264.543;  -72.200; -509.000; -524.000
264.684;  -17.875;   61.000;  -50.000
264.825;  -81.475; -816.000; -538.000
264.966;    0.325;  -84.000;  -67.000
265.107; -112.700; -646.000; -670.000
265.248; -113.800; -825.000; -812.000
265.390;   -4.950;  152.000;   -9.000
265.531;  -23.375; -238.000; -107.000
265.672;  -81.825; -557.000; -630.000
265.813;   59.075;  563.000;  439.000
265.954; -135.550; -959.000; -940.000
266.095;  -22.850; -372.000; -322.000
266.236;  -99.950; -686.000; -548.000
266.377;  -35.975; -243.000; -297.000
266.518;  -78.150; -619.000; -547.000
266.659;   23.950;  170.000;  268.000
266.800;    9.100;   83.000;   85.000
266.941;  -77.575; -487.000; -478.000
267.082;   39.125;  354.000;   99.000
267.223;  -43.100; -344.000; -273.000
267.364; -116.775; -892.000; -686.000
267.504;  -25.275;    3.000;  135.000
267.645;    1.525;  160.000;   67.000
267.786;  -31.750; -147.000;  -86.000
267.927;  -62.975; -473.000; -379.000
268.068;  -26.875; -186.000;  -61.000
268.209;  -40.675; -175.000; -413.000
268.350;  -66.175; -388.000; -532.000
268.490;  -89.575; -648.000; -521.000
268.631;   18.975;  127.000;  225.000
268.772; -111.775; -874.000; -647.000
268.913;  -44.275; -328.000; -476.000
269.054;  -25.575; -117.000;   12.000
269.194;  -40.725; -418.000; -402.000
269.335; -144.225;-1137.000;-1074.000
269.476;  -14.325;   33.000;  -35.000
269.617;  -54.800; -347.000; -392.000
269.757;  -85.250; -713.000; -646.000
269.898; -103.275; -856.000; -613.000
270.039;  -63.925; -415.000; -405.000
270.180; -135.225; -952.000; -816.000
270.320;  -15.900; -190.000; -250.000
270.461;  -45.000; -277.000; -249.000
270.602;  -30.150; -186.000; -156.000
270.742; -115.775; -868.000; -943.000
270.883;  -63.575; -442.000; -390.000
271.023;  -56.600; -358.000; -357.000
271.164;  -71.900; -607.000; -528.000
271.305;  -94.575; -666.000; -654.000
271.445;  -99.550; -722.000; -683.000
271.586;  -75.700; -462.000; -283.000
271.726;  -46.350; -397.000; -322.000
271.867;  -64.650; -594.000; -534.000
272.008;  139.500; -473.000; -285.000
272.148;  122.750;  462.000;  468.000
272.289;    0.750; -113.000; -181.000
272.429;   15.800;   19.000;  185.000
272.570;  -95.750; -633.000; -737.000
272.710; -101.825; -825.000; -775.000
272.851;  -26.575;  113.000; -130.000
272.991; -157.750;-1173.000;-1077.000
273.131;  -76.125; -419.000; -459.000
273.272;  -94.975; -683.000; -723.000
273.412;    4.075; -143.000;  -31.000
273.553;  -53.575; -488.000; -507.000
273.693;  124.375;  913.000;  858.000
273.834; -101.375; -894.000; -692.000
273.974;  -89.375; -664.000; -615.000
274.114; -104.600; -772.000; -560.000
274.255;   77.225;  414.000;  373.000
274.395;   -0.550; -180.000; -125.000
274.535;   38.850;  199.000;  350.000
274.676;   28.200;  225.000;   94.000
274.816;   -2.725;  110.000;   34.000
274.956;  -83.950; -624.000; -690.000
275.097;  -85.800;-1014.000; -922.000
275.237; -110.450; -913.000; -803.000
275.377;  -93.300; -778.000; -689.000
275.517; -152.400; -878.000; -937.000
275.658;  -63.800; -590.000; -555.000
275.798;  -64.125; -606.000; -413.000
275.938;    5.425;  215.000;  323.000
276.078; -108.400; -626.000; -395.000
276.218;   16.450;   99.000;  104.000
276.359; -135.550;-1026.000;-1024.000
276.499;  -69.175; -605.000; -446.000
276.639;  -28.300; -305.000; -151.000
276.779;  -52.000; -475.000; -357.000
276.919; -100.100; -783.000; -624.000
277.059;  -20.050; -261.000; -212.000
277.199;  -48.025; -357.000; -259.000
277.340;   62.000;  287.000;  175.000
277.480; -115.475; -840.000; -693.000
277.620;   23.900;  192.000;   16.000
277.760; -196.125;-1533.000;-1294.000
277.900;   21.975;  113.000;   33.000
278.040;    9.850;  137.000;  159.000
278.180;   45.150;  270.000;  170.000
278.320;   -0.075;   21.000;   56.000
278.460;  -76.950; -443.000; -469.000
278.600;  -75.800; -708.000; -598.000
278.740;   40.600;  448.000;  224.000
278.880;  -88.525; -768.000; -791.000
279.020;  -15.825; -194.000; -144.000
279.160;  -92.050; -672.000; -595.000
279.300; -115.175; -926.000; -873.000
279.440;  -87.725; -709.000; -622.000
279.579;  -41.275;-1014.000; -929.000
279.719;  -61.400; -410.000; -394.000
279.859;   61.400;   -4.000;   41.000
279.999;   20.575; -208.000;  101.000
280.139;  -25.400; -435.000; -387.000
280.279;  -64.975; -708.000; -745.000
280.419;  -33.450; -229.000; -147.000
280.559;  -38.975; -259.000; -180.000
280.698;  -86.025; -790.000; -639.000
280.838;  -92.575; -778.000; -800.000
280.978;  -97.350; -846.000; -790.000
281.118; -118.050; -811.000; -704.000
281.257;    2.725;   24.000;    6.000
281.397; -131.450;-1094.000; -960.000
281.537;  -81.450; -599.000; -712.000
281.677;  -34.500; -150.000; -101.000
281.816;  -92.425; -700.000; -630.000
281.956;  -19.325; -193.000; -257.000
282.096;  -66.525; -539.000; -396.000
282.235; -105.350; -672.000; -638.000
282.375;   -9.150; -243.000;  -98.000
282.515; -117.700; -715.000; -707.000
282.654;   13.975;   29.000;  106.000
282.794;   29.175;  388.000;  244.000
282.934;  -49.325; -530.000; -491.000
283.073; -142.350;-1030.000; -857.000
283.213;  -63.100; -460.000; -467.000
283.353;  -41.925; -408.000; -349.000
283.492;  -24.375; -264.000; -296.000
283.632;  -49.075; -254.000; -168.000
283.771; -100.850; -859.000; -730.000
283.911;  -66.525; -369.000; -260.000
284.050;  -98.325; -794.000; -748.000
284.190; -162.625;-1229.000;-1096.000
284.329; -135.000;-1055.000; -964.000
284.469;  -78.700; -516.000; -591.000
284.608;  -55.700; -559.000; -598.000
284.748;  -83.325; -614.000; -570.000
284.887;  -15.575;  -87.000;  -20.000
285.027; -129.075; -844.000; -892.000
285.166;  -33.725; -192.000; -249.000
285.306;   -8.925; -116.000;  -33.000
285.445;  -43.975; -229.000; -343.000
285.584;  -92.025; -630.000; -494.000
285.724;  -58.025; -282.000; -322.000
285.863; -103.125; -857.000; -507.000
286.002;  -53.675; -366.000; -276.000
286.142; -112.075; -715.000; -622.000
286.281;  -66.825; -525.000; -493.000
286.420;  -84.950; -554.000; -417.000
286.560;  100.425;  653.000;  623.000
286.699; -145.925; -958.000; -912.000
286.838;  -97.375; -590.000; -591.000
286.978;  -86.750; -533.000; -537.000
287.117; -128.050;-1085.000; -950.000
287.256;  -26.825; -228.000; -211.000
287.395;  -54.275; -197.000; -378.000
287.535;  -48.425; -370.000; -298.000
287.674;  -80.925; -509.000; -484.000
287.813;   50.375;  661.000;  533.000
287.952; -148.825;-1010.000; -871.000
288.091; -152.175;-1049.000; -915.000
288.231;   11.600;   13.000;   15.000
288.370; -173.000;-1217.000;-1200.000
288.509;  -78.400; -728.000; -645.000
288.648;  -97.000; -770.000; -548.000
288.787;  -34.200; -243.000;  -87.000
288.926;  -62.250; -454.000; -475.000
289.065;  123.750;  859.000;  672.000
289.204;  -62.850; -377.000; -217.000
289.344;  -96.900; -791.000; -690.000
289.483;   41.475;  416.000;  304.000
289.622;  -23.900; -291.000; -149.000
289.761;  -12.300; -309.000; -166.000
289.900; -109.325; -785.000; -626.000
290.039;  -21.325;  -12.000;  -95.000
290.178;  -47.925; -274.000; -180.000
290.317;  -84.650; -618.000; -479.000
290.456;  -77.875; -463.000; -451.000
290.595; -150.525; -961.000; -833.000
290.734; -141.100; -904.000; -891.000
290.873;  -71.000; -456.000; -420.000
291.011; -113.850; -833.000; -843.000
291.150; -107.000; -770.000; -682.000
291.289;  -27.075; -343.000; -110.000
291.428;  -85.725; -599.000; -480.000
291.567;  -63.125; -370.000; -442.000
291.706;   -5.700;  109.000;  154.000
291.845;  -82.500; -597.000; -505.000
291.984; -175.200;-1234.000;-1061.000
292.122;   61.600;  602.000;  582.000
292.261;   50.350;  620.000;  463.000
292.400;   -4.100; -144.000;  211.000
292.539; -130.575; -959.000; -813.000
292.678;  -36.850; -325.000; -300.000
292.816; -160.100;-1136.000; -965.000
292.955;  -92.750; -844.000; -684.000
293.094;  -21.175; -173.000; -337.000
293.233;  -60.125; -556.000; -400.000
293.371;  -35.725; -225.000;  -84.000
293.510; -108.450; -866.000; -780.000
293.649; -134.350; -959.000; -924.000
293.787;  -72.250;-1083.000;-1012.000
293.926;  -13.275; -113.000;  -32.000
294.065;  -48.125; -379.000; -290.000
294.203;   41.250;  298.000;  406.000
294.342;   19.725;   74.000;  156.000
294.481; 6613.175;51180.000; -836.000
294.619;  -32.825; -425.000; -582.000
294.758; -149.975;-1230.000;-1137.000
294.896;   52.025; -125.000;    5.000
295.035; -124.825;-1040.000;-1006.000
295.174; -127.950;-1082.000; -954.000
295.312;  -48.900; -323.000; -203.000
295.451;  -14.550; -307.000; -428.000
295.589;  -66.875; -389.000; -518.000
295.728;   20.750; -292.000; -165.000
295.866;  -18.450;  -36.000;  -51.000
296.005;  -60.675; -584.000; -341.000
296.143;  -72.525; -558.000; -596.000
296.282; -100.775; -957.000; -881.000
296.420;  -91.225; -657.000; -557.000
296.559;  -91.625; -892.000; -633.000
296.697;  -10.975; -847.000; -665.000
296.835;   13.525;-1141.000;-1002.000
296.974;   33.025;  -23.000;   39.000
297.112;   -3.125; -443.000; -504.000
297.251;  -90.000; -815.000; -755.000
297.389;   54.950; -576.000; -438.000
297.527;   41.500; -145.000;  -83.000
297.666;  -59.675; -486.000; -438.000
297.804;  -50.050; -404.000; -264.000
297.942;  -17.250; -136.000; -161.000
298.081;   -9.350; -183.000;   63.000
298.219;   51.275;  -17.000;  -19.000
298.357;   32.625; -144.000;  -71.000
298.495;    3.275; -810.000; -812.000
298.634;   56.625;  245.000;  219.000
298.772;   24.300; -220.000; -338.000
298.910;  -45.400; -309.000; -182.000
299.048;  -10.350; -130.000; -153.000
299.187;  -37.425; -350.000; -250.000
299.325;   15.375;   52.000;  122.000
299.463;   25.050; -389.000; -299.000
299.601;   63.150; -327.000; -271.000
299.739; -109.250; -908.000; -883.000
299.877;  -80.450; -791.000; -703.000
300.016;  -68.550;-1095.000; -935.000
300.154;  135.200;  -19.000; -161.000
300.292;   43.075; -428.000; -348.000
300.430;    9.525; -408.000; -291.000
300.568; -111.325; -940.000; -874.000
300.706;  -55.925; -366.000; -469.000
300.844;  -89.500;-1108.000; -979.000
300.982;   98.850;  246.000;  282.000
301.120; -104.125; -965.000; -866.000
301.258;  -75.825; -812.000; -705.000
301.396;   16.125;  104.000;  -41.000
301.534;   32.025; -218.000; -293.000
301.672;  -38.600; -664.000; -521.000
301.810;    8.725; -613.000; -545.000
301.948;   87.725;   53.000;  149.000
302.086;  492.975; -250.000;  -32.000
302.224;  764.275; -610.000; -585.000
302.362;    2.075; -558.000; -622.000
302.500;  -44.100; -923.000; -893.000
302.638;   83.775;  128.000;  245.000
302.776;  -13.775; -352.000; -408.000
302.913;   30.300;  447.000;  236.000
303.051;   -1.000;  -86.000;  -23.000
303.189;   35.600;   90.000;  118.000
303.327;  -51.225; -341.000; -256.000
303.465;  -91.475; -832.000; -588.000
303.603; -102.825; -805.000; -604.000
303.740;   85.050;  417.000;  241.000
303.878;   -4.825; -800.000; -759.000
304.016; -102.375; -915.000; -790.000
304.154; -133.900;-1123.000;-1152.000
304.291;  -44.925; -505.000; -554.000
304.429;    2.125;  102.000;   74.000
304.567; -123.800; -908.000; -893.000
304.705;  -53.625; -408.000; -515.000
304.842;   46.850; -616.000; -540.000
304.980;   32.400;  215.000;   35.000
305.118;    5.425; -367.000; -365.000
305.255;  -91.400; -945.000; -927.000
305.393;   52.000;  178.000;  239.000
305.531; -128.025;-1173.000; -956.000
305.668;  -73.250; -663.000; -582.000
305.806;   86.000; -358.000; -439.000
305.943;   64.100; -629.000; -637.000
306.081;   37.175; -378.000; -267.000
306.219;  -98.625; -863.000; -748.000
306.356;    2.025;  158.000;   27.000
306.494;   92.975;  981.000;  761.000
306.631;    8.475;  -11.000;  -55.000
306.769;   -3.475; -613.000; -485.000
306.906;  -29.300; -284.000; -258.000
307.044;  -63.500; -473.000; -488.000
307.181;  -75.350; -410.000; -332.000
307.319;   11.100;  112.000;   87.000
307.456; -173.500;-1191.000;-1153.000
307.594; -122.600; -980.000; -727.000
307.731;   -0.450; -371.000; -164.000
307.868;   -3.375;  -15.000;   20.000
308.006; -131.150; -961.000; -847.000
308.143;  -63.250; -618.000; -330.000
308.281;   94.950;  -37.000; -254.000
308.418;  -32.050; -748.000; -640.000
308.555;  -64.950; -400.000; -250.000
308.693;  -76.900; -577.000; -573.000
308.830; -119.450; -712.000; -657.000
308.967;   -6.225; -215.000;  -95.000
309.105;  -54.225; -507.000; -396.000
309.242;   22.825; -468.000; -367.000
309.379;  196.525; -577.000; -655.000
309.517;  -83.850; -936.000; -948.000
309.654; -106.250; -910.000; -734.000
309.791;  -65.550; -662.000; -580.000
309.928; -114.475; -977.000; -914.000
310.065;  159.875;  819.000;  697.000
310.203;  -19.675; -825.000; -850.000
310.340;  -23.750; -465.000; -321.000
310.477;  -76.400; -412.000; -516.000
310.614;  -71.650; -383.000; -473.000
310.751;  -82.500; -427.000; -518.000
310.889;  -24.375;    1.000;   11.000
311.026; -145.750;-1161.000; -939.000
311.163;  -59.000; -386.000; -380.000
311.300;  -70.375; -512.000; -479.000
311.437;  -77.500; -658.000; -619.000
311.574; -167.350;-1226.000; -985.000
311.711;  -55.000; -595.000; -433.000
311.848;  -44.500; -380.000; -388.000
311.985;   -2.875;  270.000;   93.000
312.122; -123.775; -932.000; -762.000
312.259; -137.425; -941.000; -994.000
312.396;  -82.950; -508.000; -551.000
312.533; -101.175; -812.000; -790.000
312.670; -135.725;-1070.000; -898.000
312.807;  -29.325; -352.000; -367.000
312.944;  -90.175; -513.000; -611.000
313.081;  -40.625; -150.000; -415.000
313.218; -101.025;-1111.000; -867.000
313.355;   -8.275; -531.000; -449.000
313.492;    2.175; -455.000; -292.000
313.629;  110.675;  815.000;  735.000
313.766; -160.000;-1176.000;-1008.000
313.902;  -24.875; -186.000;   21.000
314.039;  -50.500; -372.000; -289.000
314.176;   18.000;  286.000;  192.000
314.313;  -73.850; -569.000; -473.000
314.450;  -75.900; -788.000; -684.000
314.587;  -68.400; -468.000; -480.000
314.723;  -10.525;  -78.000;  130.000
314.860;   19.550;  318.000;  332.000
314.997;   26.075;  223.000;  142.000
315.134;  -48.125; -385.000; -368.000
315.270;  -39.125; -480.000; -496.000
315.407; -125.075;-1094.000; -967.000
315.544;  -70.200; -657.000; -538.000
315.681;  -85.800; -681.000; -565.000
315.817;   25.775; -133.000; -176.000
315.954;    0.500; -613.000; -392.000
316.091; -125.500;-1045.000;-1023.000
316.227;  -40.550;  -71.000; -179.000
316.364;    8.900;   23.000;    6.000
316.500;  -49.400; -113.000; -300.000
316.637;  -51.000; -181.000; -302.000
316.774;  -83.575; -625.000; -358.000
316.910;  -92.600; -598.000; -629.000
317.047;  -61.925; -487.000; -351.000
317.183;  -63.900; -435.000; -566.000
317.320;  -10.375; -367.000; -321.000
317.456;  -66.800; -733.000; -805.000
317.593; -105.500; -598.000; -641.000
317.729;   -2.225;  168.000;  -67.000
317.866; -189.000;-1434.000;-1285.000
318.002;  -91.175; -708.000; -948.000
318.139; -116.000; -883.000; -867.000
318.275; -109.875;-1003.000; -738.000
318.412;  -60.850; -517.000; -336.000
318.548;  -47.125; -751.000; -720.000
318.685;  -99.625; -985.000; -888.000
318.821; -103.050; -762.000; -735.000
318.957;  -21.750;   34.000;  -23.000
319.094;   34.200;  297.000;  154.000
319.230;  -79.675; -756.000; -742.000
319.367;  100.550; -471.000; -520.000
319.503;   33.250; -538.000; -436.000
319.639;  -94.750; -877.000; -793.000
319.775;  -74.625; -750.000; -685.000
319.912;  -55.250; -424.000; -519.000
320.048; -101.875;-1184.000;-1184.000
320.184;   71.125;   59.000;   70.000
320.321;  -58.325; -497.000; -467.000
320.457;   69.975;  475.000;  662.000
320.593;  -59.600; -375.000; -382.000
320.729; -109.950; -732.000; -734.000
320.866;  -58.650; -577.000; -635.000
321.002;  -84.025; -759.000; -809.000
321.138;  -34.825; -135.000; -211.000
321.274;   62.225; -148.000; -115.000
321.410;  -31.725; -585.000; -353.000
321.546;  -51.725;-1011.000; -911.000
321.683;   37.750;  400.000;  185.000
321.819;   -0.650;  -48.000; -117.000
321.955; -106.125; -743.000; -722.000
322.091;  -58.325; -585.000; -540.000
322.227;  -21.975; -382.000; -202.000
322.363;  -24.150; -320.000; -215.000
322.499;  -48.000; -343.000; -331.000
322.635;  118.125;  636.000;  443.000
322.771;    9.725; -139.000;   12.000
322.907;   87.800;  129.000;  327.000
323.043;  -30.325; -115.000; -206.000
323.179;  -39.850; -394.000; -363.000
323.315;   -0.775; -401.000; -371.000
323.451;   71.200; -328.000; -236.000
323.587;   48.725;  -60.000;  -77.000
323.723;   -6.875; -682.000; -601.000
323.859;  -18.725; -258.000;  -76.000
323.995;  -31.925; -467.000; -409.000
324.131; -130.275; -967.000; -892.000
324.267;  -33.775; -254.000; -276.000
324.402; -141.550; -960.000; -983.000
324.538;  -26.000; -279.000; -104.000
324.674;   13.025;  164.000;   77.000
324.810;   91.375;  226.000;  308.000
324.946;  -17.050; -810.000; -658.000
325.082;  -84.325; -568.000; -475.000
325.217;  -17.075;  -62.000;   16.000
325.353; -103.075; -764.000; -659.000
325.489;  -92.275; -540.000; -506.000
325.625;  -80.650; -579.000; -525.000
325.760;   58.075;  517.000;  376.000
325.896;  -23.450; -515.000; -702.000
326.032;  -60.050; -403.000; -352.000
326.168;  -72.825; -462.000; -369.000
326.303;  -60.525; -352.000; -461.000
326.439;  -24.325; -336.000; -276.000
326.575;   -8.525; -190.000;  -29.000
326.710;  -21.750; -156.000;  -30.000
326.846;  -18.425;  146.000;  103.000
326.982;  -94.200; -530.000; -548.000
327.117;  -84.400; -481.000; -442.000
327.253;  -90.950; -745.000; -742.000
327.388; -156.225;-1137.000;-1153.000
327.524;  -63.375; -811.000; -578.000
327.659;  -30.750;  -58.000;  -22.000
327.795;  -13.075;   69.000;   45.000
327.931;  -81.950; -723.000; -499.000
328.066;  -21.150; -417.000; -276.000
328.202;  -17.400;   12.000; -129.000
328.337;   95.625;  957.000;  713.000
328.473;   40.000;  -12.000;  -74.000
328.608;  -21.525; -256.000; -267.000
328.743;  -99.450; -799.000; -664.000
328.879;    4.325;  214.000;  114.000
329.014;  -50.150; -102.000; -122.000
329.150;  -78.350; -358.000; -483.000
329.285;  -84.825; -465.000; -466.000
329.421;  -55.975; -548.000; -246.000
329.556;  -22.700;  -36.000;   85.000
329.691; -108.075; -633.000; -615.000
329.827;  -77.650; -626.000; -480.000
329.962;  -44.075;  131.000; -301.000
330.097;  -86.100; -673.000; -585.000
330.233;  -62.825; -410.000; -223.000
330.368; -125.925; -839.000; -628.000
330.503;   -7.675;    3.000;   98.000
330.638;    0.050;  -93.000; -125.000
330.774;  -56.550; -609.000; -530.000
330.909;  -44.325; -434.000; -244.000
331.044;  -96.500; -714.000; -708.000
331.179; -179.575;-1217.000;-1109.000
331.315;    6.275;   77.000;   20.000
331.450;   13.600;  157.000;  285.000
331.585;  -76.525; -805.000; -706.000
331.720;  -89.625; -510.000; -460.000
331.855;  -19.625;  -35.000; -102.000
331.990;  250.025;   62.000;  138.000
332.126;  135.750; -110.000;   71.000
332.261;  -27.500; -379.000; -265.000
332.396;    2.325; -135.000; -242.000
332.531; -101.300;-1074.000;-1031.000
332.666;   36.750; -519.000; -363.000
332.801; -105.475; -726.000; -807.000
332.936;  -26.925; -192.000; -122.000
333.071; -125.925; -870.000; -817.000
333.206;   13.425;  307.000;  379.000
333.341;   18.500;  344.000;  418.000
333.476;  -89.875; -627.000; -623.000
333.611;  -54.075; -251.000; -173.000
333.746;  -51.525; -381.000; -464.000
333.881; -113.100; -973.000; -935.000
334.016; -139.600; -936.000; -917.000
334.151; -123.875; -746.000; -702.000
334.286;    7.500;  152.000;  186.000
334.421;  -28.400; -125.000; -178.000
334.556;  -83.050; -611.000; -567.000
334.690; -102.450; -631.000; -577.000
334.825;   48.675;  381.000;   83.000
334.960;  -84.700; -285.000; -413.000
335.095;   -2.175;  135.000;  -91.000
335.230; -112.075; -722.000; -738.000
335.365; -142.200;-1084.000; -990.000
335.499; -135.850;-1108.000;-1037.000
335.634;   12.750;    9.000;  534.000
335.769; -105.150; -755.000; -720.000
335.904;  -72.825; -603.000; -561.000
336.038;  -64.475; -735.000; -657.000
336.173; -125.400;-1206.000;-1194.000
336.308;   -5.125; -116.000; -189.000
336.443;   17.600; -544.000; -634.000
336.577;  -88.300; -936.000; -787.000
336.712;   49.725;   -4.000;  -12.000
336.847;  -59.825; -724.000; -607.000
336.981;   49.175; -272.000; -208.000
337.116;  251.000;  615.000;  501.000
337.250;  113.650; -434.000; -421.000
337.385;  257.900; -297.000; -208.000
337.520;  109.275; -632.000; -603.000
337.654;  -30.000; -215.000; -126.000
337.789; -136.975; -989.000; -933.000
337.923;  -29.150; -104.000; -205.000
338.058; -103.875; -673.000; -738.000
338.192;  -51.100; -611.000; -488.000
338.327;   -6.750;  -18.000; -155.000
338.461;  -73.375; -299.000; -469.000
338.596;  -86.225; -780.000; -638.000
338.730; -105.500; -767.000; -803.000
338.865;   80.925;  -46.000; -140.000
338.999;  -39.375; -846.000; -702.000
339.134;  -30.950; -634.000; -536.000
339.268;    2.400; -741.000; -603.000
339.403;  363.625; -740.000; -775.000
339.537;  119.650; -894.000; -820.000
339.671; -119.250; -829.000; -813.000
339.806;  -46.275; -556.000; -512.000
339.940;    7.225; -261.000; -235.000
340.074;  -99.025; -685.000; -510.000
340.209;  -57.675; -351.000; -230.000
340.343;  -94.975; -517.000; -573.000
340.477;  141.475;  998.000; 1036.000
340.612;  -49.450;-1033.000; -900.000
340.746;  141.225; -199.000; -243.000
340.880;  -91.825; -924.000; -785.000
341.014;  -30.875;  -45.000; -154.000
341.149; -123.425; -756.000; -718.000
341.283; -122.800; -839.000; -754.000
341.417; -125.750;-1124.000; -938.000
341.551;   72.375; -768.000; -708.000
341.685;  -37.450; -633.000; -611.000
341.820;  -59.300; -562.000; -493.000
341.954;  -49.200; -218.000; -349.000
342.088; -152.600;-1102.000;-1019.000
342.222;   55.825;  565.000;  618.000
342.356;  -66.100; -395.000; -335.000
342.490; -110.700; -880.000; -841.000
342.624;  -61.050; -339.000; -242.000
342.758;  -17.200; -364.000; -312.000
342.892;  -78.675; -710.000; -585.000
343.026;  -48.925;  -58.000; -116.000
343.160;  -67.700; -426.000; -376.000
343.294;  -88.800; -474.000; -337.000
343.428;  -49.350; -488.000; -448.000
343.562;  -17.075; -172.000;  -23.000
343.696;  -34.150; -385.000; -314.000
343.830;  -30.850; -362.000; -356.000
343.964;   -5.725; -231.000; -168.000
344.098;  750.050;  199.000;   70.000
344.232;  599.775; -266.000; -127.000
344.366;   74.225; -567.000; -453.000
344.500;   18.350; -665.000; -744.000
344.634;   -0.550; -324.000; -164.000
344.768;  -26.950; -531.000; -341.000
344.902;    4.525;  278.000;  256.000
345.035;  -74.500; -556.000; -496.000
345.169; -132.925; -933.000; -656.000
345.303;  -69.000; -308.000; -482.000
345.437; -101.150; -826.000; -717.000
345.571;  -70.675; -675.000; -594.000
345.704;  -60.400; -309.000; -532.000
345.838;  -24.025; -331.000; -284.000
345.972;  -53.125; -543.000; -495.000
346.106;  147.950; -179.000; -190.000
346.239;  383.675; -312.000; -243.000
346.373;  -13.825; -343.000; -302.000
346.507; -149.275; -950.000; -962.000
346.640;  106.950;  -30.000;   13.000
346.774;  -64.300; -650.000; -797.000
346.908;  -14.900; -138.000;  -11.000
347.041;  -93.900; -646.000; -593.000
347.175;   -1.675;  259.000;   27.000
347.309;  -87.450; -698.000; -628.000
347.442; -114.750; -883.000; -732.000
347.576;  226.175;  670.000;  668.000
347.709;  135.625; -123.000;  -52.000
347.843; -104.825; -933.000; -825.000
347.976;   35.350;  235.000;  294.000
348.110; -174.325;-1268.000;-1186.000
348.243; -101.775; -679.000; -772.000
348.377;   -3.000;  -26.000;   60.000
348.510;   38.600;  403.000;  540.000
348.644;  -43.300;  -37.000; -159.000
348.777;    4.225;  180.000;  191.000
348.911;  -43.200; -142.000; -112.000
349.044;  148.300;  471.000;  448.000
349.178;  103.650;-1069.000;-1006.000
349.311;  103.850;  141.000;  255.000
349.444;    0.125; -927.000; -813.000
349.578;  -21.525; -347.000; -200.000
349.711; -101.425; -959.000; -862.000
349.845;  -16.825; -661.000; -591.000
349.978; -157.900;-1224.000;-1137.000
350.111;  -84.575; -546.000; -612.000
350.244;  -89.000; -596.000; -700.000
350.378;  -22.000; -392.000; -393.000
350.511;  -73.550; -393.000; -426.000
350.644; -111.025; -808.000; -806.000
350.778;    2.525;  168.000;  104.000
350.911;   -7.125;  134.000;  140.000
351.044;  -96.200; -685.000; -615.000
351.177;  -34.550; -321.000; -281.000
351.310;  -30.050;    3.000; -131.000
351.444;  -99.175; -888.000; -788.000
351.577;   81.375;  140.000;   90.000
351.710;   71.725;  593.000;  417.000
351.843;  -38.150; -165.000;  -77.000
351.976;  -11.100;  149.000;  -79.000
352.109;  -95.975; -621.000; -612.000
352.242;  -39.850; -464.000; -419.000
352.376;  -74.525; -580.000; -636.000
352.509;  117.375; -437.000; -356.000
352.642;  -26.425; -654.000; -604.000
352.775;   46.850; -141.000;  -98.000
352.908; -109.925; -933.000; -904.000
353.041; -112.000; -814.000; -824.000
353.174;  -65.825; -551.000; -424.000
353.307;  -86.350; -753.000; -764.000
353.440;   68.025;  541.000;  453.000
353.573; -112.325; -957.000;-1008.000
353.706;  -53.425; -384.000; -558.000
353.839;  -35.175; -264.000; -220.000
353.971;  -99.575; -657.000; -512.000
354.104;  -87.225; -896.000; -835.000
354.237;  -41.325; -627.000; -662.000
354.370;  -87.075; -846.000; -879.000
354.503; -182.425;-1231.000;-1308.000
354.636;  -45.125; -529.000; -348.000
354.769; -131.225; -937.000; -860.000
354.902;  -11.575; -230.000; -139.000
355.034;  -13.800; -164.000; -220.000
355.167;  -33.850; -262.000; -162.000
355.300; -113.475;-1061.000; -880.000
355.433; 1003.250;  -71.000;  -14.000
355.565; 1516.425; -402.000; -384.000
355.698;  384.275; -356.000; -296.000
355.831;  -25.000; -882.000; -801.000
355.964;   43.375; -285.000; -170.000
356.096; -100.575; -856.000; -843.000
356.229;   -3.225; -523.000; -530.000
356.362;  318.475; -373.000; -266.000
356.494;  591.150; -229.000; -162.000
356.627;  426.225;  269.000;  377.000
356.760;  666.350;  120.000;   53.000
356.892;  977.300; -286.000; -601.000
357.025;  569.500;  403.000;  389.000
357.157;  483.750; -167.000; -179.000
357.290;  719.150; -856.000; -713.000
357.423;  203.300; -667.000; -556.000
357.555;   84.900; -217.000; -228.000
357.688;  110.400; -483.000; -364.000
357.820;  372.400; -870.000; -877.000
357.953; 3110.225; -563.000; -589.000
358.085;  639.225; -632.000; -612.000
358.218;  826.050;-1131.000; -932.000
358.350;  149.800;  -58.000;  312.000
358.483; -130.375;-1300.000;-1187.000
358.615;  -56.500;-1182.000;-1078.000
358.747;  -91.850;-1187.000;-1058.000
358.880;    2.400; -810.000; -744.000
359.012;  -23.150; -376.000; -202.000
359.145;  -39.525; -480.000; -511.000
359.277;   19.200; -962.000; -913.000
359.409; 2598.725;  536.000;  231.000
359.542;  678.850; -738.000; -688.000
359.674;   76.975;   46.000;   13.000
359.806;  -78.700; -565.000; -438.000
359.939;  -56.425; -617.000; -516.000
360.071;   -8.450; -583.000; -579.000
360.203;  -14.350; -411.000; -364.000
360.335;   33.550;  164.000;  -16.000
360.468;  155.150; -249.000; -307.000
360.600; 2102.850; -547.000; -454.000
360.732; 2911.650; -546.000; -423.000
360.864;  384.775;-1216.000;-1044.000
360.996;  215.375; -516.000; -554.000
361.129;    6.950; -389.000; -598.000
361.261;   20.575;  110.000; -113.000
361.393;  -32.300; -252.000; -214.000
361.525;   25.300;   94.000;  244.000
361.657;  -73.950; -821.000; -703.000
361.789;   -5.575; -139.000; -155.000
361.921;  145.050; -642.000; -593.000
362.053;  212.775;  524.000;  541.000
362.185;   44.350;  288.000;   72.000
362.318;  -85.775; -709.000; -705.000
362.450;   79.125;  294.000;  444.000
362.582;   33.825; -913.000; -870.000
362.714;  -55.625; -353.000; -332.000
362.846;  -84.475; -606.000; -490.000
362.978; -143.375; -941.000; -811.000
363.109;   28.600; -161.000; -260.000
363.241;  346.525; -739.000; -749.000
363.373;  435.700; -649.000; -564.000
363.505;  672.800; -186.000;  -91.000
363.637;  152.950; -787.000; -601.000
363.769; -114.475;-1067.000;-1080.000
363.901;  -80.375; -596.000; -654.000
364.033; -132.750;-1103.000;-1062.000
364.165;  -13.750; -283.000; -283.000
364.296;   68.675; -316.000; -177.000
364.428;   79.100;-1344.000;-1220.000
364.560;  -66.525; -679.000; -661.000
364.692;  -65.875; -738.000; -835.000
364.824;  172.050; -588.000; -456.000
364.955;  411.775; -402.000; -564.000
365.087;  996.925;-1097.000; -852.000
365.219;   38.025; -686.000; -816.000
365.351;  -72.200; -526.000; -572.000
365.482;   30.675;  300.000;  240.000
365.614;  -38.300; -402.000; -314.000
365.746;  -98.450; -729.000; -752.000
365.877;  -98.850; -706.000; -672.000
366.009;  269.175;  -35.000;  -62.000
366.141;  -84.800;-1249.000;-1134.000
366.272; -113.725; -803.000; -719.000
366.404; -131.200;-1005.000; -874.000
366.535;  -14.925; -139.000;  -12.000
366.667; -112.825; -644.000; -649.000
366.799;   35.075;  353.000;  203.000
366.930; -124.050; -862.000; -996.000
367.062;  116.975; -639.000; -613.000
367.193;  145.950; -872.000; -842.000
367.325;  -67.750; -580.000; -684.000
367.456;   28.525; -246.000;   31.000
367.588;  165.800; -371.000; -318.000
367.719;   24.000;  -44.000;  -45.000
367.851;  -34.700; -222.000; -241.000
367.982;  -80.450; -875.000; -732.000
368.113;   59.825; -475.000; -358.000
368.245; -138.975; -960.000; -841.000
368.376;  -28.400; -254.000; -302.000
368.508;  -52.175; -188.000; -263.000
368.639; -155.250;-1166.000;-1034.000
368.770;  -33.225; -670.000; -589.000
368.902;  -73.125; -836.000; -926.000
369.033; -121.150; -906.000; -855.000
369.164;  -52.075; -720.000; -653.000
369.296; -102.625; -452.000; -601.000
369.427;   -7.625; -209.000; -144.000
369.558;  -58.750; -593.000; -377.000
369.689;  -93.875; -721.000; -569.000
369.821; -129.275; -951.000; -845.000
369.952;  -29.600;   42.000; -108.000
370.083;  -51.025; -229.000; -108.000
370.214;  -93.700; -735.000; -650.000
370.345;   -7.900;   65.000;   81.000
370.477; -113.200; -810.000; -790.000
370.608;  176.200; -328.000; -264.000
370.739;  -79.175;-1233.000;-1292.000
370.870;  -62.800;-1102.000; -923.000
371.001;   64.525; -378.000; -467.000
371.132;  -98.625; -754.000; -735.000
371.263;  -21.950;  -42.000; -148.000
371.394; -145.550; -841.000; -748.000
371.525;   21.075;  345.000;  225.000
371.657; -100.275; -808.000; -670.000
371.788;   58.650;  103.000;  199.000
371.919;  118.050; -384.000; -304.000
372.050; 3003.750;  -91.000; -156.000
372.181;  868.050; -188.000; -294.000
372.311;  294.775;   42.000; -127.000
372.442;    9.125; -457.000; -451.000
372.573;  -20.050; -444.000; -340.000
372.704; -122.250;-1008.000; -980.000
372.835;   54.550; -228.000; -289.000
372.966;  -74.000; -646.000; -554.000
373.097;  -79.175; -575.000; -711.000
373.228;  -47.950; -717.000; -542.000
373.359;   87.925; -824.000; -536.000
373.490;  727.900; -881.000; -727.000
373.620;  909.675;-1001.000; -803.000
373.751; 1434.500; -332.000; -396.000
373.882;  619.875; -663.000; -733.000
374.013;   29.450; -449.000; -262.000
374.143;  -45.000; -581.000; -659.000
374.274; -113.325; -987.000; -908.000
374.405;  122.800; -388.000; -276.000
374.536;  328.075; -526.000; -387.000
374.666;  880.350; -759.000; -807.000
374.797;  133.625; -817.000; -868.000
374.928;  665.775; -710.000; -560.000
375.058;  698.250; -535.000; -500.000
375.189;   48.275;  -59.000;  -93.000
375.320; -117.125; -928.000;-1034.000
375.450;  -50.250; -625.000; -616.000
375.581;  -56.725; -526.000; -436.000
375.712;  -51.475; -574.000; -250.000
375.842;  211.900; -438.000; -415.000
375.973;  153.625; -554.000; -513.000
376.103;  -79.050; -665.000; -648.000
376.234;  -86.875; -531.000; -552.000
376.364;  -64.525; -944.000; -867.000
376.495;  272.025;  925.000;  529.000
376.625;  -37.475; -472.000; -485.000
376.756;   21.475; -709.000; -678.000
376.886;  -98.475;-1178.000;-1026.000
377.017;   58.550;-1048.000;-1061.000
377.147;  369.350; -786.000; -782.000
377.278;   66.450;  174.000;  228.000
377.408; -135.025; -801.000; -815.000
377.538; -118.975; -707.000; -693.000
377.669;  -97.975; -537.000; -613.000
377.799; -102.950; -645.000; -635.000
377.929;  -60.550; -610.000; -428.000
378.060; -138.700; -781.000; -847.000
378.190;  -67.800; -726.000; -531.000
378.320;  -60.650; -401.000; -406.000
378.451;  -28.900; -131.000;  -22.000
378.581;  -22.400;  -67.000; -110.000
378.711;  135.950; 1035.000;  866.000
378.841;  -46.800; -533.000; -675.000
378.972;  -85.875; -871.000; -751.000
379.102;  -37.225; -652.000; -579.000
379.232;  -36.650; -126.000;  -73.000
379.362; -119.425;-1001.000; -885.000
379.492;  -16.100; -373.000; -424.000
379.623;   94.000;    0.000;  111.000
379.753; -112.350;-1107.000; -974.000
379.883;  144.225;   59.000;  156.000
380.013;  -28.325;-1081.000;-1017.000
380.143; -123.175;-1097.000;-1056.000
380.273; -116.575; -985.000; -861.000
380.403;  -14.325; -344.000; -257.000
380.533;  -55.175; -651.000; -664.000
380.663;   45.725;  173.000;  128.000
380.793; -110.025;-1027.000;-1074.000
380.923;  -32.225; -103.000;  -34.000
381.053; -113.800; -613.000; -623.000
381.183;  -40.150; -106.000; -248.000
381.313;    4.200; -656.000; -470.000
381.443;    6.300; -692.000; -473.000
381.573;  130.800; -402.000; -409.000
381.703;  164.450;-1249.000;-1095.000
381.833; -152.375;-1454.000;-1336.000
381.963;   81.275; -134.000;  -87.000
382.093; 1153.300; -925.000; -909.000
382.223;  338.750; -713.000; -602.000
382.353;  -37.375; -801.000; -608.000
382.482;  258.650;-1091.000; -964.000
382.612;  602.575; -872.000; -644.000
382.742;  326.525; -695.000; -622.000
382.872;  182.275; -565.000; -551.000
383.002;   53.625;  347.000; -132.000
383.131;  -29.500; -226.000; -160.000
383.261;  -52.200; -706.000; -768.000
383.391;  264.400; -552.000; -377.000
383.521; 3354.550;  451.000;  263.000
383.650;  793.500; -947.000; -904.000
383.780;  -17.950; -783.000; -656.000
383.910;   92.725;  880.000;  802.000
384.039;  -17.075; -794.000; -656.000
384.169;  112.175;-1205.000;-1017.000
384.299;  -39.950; -650.000; -662.000
384.428; -108.500; -764.000; -680.000
384.558;  -50.750; -308.000; -275.000
384.687;  -55.575; -414.000; -334.000
384.817;    3.075;   75.000;   -2.000
384.947;   -5.250; -234.000; -141.000
385.076;  254.325;  982.000;  912.000
385.206;   66.000;  369.000;  480.000
385.335;  -48.850; -549.000; -417.000
385.465; -100.275; -655.000; -663.000
385.594;   94.300;  -53.000;  -44.000
385.724;  312.875; -868.000; -838.000
385.853;   76.050; -296.000; -270.000
385.982; 1097.875; -743.000; -787.000
386.112; 1700.825;-1052.000; -871.000
386.241;  108.075; -307.000; -312.000
386.371;    4.000; -174.000;  -87.000
386.500;  -38.050; -825.000; -789.000
386.629;   10.200; -874.000; -817.000
386.759;   49.475;  -43.000;   68.000
386.888;  -21.875; -170.000; -250.000
387.017;  -87.175; -648.000; -620.000
387.147;  -99.025; -771.000; -798.000
387.276;   -7.375; -410.000; -397.000
387.405;  -16.525; -398.000; -342.000
387.535;  -51.275; -452.000; -361.000
387.664;  -82.675; -692.000; -620.000
387.793;   31.650; -198.000; -113.000
387.922;  396.100;  255.000;  200.000
388.052;  -13.575; -576.000; -423.000
388.181;   -5.950; -342.000; -472.000
388.310;  -45.000; -889.000; -710.000
388.439;  -66.050; -749.000; -742.000
388.568;  147.975;  365.000;  244.000
388.697;  824.975; -756.000; -653.000
388.826;  134.325; -768.000; -666.000
388.956;   31.250; -285.000; -307.000
389.085;  -49.075; -347.000; -287.000
389.214; -130.825; -842.000; -872.000
389.343;  -71.175; -645.000; -413.000
389.472;  394.725;  126.000;  149.000
389.601;  489.275;   91.000;    0.000
389.730;    7.225; -568.000; -687.000
389.859;   38.625;  226.000;   46.000
389.988;  146.000; -423.000; -408.000
390.117;  102.700; -168.000; -146.000
390.246;  -27.700; -331.000; -320.000
390.375;   57.300; -673.000; -626.000
390.504;  -77.200; -703.000; -621.000
390.633; -108.625; -672.000; -726.000
390.761;  -80.675; -732.000; -645.000
390.890;  -16.400;   -4.000; -130.000
391.019;  -40.900; -421.000; -441.000
391.148; -142.700; -826.000; -855.000
391.277;  -83.075; -576.000; -493.000
391.406; -103.925; -821.000; -805.000
391.534;    6.225;  574.000; -301.000
391.663;  -81.275; -583.000; -645.000
391.792;  -90.325; -673.000; -701.000
391.921;   63.850;   -3.000;   15.000
392.050;  102.950; -287.000; -228.000
392.178;  -80.375;-1206.000;-1061.000
392.307;   91.300; -758.000; -712.000
392.436;   24.850; -427.000; -641.000
392.564;    8.300;  166.000;   -6.000
392.693; -115.150; -860.000; -682.000
392.822;  144.825; -529.000; -534.000
392.950;   46.125; -880.000; -714.000
393.079;  253.825; -188.000; -328.000
393.208;   -7.400; -488.000; -511.000
393.336;  -28.450; -170.000; -145.000
393.465;  -54.625; -317.000; -199.000
393.593;   10.125;   62.000;   79.000
393.722; -170.850;-1121.000; -916.000
393.850;  -45.175; -188.000;  -61.000
393.979; -161.225; -926.000; -805.000
394.107;  -71.975; -517.000; -537.000
394.236;  -51.175; -570.000; -507.000
394.364;  151.875;  383.000;  206.000
394.493;  225.950; -911.000; -767.000
394.621;  -28.300; -955.000; -916.000
394.750;  741.975; -873.000; -923.000
394.878; 3023.025; -247.000; -149.000
395.007; 4108.350; -721.000; -807.000
395.135;  300.150; -790.000; -721.000
395.263; -105.350;-1038.000;-1040.000
395.392;   -2.625;  -25.000; -107.000
395.520; -146.750; -818.000; -679.000
395.648;  -90.325; -865.000; -915.000
395.777;  -32.175; -366.000; -405.000
395.905;  -63.825; -449.000; -564.000
396.033;    4.975;  217.000;  172.000
396.162;  402.475; -399.000; -453.000
396.290;  354.650;  -17.000;   -2.000
396.418;   51.925; -555.000; -514.000
396.546;  -88.500; -571.000; -466.000
396.674; -114.250; -850.000; -878.000
396.803;   -0.850;  -72.000;  -23.000
396.931;   52.325; -179.000; -199.000
397.059;  -11.100;-1026.000; -989.000
397.187; -125.950;-1026.000; -975.000
397.315; -152.825; -884.000; -649.000
397.443; -104.525; -592.000; -443.000
397.572;  -94.550; -578.000; -424.000
397.700;  -33.775; -607.000; -614.000
397.828;  -14.350;  120.000;  -90.000
397.956;  -54.975; -508.000; -478.000
398.084;  -58.525; -767.000; -626.000
398.212;   18.875;  137.000;  124.000
398.340;  -13.550;  -56.000;  159.000
398.468;    3.075; -390.000; -169.000
398.596; -140.650; -993.000; -953.000
398.724; -121.025; -762.000; -767.000
398.852; -170.950;-1024.000; -976.000
398.980;  -80.850; -560.000; -560.000
399.108;  -80.475; -982.000; -735.000
399.236;   19.150;   13.000;    8.000
399.363;    4.725;  222.000;  196.000
399.491;  -71.300; -404.000; -398.000
399.619; -135.975; -829.000; -800.000
399.747; -120.275; -859.000; -771.000
399.875;   55.300;  220.000;  234.000
400.003;  -72.800; -359.000; -284.000
400.130; -100.050; -421.000; -341.000
400.258;  -41.825;  -83.000;   38.000
400.386;  -79.950; -352.000; -168.000
400.514;  -57.450; -526.000; -587.000
400.641; -116.125; -928.000; -802.000
400.769; -151.875; -979.000; -888.000
400.897; -137.100; -838.000; -793.000
401.025;  -19.325; -166.000; -152.000
401.152;  -19.075;  220.000;   38.000
401.280;  -90.900; -430.000; -429.000
401.408; -122.175; -712.000; -576.000
401.535; -117.775; -735.000; -758.000
401.663; -188.675;-1134.000;-1054.000
401.790;  -89.350; -514.000; -525.000
401.918;   29.500;  436.000;  405.000
402.046;  -26.000;  134.000;  122.000
402.173;  -43.625;  -18.000;    7.000
402.301;  -77.475; -519.000; -397.000
402.428;   44.625;  528.000;  383.000
402.556; -165.200;-1188.000; -913.000
402.683;  -29.500;  -20.000;   -1.000
402.811;  -28.625;  -37.000; -206.000
402.938;  -13.825;   20.000;   27.000
403.066;  144.025; -574.000; -558.000
403.193;  274.200;  299.000;  239.000
403.321;  211.250; -396.000; -574.000
403.448;  259.400;   83.000;   27.000
403.575;  106.425;  -90.000;  -46.000
403.703;  -93.200; -732.000; -557.000
403.830;  -82.550; -531.000; -496.000
403.957; -137.800;-1117.000;-1023.000
404.085;   -7.200;  -61.000; -172.000
404.212;   80.400;  -50.000;   63.000
404.339;  281.500; -566.000; -306.000
404.467; 5993.425; -612.000; -524.000
404.594; 3764.875; -287.000; -227.000
404.721;  792.675; -869.000; -764.000
404.848;   69.625; -113.000; -202.000
404.976; -111.125; -856.000; -783.000
405.103;  -21.075;  -14.000;  -82.000
405.230;   -1.175;  190.000;  226.000
405.357;   29.275;  117.000;   44.000
405.484;  260.875;  -49.000;    5.000
405.612;   34.500; -548.000; -563.000
405.739;  -65.775; -488.000; -243.000
405.866;   80.275;  669.000;  385.000
405.993;  -58.225; -398.000; -102.000
406.120; -134.125; -801.000; -887.000
406.247;  -78.275; -323.000; -342.000
406.374;  343.275;  540.000;  629.000
406.501;   32.300; -632.000; -702.000
406.628;  -86.400; -621.000; -589.000
406.755; -108.125; -803.000; -620.000
406.882;  -56.850; -228.000; -277.000
407.009; -115.450; -719.000; -628.000
407.136;   11.750; -480.000; -401.000
407.263;   50.325; -939.000; -829.000
407.390;  -87.975; -692.000; -614.000
407.517; -180.825;-1139.000;-1187.000
407.644;  -70.650; -332.000; -256.000
407.771;  -62.350; -249.000; -287.000
407.898;    6.050;  168.000;  328.000
408.025;  -82.250; -421.000; -313.000
408.151;  -12.800;   82.000;  153.000
408.278;  -68.550; -267.000; -216.000
408.405; -146.575; -931.000; -899.000
408.532;  -81.850; -549.000; -542.000
408.659; -120.700; -677.000; -648.000
408.785; -201.325;-1298.000;-1170.000
408.912;  -66.600; -412.000; -296.000
409.039; -113.200; -610.000; -686.000
409.166;  -99.750; -591.000; -555.000
409.292; -105.625; -571.000; -534.000
409.419; -121.225; -665.000; -649.000
409.546;  -96.750; -431.000; -192.000
409.672; -108.650; -713.000; -545.000
409.799;  -45.200;  -36.000;   34.000
409.926;  -47.225; -180.000; -179.000
410.052; -174.925;-1127.000;-1091.000
410.179;  -69.125; -368.000; -392.000
410.305;  -96.325; -375.000; -493.000
410.432;  -51.575; -220.000; -333.000
410.558;  -90.025; -305.000; -380.000
410.685; -119.225; -688.000; -431.000
410.812;  -97.300; -409.000; -588.000
410.938; -145.100; -964.000; -808.000
411.065; -103.250; -671.000; -645.000
411.191;  -29.975; -189.000; -174.000
411.317; -120.600; -823.000; -742.000
411.444;  -58.150; -317.000; -246.000
411.570;  -71.900; -339.000; -294.000
411.697; -122.050; -758.000; -752.000
411.823; -173.950; -989.000; -999.000
411.949;  -46.175;  -56.000;   17.000
412.076; -111.725; -539.000; -519.000
412.202; -123.775; -758.000; -757.000
412.329; -132.050; -798.000; -752.000
412.455; -121.625; -821.000; -657.000
412.581;  -22.675;  -15.000;  172.000
412.707;  -60.825; -540.000; -457.000
412.834;   10.775;  156.000;  219.000
412.960;  -95.925; -785.000; -784.000
413.086; -117.800; -743.000; -701.000
413.212;  119.150;  604.000;  578.000
413.339;  -74.100; -685.000; -701.000
413.465;  -24.750; -364.000; -310.000
413.591; -109.775; -757.000; -474.000
413.717;  -57.675; -358.000; -366.000
413.843; -137.525; -839.000; -861.000
413.969;  -66.675;  -47.000; -292.000
414.096; -113.100; -679.000; -679.000
414.222;  -14.250;  -33.000;   85.000
414.348;  -54.775; -652.000; -385.000
414.474;   57.900;   38.000;  -52.000
414.600;   -3.550; -126.000; -144.000
414.726;  -15.675;  -96.000;  -55.000
414.852;  -77.025; -365.000; -342.000
414.978;   34.275;  104.000;  -18.000
415.104;   28.625;   38.000;   80.000
415.230;   13.300; -329.000; -330.000
415.356;   30.550; -409.000; -514.000
415.482;  173.025;   13.000;  -35.000
415.608;  255.900; -247.000; -323.000
415.734;  970.300;   67.000;   38.000
415.860;20387.375; -875.000; -767.000
415.986;14661.425; -685.000; -607.000
416.111; 1247.225; -798.000; -652.000
416.237;  248.900; -424.000; -571.000
416.363; 1193.225; -765.000; -733.000
416.489; 4313.225; -324.000; -251.000
416.615;  470.425; -707.000; -742.000
416.741;  -18.350; -677.000; -784.000
416.866;  -88.825; -673.000; -736.000
416.992; -129.875; -801.000; -818.000
417.118;  -25.900;  -41.000;  -80.000
417.244;  -76.800; -798.000; -531.000
417.369;  -84.450; -801.000; -612.000
417.495;  -31.750; -325.000; -254.000
417.621;  -93.425;-1015.000; -803.000
417.746;    4.425; -579.000; -572.000
417.872;   38.450; -254.000; -144.000
417.998;   43.525; -515.000; -530.000
418.123; 1108.325;-1073.000; -845.000
418.249; 5619.400; -512.000; -601.000
418.374;  770.000; -916.000; -824.000
418.500;   98.700; -383.000; -482.000
418.626;  112.750;   70.000;  -59.000
418.751;   90.525; -549.000; -448.000
418.877;  193.975; -637.000; -643.000
419.002; 1872.425; -688.000; -560.000
419.128;13080.250; -930.000; -721.000
419.253; 3149.200; -967.000; -837.000
419.379;  428.125; -391.000; -338.000
419.504;  396.775;  325.000;  415.000
419.629;  546.350; -393.000; -212.000
419.755; 3746.300; -317.000; -254.000
419.880;22265.500;  -98.000;   67.000
420.006;11816.475; -280.000; -221.000
420.131;30215.675; -662.000; -775.000
420.256; 4315.850; -315.000; -316.000
420.382;  561.625; -665.000; -687.000
420.507;   63.375; -649.000; -778.000
420.632;   92.700; -337.000; -339.000
420.758;  172.950; -251.000; -425.000
420.883;  -87.850; -876.000; -672.000
421.008; -103.650; -775.000; -619.000
421.133;  -82.525; -509.000; -467.000
421.259;  -55.675; -325.000; -259.000
421.384; -117.700; -834.000; -693.000
421.509;  -80.875;-1052.000; -862.000
421.634;  842.675; -936.000; -820.000
421.759;  355.425; -359.000; -327.000
421.885;  -74.075; -717.000; -656.000
422.010;  -78.025; -673.000; -542.000
422.135; -158.650; -695.000; -727.000
422.260;   33.425;  340.000;  280.000
422.385;  -42.900;   12.000;  -98.000
422.510;    2.675;  151.000;  -26.000
422.635;   -4.075;  -87.000;  -43.000
422.760;   61.425; -766.000; -791.000
422.885;   42.625;  -57.000;  -80.000
423.010;  -25.150; -112.000; -169.000
423.135; -102.850; -481.000; -561.000
423.260;  -34.950; -150.000; -245.000
423.385;   51.850;  476.000;  222.000
423.510;   14.575;   71.000;  -22.000
423.635;   58.825;  133.000;   45.000
423.760;   53.600;  383.000;  328.000
423.885;   51.275;  336.000;  391.000
424.010;    9.025;  -68.000;  -13.000
424.135;  -31.650;    5.000;  -33.000
424.259;  -88.650; -654.000; -457.000
424.384;  -66.850; -279.000; -272.000
424.509;  -27.025; -260.000; -186.000
424.634;  -99.850; -761.000; -623.000
424.759;  -26.200; -688.000; -544.000
424.883;  -23.725; -506.000; -527.000
425.008;  152.850; -502.000; -410.000
425.133; 2044.625; -679.000; -653.000
425.258;  943.725; -517.000; -381.000
425.382;  848.400; -867.000; -774.000
425.507; 2150.025; -487.000; -543.000
425.632;  374.600; -802.000; -663.000
425.756;  468.375; -256.000; -146.000
425.881; 7010.875; -831.000; -857.000
426.006;18908.475; -604.000; -355.000
426.130; 2900.750; -696.000; -508.000
426.255;  380.025; -611.000; -491.000
426.379;  170.975; -189.000; -577.000
426.504;  360.250;  660.000;  544.000
426.629; 4095.850; -519.000; -466.000
426.753; 2800.200;   64.000;  -46.000
426.878;  315.150; -252.000; -288.000
427.002;  134.425; -651.000; -668.000
427.127; 1613.775;  -35.000; -158.000
427.251;11878.425;  372.000;  401.000
427.375; 3336.350; -191.000; -173.000
427.500; 1968.600; -616.000; -610.000
427.624;  644.350; -234.000; -400.000
427.749;   67.050; -216.000; -225.000
427.873;  -45.925; -499.000; -412.000
427.997;  -55.700; -222.000; -230.000
428.122;   65.400;  795.000;  703.000
428.246;   78.900;  433.000;  434.000
428.371; -136.975; -869.000; -773.000
428.495; -117.125; -624.000; -646.000
428.619;  -35.050; -186.000; -117.000
428.743;   14.025;   65.000;  132.000
428.868;  -14.375; -732.000; -643.000
428.992; 1148.000; -219.000; -326.000
429.116;  421.350; -329.000; -357.000
429.240;  220.200;  419.000;  426.000
429.365;  -35.125; -454.000; -574.000
429.489;  -62.025; -638.000; -647.000
429.613;   11.400; -236.000; -177.000
429.737;   24.925; -563.000; -432.000
429.861;  266.875; -247.000; -133.000
429.985; 5743.625; -425.000; -305.000
430.109; 6295.225; -770.000; -908.000
430.234;  682.525;   76.000;  -50.000
430.358;   58.975; -250.000; -160.000
430.482;  -77.850; -672.000; -564.000
430.606;  -78.725; -655.000; -375.000
430.730;  -17.150; -437.000; -388.000
430.854;   62.650; -909.000; -835.000
430.978;  -91.075; -795.000; -764.000
431.102;  -87.275; -499.000; -422.000
431.226; -123.675; -874.000; -815.000
431.350;   11.150;  345.000;  422.000
431.474;  -78.450; -661.000; -373.000
431.597; -176.250;-1060.000; -848.000
431.721;  -84.450; -276.000; -267.000
431.845; -132.375; -704.000; -472.000
431.969;  -83.075; -304.000; -349.000
432.093;  -92.775; -395.000; -317.000
432.217;  -15.225;   32.000;   82.000
432.341;  -86.600; -523.000; -518.000
432.464;   -9.000;   96.000;   40.000
432.588;  112.350; -401.000; -329.000
432.712;   59.925;  -52.000;  -52.000
432.836;   34.450;  213.000;  263.000
432.959;  -22.750; -372.000; -311.000
433.083;   74.350;   11.000;    2.000
433.207;  379.375;  285.000;  930.000
433.330; 5257.400; -391.000; -200.000
433.454; 6464.775; -654.000; -638.000
433.578; 3733.200;  583.000;  278.000
433.701;  680.350; -623.000; -675.000
433.825;  111.025; -292.000; -299.000
433.949;  111.825;   28.000;  -72.000
434.072;   14.275; -410.000; -323.000
434.196;  -20.725; -309.000; -117.000
434.319; 3740.025;25482.000;25124.000
434.443;  703.400; -656.000; -603.000
434.566; 2736.325;  281.000;   62.000
434.690;  446.175; -637.000; -383.000
434.813;   40.825; -251.000; -173.000
434.937;  -89.450; -569.000; -696.000
435.060;  -67.625; -423.000; -332.000
435.184;  183.125; -492.000; -217.000
435.307;  108.275;  159.000;  102.000
435.431;  -23.425;  -40.000;   24.000
435.554;  -83.300; -399.000; -240.000
435.677;  -94.950; -350.000; -258.000
435.801;  -46.725;  -25.000;   49.000
435.924;  -29.675;    1.000;  -67.000
436.048; -148.550;-1019.000; -732.000
436.171;  -80.175; -240.000;  -66.000
436.294;  -28.375; -248.000; -229.000
436.417;   93.050; -963.000; -849.000
436.541;  -90.200; -814.000; -840.000
436.664;  -64.625; -242.000; -316.000
436.787;  -39.025;   13.000;  113.000
436.910; -124.200; -792.000; -422.000
437.034;   -5.750;  142.000;  143.000
437.157;   18.325;  -11.000;    0.000
437.280;  -67.750; -392.000; -292.000
437.403; -102.100; -982.000; -869.000
437.526;  405.925; -903.000; -865.000
437.649; 1645.575; -505.000; -332.000
437.772;  202.500; -692.000; -540.000
437.896;   92.750;  700.000;  544.000
438.019; -108.675; -758.000; -503.000
438.142;  -82.300; -596.000; -506.000
438.265;  -43.225; -639.000; -670.000
438.388;  377.075; -520.000; -410.000
438.511;   32.050; -597.000; -394.000
438.634;  -63.225; -247.000; -125.000
438.757; -147.700; -693.000; -619.000
438.880;  -47.950;  -34.000;  -57.000
439.003;  -92.800; -417.000; -437.000
439.126;  -63.950; -287.000; -167.000
439.248;  -65.875;  -98.000; -139.000
439.371;  -52.600;    9.000;  -53.000
439.494;   18.825;  510.000;  439.000
439.617;  -56.150;   65.000;  -88.000
439.740; -177.975; -968.000; -816.000
439.863; -156.700; -755.000; -595.000
439.986; -119.050; -476.000; -431.000
440.108;  -49.800; -161.000; -112.000
440.231; -167.750; -950.000; -836.000
440.354;  -49.575;  -64.000; -150.000
440.477;  -16.400; -566.000; -542.000
440.599;  -23.025; -200.000; -225.000
440.722; -135.500; -709.000; -586.000
440.845;   58.450;  751.000;  928.000
440.968; -123.375; -415.000; -311.000
441.090;  -56.000; -199.000;  -33.000
441.213; -173.150;-1021.000; -825.000
441.336;  -39.350; -159.000;   -5.000
441.458; -100.175; -549.000; -396.000
441.581;  -99.050; -628.000; -629.000
441.703;  -75.275; -152.000;   13.000
441.826; -105.900; -557.000; -400.000
441.948;  -67.625;   56.000;   51.000
442.071;   25.650;  555.000;  424.000
442.193; -115.725; -531.000; -485.000
442.316;   -2.675;  152.000;   97.000
442.438;   42.825; -233.000;  -10.000
442.561;   58.125;  272.000;  262.000
442.683;  366.550; -809.000; -522.000
442.806;  843.225;   -8.000;   74.000
442.928;  -27.600; -859.000; -604.000
443.051;  -82.075; -577.000; -373.000
443.173; -105.700; -341.000; -339.000
443.295; -100.675; -263.000; -371.000
443.418;  -78.475; -321.000;  -29.000
443.540;  -24.900; -106.000;   -4.000
443.662; -130.300; -563.000; -465.000
443.785;  -19.750;  335.000;  199.000
443.907; -101.650; -362.000; -208.000
444.029; -121.925; -767.000; -494.000
444.152; -140.875; -644.000; -554.000
444.274;  -44.350;  -18.000;  -24.000
444.396; -106.625; -461.000; -221.000
444.518; -133.075; -691.000; -454.000
444.640; -105.025; -268.000; -111.000
444.763;  -19.525;  388.000;  249.000
444.885; -118.825; -432.000; -392.000
445.007;  -41.600;   35.000;   86.000
445.129; -118.175; -610.000; -515.000
445.251;  -89.550; -372.000; -439.000
445.373; -150.025; -537.000; -386.000
445.495;   -6.200;  242.000;  350.000
445.617;   48.625;  853.000;  753.000
445.739;  -76.075; -215.000;  -97.000
445.861;  -43.025; -245.000; -112.000
445.984;  -43.025; -267.000; -101.000
446.105;  107.050; -418.000; -251.000
446.227;  415.000; -176.000;  -19.000
446.349;  -28.425; -358.000; -249.000
446.471; -105.525; -615.000; -448.000
446.593;  -76.850; -316.000;   19.000
446.715;   -7.225;  -67.000;   41.000
446.837;   58.175;  697.000;  832.000
446.959; -104.450; -457.000; -478.000
447.081; -148.100; -628.000; -518.000
447.203;   49.350;  862.000;  834.000
447.325;  -82.675; -270.000;   42.000
447.446;   -5.950;  286.000;  530.000
447.568; -167.750; -921.000; -803.000
447.690;  -94.675; -236.000; -245.000
447.812; -149.750; -798.000; -519.000
447.933;  -24.425;  155.000;  127.000
448.055;  -75.575; -306.000; -261.000
448.177;  108.025;   31.000;   79.000
448.299;   33.925; -935.000; -727.000
448.420;   11.700;  -25.000;  159.000
448.542;  -53.825;   -3.000;   33.000
448.664;  -19.750;  109.000;  322.000
448.785;  -38.825;  265.000;   83.000
448.907;  -83.675; -614.000; -353.000
449.028;  -50.950; -771.000; -471.000
449.150;   52.475;  492.000;  589.000
449.272; -175.050;-1044.000; -913.000
449.393;   24.750;  612.000;  694.000
449.515; -146.200; -634.000; -581.000
449.636;  -68.200; -264.000; -155.000
449.758;   62.425;  763.000;  622.000
449.879; -107.875; -498.000; -396.000
450.001;  -82.575; -149.000;  -49.000
450.122;  -44.550;  -95.000;  162.000
450.244;  -22.000;   37.000;  364.000
450.365;  -96.150; -495.000; -301.000
450.486;  -37.200;   80.000;  268.000
450.608;    8.375;  393.000;  326.000
450.729;   78.350;  578.000;  645.000
450.850;    4.475; -574.000; -466.000
450.972;  818.700; -552.000; -389.000
451.093; 5197.475;  190.000;  588.000
451.214; 2233.450; -516.000; -337.000
451.336;  421.475;  773.000;  579.000
451.457;   54.675;  264.000;  393.000
451.578;  -57.100; -118.000;  -74.000
451.699; -134.750; -546.000; -540.000
451.821;  -75.700; -284.000;  -50.000
451.942;   -6.425;  278.000;  285.000
452.063;   45.050;  228.000;  419.000
452.184;  592.775;  -54.000;  -49.000
452.305; 1136.150;  103.000;  170.000
452.427;  142.725; -549.000; -301.000
452.548;  -17.025;   23.000;   79.000
452.669;  -66.625; -257.000;  -89.000
452.790;  -58.825;    3.000;  -18.000
452.911;  -20.925;  195.000;  259.000
453.032;  -74.975; -289.000;  -60.000
453.153;  -58.900;  -29.000;   81.000
453.274;   61.375;  737.000;  868.000
453.395;  -50.650;  -51.000;  175.000
453.516;  122.525; 1317.000; 1388.000
453.637;  -86.275; -205.000; -150.000
453.758;  -58.975;   15.000;   69.000
453.879; -133.175; -462.000; -250.000
454.000;   66.525; 1086.000;  948.000
454.121; -121.300; -554.000; -326.000
454.242; -116.050; -599.000; -383.000
454.362;  -57.025;  -99.000;  114.000
454.483;  -46.425; -309.000; -229.000
454.604;   38.825;  512.000;  580.000
454.725; -134.900; -627.000; -555.000
454.846; -133.275; -474.000; -406.000
454.967;  -19.775;  230.000;  539.000
455.087;  -55.075;  179.000;  153.000
455.208;    5.800;  554.000;  856.000
455.329;  -76.325;  -22.000;   82.000
455.450;   41.950;  473.000;  633.000
455.570;  -73.800; -234.000; -211.000
455.691;  -34.400;  201.000;  407.000
455.812; -115.425; -270.000;  -92.000
455.932;  -56.500;  107.000;  -97.000
456.053;  -76.675;   36.000;   24.000
456.173; -106.675; -433.000; -355.000
456.294; -137.950; -476.000; -303.000
456.415;  -68.075;  -73.000;   70.000
456.535;  -53.350;  297.000;  273.000
456.656;  -48.600;  132.000;  240.000
456.776;  -85.725;    3.000;  298.000
456.897;  -20.475;  308.000;  513.000
457.017;  -76.250; -153.000;   -3.000
457.138; -119.325; -402.000; -249.000
457.258;  -21.625;  263.000;  224.000
457.379;  -21.675;  509.000;  521.000
457.499;  -45.350;  443.000;  432.000
457.620; -118.650; -407.000; -231.000
457.740; -109.175; -132.000;  -11.000
457.860;  -58.025;   87.000;   44.000
457.981;  -45.400;  132.000;  124.000
458.101;  -87.025;  -89.000;   40.000
458.221;  -28.200;  336.000;  402.000
458.342;  -62.425;   -4.000;  -37.000
458.462;   26.775;  617.000;  352.000
458.582;  -37.500; -302.000; -294.000
458.703;    2.775;  303.000;  154.000
458.823;  -28.600;   22.000;  163.000
458.943;   38.750;  341.000;  467.000
459.063;  -21.000; 1124.000;  192.000
459.183;  -34.375;  328.000;  313.000
459.304;    1.350;  315.000;  517.000
459.424;  -49.500; -246.000;  -89.000
459.544;  338.475;  388.000;  764.000
459.664;  864.450;  499.000;  506.000
459.784;  317.050; 1004.000; 1175.000
459.904;   58.000;  867.000;  744.000
460.024;   49.525;  867.000;  684.000
460.144;   -2.225;  449.000;  554.000
460.264;  -22.275;  515.000;  327.000
460.385;  -91.450; -145.000; -119.000
460.505;   32.275;  905.000;  858.000
460.625;  -96.400;  -17.000;  -68.000
460.745;  -15.700;  396.000;  541.000
460.864;  -52.675;  153.000;  469.000
460.984;   -5.825;  499.000;  573.000
461.104;  133.050; 1656.000; 1775.000
461.224;    5.650;  657.000;  650.000
461.344;  -35.150;  431.000;  360.000
461.464;  -34.925;  258.000;  513.000
461.584;  -32.850;  283.000;  466.000
461.704;  -43.075;   58.000;  108.000
461.824;  -71.425;  238.000;  259.000
461.943;  -45.300;  191.000;  130.000
462.063;  -74.600;    2.000;  324.000
462.183;   21.650;  639.000;  717.000
462.303;   86.600; 1678.000; 1230.000
462.422;   30.400;  781.000;  840.000
462.542;  -46.275;  271.000;  391.000
462.662;   29.275;  353.000;  380.000
462.782;  235.475;  833.000;  572.000
462.901;  507.025;  545.000;  717.000
463.021;  283.975; 1702.000; 1638.000
463.141;  -10.450;  337.000;  770.000
463.260;  -19.075;  614.000;  474.000
463.380;   13.700;  902.000;  884.000
463.499;  -35.400;  342.000;  332.000
463.619;  -28.775;  581.000;  559.000
463.738;  114.700; 1644.000;  903.000
463.858;   13.775;  657.000;  811.000
463.978;  -38.675;  542.000;  396.000
464.097;   48.975;  921.000; 1114.000
464.217;  124.100; 1196.000; 1143.000
464.336;  132.625; 1068.000; 1130.000
464.455;  -34.750;  328.000;  659.000
464.575;   27.100;  597.000;  602.000
464.694;  137.375; 1204.000; 1179.000
464.814;  117.825; 1190.000; 1138.000
464.933;   52.050; 1095.000; 1027.000
465.052;   87.250; 1412.000; 1054.000
465.172;   65.475;  922.000;  799.000
465.291;  123.775; 1376.000; 1320.000
465.410;    7.425;  462.000;  735.000
465.530;   88.950; 1355.000; 1310.000
465.649;   54.250; 1209.000; 1273.000
465.768;  142.675; 1673.000; 1508.000
465.888;   50.050;  941.000; 1174.000
466.007;   86.825; 1335.000; 1440.000
466.126;    7.200;  721.000;  641.000
466.245;   42.650; 1176.000; 1187.000
466.364;   30.050;  950.000; 1060.000
466.484;   67.975; 1024.000; 1213.000
466.603;   39.100; 1101.000; 1222.000
466.722;  117.425; 1490.000; 1769.000
466.841;   78.525; 1151.000; 1401.000
466.960;   24.650; 1069.000;  972.000
467.079;  125.625; 1971.000; 1786.000
467.198;   34.800; 1238.000; 1181.000
467.317;   78.100; 1768.000; 1162.000
467.436;   62.775; 1709.000; 1261.000
467.555;  110.000; 1796.000; 1746.000
467.674;   61.775; 1227.000; 1329.000
467.793;   44.950; 1376.000; 1374.000
467.912;   83.325; 1658.000; 1539.000
468.031;  122.625; 2038.000; 1930.000
468.150;  136.275; 1842.000; 1837.000
468.269;  190.475; 2313.000; 2090.000
468.388;  173.950; 2168.000; 2339.000
468.507;  263.050; 2884.000; 2903.000
468.626;  220.375; 2555.000; 2541.000
468.744;  155.175; 2018.000; 2174.000
468.863;  196.700; 2312.000; 2523.000
468.982;  101.375; 1503.000; 1555.000
469.101;  227.775; 2788.000; 2692.000
469.220;  136.950; 2333.000; 2176.000
469.338;  251.625; 2935.000; 3051.000
469.457;  199.700; 2719.000; 2545.000
469.576;  347.150; 3953.000; 3784.000
469.695;  239.000; 2877.000; 3066.000
469.813;  426.125; 4148.000; 4192.000
469.932;  398.350; 4255.000; 4485.000
470.051;  423.700; 4075.000; 4161.000
470.169;  871.900; 4470.000; 4338.000
470.288; 1504.325; 4700.000; 4809.000
470.406;  894.525; 5059.000; 5194.000
470.525;  641.125; 6101.000; 5787.000
470.644;  650.600; 6847.000; 6794.000
470.762;  835.225; 8397.000; 7873.000
470.881;  906.450; 8651.000; 8464.000
470.999; 1043.475; 9685.000; 9151.000
471.118; 1108.825;11174.000;10711.000

