
Integration time [ms]: 200.000
Averaging Nr. [scans]: 10
Smoothing Nr. [pixels]: 0
Data measured with spectrometer [name]: 2101012U2
Wave   ;Sample   ;Dark     ;Reference
[nm]   ;[counts] ;[counts] ;[counts] 

197.733;  141.100;  516.000;  404.000
197.879; -175.800; -610.000; -634.000
198.025; -101.200; -475.000; -420.000
198.171; -169.200; -602.000; -612.000
198.317;  -68.400; -401.000; -316.000
198.463; -123.600; -655.000; -404.000
198.609;   39.400;  181.000; -137.000
198.755; -197.100; -644.000; -410.000
198.901; -141.000; -505.000; -424.000
199.047; -147.600; -615.000; -488.000
199.193;  -88.800; -230.000; -468.000
199.339; -120.800; -222.000; -369.000
199.485;   88.800;  330.000;  271.000
199.631;   29.400;  227.000;  310.000
199.777;  -91.800; -466.000; -398.000
199.923; -162.000; -610.000; -424.000
200.069;   16.200; -141.000;  -58.000
200.215;   97.000;  128.000;  453.000
200.361;   96.700;  243.000;  477.000
200.507; -163.700; -600.000; -373.000
200.653;  -33.600; -371.000; -194.000
200.798;  -80.400; -215.000; -125.000
200.944;  -22.300; -146.000;  -41.000
201.090;   82.600;   61.000;  222.000
201.236;    3.800; -116.000; -158.000
201.382;  226.800;  874.000;  903.000
201.528;    8.500;  -58.000;  -48.000
201.674; -112.500; -386.000; -293.000
201.819; -140.100; -540.000; -439.000
201.965; -180.600; -699.000; -447.000
202.111;  -25.500; -273.000; -226.000
202.257;  -98.900; -250.000; -238.000
202.402;   -2.000;   13.000;  -36.000
202.548;  -96.700; -169.000; -116.000
202.694;  162.500;  410.000; -183.000
202.840; -179.500; -603.000; -531.000
202.985; -193.900; -681.000; -639.000
203.131; -233.700; -832.000; -666.000
203.277;  -46.100; -199.000; -262.000
203.423; -127.300; -434.000; -520.000
203.568;  -69.000; -462.000; -237.000
203.714; -149.800; -535.000; -542.000
203.860; -178.100; -682.000; -641.000
204.005;   10.200;  112.000;  167.000
204.151;  174.500;  561.000;  556.000
204.296;  -75.900; -354.000; -221.000
204.442; -176.500; -600.000; -547.000
204.588; -164.400; -592.000; -579.000
204.733;   29.000;  178.000;  168.000
204.879; -294.000;-1018.000; -822.000
205.025;   22.000;  -99.000;  126.000
205.170;   -1.600;  -17.000;   94.000
205.316;  197.900;  438.000;  661.000
205.461; -210.900; -698.000; -554.000
205.607;  185.300;  609.000;  665.000
205.752; -166.500; -626.000; -551.000
205.898; -100.900; -501.000; -391.000
206.043; -155.200; -578.000; -506.000
206.189;  -92.900; -243.000; -285.000
206.334;  138.900;  554.000;  606.000
206.480;  160.700;  409.000;  239.000
206.625; -181.300; -529.000; -552.000
206.771; -104.400; -451.000; -373.000
206.916;  -85.000; -210.000; -537.000
207.062; -158.500; -545.000; -591.000
207.207; -147.500; -546.000; -443.000
207.353;  139.200;  185.000;  460.000
207.498;   20.700;  196.000;   85.000
207.643; -125.000; -501.000; -370.000
207.789; -295.800;-1069.000; -910.000
207.934; -221.000; -665.000; -713.000
208.080;  -31.200; -154.000;   66.000
208.225;  -41.900;  -22.000;  -57.000
208.370; -197.700; -727.000; -619.000
208.516; -148.800; -741.000; -487.000
208.661;  -87.200; -127.000;  -69.000
208.806;  -39.400; -165.000; -171.000
208.952; -285.700;-1044.000; -731.000
209.097;  157.300;  378.000;  349.000
209.242; -122.800; -307.000; -382.000
209.387;  116.900;  392.000;  350.000
209.533; -146.700; -321.000; -350.000
209.678;  184.400;  472.000;  543.000
209.823; -124.100; -408.000; -310.000
209.969; -229.400; -860.000; -757.000
210.114; -230.400; -907.000; -719.000
210.259; -222.500; -939.000; -889.000
210.404;  -19.600; -171.000;  103.000
210.549;   51.500;  108.000;    3.000
210.695;  -64.900;   -3.000;  -95.000
210.840;   68.000;   94.000;   67.000
210.985; -146.900; -484.000; -303.000
211.130;  145.600;  268.000;  406.000
211.275;   23.300;  207.000;  199.000
211.420; -114.400; -300.000; -289.000
211.566; -153.200; -536.000; -489.000
211.711;   66.700;  218.000;  157.000
211.856; -148.400; -545.000; -519.000
212.001;   18.000;  151.000;   44.000
212.146;   -0.600;  153.000;   49.000
212.291;  -30.200; -210.000; -186.000
212.436;  -59.100; -280.000;   -6.000
212.581; -173.300; -685.000; -653.000
212.726; -164.700; -487.000; -538.000
212.871; -124.900; -552.000; -217.000
213.016; -330.500;-1172.000;-1029.000
213.161;  121.600;  406.000;  291.000
213.306; -164.500; -435.000; -577.000
213.451; -198.300; -778.000; -689.000
213.596;  -97.500; -455.000; -347.000
213.741;  -83.600; -448.000; -538.000
213.886; -152.300; -498.000; -517.000
214.031;  -44.500; -294.000; -124.000
214.176; -115.100; -408.000; -341.000
214.321;  -33.400; -296.000; -157.000
214.466;  -72.800; -163.000;  -43.000
214.611;  -25.800;  -61.000;  -10.000
214.756; -278.500; -948.000; -858.000
214.901;  -41.700; -388.000; -226.000
215.046; -276.900; -797.000; -825.000
215.191;   56.300;  128.000;   35.000
215.336;   -7.600; -157.000;  -19.000
215.480; -140.500; -684.000; -505.000
215.625;  -28.800; -175.000;  -19.000
215.770; -173.800; -757.000; -662.000
215.915;  -34.400;   -5.000;  -97.000
216.060;   10.100; -113.000;  -21.000
216.205; -239.100; -731.000; -779.000
216.349; -158.800; -470.000; -533.000
216.494; -297.900; -939.000; -867.000
216.639; -232.900; -823.000; -888.000
216.784; -180.000; -577.000; -525.000
216.929;  102.200;  392.000;  281.000
217.073;  -10.500; -244.000;  -31.000
217.218;   35.100;   78.000;  -47.000
217.363; -175.000; -656.000; -618.000
217.507; -146.600; -623.000; -588.000
217.652; -293.600; -845.000; -874.000
217.797; -163.600; -708.000; -659.000
217.942; -236.000; -856.000; -720.000
218.086;  175.400;  608.000;  539.000
218.231;  -46.000; -174.000;  -26.000
218.376;  -76.100; -337.000; -229.000
218.520;  -20.800;  -41.000;   96.000
218.665;  -79.700; -338.000; -204.000
218.810;  -78.000; -275.000; -233.000
218.954;   47.700;  201.000;   35.000
219.099; -246.200; -713.000; -963.000
219.243; -158.000; -589.000; -554.000
219.388;  -70.200; -264.000; -136.000
219.532;  -12.900; -116.000; -116.000
219.677; -151.500; -564.000; -521.000
219.822;   12.500;   33.000;   89.000
219.966;  -23.300;   17.000;  -99.000
220.111;  -47.000; -328.000;  -40.000
220.255; -228.500; -797.000; -750.000
220.400;  -47.800; -180.000; -146.000
220.544; -149.100; -516.000; -450.000
220.689; -103.200; -422.000; -451.000
220.833;  -23.400; -123.000;  -58.000
220.978;  -82.300; -393.000; -563.000
221.122;   30.100;  319.000;  307.000
221.267; -225.900; -906.000; -837.000
221.411; -151.900; -478.000; -394.000
221.555;    8.200; -104.000;  -23.000
221.700; -107.900; -329.000; -222.000
221.844;   74.600;  255.000;  272.000
221.989;  -97.200; -328.000; -311.000
222.133;  -46.200; -289.000; -307.000
222.277;   -7.400;    5.000;   78.000
222.422;   63.100;  227.000;  113.000
222.566;  -93.800; -381.000; -214.000
222.711; -104.000; -414.000; -479.000
222.855; -158.400; -643.000; -586.000
222.999; -185.200; -642.000; -717.000
223.144;  -77.900; -195.000; -194.000
223.288;  131.200;  423.000;  251.000
223.432;   11.900;  184.000;  230.000
223.576;   71.400;  152.000;  -21.000
223.721;   66.000;  364.000;  273.000
223.865;  -96.200; -472.000; -475.000
224.009;  581.900; 1673.000; 1631.000
224.153; -150.700; -660.000; -671.000
224.298; -168.000; -531.000; -489.000
224.442;    5.000;  -74.000;  -33.000
224.586;  -68.500; -169.000; -106.000
224.730; -204.800; -858.000; -670.000
224.875; -231.700; -739.000; -688.000
225.019;   26.200;  102.000;  188.000
225.163;  110.700;  208.000;  341.000
225.307;   35.800;   97.000;  -91.000
225.451;  107.100;  360.000;  481.000
225.595;   84.600;  264.000;  176.000
225.739;  -44.300; -170.000;  -94.000
225.884;   18.700;   86.000;    5.000
226.028; -230.200; -760.000; -626.000
226.172;  -48.100; -260.000; -273.000
226.316; -259.800; -941.000; -902.000
226.460; -160.100; -645.000; -493.000
226.604; -137.200; -406.000; -400.000
226.748; -185.400; -836.000; -733.000
226.892;  -60.100; -227.000; -181.000
227.036;  -88.600; -537.000; -447.000
227.180; -130.400; -551.000; -375.000
227.324; -134.800; -561.000; -580.000
227.468; -254.300; -819.000; -717.000
227.612;   38.600;  242.000;  -28.000
227.756; -220.700; -845.000; -698.000
227.900;  127.900;  342.000;  441.000
228.044; -143.200; -509.000; -290.000
228.188;  151.400;  448.000;  568.000
228.332; -205.400; -546.000; -472.000
228.476;  -30.400; -223.000; -149.000
228.620;  -72.200; -210.000; -150.000
228.764;  161.600;  431.000;  349.000
228.908;  -56.400; -155.000;   30.000
229.052; -123.500; -615.000; -528.000
229.195;  -23.500; -172.000;   13.000
229.339;  -41.900; -235.000; -305.000
229.483;  -72.000;    5.000; -162.000
229.627;   -0.400; -156.000;  139.000
229.771; -114.000; -218.000; -294.000
229.915;   46.700;  230.000;   79.000
230.059; -179.100; -648.000; -663.000
230.202;  -69.900; -370.000; -317.000
230.346;  -36.700; -107.000;  107.000
230.490; -133.600; -489.000; -521.000
230.634; -252.600; -736.000; -553.000
230.777;  175.700;  478.000;  509.000
230.921; -140.800; -450.000; -359.000
231.065;  -63.700; -246.000; -286.000
231.209;   65.100;  261.000;  265.000
231.352;   55.800;   54.000;   40.000
231.496;   47.400;  568.000;  188.000
231.640; -174.700; -693.000; -621.000
231.783;  106.900;  546.000;  525.000
231.927;  -74.700; -294.000; -365.000
232.071; -266.100; -962.000; -736.000
232.214; -194.600; -980.000; -764.000
232.358; -227.800; -683.000; -599.000
232.502;   30.000;  -19.000;    7.000
232.645; -296.200;-1090.000; -927.000
232.789;  -31.200; -257.000; -218.000
232.933; -114.600; -407.000; -224.000
233.076; -263.800;-1038.000; -897.000
233.220; -214.200; -752.000; -777.000
233.363; -146.000; -669.000; -477.000
233.507;  107.300;  371.000;  129.000
233.650; -182.000; -764.000; -834.000
233.794;  104.400;  438.000;  461.000
233.938; -117.300; -530.000; -362.000
234.081;  -32.100;  -93.000;   31.000
234.225;  -99.200; -631.000; -539.000
234.368; -249.300; -773.000; -723.000
234.512;  -69.700; -385.000; -299.000
234.655; -179.200; -582.000; -555.000
234.798; -126.900; -493.000; -466.000
234.942; -274.200; -884.000;-1002.000
235.085; -142.800; -651.000; -443.000
235.229; -158.700; -405.000; -410.000
235.372;  -86.000; -247.000; -191.000
235.516; -170.200; -397.000; -321.000
235.659;   51.800;   92.000;  121.000
235.802;  -16.300;  -38.000;  -22.000
235.946;   47.500;  335.000;  215.000
236.089;   57.500;  126.000;  250.000
236.233;  127.500;  275.000;  298.000
236.376;  -93.100; -235.000; -378.000
236.519;  -98.700; -297.000; -319.000
236.663;  -46.200; -215.000; -117.000
236.806; -298.500;-1029.000; -999.000
236.949;   82.100;  543.000;  431.000
237.092;  130.700;  412.000;  391.000
237.236; -206.200; -589.000; -502.000
237.379;  155.100;  352.000;  428.000
237.522; -258.700; -879.000; -768.000
237.666;   10.500; -271.000;   18.000
237.809; -261.500; -851.000; -823.000
237.952;  104.900;  469.000;  271.000
238.095; -138.800; -447.000; -442.000
238.238;  156.500;  688.000;  700.000
238.382;    3.100;  166.000;  103.000
238.525; -121.300; -598.000; -511.000
238.668; -313.700;-1060.000; -985.000
238.811; -140.200; -638.000; -643.000
238.954; -127.800; -483.000; -334.000
239.097;  196.600;  617.000;  664.000
239.241;   76.600;  394.000;  326.000
239.384;  -30.700; -254.000; -214.000
239.527; -134.500; -424.000; -224.000
239.670; -281.700; -994.000;-1091.000
239.813; -228.800; -696.000; -658.000
239.956;  172.900;  579.000;  473.000
240.099; -209.100; -778.000; -725.000
240.242;  153.600;  428.000;  432.000
240.385;   89.400;  466.000;  450.000
240.528; -162.100; -706.000; -473.000
240.671;   32.300;  189.000;  134.000
240.814;  -84.000; -441.000; -158.000
240.957; -223.500; -767.000; -578.000
241.100; -182.100; -779.000; -755.000
241.243; -300.000;-1234.000; -893.000
241.386; -112.500; -508.000; -379.000
241.529; -205.300; -735.000; -547.000
241.672;  -86.600; -566.000; -495.000
241.815; -273.900; -832.000; -808.000
241.958;  -61.600; -125.000; -182.000
242.101; -183.200; -545.000; -390.000
242.244;  -63.400; -270.000; -325.000
242.387;  -66.100; -304.000; -246.000
242.530;  140.000;  470.000;  134.000
242.673;  -98.600; -381.000; -309.000
242.815; -233.600; -925.000; -899.000
242.958; -143.600; -482.000; -381.000
243.101;   35.100;  132.000;  187.000
243.244; -161.300; -564.000; -521.000
243.387;  -60.500; -313.000; -316.000
243.530; -235.000; -657.000; -674.000
243.672;   18.700;   43.000;  -92.000
243.815; -133.400; -355.000; -283.000
243.958;  -16.300;   98.000;  -26.000
244.101;   -9.300;   59.000;  -16.000
244.243;   -9.500;  -47.000;  101.000
244.386; -248.700; -761.000; -630.000
244.529;  -32.900; -132.000; -139.000
244.672; -342.700;-1154.000; -951.000
244.814; -202.900; -621.000; -794.000
244.957; -120.100; -380.000; -304.000
245.100; -143.600; -489.000; -489.000
245.242; -127.500; -387.000; -374.000
245.385;   21.000;  -59.000;  -39.000
245.528; -246.200; -871.000; -705.000
245.670;  223.900;  612.000;  634.000
245.813; -179.300; -599.000; -547.000
245.956;  -71.800; -324.000; -275.000
246.098; -156.300; -508.000; -650.000
246.241;   31.400;  194.000;   48.000
246.383;  -42.800; -119.000;  -73.000
246.526; -158.000; -454.000; -525.000
246.669; -256.600; -889.000; -780.000
246.811;   51.300;  172.000;   -1.000
246.954; -140.600; -512.000; -426.000
247.096;  -37.600;  -84.000;   -6.000
247.239; -135.900; -482.000; -445.000
247.381; -108.800; -647.000; -488.000
247.524;  183.500;  645.000;  679.000
247.666;  -22.500;   58.000;   11.000
247.809; -269.100; -887.000; -691.000
247.951;  -27.700;  -75.000;  138.000
248.094;   89.700;  432.000;  308.000
248.236; -317.400;-1262.000;-1238.000
248.378;    6.900; -356.000;  -81.000
248.521;  -37.600; -334.000; -337.000
248.663; -103.100; -236.000; -267.000
248.806;  -47.300; -300.000; -266.000
248.948; -184.400; -886.000; -763.000
249.090; -129.900; -428.000; -398.000
249.233; -126.300; -344.000; -381.000
249.375; -130.400; -474.000; -451.000
249.518;  -58.500;  -83.000; -133.000
249.660;  -23.200; -103.000;    3.000
249.802; -385.300;-1303.000;-1189.000
249.945; -160.400; -612.000; -540.000
250.087; -228.900; -834.000; -768.000
250.229;  -85.100; -362.000; -480.000
250.371; -158.300; -494.000; -439.000
250.514; -106.300; -310.000; -244.000
250.656;  -27.600;   69.000;  102.000
250.798; -219.500; -849.000; -800.000
250.940; -137.400; -322.000; -322.000
251.083;  -33.300; -335.000; -111.000
251.225;  127.700;  338.000;  310.000
251.367;  -71.600; -274.000; -373.000
251.509;  -32.700; -265.000; -210.000
251.651; -184.400; -731.000; -671.000
251.794;  106.000;  538.000;  632.000
251.936; -199.500; -821.000; -747.000
252.078; -136.700; -540.000; -461.000
252.220; -142.900; -645.000; -477.000
252.362;  179.700;  344.000;  462.000
252.504; -150.300; -677.000; -584.000
252.646; -248.900; -875.000; -722.000
252.788;    5.000;   14.000; -128.000
252.931;  -94.800; -257.000; -253.000
253.073;  -60.800; -376.000; -317.000
253.215;   11.000;  141.000;  122.000
253.357;  -12.500;   82.000; -153.000
253.499; -123.800; -374.000; -234.000
253.641; -174.900; -749.000; -594.000
253.783; -220.200; -609.000; -527.000
253.925; -142.100; -586.000; -591.000
254.067; -248.000; -744.000; -667.000
254.209;  -56.800; -391.000; -259.000
254.351; -291.100; -865.000; -883.000
254.493;  -99.300; -441.000; -417.000
254.635; -204.300; -936.000; -818.000
254.777; -175.000; -752.000; -687.000
254.918; -162.900; -512.000; -430.000
255.060;  -98.100; -551.000; -395.000
255.202; -152.000; -473.000; -261.000
255.344; -137.400; -658.000; -455.000
255.486; -151.500; -471.000; -406.000
255.628; -210.300; -780.000; -781.000
255.770; -208.900; -676.000; -536.000
255.912; -121.400; -559.000; -468.000
256.053; -181.800; -730.000; -508.000
256.195;  336.600; 1008.000;  903.000
256.337; -204.900; -861.000; -595.000
256.479;  140.800;  532.000;  416.000
256.621;  -93.900; -394.000; -212.000
256.762; -199.800; -789.000; -742.000
256.904;   95.200;  485.000;  487.000
257.046;  -85.000; -381.000; -271.000
257.188;  -88.000; -351.000; -264.000
257.329; -157.700; -525.000; -464.000
257.471; -234.900; -939.000; -807.000
257.613; -136.200; -584.000; -498.000
257.755; -316.600;-1073.000; -982.000
257.896;   91.600;  286.000;  392.000
258.038; -146.900; -403.000; -352.000
258.180;  -59.100; -354.000; -279.000
258.321; -166.300; -581.000; -457.000
258.463;   -2.800;  -71.000;  133.000
258.605; -180.100; -562.000; -570.000
258.746; -189.400; -886.000; -772.000
258.888; -320.800;-1026.000;-1020.000
259.029;   37.000;  121.000;   -8.000
259.171; -173.000; -614.000; -550.000
259.313;   36.600;  -49.000;  -47.000
259.454; -194.000; -536.000; -414.000
259.596; -103.700; -483.000; -390.000
259.737; -172.400; -590.000; -474.000
259.879;   96.000;  217.000;  311.000
260.020;  196.100;  901.000;  636.000
260.162;  -38.400; -146.000; -253.000
260.303; -241.300; -768.000; -687.000
260.445; -153.000; -609.000; -613.000
260.586;   63.400;  392.000;  157.000
260.728;  -80.900; -360.000; -248.000
260.869; -148.200; -350.000; -343.000
261.011;  214.600;  706.000;  537.000
261.152; -131.800; -479.000; -319.000
261.293; -132.000; -576.000; -595.000
261.435;  -81.000; -219.000; -184.000
261.576;  -70.400; -455.000; -325.000
261.718;  132.100;  420.000;  470.000
261.859; -275.000; -940.000; -949.000
262.000; -264.500; -951.000;-1016.000
262.142;  -22.600;  -52.000;  -60.000
262.283; -251.900; -808.000; -691.000
262.424; -167.700; -666.000; -625.000
262.566; -305.300;-1161.000; -983.000
262.707; -258.600; -840.000; -830.000
262.848; -256.500; -769.000; -726.000
262.990;  -86.500; -362.000; -345.000
263.131;  165.700;  650.000;  681.000
263.272;   12.900;  -61.000;  -41.000
263.413; -195.800; -589.000; -561.000
263.555; -109.800; -669.000; -143.000
263.696; -213.900; -550.000; -641.000
263.837; -114.300; -449.000; -551.000
263.978;   27.700;   -5.000;  -77.000
264.119;  -90.300; -283.000; -264.000
264.261; -217.400; -847.000; -630.000
264.402;   47.100;   33.000;   40.000
264.543; -154.900; -509.000; -524.000
264.684;  -26.100;   61.000;  -50.000
264.825; -148.600; -816.000; -538.000
264.966;    6.300;  -84.000;  -67.000
265.107; -253.400; -646.000; -670.000
265.248; -247.200; -825.000; -812.000
265.390;    1.000;  152.000;   -9.000
265.531;  -39.700; -238.000; -107.000
265.672; -181.400; -557.000; -630.000
265.813;  136.400;  563.000;  439.000
265.954; -303.100; -959.000; -940.000
266.095;    3.100; -372.000; -322.000
266.236; -204.000; -686.000; -548.000
266.377;  -79.300; -243.000; -297.000
266.518; -153.200; -619.000; -547.000
266.659;   59.600;  170.000;  268.000
266.800;   25.300;   83.000;   85.000
266.941; -141.200; -487.000; -478.000
267.082;    0.400;  354.000;   99.000
267.223;  -97.700; -344.000; -273.000
267.364; -243.000; -892.000; -686.000
267.504;  -33.300;    3.000;  135.000
267.645;   14.900;  160.000;   67.000
267.786;  -79.200; -147.000;  -86.000
267.927; -141.400; -473.000; -379.000
268.068;  -26.700; -186.000;  -61.000
268.209; -102.000; -175.000; -413.000
268.350; -137.700; -388.000; -532.000
268.490; -178.600; -648.000; -521.000
268.631;   93.800;  127.000;  225.000
268.772; -280.900; -874.000; -647.000
268.913;  -82.700; -328.000; -476.000
269.054;  -41.900; -117.000;   12.000
269.194;  -73.200; -418.000; -402.000
269.335; -322.300;-1137.000;-1074.000
269.476;  -17.300;   33.000;  -35.000
269.617; -125.600; -347.000; -392.000
269.757; -163.100; -713.000; -646.000
269.898; -230.900; -856.000; -613.000
270.039;  -88.900; -415.000; -405.000
270.180; -271.900; -952.000; -816.000
270.320;  -69.100; -190.000; -250.000
270.461;  -75.500; -277.000; -249.000
270.602;    2.000; -186.000; -156.000
270.742; -286.500; -868.000; -943.000
270.883;  -88.500; -442.000; -390.000
271.023; -118.200; -358.000; -357.000
271.164; -157.100; -607.000; -528.000
271.305; -206.500; -666.000; -654.000
271.445; -171.400; -722.000; -683.000
271.586; -144.200; -462.000; -283.000
271.726;  -83.100; -397.000; -322.000
271.867; -134.700; -594.000; -534.000
272.008;  299.800; -473.000; -285.000
272.148;  249.400;  462.000;  468.000
272.289;   48.800; -113.000; -181.000
272.429;   37.100;   19.000;  185.000
272.570; -211.700; -633.000; -737.000
272.710; -214.300; -825.000; -775.000
272.851;  -33.700;  113.000; -130.000
272.991; -338.700;-1173.000;-1077.000
273.131; -137.400; -419.000; -459.000
273.272; -208.900; -683.000; -723.000
273.412;   44.300; -143.000;  -31.000
273.553; -139.900; -488.000; -507.000
273.693;  289.000;  913.000;  858.000
273.834; -219.700; -894.000; -692.000
273.974; -131.100; -664.000; -615.000
274.114; -231.700; -772.000; -560.000
274.255;  210.100;  414.000;  373.000
274.395;   -0.300; -180.000; -125.000
274.535;  115.700;  199.000;  350.000
274.676;   41.800;  225.000;   94.000
274.816;   24.300;  110.000;   34.000
274.956; -176.600; -624.000; -690.000
275.097; -140.900;-1014.000; -922.000
275.237; -244.400; -913.000; -803.000
275.377; -185.600; -778.000; -689.000
275.517; -320.600; -878.000; -937.000
275.658;  -88.800; -590.000; -555.000
275.798; -150.600; -606.000; -413.000
275.938;   98.100;  215.000;  323.000
276.078; -163.500; -626.000; -395.000
276.218;   12.600;   99.000;  104.000
276.359; -282.500;-1026.000;-1024.000
276.499; -142.100; -605.000; -446.000
276.639;  -78.600; -305.000; -151.000
276.779;  -57.200; -475.000; -357.000
276.919; -215.300; -783.000; -624.000
277.059;   -5.100; -261.000; -212.000
277.199; -105.400; -357.000; -259.000
277.340;  101.900;  287.000;  175.000
277.480; -230.500; -840.000; -693.000
277.620;   83.500;  192.000;   16.000
277.760; -403.600;-1533.000;-1294.000
277.900;   29.900;  113.000;   33.000
278.040;   53.400;  137.000;  159.000
278.180;  102.000;  270.000;  170.000
278.320;  -21.800;   21.000;   56.000
278.460; -113.300; -443.000; -469.000
278.600; -177.200; -708.000; -598.000
278.740;  131.900;  448.000;  224.000
278.880; -162.900; -768.000; -791.000
279.020;   19.800; -194.000; -144.000
279.160; -201.800; -672.000; -595.000
279.300; -241.700; -926.000; -873.000
279.440; -182.900; -709.000; -622.000
279.579;  -80.700;-1014.000; -929.000
279.719; -133.300; -410.000; -394.000
279.859;  130.800;   -4.000;   41.000
279.999;   34.300; -208.000;  101.000
280.139;  -48.400; -435.000; -387.000
280.279; -181.500; -708.000; -745.000
280.419;   -1.700; -229.000; -147.000
280.559;  -70.900; -259.000; -180.000
280.698; -165.800; -790.000; -639.000
280.838; -202.800; -778.000; -800.000
280.978; -182.500; -846.000; -790.000
281.118; -214.200; -811.000; -704.000
281.257;   36.700;   24.000;    6.000
281.397; -247.000;-1094.000; -960.000
281.537; -167.200; -599.000; -712.000
281.677;  -62.100; -150.000; -101.000
281.816; -153.800; -700.000; -630.000
281.956;  -61.300; -193.000; -257.000
282.096; -104.700; -539.000; -396.000
282.235; -213.000; -672.000; -638.000
282.375;   -2.300; -243.000;  -98.000
282.515; -222.400; -715.000; -707.000
282.654;   60.800;   29.000;  106.000
282.794;   95.300;  388.000;  244.000
282.934; -115.800; -530.000; -491.000
283.073; -281.700;-1030.000; -857.000
283.213;  -98.400; -460.000; -467.000
283.353;  -89.000; -408.000; -349.000
283.492;  -44.100; -264.000; -296.000
283.632; -103.200; -254.000; -168.000
283.771; -172.800; -859.000; -730.000
283.911; -139.600; -369.000; -260.000
284.050; -200.700; -794.000; -748.000
284.190; -327.100;-1229.000;-1096.000
284.329; -274.600;-1055.000; -964.000
284.469; -161.200; -516.000; -591.000
284.608;  -88.700; -559.000; -598.000
284.748; -189.100; -614.000; -570.000
284.887;   21.300;  -87.000;  -20.000
285.027; -260.600; -844.000; -892.000
285.166;  -85.100; -192.000; -249.000
285.306;    8.900; -116.000;  -33.000
285.445;  -52.500; -229.000; -343.000
285.584; -214.000; -630.000; -494.000
285.724;  -61.700; -282.000; -322.000
285.863; -249.900; -857.000; -507.000
286.002;  -90.300; -366.000; -276.000
286.142; -226.600; -715.000; -622.000
286.281; -136.400; -525.000; -493.000
286.420; -165.300; -554.000; -417.000
286.560;  194.100;  653.000;  623.000
286.699; -289.300; -958.000; -912.000
286.838; -105.700; -590.000; -591.000
286.978; -181.800; -533.000; -537.000
287.117; -258.600;-1085.000; -950.000
287.256;  -72.000; -228.000; -211.000
287.395; -105.500; -197.000; -378.000
287.535; -112.800; -370.000; -298.000
287.674; -166.100; -509.000; -484.000
287.813;  150.600;  661.000;  533.000
287.952; -253.200;-1010.000; -871.000
288.091; -313.400;-1049.000; -915.000
288.231;   22.900;   13.000;   15.000
288.370; -349.900;-1217.000;-1200.000
288.509; -144.400; -728.000; -645.000
288.648; -176.400; -770.000; -548.000
288.787;  -47.300; -243.000;  -87.000
288.926; -111.500; -454.000; -475.000
289.065;  257.200;  859.000;  672.000
289.204; -116.400; -377.000; -217.000
289.344; -201.000; -791.000; -690.000
289.483;   40.500;  416.000;  304.000
289.622;  -60.400; -291.000; -149.000
289.761;  -19.600; -309.000; -166.000
289.900; -211.500; -785.000; -626.000
290.039;  -12.800;  -12.000;  -95.000
290.178;  -43.200; -274.000; -180.000
290.317; -197.800; -618.000; -479.000
290.456; -118.400; -463.000; -451.000
290.595; -288.100; -961.000; -833.000
290.734; -252.600; -904.000; -891.000
290.873; -142.200; -456.000; -420.000
291.011; -215.500; -833.000; -843.000
291.150; -207.200; -770.000; -682.000
291.289;  -38.400; -343.000; -110.000
291.428; -153.600; -599.000; -480.000
291.567;  -87.900; -370.000; -442.000
291.706;   -1.400;  109.000;  154.000
291.845; -161.500; -597.000; -505.000
291.984; -364.800;-1234.000;-1061.000
292.122;  209.300;  602.000;  582.000
292.261;  111.000;  620.000;  463.000
292.400;   17.200; -144.000;  211.000
292.539; -250.200; -959.000; -813.000
292.678;  -44.700; -325.000; -300.000
292.816; -321.700;-1136.000; -965.000
292.955; -139.100; -844.000; -684.000
293.094;  -56.700; -173.000; -337.000
293.233;  -86.500; -556.000; -400.000
293.371;  -98.600; -225.000;  -84.000
293.510; -205.300; -866.000; -780.000
293.649; -268.000; -959.000; -924.000
293.787; -158.300;-1083.000;-1012.000
293.926;  -18.700; -113.000;  -32.000
294.065;  -91.500; -379.000; -290.000
294.203;  112.100;  298.000;  406.000
294.342;   46.700;   74.000;  156.000
294.481;13917.400;51180.000; -836.000
294.619;  -61.800; -425.000; -582.000
294.758; -298.500;-1230.000;-1137.000
294.896;  137.200; -125.000;    5.000
295.035; -274.200;-1040.000;-1006.000
295.174; -224.600;-1082.000; -954.000
295.312;  -75.000; -323.000; -203.000
295.451;  -54.300; -307.000; -428.000
295.589; -122.800; -389.000; -518.000
295.728;   38.200; -292.000; -165.000
295.866;    3.800;  -36.000;  -51.000
296.005; -141.000; -584.000; -341.000
296.143; -134.900; -558.000; -596.000
296.282; -201.500; -957.000; -881.000
296.420; -160.400; -657.000; -557.000
296.559; -182.300; -892.000; -633.000
296.697;  -18.400; -847.000; -665.000
296.835;   64.000;-1141.000;-1002.000
296.974;   93.900;  -23.000;   39.000
297.112;   19.600; -443.000; -504.000
297.251; -167.100; -815.000; -755.000
297.389;  131.700; -576.000; -438.000
297.527;   59.600; -145.000;  -83.000
297.666;  -93.600; -486.000; -438.000
297.804;  -85.500; -404.000; -264.000
297.942;   10.900; -136.000; -161.000
298.081;  -22.700; -183.000;   63.000
298.219;  135.000;  -17.000;  -19.000
298.357;   66.900; -144.000;  -71.000
298.495;   19.200; -810.000; -812.000
298.634;  138.500;  245.000;  219.000
298.772;  129.900; -220.000; -338.000
298.910;  -80.200; -309.000; -182.000
299.048;  -24.500; -130.000; -153.000
299.187;  -18.200; -350.000; -250.000
299.325;   19.600;   52.000;  122.000
299.463;   82.300; -389.000; -299.000
299.601;  178.700; -327.000; -271.000
299.739; -241.600; -908.000; -883.000
299.877; -168.500; -791.000; -703.000
300.016; -161.100;-1095.000; -935.000
300.154;  300.700;  -19.000; -161.000
300.292;   34.000; -428.000; -348.000
300.430;   54.100; -408.000; -291.000
300.568; -216.300; -940.000; -874.000
300.706; -120.800; -366.000; -469.000
300.844; -187.700;-1108.000; -979.000
300.982;  227.400;  246.000;  282.000
301.120; -222.000; -965.000; -866.000
301.258; -114.600; -812.000; -705.000
301.396;   62.700;  104.000;  -41.000
301.534;  119.200; -218.000; -293.000
301.672;  -28.600; -664.000; -521.000
301.810;   23.500; -613.000; -545.000
301.948;  232.300;   53.000;  149.000
302.086;  975.100; -250.000;  -32.000
302.224; 1549.800; -610.000; -585.000
302.362;   56.500; -558.000; -622.000
302.500;  -85.100; -923.000; -893.000
302.638;  213.000;  128.000;  245.000
302.776;   10.100; -352.000; -408.000
302.913;  137.500;  447.000;  236.000
303.051;  -10.100;  -86.000;  -23.000
303.189;  132.600;   90.000;  118.000
303.327;  -37.800; -341.000; -256.000
303.465; -121.700; -832.000; -588.000
303.603; -193.300; -805.000; -604.000
303.740;  180.700;  417.000;  241.000
303.878;   -8.700; -800.000; -759.000
304.016; -195.000; -915.000; -790.000
304.154; -266.900;-1123.000;-1152.000
304.291;  -76.600; -505.000; -554.000
304.429;   36.400;  102.000;   74.000
304.567; -242.300; -908.000; -893.000
304.705; -114.500; -408.000; -515.000
304.842;  149.300; -616.000; -540.000
304.980;  115.600;  215.000;   35.000
305.118;   70.200; -367.000; -365.000
305.255; -156.000; -945.000; -927.000
305.393;  153.700;  178.000;  239.000
305.531; -231.700;-1173.000; -956.000
305.668; -111.700; -663.000; -582.000
305.806;  156.700; -358.000; -439.000
305.943;  137.500; -629.000; -637.000
306.081;   83.000; -378.000; -267.000
306.219; -218.200; -863.000; -748.000
306.356;   14.200;  158.000;   27.000
306.494;  276.900;  981.000;  761.000
306.631;   30.800;  -11.000;  -55.000
306.769;   29.000; -613.000; -485.000
306.906;  -14.900; -284.000; -258.000
307.044;  -91.600; -473.000; -488.000
307.181; -112.300; -410.000; -332.000
307.319;  111.400;  112.000;   87.000
307.456; -328.100;-1191.000;-1153.000
307.594; -190.300; -980.000; -727.000
307.731;  -35.000; -371.000; -164.000
307.868;   48.800;  -15.000;   20.000
308.006; -257.000; -961.000; -847.000
308.143; -108.400; -618.000; -330.000
308.281;  363.200;  -37.000; -254.000
308.418;   31.800; -748.000; -640.000
308.555; -125.200; -400.000; -250.000
308.693; -142.800; -577.000; -573.000
308.830; -185.900; -712.000; -657.000
308.967;   11.100; -215.000;  -95.000
309.105;  -86.400; -507.000; -396.000
309.242;  120.600; -468.000; -367.000
309.379;  703.000; -577.000; -655.000
309.517; -127.000; -936.000; -948.000
309.654; -185.900; -910.000; -734.000
309.791; -118.700; -662.000; -580.000
309.928; -242.700; -977.000; -914.000
310.065;  360.100;  819.000;  697.000
310.203;  -60.800; -825.000; -850.000
310.340;   15.400; -465.000; -321.000
310.477; -145.400; -412.000; -516.000
310.614; -104.700; -383.000; -473.000
310.751; -145.300; -427.000; -518.000
310.889;  -24.800;    1.000;   11.000
311.026; -293.600;-1161.000; -939.000
311.163;  -65.300; -386.000; -380.000
311.300; -131.500; -512.000; -479.000
311.437; -123.300; -658.000; -619.000
311.574; -293.100;-1226.000; -985.000
311.711;  -88.100; -595.000; -433.000
311.848;  -52.200; -380.000; -388.000
311.985;   79.200;  270.000;   93.000
312.122; -223.500; -932.000; -762.000
312.259; -211.600; -941.000; -994.000
312.396; -108.600; -508.000; -551.000
312.533; -162.300; -812.000; -790.000
312.670; -261.600;-1070.000; -898.000
312.807;  -46.800; -352.000; -367.000
312.944; -150.000; -513.000; -611.000
313.081;  -36.900; -150.000; -415.000
313.218; -198.000;-1111.000; -867.000
313.355;   30.800; -531.000; -449.000
313.492;   19.000; -455.000; -292.000
313.629;  304.200;  815.000;  735.000
313.766; -314.000;-1176.000;-1008.000
313.902;    7.700; -186.000;   21.000
314.039; -101.200; -372.000; -289.000
314.176;  115.300;  286.000;  192.000
314.313; -147.800; -569.000; -473.000
314.450; -117.800; -788.000; -684.000
314.587; -140.100; -468.000; -480.000
314.723;   20.500;  -78.000;  130.000
314.860;   89.800;  318.000;  332.000
314.997;   60.600;  223.000;  142.000
315.134;  -73.300; -385.000; -368.000
315.270;  -67.900; -480.000; -496.000
315.407; -261.100;-1094.000; -967.000
315.544;  -71.900; -657.000; -538.000
315.681; -134.100; -681.000; -565.000
315.817;   78.500; -133.000; -176.000
315.954;   39.400; -613.000; -392.000
316.091; -270.800;-1045.000;-1023.000
316.227;  -13.100;  -71.000; -179.000
316.364;   40.900;   23.000;    6.000
316.500;  -79.200; -113.000; -300.000
316.637;  -62.300; -181.000; -302.000
316.774; -161.300; -625.000; -358.000
316.910; -147.000; -598.000; -629.000
317.047; -131.300; -487.000; -351.000
317.183;  -57.600; -435.000; -566.000
317.320;    9.200; -367.000; -321.000
317.456; -105.300; -733.000; -805.000
317.593; -181.300; -598.000; -641.000
317.729;   11.000;  168.000;  -67.000
317.866; -407.100;-1434.000;-1285.000
318.002; -146.400; -708.000; -948.000
318.139; -210.900; -883.000; -867.000
318.275; -192.400;-1003.000; -738.000
318.412; -129.800; -517.000; -336.000
318.548;  -87.500; -751.000; -720.000
318.685; -221.500; -985.000; -888.000
318.821; -165.900; -762.000; -735.000
318.957;  -17.600;   34.000;  -23.000
319.094;  115.400;  297.000;  154.000
319.230; -130.500; -756.000; -742.000
319.367;  159.600; -471.000; -520.000
319.503;   65.700; -538.000; -436.000
319.639; -179.700; -877.000; -793.000
319.775; -133.900; -750.000; -685.000
319.912;  -77.300; -424.000; -519.000
320.048; -204.100;-1184.000;-1184.000
320.184;  179.800;   59.000;   70.000
320.321; -128.700; -497.000; -467.000
320.457;  179.500;  475.000;  662.000
320.593; -128.800; -375.000; -382.000
320.729; -163.900; -732.000; -734.000
320.866; -147.700; -577.000; -635.000
321.002; -176.200; -759.000; -809.000
321.138;  -54.400; -135.000; -211.000
321.274;  164.200; -148.000; -115.000
321.410;  -66.700; -585.000; -353.000
321.546;  -91.100;-1011.000; -911.000
321.683;  140.000;  400.000;  185.000
321.819;   50.200;  -48.000; -117.000
321.955; -230.400; -743.000; -722.000
322.091;  -72.800; -585.000; -540.000
322.227;  -43.300; -382.000; -202.000
322.363;    0.300; -320.000; -215.000
322.499; -102.000; -343.000; -331.000
322.635;  346.100;  636.000;  443.000
322.771;   33.400; -139.000;   12.000
322.907;  205.900;  129.000;  327.000
323.043;  -32.300; -115.000; -206.000
323.179;  -44.800; -394.000; -363.000
323.315;    7.500; -401.000; -371.000
323.451;  173.100; -328.000; -236.000
323.587;  115.700;  -60.000;  -77.000
323.723;   18.900; -682.000; -601.000
323.859;  -30.500; -258.000;  -76.000
323.995;  -47.500; -467.000; -409.000
324.131; -239.800; -967.000; -892.000
324.267;  -37.600; -254.000; -276.000
324.402; -278.200; -960.000; -983.000
324.538;    5.600; -279.000; -104.000
324.674;   52.900;  164.000;   77.000
324.810;  243.000;  226.000;  308.000
324.946;  -21.200; -810.000; -658.000
325.082; -110.100; -568.000; -475.000
325.217;   -8.600;  -62.000;   16.000
325.353; -169.200; -764.000; -659.000
325.489; -152.900; -540.000; -506.000
325.625; -126.900; -579.000; -525.000
325.760;  137.000;  517.000;  376.000
325.896;  -22.200; -515.000; -702.000
326.032;  -71.700; -403.000; -352.000
326.168; -101.900; -462.000; -369.000
326.303; -108.900; -352.000; -461.000
326.439;  -11.700; -336.000; -276.000
326.575;   35.600; -190.000;  -29.000
326.710;    1.900; -156.000;  -30.000
326.846;  -34.100;  146.000;  103.000
326.982; -174.700; -530.000; -548.000
327.117; -162.800; -481.000; -442.000
327.253; -175.800; -745.000; -742.000
327.388; -326.600;-1137.000;-1153.000
327.524;  -89.900; -811.000; -578.000
327.659;  -53.200;  -58.000;  -22.000
327.795;   17.300;   69.000;   45.000
327.931; -183.100; -723.000; -499.000
328.066;  -29.700; -417.000; -276.000
328.202;  -10.100;   12.000; -129.000
328.337;  264.100;  957.000;  713.000
328.473;  -19.500;  -12.000;  -74.000
328.608;  -50.800; -256.000; -267.000
328.743; -175.900; -799.000; -664.000
328.879;   72.400;  214.000;  114.000
329.014; -116.500; -102.000; -122.000
329.150; -138.800; -358.000; -483.000
329.285; -151.400; -465.000; -466.000
329.421;  -70.900; -548.000; -246.000
329.556;   -5.800;  -36.000;   85.000
329.691; -167.500; -633.000; -615.000
329.827; -186.900; -626.000; -480.000
329.962;  -64.400;  131.000; -301.000
330.097; -167.200; -673.000; -585.000
330.233;  -59.400; -410.000; -223.000
330.368; -245.600; -839.000; -628.000
330.503;   41.800;    3.000;   98.000
330.638;    9.700;  -93.000; -125.000
330.774;  -79.000; -609.000; -530.000
330.909;  -91.700; -434.000; -244.000
331.044; -142.400; -714.000; -708.000
331.179; -357.300;-1217.000;-1109.000
331.315;   77.500;   77.000;   20.000
331.450;   66.100;  157.000;  285.000
331.585; -146.400; -805.000; -706.000
331.720; -156.900; -510.000; -460.000
331.855;   30.200;  -35.000; -102.000
331.990;  557.400;   62.000;  138.000
332.126;  310.800; -110.000;   71.000
332.261;  -19.700; -379.000; -265.000
332.396;   25.300; -135.000; -242.000
332.531; -209.300;-1074.000;-1031.000
332.666;   94.400; -519.000; -363.000
332.801; -194.500; -726.000; -807.000
332.936;  -12.500; -192.000; -122.000
333.071; -280.000; -870.000; -817.000
333.206;   52.000;  307.000;  379.000
333.341;   81.100;  344.000;  418.000
333.476; -136.100; -627.000; -623.000
333.611;  -46.400; -251.000; -173.000
333.746;  -96.300; -381.000; -464.000
333.881; -239.200; -973.000; -935.000
334.016; -269.600; -936.000; -917.000
334.151; -228.600; -746.000; -702.000
334.286;   90.700;  152.000;  186.000
334.421;  -23.800; -125.000; -178.000
334.556; -127.800; -611.000; -567.000
334.690; -168.700; -631.000; -577.000
334.825;  146.000;  381.000;   83.000
334.960; -107.700; -285.000; -413.000
335.095;   43.200;  135.000;  -91.000
335.230; -198.200; -722.000; -738.000
335.365; -259.400;-1084.000; -990.000
335.499; -273.800;-1108.000;-1037.000
335.634;   85.600;    9.000;  534.000
335.769; -202.300; -755.000; -720.000
335.904; -143.700; -603.000; -561.000
336.038; -108.900; -735.000; -657.000
336.173; -269.800;-1206.000;-1194.000
336.308;   13.100; -116.000; -189.000
336.443;   37.000; -544.000; -634.000
336.577; -174.300; -936.000; -787.000
336.712;  139.900;   -4.000;  -12.000
336.847; -112.800; -724.000; -607.000
336.981;  112.700; -272.000; -208.000
337.116;  573.400;  615.000;  501.000
337.250;  246.200; -434.000; -421.000
337.385;  580.900; -297.000; -208.000
337.520;  234.300; -632.000; -603.000
337.654;  -50.100; -215.000; -126.000
337.789; -221.500; -989.000; -933.000
337.923;  -27.000; -104.000; -205.000
338.058; -163.200; -673.000; -738.000
338.192;  -55.700; -611.000; -488.000
338.327;   30.400;  -18.000; -155.000
338.461; -105.100; -299.000; -469.000
338.596; -125.700; -780.000; -638.000
338.730; -204.800; -767.000; -803.000
338.865;  254.200;  -46.000; -140.000
338.999;  -80.200; -846.000; -702.000
339.134;  -17.800; -634.000; -536.000
339.268;   29.300; -741.000; -603.000
339.403;  749.000; -740.000; -775.000
339.537;  302.000; -894.000; -820.000
339.671; -180.700; -829.000; -813.000
339.806; -112.300; -556.000; -512.000
339.940;  102.500; -261.000; -235.000
340.074; -190.600; -685.000; -510.000
340.209;  -46.500; -351.000; -230.000
340.343; -184.500; -517.000; -573.000
340.477;  336.400;  998.000; 1036.000
340.612;  -75.600;-1033.000; -900.000
340.746;  319.100; -199.000; -243.000
340.880; -162.800; -924.000; -785.000
341.014;   19.800;  -45.000; -154.000
341.149; -252.500; -756.000; -718.000
341.283; -206.300; -839.000; -754.000
341.417; -227.600;-1124.000; -938.000
341.551;  210.900; -768.000; -708.000
341.685;  -84.700; -633.000; -611.000
341.820;  -92.400; -562.000; -493.000
341.954;  -70.400; -218.000; -349.000
342.088; -282.500;-1102.000;-1019.000
342.222;   77.400;  565.000;  618.000
342.356;  -97.900; -395.000; -335.000
342.490; -200.700; -880.000; -841.000
342.624;  -46.900; -339.000; -242.000
342.758;  -20.200; -364.000; -312.000
342.892; -143.400; -710.000; -585.000
343.026;  -49.600;  -58.000; -116.000
343.160;  -95.700; -426.000; -376.000
343.294; -150.700; -474.000; -337.000
343.428;  -32.900; -488.000; -448.000
343.562;  -33.400; -172.000;  -23.000
343.696;  -44.500; -385.000; -314.000
343.830;  -27.700; -362.000; -356.000
343.964;   45.100; -231.000; -168.000
344.098; 1459.100;  199.000;   70.000
344.232; 1238.800; -266.000; -127.000
344.366;  150.500; -567.000; -453.000
344.500;  102.100; -665.000; -744.000
344.634;   28.100; -324.000; -164.000
344.768;  -16.900; -531.000; -341.000
344.902;   75.600;  278.000;  256.000
345.035; -122.100; -556.000; -496.000
345.169; -254.900; -933.000; -656.000
345.303;  -66.000; -308.000; -482.000
345.437; -146.500; -826.000; -717.000
345.571;  -80.400; -675.000; -594.000
345.704; -118.400; -309.000; -532.000
345.838;   -7.800; -331.000; -284.000
345.972;  -46.000; -543.000; -495.000
346.106;  356.000; -179.000; -190.000
346.239;  809.400; -312.000; -243.000
346.373;   44.200; -343.000; -302.000
346.507; -265.200; -950.000; -962.000
346.640;  309.500;  -30.000;   13.000
346.774; -117.500; -650.000; -797.000
346.908;  -15.600; -138.000;  -11.000
347.041; -179.700; -646.000; -593.000
347.175;   60.400;  259.000;   27.000
347.309; -121.500; -698.000; -628.000
347.442; -177.900; -883.000; -732.000
347.576;  522.200;  670.000;  668.000
347.709;  309.700; -123.000;  -52.000
347.843; -190.200; -933.000; -825.000
347.976;  116.900;  235.000;  294.000
348.110; -350.500;-1268.000;-1186.000
348.243; -188.300; -679.000; -772.000
348.377;   20.300;  -26.000;   60.000
348.510;  155.400;  403.000;  540.000
348.644;  -62.100;  -37.000; -159.000
348.777;   42.400;  180.000;  191.000
348.911;  -46.700; -142.000; -112.000
349.044;  306.300;  471.000;  448.000
349.178;  164.300;-1069.000;-1006.000
349.311;  232.500;  141.000;  255.000
349.444;   11.100; -927.000; -813.000
349.578;   -8.000; -347.000; -200.000
349.711; -213.200; -959.000; -862.000
349.845;  -15.100; -661.000; -591.000
349.978; -306.900;-1224.000;-1137.000
350.111; -127.200; -546.000; -612.000
350.244; -154.000; -596.000; -700.000
350.378;  -13.100; -392.000; -393.000
350.511; -143.100; -393.000; -426.000
350.644; -178.900; -808.000; -806.000
350.778;   59.000;  168.000;  104.000
350.911;   50.200;  134.000;  140.000
351.044; -202.700; -685.000; -615.000
351.177;  -36.600; -321.000; -281.000
351.310;   25.900;    3.000; -131.000
351.444; -141.200; -888.000; -788.000
351.577;  182.500;  140.000;   90.000
351.710;  189.800;  593.000;  417.000
351.843;  -43.000; -165.000;  -77.000
351.976;    5.300;  149.000;  -79.000
352.109; -194.000; -621.000; -612.000
352.242;  -36.700; -464.000; -419.000
352.376; -104.500; -580.000; -636.000
352.509;  255.400; -437.000; -356.000
352.642;  -44.000; -654.000; -604.000
352.775;  135.300; -141.000;  -98.000
352.908; -259.000; -933.000; -904.000
353.041; -185.300; -814.000; -824.000
353.174;  -95.400; -551.000; -424.000
353.307; -125.700; -753.000; -764.000
353.440;  165.600;  541.000;  453.000
353.573; -195.000; -957.000;-1008.000
353.706; -105.200; -384.000; -558.000
353.839;   -5.800; -264.000; -220.000
353.971; -177.500; -657.000; -512.000
354.104; -155.700; -896.000; -835.000
354.237;  -98.600; -627.000; -662.000
354.370; -124.800; -846.000; -879.000
354.503; -338.400;-1231.000;-1308.000
354.636;  -43.600; -529.000; -348.000
354.769; -252.100; -937.000; -860.000
354.902;  -17.900; -230.000; -139.000
355.034;   -0.700; -164.000; -220.000
355.167;  -13.800; -262.000; -162.000
355.300; -197.700;-1061.000; -880.000
355.433; 2088.500;  -71.000;  -14.000
355.565; 3179.800; -402.000; -384.000
355.698;  880.700; -356.000; -296.000
355.831;  -39.700; -882.000; -801.000
355.964;  167.400; -285.000; -170.000
356.096; -161.600; -856.000; -843.000
356.229;   28.200; -523.000; -530.000
356.362;  661.600; -373.000; -266.000
356.494; 1296.100; -229.000; -162.000
356.627;  827.800;  269.000;  377.000
356.760; 1363.500;  120.000;   53.000
356.892; 2022.000; -286.000; -601.000
357.025; 1161.600;  403.000;  389.000
357.157;  980.100; -167.000; -179.000
357.290; 1446.200; -856.000; -713.000
357.423;  450.400; -667.000; -556.000
357.555;  231.300; -217.000; -228.000
357.688;  215.600; -483.000; -364.000
357.820;  705.800; -870.000; -877.000
357.953; 6055.600; -563.000; -589.000
358.085; 1222.600; -632.000; -612.000
358.218; 1610.300;-1131.000; -932.000
358.350;  318.500;  -58.000;  312.000
358.483; -275.700;-1300.000;-1187.000
358.615;  -69.700;-1182.000;-1078.000
358.747; -158.900;-1187.000;-1058.000
358.880;   39.700; -810.000; -744.000
359.012;  -23.000; -376.000; -202.000
359.145;  -59.000; -480.000; -511.000
359.277;   26.900; -962.000; -913.000
359.409; 5086.000;  536.000;  231.000
359.542; 1205.300; -738.000; -688.000
359.674;  125.200;   46.000;   13.000
359.806; -103.000; -565.000; -438.000
359.939;  -34.100; -617.000; -516.000
360.071;   23.300; -583.000; -579.000
360.203;  -38.300; -411.000; -364.000
360.335;   75.700;  164.000;  -16.000
360.468;  333.900; -249.000; -307.000
360.600; 4133.100; -547.000; -454.000
360.732; 5975.700; -546.000; -423.000
360.864;  743.400;-1216.000;-1044.000
360.996;  450.900; -516.000; -554.000
361.129;   75.600; -389.000; -598.000
361.261;   72.600;  110.000; -113.000
361.393;  -34.800; -252.000; -214.000
361.525;   76.900;   94.000;  244.000
361.657; -101.100; -821.000; -703.000
361.789;   71.900; -139.000; -155.000
361.921;  338.600; -642.000; -593.000
362.053;  477.800;  524.000;  541.000
362.185;  134.300;  288.000;   72.000
362.318; -143.500; -709.000; -705.000
362.450;  208.200;  294.000;  444.000
362.582;   89.600; -913.000; -870.000
362.714;  -83.900; -353.000; -332.000
362.846; -113.900; -606.000; -490.000
362.978; -271.200; -941.000; -811.000
363.109;  103.600; -161.000; -260.000
363.241;  731.700; -739.000; -749.000
363.373;  920.900; -649.000; -564.000
363.505; 1429.500; -186.000;  -91.000
363.637;  362.100; -787.000; -601.000
363.769; -249.600;-1067.000;-1080.000
363.901;  -98.500; -596.000; -654.000
364.033; -237.000;-1103.000;-1062.000
364.165;   49.900; -283.000; -283.000
364.296;  208.000; -316.000; -177.000
364.428;  185.200;-1344.000;-1220.000
364.560; -129.400; -679.000; -661.000
364.692; -106.000; -738.000; -835.000
364.824;  397.200; -588.000; -456.000
364.955;  872.400; -402.000; -564.000
365.087; 2078.900;-1097.000; -852.000
365.219;   81.600; -686.000; -816.000
365.351; -124.700; -526.000; -572.000
365.482;  146.400;  300.000;  240.000
365.614;  -93.700; -402.000; -314.000
365.746; -148.000; -729.000; -752.000
365.877; -182.100; -706.000; -672.000
366.009;  614.800;  -35.000;  -62.000
366.141; -192.500;-1249.000;-1134.000
366.272; -200.800; -803.000; -719.000
366.404; -217.400;-1005.000; -874.000
366.535;   29.900; -139.000;  -12.000
366.667; -182.400; -644.000; -649.000
366.799;  120.500;  353.000;  203.000
366.930; -240.400; -862.000; -996.000
367.062;  268.000; -639.000; -613.000
367.193;  336.600; -872.000; -842.000
367.325; -109.300; -580.000; -684.000
367.456;   81.400; -246.000;   31.000
367.588;  367.500; -371.000; -318.000
367.719;   67.900;  -44.000;  -45.000
367.851;  -19.300; -222.000; -241.000
367.982;  -99.200; -875.000; -732.000
368.113;  154.900; -475.000; -358.000
368.245; -247.800; -960.000; -841.000
368.376;    0.600; -254.000; -302.000
368.508;  -60.000; -188.000; -263.000
368.639; -281.400;-1166.000;-1034.000
368.770;  -54.200; -670.000; -589.000
368.902;  -99.800; -836.000; -926.000
369.033; -200.400; -906.000; -855.000
369.164;  -56.000; -720.000; -653.000
369.296; -192.100; -452.000; -601.000
369.427;   46.500; -209.000; -144.000
369.558;  -87.700; -593.000; -377.000
369.689;  -99.800; -721.000; -569.000
369.821; -243.600; -951.000; -845.000
369.952;  -11.100;   42.000; -108.000
370.083;  -75.200; -229.000; -108.000
370.214; -122.400; -735.000; -650.000
370.345;   31.100;   65.000;   81.000
370.477; -173.600; -810.000; -790.000
370.608;  361.100; -328.000; -264.000
370.739; -116.200;-1233.000;-1292.000
370.870; -135.600;-1102.000; -923.000
371.001;  146.100; -378.000; -467.000
371.132; -134.600; -754.000; -735.000
371.263;   11.900;  -42.000; -148.000
371.394; -244.800; -841.000; -748.000
371.525;  140.700;  345.000;  225.000
371.657; -192.100; -808.000; -670.000
371.788;  168.100;  103.000;  199.000
371.919;  205.300; -384.000; -304.000
372.050; 5882.100;  -91.000; -156.000
372.181; 1629.400; -188.000; -294.000
372.311;  605.000;   42.000; -127.000
372.442;   16.800; -457.000; -451.000
372.573;    0.800; -444.000; -340.000
372.704; -216.000;-1008.000; -980.000
372.835;  167.900; -228.000; -289.000
372.966; -111.100; -646.000; -554.000
373.097; -109.700; -575.000; -711.000
373.228; -121.900; -717.000; -542.000
373.359;  202.500; -824.000; -536.000
373.490; 1450.400; -881.000; -727.000
373.620; 1744.400;-1001.000; -803.000
373.751; 2852.700; -332.000; -396.000
373.882; 1178.900; -663.000; -733.000
374.013;  105.300; -449.000; -262.000
374.143;  -66.000; -581.000; -659.000
374.274; -211.400; -987.000; -908.000
374.405;  337.600; -388.000; -276.000
374.536;  710.100; -526.000; -387.000
374.666; 1643.800; -759.000; -807.000
374.797;  285.700; -817.000; -868.000
374.928; 1342.100; -710.000; -560.000
375.058; 1376.400; -535.000; -500.000
375.189;  121.400;  -59.000;  -93.000
375.320; -174.200; -928.000;-1034.000
375.450;  -69.700; -625.000; -616.000
375.581;  -81.300; -526.000; -436.000
375.712;  -64.800; -574.000; -250.000
375.842;  460.800; -438.000; -415.000
375.973;  370.600; -554.000; -513.000
376.103; -130.300; -665.000; -648.000
376.234; -104.500; -531.000; -552.000
376.364;  -91.600; -944.000; -867.000
376.495;  605.000;  925.000;  529.000
376.625;  -21.100; -472.000; -485.000
376.756;   85.200; -709.000; -678.000
376.886; -180.200;-1178.000;-1026.000
377.017;  153.800;-1048.000;-1061.000
377.147;  753.400; -786.000; -782.000
377.278;  162.600;  174.000;  228.000
377.408; -223.000; -801.000; -815.000
377.538; -188.300; -707.000; -693.000
377.669; -134.800; -537.000; -613.000
377.799; -199.700; -645.000; -635.000
377.929; -158.500; -610.000; -428.000
378.060; -217.600; -781.000; -847.000
378.190;  -42.000; -726.000; -531.000
378.320;  -71.800; -401.000; -406.000
378.451;    0.800; -131.000;  -22.000
378.581;   15.900;  -67.000; -110.000
378.711;  310.400; 1035.000;  866.000
378.841;  -33.600; -533.000; -675.000
378.972; -178.000; -871.000; -751.000
379.102;    5.200; -652.000; -579.000
379.232;  -20.700; -126.000;  -73.000
379.362; -175.400;-1001.000; -885.000
379.492;   17.700; -373.000; -424.000
379.623;  207.100;    0.000;  111.000
379.753; -189.300;-1107.000; -974.000
379.883;  377.600;   59.000;  156.000
380.013;  -80.100;-1081.000;-1017.000
380.143; -182.300;-1097.000;-1056.000
380.273; -180.300; -985.000; -861.000
380.403;   24.600; -344.000; -257.000
380.533;  -79.300; -651.000; -664.000
380.663;  161.000;  173.000;  128.000
380.793; -220.500;-1027.000;-1074.000
380.923;   14.900; -103.000;  -34.000
381.053; -171.200; -613.000; -623.000
381.183;  -10.200; -106.000; -248.000
381.313;   57.100; -656.000; -470.000
381.443;   53.800; -692.000; -473.000
381.573;  306.300; -402.000; -409.000
381.703;  395.500;-1249.000;-1095.000
381.833; -279.800;-1454.000;-1336.000
381.963;  222.100; -134.000;  -87.000
382.093; 2291.000; -925.000; -909.000
382.223;  667.900; -713.000; -602.000
382.353;  -40.600; -801.000; -608.000
382.482;  557.500;-1091.000; -964.000
382.612; 1255.400; -872.000; -644.000
382.742;  648.200; -695.000; -622.000
382.872;  372.300; -565.000; -551.000
383.002;  162.100;  347.000; -132.000
383.131;  -20.200; -226.000; -160.000
383.261;  -45.200; -706.000; -768.000
383.391;  620.700; -552.000; -377.000
383.521; 7073.000;  451.000;  263.000
383.650; 1607.000; -947.000; -904.000
383.780;   21.900; -783.000; -656.000
383.910;  257.500;  880.000;  802.000
384.039;   63.600; -794.000; -656.000
384.169;  251.500;-1205.000;-1017.000
384.299;  -46.900; -650.000; -662.000
384.428; -184.600; -764.000; -680.000
384.558;  -44.700; -308.000; -275.000
384.687;  -94.100; -414.000; -334.000
384.817;   78.900;   75.000;   -2.000
384.947;   64.600; -234.000; -141.000
385.076;  562.400;  982.000;  912.000
385.206;  227.000;  369.000;  480.000
385.335;  -39.400; -549.000; -417.000
385.465; -133.200; -655.000; -663.000
385.594;  305.300;  -53.000;  -44.000
385.724;  601.500; -868.000; -838.000
385.853;  217.800; -296.000; -270.000
385.982; 2151.900; -743.000; -787.000
386.112; 3259.200;-1052.000; -871.000
386.241;  199.100; -307.000; -312.000
386.371;   66.500; -174.000;  -87.000
386.500;    1.100; -825.000; -789.000
386.629;   37.300; -874.000; -817.000
386.759;  162.800;  -43.000;   68.000
386.888;   22.300; -170.000; -250.000
387.017; -173.700; -648.000; -620.000
387.147; -173.500; -771.000; -798.000
387.276;    2.700; -410.000; -397.000
387.405;   36.100; -398.000; -342.000
387.535;  -97.300; -452.000; -361.000
387.664;  -55.400; -692.000; -620.000
387.793;  108.200; -198.000; -113.000
387.922;  845.200;  255.000;  200.000
388.052;  -23.400; -576.000; -423.000
388.181;   26.900; -342.000; -472.000
388.310;  -55.300; -889.000; -710.000
388.439; -112.200; -749.000; -742.000
388.568;  309.000;  365.000;  244.000
388.697; 1633.100; -756.000; -653.000
388.826;  253.700; -768.000; -666.000
388.956;   98.000; -285.000; -307.000
389.085;  -23.800; -347.000; -287.000
389.214; -197.900; -842.000; -872.000
389.343; -104.800; -645.000; -413.000
389.472;  902.700;  126.000;  149.000
389.601;  991.400;   91.000;    0.000
389.730;   34.100; -568.000; -687.000
389.859;  123.100;  226.000;   46.000
389.988;  369.400; -423.000; -408.000
390.117;  204.900; -168.000; -146.000
390.246;  -10.500; -331.000; -320.000
390.375;  117.300; -673.000; -626.000
390.504; -123.400; -703.000; -621.000
390.633; -165.000; -672.000; -726.000
390.761; -127.200; -732.000; -645.000
390.890;   55.500;   -4.000; -130.000
391.019;  -55.400; -421.000; -441.000
391.148; -237.600; -826.000; -855.000
391.277; -122.700; -576.000; -493.000
391.406; -157.600; -821.000; -805.000
391.534;   92.700;  574.000; -301.000
391.663; -134.200; -583.000; -645.000
391.792; -130.700; -673.000; -701.000
391.921;  129.000;   -3.000;   15.000
392.050;  249.300; -287.000; -228.000
392.178; -145.300;-1206.000;-1061.000
392.307;  214.800; -758.000; -712.000
392.436;   50.000; -427.000; -641.000
392.564;   76.400;  166.000;   -6.000
392.693; -194.100; -860.000; -682.000
392.822;  327.100; -529.000; -534.000
392.950;   75.700; -880.000; -714.000
393.079;  488.900; -188.000; -328.000
393.208;    8.800; -488.000; -511.000
393.336;    2.400; -170.000; -145.000
393.465;  -73.800; -317.000; -199.000
393.593;   52.600;   62.000;   79.000
393.722; -259.200;-1121.000; -916.000
393.850;  -15.900; -188.000;  -61.000
393.979; -287.300; -926.000; -805.000
394.107; -101.100; -517.000; -537.000
394.236;  -48.100; -570.000; -507.000
394.364;  570.000;  383.000;  206.000
394.493;  785.400; -911.000; -767.000
394.621;   14.400; -955.000; -916.000
394.750; 1623.200; -873.000; -923.000
394.878; 6630.200; -247.000; -149.000
395.007; 8330.300; -721.000; -807.000
395.135;  610.100; -790.000; -721.000
395.263; -154.200;-1038.000;-1040.000
395.392;   50.400;  -25.000; -107.000
395.520; -277.600; -818.000; -679.000
395.648; -172.400; -865.000; -915.000
395.777;  -20.800; -366.000; -405.000
395.905;  -44.700; -449.000; -564.000
396.033;   72.400;  217.000;  172.000
396.162; 1364.400; -399.000; -453.000
396.290; 1175.000;  -17.000;   -2.000
396.418;  154.300; -555.000; -514.000
396.546; -167.500; -571.000; -466.000
396.674; -187.600; -850.000; -878.000
396.803;   20.000;  -72.000;  -23.000
396.931;  179.600; -179.000; -199.000
397.059;  -10.900;-1026.000; -989.000
397.187; -223.800;-1026.000; -975.000
397.315; -216.200; -884.000; -649.000
397.443; -164.800; -592.000; -443.000
397.572; -166.300; -578.000; -424.000
397.700;  -31.700; -607.000; -614.000
397.828;   13.400;  120.000;  -90.000
397.956;  -23.400; -508.000; -478.000
398.084; -102.700; -767.000; -626.000
398.212;  117.400;  137.000;  124.000
398.340;   60.200;  -56.000;  159.000
398.468;   59.700; -390.000; -169.000
398.596; -295.700; -993.000; -953.000
398.724; -207.400; -762.000; -767.000
398.852; -299.900;-1024.000; -976.000
398.980;  -74.300; -560.000; -560.000
399.108; -121.800; -982.000; -735.000
399.236;   82.000;   13.000;    8.000
399.363;   61.000;  222.000;  196.000
399.491; -104.900; -404.000; -398.000
399.619; -249.200; -829.000; -800.000
399.747; -153.400; -859.000; -771.000
399.875;  198.800;  220.000;  234.000
400.003;  -77.500; -359.000; -284.000
400.130; -171.700; -421.000; -341.000
400.258;   -8.600;  -83.000;   38.000
400.386; -126.800; -352.000; -168.000
400.514;  -35.800; -526.000; -587.000
400.641; -221.900; -928.000; -802.000
400.769; -250.200; -979.000; -888.000
400.897; -207.500; -838.000; -793.000
401.025;  -22.100; -166.000; -152.000
401.152;   19.100;  220.000;   38.000
401.280;  -95.100; -430.000; -429.000
401.408; -211.000; -712.000; -576.000
401.535; -142.100; -735.000; -758.000
401.663; -387.100;-1134.000;-1054.000
401.790; -127.500; -514.000; -525.000
401.918;  134.300;  436.000;  405.000
402.046;    1.200;  134.000;  122.000
402.173;  -67.200;  -18.000;    7.000
402.301; -114.400; -519.000; -397.000
402.428;  112.500;  528.000;  383.000
402.556; -258.100;-1188.000; -913.000
402.683;  -30.400;  -20.000;   -1.000
402.811;   34.200;  -37.000; -206.000
402.938;   23.800;   20.000;   27.000
403.066;  333.700; -574.000; -558.000
403.193;  458.400;  299.000;  239.000
403.321;  431.200; -396.000; -574.000
403.448;  523.800;   83.000;   27.000
403.575;  285.700;  -90.000;  -46.000
403.703; -174.400; -732.000; -557.000
403.830;  -81.700; -531.000; -496.000
403.957; -242.200;-1117.000;-1023.000
404.085;  103.700;  -61.000; -172.000
404.212;  205.400;  -50.000;   63.000
404.339;  636.300; -566.000; -306.000
404.467;12985.100; -612.000; -524.000
404.594; 7490.800; -287.000; -227.000
404.721; 1561.900; -869.000; -764.000
404.848;  192.000; -113.000; -202.000
404.976; -228.000; -856.000; -783.000
405.103;   45.400;  -14.000;  -82.000
405.230;   38.800;  190.000;  226.000
405.357;  117.200;  117.000;   44.000
405.484;  602.100;  -49.000;    5.000
405.612;  132.200; -548.000; -563.000
405.739;  -89.600; -488.000; -243.000
405.866;  252.400;  669.000;  385.000
405.993;  -67.700; -398.000; -102.000
406.120; -195.900; -801.000; -887.000
406.247;  -79.200; -323.000; -342.000
406.374;  767.400;  540.000;  629.000
406.501;  102.500; -632.000; -702.000
406.628; -106.800; -621.000; -589.000
406.755; -191.000; -803.000; -620.000
406.882;  -55.400; -228.000; -277.000
407.009; -205.400; -719.000; -628.000
407.136;  104.200; -480.000; -401.000
407.263;  171.900; -939.000; -829.000
407.390; -141.700; -692.000; -614.000
407.517; -323.500;-1139.000;-1187.000
407.644;  -55.800; -332.000; -256.000
407.771;  -99.900; -249.000; -287.000
407.898;   83.800;  168.000;  328.000
408.025; -100.900; -421.000; -313.000
408.151;   25.100;   82.000;  153.000
408.278; -104.200; -267.000; -216.000
408.405; -194.900; -931.000; -899.000
408.532; -122.900; -549.000; -542.000
408.659; -180.400; -677.000; -648.000
408.785; -394.200;-1298.000;-1170.000
408.912;  -88.200; -412.000; -296.000
409.039; -201.500; -610.000; -686.000
409.166; -149.400; -591.000; -555.000
409.292; -190.700; -571.000; -534.000
409.419; -176.500; -665.000; -649.000
409.546; -122.500; -431.000; -192.000
409.672; -176.000; -713.000; -545.000
409.799;  -22.500;  -36.000;   34.000
409.926;  -37.900; -180.000; -179.000
410.052; -317.800;-1127.000;-1091.000
410.179;  -94.000; -368.000; -392.000
410.305; -155.000; -375.000; -493.000
410.432;  -25.600; -220.000; -333.000
410.558; -119.700; -305.000; -380.000
410.685; -171.400; -688.000; -431.000
410.812; -179.800; -409.000; -588.000
410.938; -231.700; -964.000; -808.000
411.065; -183.100; -671.000; -645.000
411.191;    7.700; -189.000; -174.000
411.317; -205.700; -823.000; -742.000
411.444;  -61.700; -317.000; -246.000
411.570; -127.600; -339.000; -294.000
411.697; -185.800; -758.000; -752.000
411.823; -313.000; -989.000; -999.000
411.949;  -20.500;  -56.000;   17.000
412.076; -204.400; -539.000; -519.000
412.202; -206.300; -758.000; -757.000
412.329; -223.600; -798.000; -752.000
412.455; -189.200; -821.000; -657.000
412.581;    3.500;  -15.000;  172.000
412.707;  -93.100; -540.000; -457.000
412.834;   59.100;  156.000;  219.000
412.960; -132.600; -785.000; -784.000
413.086; -181.000; -743.000; -701.000
413.212;  327.300;  604.000;  578.000
413.339; -100.600; -685.000; -701.000
413.465;   24.100; -364.000; -310.000
413.591; -180.700; -757.000; -474.000
413.717;  -90.100; -358.000; -366.000
413.843; -257.800; -839.000; -861.000
413.969;  -52.200;  -47.000; -292.000
414.096; -179.700; -679.000; -679.000
414.222;   32.500;  -33.000;   85.000
414.348;  -49.600; -652.000; -385.000
414.474;  220.600;   38.000;  -52.000
414.600;  -29.800; -126.000; -144.000
414.726;   66.200;  -96.000;  -55.000
414.852;  -83.700; -365.000; -342.000
414.978;  145.200;  104.000;  -18.000
415.104;  132.000;   38.000;   80.000
415.230;   69.500; -329.000; -330.000
415.356;  106.500; -409.000; -514.000
415.482;  438.000;   13.000;  -35.000
415.608;  597.400; -247.000; -323.000
415.734; 2115.600;   67.000;   38.000
415.860;43864.600; -875.000; -767.000
415.986;28548.700; -685.000; -607.000
416.111; 2427.500; -798.000; -652.000
416.237;  545.600; -424.000; -571.000
416.363; 2746.300; -765.000; -733.000
416.489; 8865.600; -324.000; -251.000
416.615;  891.000; -707.000; -742.000
416.741;  -16.000; -677.000; -784.000
416.866; -129.100; -673.000; -736.000
416.992; -192.200; -801.000; -818.000
417.118;   -7.500;  -41.000;  -80.000
417.244;  -63.400; -798.000; -531.000
417.369; -167.600; -801.000; -612.000
417.495;   36.900; -325.000; -254.000
417.621; -161.000;-1015.000; -803.000
417.746;   50.500; -579.000; -572.000
417.872;  173.500; -254.000; -144.000
417.998;  184.500; -515.000; -530.000
418.123; 2606.000;-1073.000; -845.000
418.249;11672.900; -512.000; -601.000
418.374; 1463.400; -916.000; -824.000
418.500;  304.000; -383.000; -482.000
418.626;  277.900;   70.000;  -59.000
418.751;  290.600; -549.000; -448.000
418.877;  488.000; -637.000; -643.000
419.002; 4382.500; -688.000; -560.000
419.128;27495.900; -930.000; -721.000
419.253; 5998.800; -967.000; -837.000
419.379;  840.500; -391.000; -338.000
419.504;  935.800;  325.000;  415.000
419.629; 1172.200; -393.000; -212.000
419.755; 8795.500; -317.000; -254.000
419.880;46050.800;  -98.000;   67.000
420.006;25271.000; -280.000; -221.000
420.131;59867.100; -662.000; -775.000
420.256; 7724.500; -315.000; -316.000
420.382; 1137.300; -665.000; -687.000
420.507;  202.400; -649.000; -778.000
420.632;  231.300; -337.000; -339.000
420.758;  319.800; -251.000; -425.000
420.883; -152.000; -876.000; -672.000
421.008; -148.700; -775.000; -619.000
421.133; -127.000; -509.000; -467.000
421.259;  -65.900; -325.000; -259.000
421.384; -207.100; -834.000; -693.000
421.509; -115.900;-1052.000; -862.000
421.634; 1598.500; -936.000; -820.000
421.759;  620.300; -359.000; -327.000
421.885; -142.000; -717.000; -656.000
422.010; -109.700; -673.000; -542.000
422.135; -269.500; -695.000; -727.000
422.260;  142.000;  340.000;  280.000
422.385;  -45.900;   12.000;  -98.000
422.510;   88.100;  151.000;  -26.000
422.635;   79.300;  -87.000;  -43.000
422.760;  197.500; -766.000; -791.000
422.885;  103.100;  -57.000;  -80.000
423.010;  -15.600; -112.000; -169.000
423.135; -149.400; -481.000; -561.000
423.260;   33.800; -150.000; -245.000
423.385;  153.100;  476.000;  222.000
423.510;   88.400;   71.000;  -22.000
423.635;  160.700;  133.000;   45.000
423.760;  152.300;  383.000;  328.000
423.885;  169.900;  336.000;  391.000
424.010;   70.800;  -68.000;  -13.000
424.135;   -4.500;    5.000;  -33.000
424.259; -115.000; -654.000; -457.000
424.384;  -98.500; -279.000; -272.000
424.509;    9.300; -260.000; -186.000
424.634; -167.200; -761.000; -623.000
424.759;   21.300; -688.000; -544.000
424.883;   12.300; -506.000; -527.000
425.008;  414.500; -502.000; -410.000
425.133; 4411.100; -679.000; -653.000
425.258; 1875.900; -517.000; -381.000
425.382; 1834.600; -867.000; -774.000
425.507; 4119.900; -487.000; -543.000
425.632;  749.700; -802.000; -663.000
425.756; 1073.800; -256.000; -146.000
425.881;16080.800; -831.000; -857.000
426.006;38650.800; -604.000; -355.000
426.130; 5321.600; -696.000; -508.000
426.255;  762.100; -611.000; -491.000
426.379;  373.600; -189.000; -577.000
426.504;  915.700;  660.000;  544.000
426.629; 9065.600; -519.000; -466.000
426.753; 5531.800;   64.000;  -46.000
426.878;  666.300; -252.000; -288.000
427.002;  462.200; -651.000; -668.000
427.127; 3772.200;  -35.000; -158.000
427.251;24984.100;  372.000;  401.000
427.375; 6196.300; -191.000; -173.000
427.500; 3861.900; -616.000; -610.000
427.624; 1200.100; -234.000; -400.000
427.749;  202.400; -216.000; -225.000
427.873;  -51.900; -499.000; -412.000
427.997;  -12.500; -222.000; -230.000
428.122;  211.200;  795.000;  703.000
428.246;  180.300;  433.000;  434.000
428.371; -219.900; -869.000; -773.000
428.495; -155.700; -624.000; -646.000
428.619;  -41.400; -186.000; -117.000
428.743;  118.600;   65.000;  132.000
428.868;   -2.300; -732.000; -643.000
428.992; 2363.600; -219.000; -326.000
429.116;  804.700; -329.000; -357.000
429.240;  466.200;  419.000;  426.000
429.365;   -5.600; -454.000; -574.000
429.489;  -54.700; -638.000; -647.000
429.613;   54.900; -236.000; -177.000
429.737;  143.500; -563.000; -432.000
429.861;  620.300; -247.000; -133.000
429.985;12929.300; -425.000; -305.000
430.109;12611.800; -770.000; -908.000
430.234; 1382.200;   76.000;  -50.000
430.358;  174.700; -250.000; -160.000
430.482;  -98.800; -672.000; -564.000
430.606;  -71.900; -655.000; -375.000
430.730;   34.300; -437.000; -388.000
430.854;  146.300; -909.000; -835.000
430.978; -138.100; -795.000; -764.000
431.102; -132.700; -499.000; -422.000
431.226; -180.800; -874.000; -815.000
431.350;  117.600;  345.000;  422.000
431.474;  -93.600; -661.000; -373.000
431.597; -297.100;-1060.000; -848.000
431.721;  -96.700; -276.000; -267.000
431.845; -229.800; -704.000; -472.000
431.969; -124.400; -304.000; -349.000
432.093; -131.300; -395.000; -317.000
432.217;   21.700;   32.000;   82.000
432.341; -128.200; -523.000; -518.000
432.464;   81.400;   96.000;   40.000
432.588;  348.900; -401.000; -329.000
432.712;  179.300;  -52.000;  -52.000
432.836;  138.600;  213.000;  263.000
432.959;   48.400; -372.000; -311.000
433.083;  238.100;   11.000;    2.000
433.207;  928.300;  285.000;  930.000
433.330;11952.200; -391.000; -200.000
433.454;13143.900; -654.000; -638.000
433.578; 7839.000;  583.000;  278.000
433.701; 1329.700; -623.000; -675.000
433.825;  259.300; -292.000; -299.000
433.949;  288.000;   28.000;  -72.000
434.072;   49.400; -410.000; -323.000
434.196;    7.200; -309.000; -117.000
434.319; 8007.400;25482.000;25124.000
434.443; 1745.200; -656.000; -603.000
434.566; 5791.900;  281.000;   62.000
434.690;  837.800; -637.000; -383.000
434.813;  159.500; -251.000; -173.000
434.937;  -80.400; -569.000; -696.000
435.060;  -74.900; -423.000; -332.000
435.184;  436.400; -492.000; -217.000
435.307;  264.300;  159.000;  102.000
435.431;   23.000;  -40.000;   24.000
435.554; -110.700; -399.000; -240.000
435.677; -105.400; -350.000; -258.000
435.801;  -49.900;  -25.000;   49.000
435.924;   27.000;    1.000;  -67.000
436.048; -244.300;-1019.000; -732.000
436.171;  -79.700; -240.000;  -66.000
436.294;   -1.000; -248.000; -229.000
436.417;  281.400; -963.000; -849.000
436.541; -162.100; -814.000; -840.000
436.664;  -27.500; -242.000; -316.000
436.787;  -12.800;   13.000;  113.000
436.910; -181.400; -792.000; -422.000
437.034;   27.700;  142.000;  143.000
437.157;  134.700;  -11.000;    0.000
437.280; -104.800; -392.000; -292.000
437.403; -164.100; -982.000; -869.000
437.526;  859.600; -903.000; -865.000
437.649; 3118.800; -505.000; -332.000
437.772;  326.800; -692.000; -540.000
437.896;  262.600;  700.000;  544.000
438.019; -152.400; -758.000; -503.000
438.142; -127.000; -596.000; -506.000
438.265;  -25.800; -639.000; -670.000
438.388;  876.200; -520.000; -410.000
438.511;  107.400; -597.000; -394.000
438.634;  -47.400; -247.000; -125.000
438.757; -241.200; -693.000; -619.000
438.880;   12.900;  -34.000;  -57.000
439.003; -145.500; -417.000; -437.000
439.126;  -67.200; -287.000; -167.000
439.248;  -54.700;  -98.000; -139.000
439.371;  -70.200;    9.000;  -53.000
439.494;  110.300;  510.000;  439.000
439.617;  -52.800;   65.000;  -88.000
439.740; -321.300; -968.000; -816.000
439.863; -226.800; -755.000; -595.000
439.986; -205.100; -476.000; -431.000
440.108;  -19.100; -161.000; -112.000
440.231; -285.400; -950.000; -836.000
440.354;  -27.500;  -64.000; -150.000
440.477;   -6.600; -566.000; -542.000
440.599;   13.900; -200.000; -225.000
440.722; -201.100; -709.000; -586.000
440.845;  235.900;  751.000;  928.000
440.968; -166.500; -415.000; -311.000
441.090;  -94.500; -199.000;  -33.000
441.213; -310.100;-1021.000; -825.000
441.336;  -27.500; -159.000;   -5.000
441.458; -139.300; -549.000; -396.000
441.581; -148.400; -628.000; -629.000
441.703;  -97.200; -152.000;   13.000
441.826; -185.500; -557.000; -400.000
441.948;  -48.700;   56.000;   51.000
442.071;  129.000;  555.000;  424.000
442.193; -213.200; -531.000; -485.000
442.316;   75.000;  152.000;   97.000
442.438;  122.000; -233.000;  -10.000
442.561;  216.200;  272.000;  262.000
442.683;  787.000; -809.000; -522.000
442.806; 1604.500;   -8.000;   74.000
442.928;  -73.100; -859.000; -604.000
443.051;  -90.900; -577.000; -373.000
443.173; -151.000; -341.000; -339.000
443.295; -124.600; -263.000; -371.000
443.418;  -74.900; -321.000;  -29.000
443.540;   25.800; -106.000;   -4.000
443.662; -213.100; -563.000; -465.000
443.785;   36.700;  335.000;  199.000
443.907; -166.500; -362.000; -208.000
444.029; -197.700; -767.000; -494.000
444.152; -253.100; -644.000; -554.000
444.274;   38.600;  -18.000;  -24.000
444.396; -197.000; -461.000; -221.000
444.518; -228.700; -691.000; -454.000
444.640; -190.600; -268.000; -111.000
444.763;   17.100;  388.000;  249.000
444.885; -223.800; -432.000; -392.000
445.007;   16.800;   35.000;   86.000
445.129; -212.300; -610.000; -515.000
445.251; -147.700; -372.000; -439.000
445.373; -228.500; -537.000; -386.000
445.495;   69.600;  242.000;  350.000
445.617;  151.200;  853.000;  753.000
445.739;  -80.000; -215.000;  -97.000
445.861;  -39.400; -245.000; -112.000
445.984;  -10.000; -267.000; -101.000
446.105;  328.700; -418.000; -251.000
446.227;  895.700; -176.000;  -19.000
446.349;  -30.400; -358.000; -249.000
446.471; -151.500; -615.000; -448.000
446.593;  -91.800; -316.000;   19.000
446.715;   44.500;  -67.000;   41.000
446.837;  181.300;  697.000;  832.000
446.959; -162.600; -457.000; -478.000
447.081; -229.200; -628.000; -518.000
447.203;  161.900;  862.000;  834.000
447.325; -126.100; -270.000;   42.000
447.446;   81.200;  286.000;  530.000
447.568; -273.200; -921.000; -803.000
447.690;  -86.300; -236.000; -245.000
447.812; -237.700; -798.000; -519.000
447.933;   -1.400;  155.000;  127.000
448.055;  -92.200; -306.000; -261.000
448.177;  293.800;   31.000;   79.000
448.299;   31.800; -935.000; -727.000
448.420;  100.800;  -25.000;  159.000
448.542;  -49.300;   -3.000;   33.000
448.664;   47.100;  109.000;  322.000
448.785;  -45.200;  265.000;   83.000
448.907; -108.000; -614.000; -353.000
449.028;  -89.300; -771.000; -471.000
449.150;  191.900;  492.000;  589.000
449.272; -297.800;-1044.000; -913.000
449.393;  134.000;  612.000;  694.000
449.515; -240.900; -634.000; -581.000
449.636;  -23.100; -264.000; -155.000
449.758;  183.000;  763.000;  622.000
449.879; -153.900; -498.000; -396.000
450.001; -139.200; -149.000;  -49.000
450.122;   -7.100;  -95.000;  162.000
450.244;   38.400;   37.000;  364.000
450.365; -110.700; -495.000; -301.000
450.486;  -14.600;   80.000;  268.000
450.608;  126.500;  393.000;  326.000
450.729;  191.000;  578.000;  645.000
450.850;   97.400; -574.000; -466.000
450.972; 1941.700; -552.000; -389.000
451.093;11472.700;  190.000;  588.000
451.214; 4276.400; -516.000; -337.000
451.336;  863.000;  773.000;  579.000
451.457;  197.500;  264.000;  393.000
451.578;  -22.000; -118.000;  -74.000
451.699; -189.900; -546.000; -540.000
451.821;  -73.600; -284.000;  -50.000
451.942;   71.300;  278.000;  285.000
452.063;  144.800;  228.000;  419.000
452.184; 1388.500;  -54.000;  -49.000
452.305; 2366.600;  103.000;  170.000
452.427;  281.900; -549.000; -301.000
452.548;   14.500;   23.000;   79.000
452.669;  -86.200; -257.000;  -89.000
452.790;  -54.400;    3.000;  -18.000
452.911;    7.200;  195.000;  259.000
453.032;  -79.600; -289.000;  -60.000
453.153;  -49.000;  -29.000;   81.000
453.274;  209.200;  737.000;  868.000
453.395;  -39.600;  -51.000;  175.000
453.516;  354.900; 1317.000; 1388.000
453.637; -116.700; -205.000; -150.000
453.758;  -51.400;   15.000;   69.000
453.879; -193.500; -462.000; -250.000
454.000;  243.400; 1086.000;  948.000
454.121; -177.900; -554.000; -326.000
454.242; -200.300; -599.000; -383.000
454.362;  -63.200;  -99.000;  114.000
454.483;    1.400; -309.000; -229.000
454.604;  159.200;  512.000;  580.000
454.725; -200.800; -627.000; -555.000
454.846; -221.000; -474.000; -406.000
454.967;   22.800;  230.000;  539.000
455.087;  -70.600;  179.000;  153.000
455.208;  103.100;  554.000;  856.000
455.329;  -83.500;  -22.000;   82.000
455.450;  150.000;  473.000;  633.000
455.570; -125.200; -234.000; -211.000
455.691;  -30.900;  201.000;  407.000
455.812; -148.700; -270.000;  -92.000
455.932;  -45.300;  107.000;  -97.000
456.053; -147.100;   36.000;   24.000
456.173; -148.400; -433.000; -355.000
456.294; -230.600; -476.000; -303.000
456.415;  -98.300;  -73.000;   70.000
456.535;  -41.900;  297.000;  273.000
456.656;   -9.200;  132.000;  240.000
456.776;  -67.600;    3.000;  298.000
456.897;   64.700;  308.000;  513.000
457.017;  -93.900; -153.000;   -3.000
457.138; -163.200; -402.000; -249.000
457.258;   -2.200;  263.000;  224.000
457.379;   51.100;  509.000;  521.000
457.499;  -23.900;  443.000;  432.000
457.620; -181.500; -407.000; -231.000
457.740; -151.700; -132.000;  -11.000
457.860;  -50.400;   87.000;   44.000
457.981;  -35.200;  132.000;  124.000
458.101;  -69.300;  -89.000;   40.000
458.221;   24.800;  336.000;  402.000
458.342;  -74.100;   -4.000;  -37.000
458.462;  110.000;  617.000;  352.000
458.582;  -29.000; -302.000; -294.000
458.703;   60.100;  303.000;  154.000
458.823;   37.400;   22.000;  163.000
458.943;  128.600;  341.000;  467.000
459.063;   25.900; 1124.000;  192.000
459.183;    7.000;  328.000;  313.000
459.304;   82.100;  315.000;  517.000
459.424; -110.800; -246.000;  -89.000
459.544;  892.300;  388.000;  764.000
459.664; 1886.400;  499.000;  506.000
459.784;  697.900; 1004.000; 1175.000
459.904;  194.600;  867.000;  744.000
460.024;  226.700;  867.000;  684.000
460.144;   43.800;  449.000;  554.000
460.264;   58.800;  515.000;  327.000
460.385; -145.900; -145.000; -119.000
460.505;  157.000;  905.000;  858.000
460.625; -133.800;  -17.000;  -68.000
460.745;   22.900;  396.000;  541.000
460.864;  -38.500;  153.000;  469.000
460.984;  109.200;  499.000;  573.000
461.104;  339.400; 1656.000; 1775.000
461.224;  118.100;  657.000;  650.000
461.344;  -19.500;  431.000;  360.000
461.464;  -14.100;  258.000;  513.000
461.584;   38.300;  283.000;  466.000
461.704;  -60.100;   58.000;  108.000
461.824;  -56.100;  238.000;  259.000
461.943;  -14.600;  191.000;  130.000
462.063; -114.000;    2.000;  324.000
462.183;  163.800;  639.000;  717.000
462.303;  259.600; 1678.000; 1230.000
462.422;  158.400;  781.000;  840.000
462.542;  -13.000;  271.000;  391.000
462.662;  128.200;  353.000;  380.000
462.782;  573.400;  833.000;  572.000
462.901; 1144.700;  545.000;  717.000
463.021;  630.900; 1702.000; 1638.000
463.141;   49.700;  337.000;  770.000
463.260;   -8.300;  614.000;  474.000
463.380;  117.500;  902.000;  884.000
463.499;  -36.000;  342.000;  332.000
463.619;    1.900;  581.000;  559.000
463.738;  308.800; 1644.000;  903.000
463.858;   80.500;  657.000;  811.000
463.978;   22.400;  542.000;  396.000
464.097;  186.400;  921.000; 1114.000
464.217;  314.300; 1196.000; 1143.000
464.336;  334.100; 1068.000; 1130.000
464.455;    5.100;  328.000;  659.000
464.575;   98.600;  597.000;  602.000
464.694;  396.600; 1204.000; 1179.000
464.814;  334.000; 1190.000; 1138.000
464.933;  197.900; 1095.000; 1027.000
465.052;  263.500; 1412.000; 1054.000
465.172;  202.100;  922.000;  799.000
465.291;  329.100; 1376.000; 1320.000
465.410;   90.500;  462.000;  735.000
465.530;  250.800; 1355.000; 1310.000
465.649;  210.200; 1209.000; 1273.000
465.768;  346.800; 1673.000; 1508.000
465.888;  162.500;  941.000; 1174.000
466.007;  253.900; 1335.000; 1440.000
466.126;   41.400;  721.000;  641.000
466.245;  168.500; 1176.000; 1187.000
466.364;   67.400;  950.000; 1060.000
466.484;  162.600; 1024.000; 1213.000
466.603;  134.800; 1101.000; 1222.000
466.722;  326.900; 1490.000; 1769.000
466.841;  178.300; 1151.000; 1401.000
466.960;  144.800; 1069.000;  972.000
467.079;  310.000; 1971.000; 1786.000
467.198;  190.400; 1238.000; 1181.000
467.317;  224.200; 1768.000; 1162.000
467.436;  218.800; 1709.000; 1261.000
467.555;  297.200; 1796.000; 1746.000
467.674;  199.200; 1227.000; 1329.000
467.793;  150.400; 1376.000; 1374.000
467.912;  234.500; 1658.000; 1539.000
468.031;  303.300; 2038.000; 1930.000
468.150;  333.600; 1842.000; 1837.000
468.269;  442.600; 2313.000; 2090.000
468.388;  473.400; 2168.000; 2339.000
468.507;  585.200; 2884.000; 2903.000
468.626;  658.200; 2555.000; 2541.000
468.744;  335.300; 2018.000; 2174.000
468.863;  453.300; 2312.000; 2523.000
468.982;  241.000; 1503.000; 1555.000
469.101;  549.300; 2788.000; 2692.000
469.220;  366.800; 2333.000; 2176.000
469.338;  539.400; 2935.000; 3051.000
469.457;  503.800; 2719.000; 2545.000
469.576;  745.500; 3953.000; 3784.000
469.695;  533.600; 2877.000; 3066.000
469.813;  946.600; 4148.000; 4192.000
469.932;  917.900; 4255.000; 4485.000
470.051;  949.300; 4075.000; 4161.000
470.169; 1967.900; 4470.000; 4338.000
470.288; 3247.900; 4700.000; 4809.000
470.406; 1776.100; 5059.000; 5194.000
470.525; 1353.800; 6101.000; 5787.000
470.644; 1378.600; 6847.000; 6794.000
470.762; 1700.900; 8397.000; 7873.000
470.881; 1925.800; 8651.000; 8464.000
470.999; 2222.400; 9685.000; 9151.000
471.118; 2360.900;11174.000;10711.000

