
Integration time [ms]: 100.000
Averaging Nr. [scans]: 40
Smoothing Nr. [pixels]: 0
Data measured with spectrometer [name]: 2101012U2
Wave   ;Sample   ;Dark     ;Reference
[nm]   ;[counts] ;[counts] ;[counts] 

197.733;   43.325;  516.000;  404.000
197.879;  -84.450; -610.000; -634.000
198.025;  -50.000; -475.000; -420.000
198.171;  -75.325; -602.000; -612.000
198.317;  -26.425; -401.000; -316.000
198.463;  -69.350; -655.000; -404.000
198.609;   38.900;  181.000; -137.000
198.755;  -80.450; -644.000; -410.000
198.901;  -73.700; -505.000; -424.000
199.047;  -60.500; -615.000; -488.000
199.193;  -23.975; -230.000; -468.000
199.339;  -47.775; -222.000; -369.000
199.485;   41.400;  330.000;  271.000
199.631;    5.100;  227.000;  310.000
199.777;  -45.525; -466.000; -398.000
199.923;  -59.225; -610.000; -424.000
200.069;  -12.175; -141.000;  -58.000
200.215;   57.275;  128.000;  453.000
200.361;   44.125;  243.000;  477.000
200.507;  -67.000; -600.000; -373.000
200.653;  -27.375; -371.000; -194.000
200.798;  -35.475; -215.000; -125.000
200.944;  -12.025; -146.000;  -41.000
201.090;   29.600;   61.000;  222.000
201.236;    3.475; -116.000; -158.000
201.382;  125.350;  874.000;  903.000
201.528;    9.850;  -58.000;  -48.000
201.674;  -50.000; -386.000; -293.000
201.819;  -49.800; -540.000; -439.000
201.965;  -89.025; -699.000; -447.000
202.111;  -37.425; -273.000; -226.000
202.257;  -42.550; -250.000; -238.000
202.402;    3.700;   13.000;  -36.000
202.548;  -42.675; -169.000; -116.000
202.694;   89.875;  410.000; -183.000
202.840;  -78.475; -603.000; -531.000
202.985;  -68.075; -681.000; -639.000
203.131; -107.575; -832.000; -666.000
203.277;  -14.850; -199.000; -262.000
203.423;  -47.750; -434.000; -520.000
203.568;  -25.275; -462.000; -237.000
203.714;  -60.025; -535.000; -542.000
203.860;  -77.325; -682.000; -641.000
204.005;   15.650;  112.000;  167.000
204.151;   69.450;  561.000;  556.000
204.296;  -43.125; -354.000; -221.000
204.442;  -72.625; -600.000; -547.000
204.588;  -81.725; -592.000; -579.000
204.733;   18.925;  178.000;  168.000
204.879; -109.975;-1018.000; -822.000
205.025;    9.725;  -99.000;  126.000
205.170;   -5.925;  -17.000;   94.000
205.316;   77.200;  438.000;  661.000
205.461;  -84.850; -698.000; -554.000
205.607;   98.350;  609.000;  665.000
205.752;  -88.100; -626.000; -551.000
205.898;  -49.250; -501.000; -391.000
206.043;  -63.225; -578.000; -506.000
206.189;  -33.725; -243.000; -285.000
206.334;   79.750;  554.000;  606.000
206.480;   72.300;  409.000;  239.000
206.625;  -92.375; -529.000; -552.000
206.771;  -38.775; -451.000; -373.000
206.916;  -43.825; -210.000; -537.000
207.062;  -74.000; -545.000; -591.000
207.207;  -68.525; -546.000; -443.000
207.353;   52.400;  185.000;  460.000
207.498;   23.700;  196.000;   85.000
207.643;  -52.650; -501.000; -370.000
207.789; -129.225;-1069.000; -910.000
207.934;  -84.675; -665.000; -713.000
208.080;  -15.350; -154.000;   66.000
208.225;   -1.175;  -22.000;  -57.000
208.370;  -88.500; -727.000; -619.000
208.516;  -82.200; -741.000; -487.000
208.661;  -32.075; -127.000;  -69.000
208.806;  -17.600; -165.000; -171.000
208.952; -120.300;-1044.000; -731.000
209.097;   77.975;  378.000;  349.000
209.242;  -44.325; -307.000; -382.000
209.387;   77.300;  392.000;  350.000
209.533;  -60.100; -321.000; -350.000
209.678;   87.000;  472.000;  543.000
209.823;  -56.700; -408.000; -310.000
209.969;  -98.750; -860.000; -757.000
210.114; -103.675; -907.000; -719.000
210.259; -121.900; -939.000; -889.000
210.404;   -4.050; -171.000;  103.000
210.549;   13.950;  108.000;    3.000
210.695;   -5.750;   -3.000;  -95.000
210.840;   39.800;   94.000;   67.000
210.985;  -64.325; -484.000; -303.000
211.130;   72.350;  268.000;  406.000
211.275;   19.850;  207.000;  199.000
211.420;  -58.775; -300.000; -289.000
211.566;  -79.025; -536.000; -489.000
211.711;   14.725;  218.000;  157.000
211.856;  -60.450; -545.000; -519.000
212.001;   17.075;  151.000;   44.000
212.146;   21.250;  153.000;   49.000
212.291;  -16.525; -210.000; -186.000
212.436;   -8.725; -280.000;   -6.000
212.581;  -67.525; -685.000; -653.000
212.726;  -73.425; -487.000; -538.000
212.871;  -39.550; -552.000; -217.000
213.016; -149.800;-1172.000;-1029.000
213.161;   66.225;  406.000;  291.000
213.306;  -75.325; -435.000; -577.000
213.451; -104.475; -778.000; -689.000
213.596;  -40.350; -455.000; -347.000
213.741;  -58.700; -448.000; -538.000
213.886;  -74.450; -498.000; -517.000
214.031;  -23.775; -294.000; -124.000
214.176;  -47.725; -408.000; -341.000
214.321;  -10.425; -296.000; -157.000
214.466;  -18.100; -163.000;  -43.000
214.611;   -5.175;  -61.000;  -10.000
214.756; -123.625; -948.000; -858.000
214.901;   -8.350; -388.000; -226.000
215.046; -122.775; -797.000; -825.000
215.191;   20.675;  128.000;   35.000
215.336;   -4.525; -157.000;  -19.000
215.480;  -59.250; -684.000; -505.000
215.625;  -20.250; -175.000;  -19.000
215.770;  -79.600; -757.000; -662.000
215.915;   -3.700;   -5.000;  -97.000
216.060;    5.850; -113.000;  -21.000
216.205; -118.225; -731.000; -779.000
216.349;  -75.325; -470.000; -533.000
216.494; -117.175; -939.000; -867.000
216.639; -103.400; -823.000; -888.000
216.784;  -95.775; -577.000; -525.000
216.929;   51.150;  392.000;  281.000
217.073;  -11.225; -244.000;  -31.000
217.218;    4.000;   78.000;  -47.000
217.363;  -87.975; -656.000; -618.000
217.507;  -88.850; -623.000; -588.000
217.652; -125.825; -845.000; -874.000
217.797;  -91.325; -708.000; -659.000
217.942; -115.700; -856.000; -720.000
218.086;   74.225;  608.000;  539.000
218.231;  -12.150; -174.000;  -26.000
218.376;  -24.075; -337.000; -229.000
218.520;   -3.175;  -41.000;   96.000
218.665;  -32.450; -338.000; -204.000
218.810;  -38.375; -275.000; -233.000
218.954;   19.950;  201.000;   35.000
219.099; -112.300; -713.000; -963.000
219.243;  -72.625; -589.000; -554.000
219.388;  -30.475; -264.000; -136.000
219.532;   -7.750; -116.000; -116.000
219.677;  -62.325; -564.000; -521.000
219.822;   12.200;   33.000;   89.000
219.966;    2.950;   17.000;  -99.000
220.111;  -37.550; -328.000;  -40.000
220.255;  -95.525; -797.000; -750.000
220.400;  -13.100; -180.000; -146.000
220.544;  -68.175; -516.000; -450.000
220.689;  -53.100; -422.000; -451.000
220.833;  -22.725; -123.000;  -58.000
220.978;  -38.425; -393.000; -563.000
221.122;   38.850;  319.000;  307.000
221.267; -113.075; -906.000; -837.000
221.411;  -74.275; -478.000; -394.000
221.555;   -9.450; -104.000;  -23.000
221.700;  -41.100; -329.000; -222.000
221.844;   45.025;  255.000;  272.000
221.989;  -53.300; -328.000; -311.000
222.133;  -33.350; -289.000; -307.000
222.277;    0.600;    5.000;   78.000
222.422;   14.325;  227.000;  113.000
222.566;  -43.525; -381.000; -214.000
222.711;  -49.475; -414.000; -479.000
222.855;  -80.250; -643.000; -586.000
222.999;  -97.300; -642.000; -717.000
223.144;  -37.050; -195.000; -194.000
223.288;   54.200;  423.000;  251.000
223.432;   20.275;  184.000;  230.000
223.576;   32.075;  152.000;  -21.000
223.721;   39.725;  364.000;  273.000
223.865;  -61.650; -472.000; -475.000
224.009;  228.975; 1673.000; 1631.000
224.153;  -89.375; -660.000; -671.000
224.298;  -68.500; -531.000; -489.000
224.442;   -4.275;  -74.000;  -33.000
224.586;   -9.500; -169.000; -106.000
224.730;  -93.425; -858.000; -670.000
224.875; -108.825; -739.000; -688.000
225.019;   20.175;  102.000;  188.000
225.163;   46.400;  208.000;  341.000
225.307;   15.675;   97.000;  -91.000
225.451;   37.225;  360.000;  481.000
225.595;   39.800;  264.000;  176.000
225.739;  -23.375; -170.000;  -94.000
225.884;    7.650;   86.000;    5.000
226.028;  -97.375; -760.000; -626.000
226.172;  -45.100; -260.000; -273.000
226.316; -105.675; -941.000; -902.000
226.460;  -62.325; -645.000; -493.000
226.604;  -40.725; -406.000; -400.000
226.748; -101.550; -836.000; -733.000
226.892;  -36.775; -227.000; -181.000
227.036;  -43.200; -537.000; -447.000
227.180;  -58.250; -551.000; -375.000
227.324;  -59.575; -561.000; -580.000
227.468; -127.300; -819.000; -717.000
227.612;   15.275;  242.000;  -28.000
227.756; -100.625; -845.000; -698.000
227.900;   49.750;  342.000;  441.000
228.044;  -67.250; -509.000; -290.000
228.188;   52.900;  448.000;  568.000
228.332;  -80.425; -546.000; -472.000
228.476;  -33.725; -223.000; -149.000
228.620;  -21.000; -210.000; -150.000
228.764;   70.925;  431.000;  349.000
228.908;  -22.150; -155.000;   30.000
229.052;  -61.800; -615.000; -528.000
229.195;  -11.625; -172.000;   13.000
229.339;  -25.200; -235.000; -305.000
229.483;  -19.375;    5.000; -162.000
229.627;    2.625; -156.000;  139.000
229.771;  -46.725; -218.000; -294.000
229.915;   17.650;  230.000;   79.000
230.059;  -90.750; -648.000; -663.000
230.202;  -41.100; -370.000; -317.000
230.346;  -16.350; -107.000;  107.000
230.490;  -62.275; -489.000; -521.000
230.634; -108.350; -736.000; -553.000
230.777;   76.650;  478.000;  509.000
230.921;  -51.750; -450.000; -359.000
231.065;  -39.575; -246.000; -286.000
231.209;   23.675;  261.000;  265.000
231.352;   34.050;   54.000;   40.000
231.496;   12.425;  568.000;  188.000
231.640;  -71.650; -693.000; -621.000
231.783;   54.400;  546.000;  525.000
231.927;  -41.375; -294.000; -365.000
232.071; -119.225; -962.000; -736.000
232.214; -113.825; -980.000; -764.000
232.358; -100.700; -683.000; -599.000
232.502;    1.025;  -19.000;    7.000
232.645; -139.925;-1090.000; -927.000
232.789;  -20.025; -257.000; -218.000
232.933;  -52.575; -407.000; -224.000
233.076; -124.900;-1038.000; -897.000
233.220; -112.675; -752.000; -777.000
233.363;  -68.950; -669.000; -477.000
233.507;   51.150;  371.000;  129.000
233.650; -101.300; -764.000; -834.000
233.794;   42.000;  438.000;  461.000
233.938;  -61.675; -530.000; -362.000
234.081;  -18.575;  -93.000;   31.000
234.225;  -64.000; -631.000; -539.000
234.368; -116.575; -773.000; -723.000
234.512;  -41.625; -385.000; -299.000
234.655;  -86.350; -582.000; -555.000
234.798;  -68.650; -493.000; -466.000
234.942; -120.750; -884.000;-1002.000
235.085;  -69.825; -651.000; -443.000
235.229;  -74.375; -405.000; -410.000
235.372;  -50.700; -247.000; -191.000
235.516;  -66.175; -397.000; -321.000
235.659;   26.075;   92.000;  121.000
235.802;   -1.700;  -38.000;  -22.000
235.946;   36.650;  335.000;  215.000
236.089;   33.750;  126.000;  250.000
236.233;   43.550;  275.000;  298.000
236.376;  -43.900; -235.000; -378.000
236.519;  -51.100; -297.000; -319.000
236.663;  -16.650; -215.000; -117.000
236.806; -132.400;-1029.000; -999.000
236.949;   80.500;  543.000;  431.000
237.092;   61.000;  412.000;  391.000
237.236;  -84.375; -589.000; -502.000
237.379;   59.675;  352.000;  428.000
237.522; -117.650; -879.000; -768.000
237.666;  -20.225; -271.000;   18.000
237.809; -127.650; -851.000; -823.000
237.952;   48.650;  469.000;  271.000
238.095;  -70.675; -447.000; -442.000
238.238;   80.650;  688.000;  700.000
238.382;   -9.825;  166.000;  103.000
238.525;  -66.675; -598.000; -511.000
238.668; -135.950;-1060.000; -985.000
238.811;  -86.025; -638.000; -643.000
238.954;  -59.000; -483.000; -334.000
239.097;   98.250;  617.000;  664.000
239.241;   34.675;  394.000;  326.000
239.384;  -32.375; -254.000; -214.000
239.527;  -61.400; -424.000; -224.000
239.670; -131.925; -994.000;-1091.000
239.813; -104.750; -696.000; -658.000
239.956;   90.225;  579.000;  473.000
240.099; -116.050; -778.000; -725.000
240.242;   67.075;  428.000;  432.000
240.385;   38.825;  466.000;  450.000
240.528;  -72.100; -706.000; -473.000
240.671;   12.000;  189.000;  134.000
240.814;  -47.425; -441.000; -158.000
240.957; -103.225; -767.000; -578.000
241.100;  -88.175; -779.000; -755.000
241.243; -148.950;-1234.000; -893.000
241.386;  -51.175; -508.000; -379.000
241.529;  -95.225; -735.000; -547.000
241.672;  -50.675; -566.000; -495.000
241.815; -100.500; -832.000; -808.000
241.958;  -27.075; -125.000; -182.000
242.101;  -74.375; -545.000; -390.000
242.244;  -44.825; -270.000; -325.000
242.387;  -28.550; -304.000; -246.000
242.530;   45.800;  470.000;  134.000
242.673;  -55.600; -381.000; -309.000
242.815; -119.375; -925.000; -899.000
242.958;  -76.075; -482.000; -381.000
243.101;   21.550;  132.000;  187.000
243.244;  -91.475; -564.000; -521.000
243.387;  -46.700; -313.000; -316.000
243.530;  -97.950; -657.000; -674.000
243.672;   -4.075;   43.000;  -92.000
243.815;  -55.425; -355.000; -283.000
243.958;    8.275;   98.000;  -26.000
244.101;   10.425;   59.000;  -16.000
244.243;  -26.300;  -47.000;  101.000
244.386; -107.175; -761.000; -630.000
244.529;  -20.025; -132.000; -139.000
244.672; -146.350;-1154.000; -951.000
244.814; -100.650; -621.000; -794.000
244.957;  -38.375; -380.000; -304.000
245.100;  -62.525; -489.000; -489.000
245.242;  -52.600; -387.000; -374.000
245.385;   -7.400;  -59.000;  -39.000
245.528; -123.525; -871.000; -705.000
245.670;   79.950;  612.000;  634.000
245.813;  -93.225; -599.000; -547.000
245.956;  -32.450; -324.000; -275.000
246.098;  -69.525; -508.000; -650.000
246.241;   -2.825;  194.000;   48.000
246.383;  -21.700; -119.000;  -73.000
246.526;  -86.750; -454.000; -525.000
246.669; -121.850; -889.000; -780.000
246.811;   16.125;  172.000;   -1.000
246.954;  -76.925; -512.000; -426.000
247.096;  -20.600;  -84.000;   -6.000
247.239;  -78.950; -482.000; -445.000
247.381;  -69.950; -647.000; -488.000
247.524;   81.200;  645.000;  679.000
247.666;   -2.125;   58.000;   11.000
247.809; -120.200; -887.000; -691.000
247.951;   -1.050;  -75.000;  138.000
248.094;   21.800;  432.000;  308.000
248.236; -162.300;-1262.000;-1238.000
248.378;    3.100; -356.000;  -81.000
248.521;  -27.800; -334.000; -337.000
248.663;  -46.300; -236.000; -267.000
248.806;  -12.925; -300.000; -266.000
248.948;  -95.275; -886.000; -763.000
249.090;  -51.200; -428.000; -398.000
249.233;  -57.325; -344.000; -381.000
249.375;  -65.525; -474.000; -451.000
249.518;  -17.950;  -83.000; -133.000
249.660;   -5.150; -103.000;    3.000
249.802; -176.275;-1303.000;-1189.000
249.945;  -67.750; -612.000; -540.000
250.087; -108.975; -834.000; -768.000
250.229;  -53.825; -362.000; -480.000
250.371;  -74.725; -494.000; -439.000
250.514;  -54.950; -310.000; -244.000
250.656;   -1.350;   69.000;  102.000
250.798; -118.600; -849.000; -800.000
250.940;  -64.500; -322.000; -322.000
251.083;  -20.525; -335.000; -111.000
251.225;   53.325;  338.000;  310.000
251.367;  -35.825; -274.000; -373.000
251.509;  -47.100; -265.000; -210.000
251.651;  -92.425; -731.000; -671.000
251.794;   48.050;  538.000;  632.000
251.936; -111.750; -821.000; -747.000
252.078;  -79.875; -540.000; -461.000
252.220;  -76.525; -645.000; -477.000
252.362;   73.100;  344.000;  462.000
252.504;  -70.125; -677.000; -584.000
252.646; -113.650; -875.000; -722.000
252.788;    6.250;   14.000; -128.000
252.931;  -45.950; -257.000; -253.000
253.073;  -37.975; -376.000; -317.000
253.215;    1.425;  141.000;  122.000
253.357;  -24.825;   82.000; -153.000
253.499;  -57.625; -374.000; -234.000
253.641;  -89.150; -749.000; -594.000
253.783;  -99.875; -609.000; -527.000
253.925;  -92.050; -586.000; -591.000
254.067; -106.050; -744.000; -667.000
254.209;  -27.950; -391.000; -259.000
254.351; -125.075; -865.000; -883.000
254.493;  -72.050; -441.000; -417.000
254.635; -122.275; -936.000; -818.000
254.777;  -93.475; -752.000; -687.000
254.918;  -69.925; -512.000; -430.000
255.060;  -50.125; -551.000; -395.000
255.202;  -61.750; -473.000; -261.000
255.344;  -86.650; -658.000; -455.000
255.486;  -78.300; -471.000; -406.000
255.628; -110.625; -780.000; -781.000
255.770;  -93.725; -676.000; -536.000
255.912;  -76.225; -559.000; -468.000
256.053;  -93.375; -730.000; -508.000
256.195;  154.700; 1008.000;  903.000
256.337; -100.975; -861.000; -595.000
256.479;   63.550;  532.000;  416.000
256.621;  -49.800; -394.000; -212.000
256.762;  -86.050; -789.000; -742.000
256.904;   49.750;  485.000;  487.000
257.046;  -45.600; -381.000; -271.000
257.188;  -47.950; -351.000; -264.000
257.329;  -76.150; -525.000; -464.000
257.471; -132.775; -939.000; -807.000
257.613;  -59.425; -584.000; -498.000
257.755; -141.025;-1073.000; -982.000
257.896;   36.525;  286.000;  392.000
258.038;  -80.425; -403.000; -352.000
258.180;  -34.975; -354.000; -279.000
258.321;  -93.525; -581.000; -457.000
258.463;   -1.450;  -71.000;  133.000
258.605;  -87.975; -562.000; -570.000
258.746; -104.350; -886.000; -772.000
258.888; -154.525;-1026.000;-1020.000
259.029;    3.750;  121.000;   -8.000
259.171;  -97.600; -614.000; -550.000
259.313;   -5.550;  -49.000;  -47.000
259.454;  -76.950; -536.000; -414.000
259.596;  -58.300; -483.000; -390.000
259.737;  -80.300; -590.000; -474.000
259.879;   47.700;  217.000;  311.000
260.020;   97.600;  901.000;  636.000
260.162;  -19.225; -146.000; -253.000
260.303; -120.050; -768.000; -687.000
260.445;  -90.125; -609.000; -613.000
260.586;   25.225;  392.000;  157.000
260.728;  -49.300; -360.000; -248.000
260.869;  -64.725; -350.000; -343.000
261.011;   83.925;  706.000;  537.000
261.152;  -67.250; -479.000; -319.000
261.293;  -81.325; -576.000; -595.000
261.435;  -35.900; -219.000; -184.000
261.576;  -51.700; -455.000; -325.000
261.718;   56.550;  420.000;  470.000
261.859; -124.350; -940.000; -949.000
262.000; -132.875; -951.000;-1016.000
262.142;   -8.950;  -52.000;  -60.000
262.283; -130.800; -808.000; -691.000
262.424;  -92.700; -666.000; -625.000
262.566; -150.800;-1161.000; -983.000
262.707; -108.775; -840.000; -830.000
262.848; -125.450; -769.000; -726.000
262.990;  -42.775; -362.000; -345.000
263.131;   65.350;  650.000;  681.000
263.272;   -1.900;  -61.000;  -41.000
263.413;  -95.150; -589.000; -561.000
263.555;  -73.450; -669.000; -143.000
263.696;  -93.750; -550.000; -641.000
263.837;  -60.425; -449.000; -551.000
263.978;  -10.600;   -5.000;  -77.000
264.119;  -36.475; -283.000; -264.000
264.261; -123.700; -847.000; -630.000
264.402;   -7.175;   33.000;   40.000
264.543;  -80.975; -509.000; -524.000
264.684;   -9.375;   61.000;  -50.000
264.825;  -86.475; -816.000; -538.000
264.966;   -3.325;  -84.000;  -67.000
265.107; -107.475; -646.000; -670.000
265.248; -123.025; -825.000; -812.000
265.390;  -13.350;  152.000;   -9.000
265.531;  -21.300; -238.000; -107.000
265.672;  -97.250; -557.000; -630.000
265.813;   55.750;  563.000;  439.000
265.954; -143.700; -959.000; -940.000
266.095;  -14.250; -372.000; -322.000
266.236;  -93.725; -686.000; -548.000
266.377;  -37.775; -243.000; -297.000
266.518;  -68.475; -619.000; -547.000
266.659;   33.075;  170.000;  268.000
266.800;   11.550;   83.000;   85.000
266.941;  -87.050; -487.000; -478.000
267.082;   31.650;  354.000;   99.000
267.223;  -49.150; -344.000; -273.000
267.364; -118.875; -892.000; -686.000
267.504;   -6.750;    3.000;  135.000
267.645;  -11.050;  160.000;   67.000
267.786;  -28.900; -147.000;  -86.000
267.927;  -80.250; -473.000; -379.000
268.068;  -21.375; -186.000;  -61.000
268.209;  -39.350; -175.000; -413.000
268.350;  -55.825; -388.000; -532.000
268.490;  -86.625; -648.000; -521.000
268.631;   42.000;  127.000;  225.000
268.772; -117.975; -874.000; -647.000
268.913;  -60.875; -328.000; -476.000
269.054;  -28.200; -117.000;   12.000
269.194;  -44.925; -418.000; -402.000
269.335; -166.825;-1137.000;-1074.000
269.476;  -29.200;   33.000;  -35.000
269.617;  -52.825; -347.000; -392.000
269.757;  -83.475; -713.000; -646.000
269.898; -107.475; -856.000; -613.000
270.039;  -66.150; -415.000; -405.000
270.180; -135.975; -952.000; -816.000
270.320;  -32.675; -190.000; -250.000
270.461;  -35.025; -277.000; -249.000
270.602;   -6.725; -186.000; -156.000
270.742; -127.400; -868.000; -943.000
270.883;  -52.150; -442.000; -390.000
271.023;  -68.750; -358.000; -357.000
271.164;  -72.800; -607.000; -528.000
271.305; -104.650; -666.000; -654.000
271.445;  -88.150; -722.000; -683.000
271.586;  -66.100; -462.000; -283.000
271.726;  -47.025; -397.000; -322.000
271.867;  -61.800; -594.000; -534.000
272.008;  162.075; -473.000; -285.000
272.148;  125.700;  462.000;  468.000
272.289;   19.375; -113.000; -181.000
272.429;    8.200;   19.000;  185.000
272.570;  -92.775; -633.000; -737.000
272.710; -102.350; -825.000; -775.000
272.851;  -26.525;  113.000; -130.000
272.991; -166.975;-1173.000;-1077.000
273.131;  -55.350; -419.000; -459.000
273.272;  -91.550; -683.000; -723.000
273.412;    2.325; -143.000;  -31.000
273.553;  -54.875; -488.000; -507.000
273.693;  123.925;  913.000;  858.000
273.834;  -96.675; -894.000; -692.000
273.974;  -84.950; -664.000; -615.000
274.114;  -99.725; -772.000; -560.000
274.255;   63.775;  414.000;  373.000
274.395;   -4.350; -180.000; -125.000
274.535;   34.175;  199.000;  350.000
274.676;   27.600;  225.000;   94.000
274.816;   -2.150;  110.000;   34.000
274.956; -100.600; -624.000; -690.000
275.097;  -77.650;-1014.000; -922.000
275.237; -109.725; -913.000; -803.000
275.377;  -98.500; -778.000; -689.000
275.517; -155.525; -878.000; -937.000
275.658;  -47.300; -590.000; -555.000
275.798;  -63.175; -606.000; -413.000
275.938;   19.500;  215.000;  323.000
276.078;  -94.950; -626.000; -395.000
276.218;   -0.625;   99.000;  104.000
276.359; -137.275;-1026.000;-1024.000
276.499;  -70.125; -605.000; -446.000
276.639;  -29.675; -305.000; -151.000
276.779;  -46.350; -475.000; -357.000
276.919; -110.850; -783.000; -624.000
277.059;  -23.800; -261.000; -212.000
277.199;  -52.200; -357.000; -259.000
277.340;   38.425;  287.000;  175.000
277.480; -126.050; -840.000; -693.000
277.620;   21.675;  192.000;   16.000
277.760; -191.375;-1533.000;-1294.000
277.900;    7.025;  113.000;   33.000
278.040;    4.325;  137.000;  159.000
278.180;   39.875;  270.000;  170.000
278.320;    8.425;   21.000;   56.000
278.460;  -66.275; -443.000; -469.000
278.600;  -83.025; -708.000; -598.000
278.740;   43.350;  448.000;  224.000
278.880;  -73.575; -768.000; -791.000
279.020;  -16.100; -194.000; -144.000
279.160; -104.300; -672.000; -595.000
279.300; -122.325; -926.000; -873.000
279.440;  -85.625; -709.000; -622.000
279.579;  -20.850;-1014.000; -929.000
279.719;  -51.750; -410.000; -394.000
279.859;   68.850;   -4.000;   41.000
279.999;   17.725; -208.000;  101.000
280.139;  -18.100; -435.000; -387.000
280.279;  -77.700; -708.000; -745.000
280.419;  -22.300; -229.000; -147.000
280.559;  -36.700; -259.000; -180.000
280.698;  -77.150; -790.000; -639.000
280.838; -111.750; -778.000; -800.000
280.978; -111.400; -846.000; -790.000
281.118; -118.000; -811.000; -704.000
281.257;    0.975;   24.000;    6.000
281.397; -128.100;-1094.000; -960.000
281.537;  -80.625; -599.000; -712.000
281.677;  -28.700; -150.000; -101.000
281.816;  -97.900; -700.000; -630.000
281.956;  -34.700; -193.000; -257.000
282.096;  -63.400; -539.000; -396.000
282.235; -109.100; -672.000; -638.000
282.375;  -21.725; -243.000;  -98.000
282.515; -114.825; -715.000; -707.000
282.654;   14.525;   29.000;  106.000
282.794;   21.475;  388.000;  244.000
282.934;  -56.750; -530.000; -491.000
283.073; -139.025;-1030.000; -857.000
283.213;  -61.975; -460.000; -467.000
283.353;  -52.400; -408.000; -349.000
283.492;  -32.900; -264.000; -296.000
283.632;  -52.100; -254.000; -168.000
283.771;  -93.525; -859.000; -730.000
283.911;  -65.600; -369.000; -260.000
284.050;  -99.775; -794.000; -748.000
284.190; -175.500;-1229.000;-1096.000
284.329; -158.200;-1055.000; -964.000
284.469;  -90.250; -516.000; -591.000
284.608;  -59.450; -559.000; -598.000
284.748;  -86.025; -614.000; -570.000
284.887;  -17.725;  -87.000;  -20.000
285.027; -126.025; -844.000; -892.000
285.166;  -37.075; -192.000; -249.000
285.306;  -16.000; -116.000;  -33.000
285.445;  -52.400; -229.000; -343.000
285.584;  -88.875; -630.000; -494.000
285.724;  -44.000; -282.000; -322.000
285.863; -113.400; -857.000; -507.000
286.002;  -57.100; -366.000; -276.000
286.142; -104.950; -715.000; -622.000
286.281;  -83.875; -525.000; -493.000
286.420;  -81.800; -554.000; -417.000
286.560;   96.050;  653.000;  623.000
286.699; -146.775; -958.000; -912.000
286.838;  -90.050; -590.000; -591.000
286.978; -104.800; -533.000; -537.000
287.117; -131.800;-1085.000; -950.000
287.256;  -33.725; -228.000; -211.000
287.395;  -60.475; -197.000; -378.000
287.535;  -61.925; -370.000; -298.000
287.674;  -82.425; -509.000; -484.000
287.813;   58.225;  661.000;  533.000
287.952; -130.600;-1010.000; -871.000
288.091; -157.925;-1049.000; -915.000
288.231;    1.025;   13.000;   15.000
288.370; -173.125;-1217.000;-1200.000
288.509;  -93.450; -728.000; -645.000
288.648;  -83.550; -770.000; -548.000
288.787;  -37.825; -243.000;  -87.000
288.926;  -63.600; -454.000; -475.000
289.065;  100.750;  859.000;  672.000
289.204;  -65.750; -377.000; -217.000
289.344;  -82.400; -791.000; -690.000
289.483;   14.750;  416.000;  304.000
289.622;  -33.675; -291.000; -149.000
289.761;  -18.500; -309.000; -166.000
289.900; -116.975; -785.000; -626.000
290.039;  -21.700;  -12.000;  -95.000
290.178;  -48.750; -274.000; -180.000
290.317;  -87.875; -618.000; -479.000
290.456;  -63.750; -463.000; -451.000
290.595; -148.425; -961.000; -833.000
290.734; -148.475; -904.000; -891.000
290.873;  -71.400; -456.000; -420.000
291.011; -123.350; -833.000; -843.000
291.150; -107.100; -770.000; -682.000
291.289;  -21.675; -343.000; -110.000
291.428;  -96.875; -599.000; -480.000
291.567;  -57.950; -370.000; -442.000
291.706;  -12.375;  109.000;  154.000
291.845;  -90.725; -597.000; -505.000
291.984; -164.950;-1234.000;-1061.000
292.122;   87.225;  602.000;  582.000
292.261;   49.075;  620.000;  463.000
292.400;   -1.575; -144.000;  211.000
292.539; -127.850; -959.000; -813.000
292.678;  -38.800; -325.000; -300.000
292.816; -155.600;-1136.000; -965.000
292.955;  -89.400; -844.000; -684.000
293.094;  -27.675; -173.000; -337.000
293.233;  -52.525; -556.000; -400.000
293.371;  -34.300; -225.000;  -84.000
293.510; -115.925; -866.000; -780.000
293.649; -135.125; -959.000; -924.000
293.787;  -82.775;-1083.000;-1012.000
293.926;  -15.850; -113.000;  -32.000
294.065;  -48.150; -379.000; -290.000
294.203;   40.475;  298.000;  406.000
294.342;   16.600;   74.000;  156.000
294.481; 6289.625;51180.000; -836.000
294.619;  -29.575; -425.000; -582.000
294.758; -150.250;-1230.000;-1137.000
294.896;   58.375; -125.000;    5.000
295.035; -130.800;-1040.000;-1006.000
295.174; -113.775;-1082.000; -954.000
295.312;  -43.450; -323.000; -203.000
295.451;  -22.350; -307.000; -428.000
295.589;  -65.675; -389.000; -518.000
295.728;   21.250; -292.000; -165.000
295.866;   -4.875;  -36.000;  -51.000
296.005;  -68.125; -584.000; -341.000
296.143;  -78.425; -558.000; -596.000
296.282; -111.850; -957.000; -881.000
296.420;  -98.550; -657.000; -557.000
296.559;  -72.925; -892.000; -633.000
296.697;   -2.250; -847.000; -665.000
296.835;   20.200;-1141.000;-1002.000
296.974;   49.575;  -23.000;   39.000
297.112;   -3.400; -443.000; -504.000
297.251;  -91.200; -815.000; -755.000
297.389;   57.775; -576.000; -438.000
297.527;   25.775; -145.000;  -83.000
297.666;  -52.175; -486.000; -438.000
297.804;  -56.700; -404.000; -264.000
297.942;  -12.275; -136.000; -161.000
298.081;   -7.025; -183.000;   63.000
298.219;   52.000;  -17.000;  -19.000
298.357;   43.575; -144.000;  -71.000
298.495;   11.725; -810.000; -812.000
298.634;   59.200;  245.000;  219.000
298.772;   42.725; -220.000; -338.000
298.910;  -47.225; -309.000; -182.000
299.048;  -15.675; -130.000; -153.000
299.187;  -37.575; -350.000; -250.000
299.325;   11.450;   52.000;  122.000
299.463;   36.875; -389.000; -299.000
299.601;   94.475; -327.000; -271.000
299.739; -127.900; -908.000; -883.000
299.877;  -84.075; -791.000; -703.000
300.016;  -72.000;-1095.000; -935.000
300.154;  141.075;  -19.000; -161.000
300.292;   27.700; -428.000; -348.000
300.430;    3.675; -408.000; -291.000
300.568; -114.175; -940.000; -874.000
300.706;  -52.000; -366.000; -469.000
300.844; -102.675;-1108.000; -979.000
300.982;  103.725;  246.000;  282.000
301.120; -125.450; -965.000; -866.000
301.258;  -63.925; -812.000; -705.000
301.396;   27.550;  104.000;  -41.000
301.534;   22.775; -218.000; -293.000
301.672;  -36.450; -664.000; -521.000
301.810;    1.075; -613.000; -545.000
301.948;   96.650;   53.000;  149.000
302.086;  532.900; -250.000;  -32.000
302.224;  797.350; -610.000; -585.000
302.362;   12.650; -558.000; -622.000
302.500;  -55.750; -923.000; -893.000
302.638;   90.925;  128.000;  245.000
302.776;  -24.750; -352.000; -408.000
302.913;   52.625;  447.000;  236.000
303.051;  -14.975;  -86.000;  -23.000
303.189;   43.350;   90.000;  118.000
303.327;  -51.275; -341.000; -256.000
303.465;  -78.500; -832.000; -588.000
303.603;  -99.700; -805.000; -604.000
303.740;   92.325;  417.000;  241.000
303.878;    1.800; -800.000; -759.000
304.016; -100.625; -915.000; -790.000
304.154; -129.950;-1123.000;-1152.000
304.291;  -41.825; -505.000; -554.000
304.429;    2.775;  102.000;   74.000
304.567; -129.950; -908.000; -893.000
304.705;  -64.575; -408.000; -515.000
304.842;   67.050; -616.000; -540.000
304.980;   34.575;  215.000;   35.000
305.118;   17.125; -367.000; -365.000
305.255;  -94.375; -945.000; -927.000
305.393;   49.325;  178.000;  239.000
305.531; -110.050;-1173.000; -956.000
305.668;  -66.350; -663.000; -582.000
305.806;   69.800; -358.000; -439.000
305.943;   81.750; -629.000; -637.000
306.081;   40.550; -378.000; -267.000
306.219; -104.325; -863.000; -748.000
306.356;   -1.950;  158.000;   27.000
306.494;  123.150;  981.000;  761.000
306.631;  -18.200;  -11.000;  -55.000
306.769;   -9.075; -613.000; -485.000
306.906;  -27.950; -284.000; -258.000
307.044;  -60.350; -473.000; -488.000
307.181;  -68.675; -410.000; -332.000
307.319;    8.550;  112.000;   87.000
307.456; -187.600;-1191.000;-1153.000
307.594; -110.925; -980.000; -727.000
307.731;  -26.850; -371.000; -164.000
307.868;   -7.800;  -15.000;   20.000
308.006; -152.575; -961.000; -847.000
308.143;  -63.125; -618.000; -330.000
308.281;  110.125;  -37.000; -254.000
308.418;  -44.175; -748.000; -640.000
308.555;  -80.725; -400.000; -250.000
308.693;  -70.700; -577.000; -573.000
308.830; -116.925; -712.000; -657.000
308.967;  -17.225; -215.000;  -95.000
309.105;  -51.200; -507.000; -396.000
309.242;    0.700; -468.000; -367.000
309.379;  192.550; -577.000; -655.000
309.517;  -78.475; -936.000; -948.000
309.654; -114.025; -910.000; -734.000
309.791;  -66.450; -662.000; -580.000
309.928; -116.100; -977.000; -914.000
310.065;  167.925;  819.000;  697.000
310.203;  -24.100; -825.000; -850.000
310.340;  -17.575; -465.000; -321.000
310.477;  -75.950; -412.000; -516.000
310.614;  -71.975; -383.000; -473.000
310.751;  -77.100; -427.000; -518.000
310.889;  -30.575;    1.000;   11.000
311.026; -166.100;-1161.000; -939.000
311.163;  -63.100; -386.000; -380.000
311.300;  -95.725; -512.000; -479.000
311.437;  -84.125; -658.000; -619.000
311.574; -162.050;-1226.000; -985.000
311.711;  -77.450; -595.000; -433.000
311.848;  -40.850; -380.000; -388.000
311.985;   15.925;  270.000;   93.000
312.122; -119.100; -932.000; -762.000
312.259; -116.100; -941.000; -994.000
312.396;  -91.325; -508.000; -551.000
312.533; -101.100; -812.000; -790.000
312.670; -147.375;-1070.000; -898.000
312.807;  -45.325; -352.000; -367.000
312.944;  -78.275; -513.000; -611.000
313.081;  -31.025; -150.000; -415.000
313.218; -112.000;-1111.000; -867.000
313.355;    6.350; -531.000; -449.000
313.492;    0.625; -455.000; -292.000
313.629;  124.550;  815.000;  735.000
313.766; -160.975;-1176.000;-1008.000
313.902;   -9.650; -186.000;   21.000
314.039;  -60.225; -372.000; -289.000
314.176;   38.625;  286.000;  192.000
314.313;  -79.300; -569.000; -473.000
314.450;  -77.100; -788.000; -684.000
314.587;  -60.900; -468.000; -480.000
314.723;    2.400;  -78.000;  130.000
314.860;   16.275;  318.000;  332.000
314.997;   26.450;  223.000;  142.000
315.134;  -50.850; -385.000; -368.000
315.270;  -39.725; -480.000; -496.000
315.407; -128.950;-1094.000; -967.000
315.544;  -61.175; -657.000; -538.000
315.681;  -75.325; -681.000; -565.000
315.817;   15.225; -133.000; -176.000
315.954;   14.175; -613.000; -392.000
316.091; -133.175;-1045.000;-1023.000
316.227;  -19.175;  -71.000; -179.000
316.364;   -7.350;   23.000;    6.000
316.500;  -56.350; -113.000; -300.000
316.637;  -40.925; -181.000; -302.000
316.774;  -85.125; -625.000; -358.000
316.910;  -88.150; -598.000; -629.000
317.047;  -70.675; -487.000; -351.000
317.183;  -40.825; -435.000; -566.000
317.320;  -32.750; -367.000; -321.000
317.456;  -72.050; -733.000; -805.000
317.593;  -89.375; -598.000; -641.000
317.729;    5.525;  168.000;  -67.000
317.866; -207.925;-1434.000;-1285.000
318.002;  -98.875; -708.000; -948.000
318.139;  -96.050; -883.000; -867.000
318.275; -122.075;-1003.000; -738.000
318.412;  -79.300; -517.000; -336.000
318.548;  -39.650; -751.000; -720.000
318.685; -124.350; -985.000; -888.000
318.821; -106.600; -762.000; -735.000
318.957;  -22.000;   34.000;  -23.000
319.094;   32.575;  297.000;  154.000
319.230;  -72.100; -756.000; -742.000
319.367;  107.100; -471.000; -520.000
319.503;   39.625; -538.000; -436.000
319.639; -103.575; -877.000; -793.000
319.775;  -61.025; -750.000; -685.000
319.912;  -62.575; -424.000; -519.000
320.048; -107.200;-1184.000;-1184.000
320.184;   83.625;   59.000;   70.000
320.321;  -71.500; -497.000; -467.000
320.457;   63.950;  475.000;  662.000
320.593;  -49.750; -375.000; -382.000
320.729; -109.450; -732.000; -734.000
320.866;  -63.325; -577.000; -635.000
321.002;  -84.575; -759.000; -809.000
321.138;  -13.425; -135.000; -211.000
321.274;   76.975; -148.000; -115.000
321.410;  -40.225; -585.000; -353.000
321.546;  -63.225;-1011.000; -911.000
321.683;   42.125;  400.000;  185.000
321.819;   -4.525;  -48.000; -117.000
321.955; -123.000; -743.000; -722.000
322.091;  -50.300; -585.000; -540.000
322.227;  -16.900; -382.000; -202.000
322.363;  -21.925; -320.000; -215.000
322.499;  -48.700; -343.000; -331.000
322.635;  158.050;  636.000;  443.000
322.771;   -1.225; -139.000;   12.000
322.907;   74.875;  129.000;  327.000
323.043;  -27.275; -115.000; -206.000
323.179;  -44.975; -394.000; -363.000
323.315;    1.425; -401.000; -371.000
323.451;   59.925; -328.000; -236.000
323.587;   54.975;  -60.000;  -77.000
323.723;   -8.025; -682.000; -601.000
323.859;  -10.025; -258.000;  -76.000
323.995;  -51.300; -467.000; -409.000
324.131; -125.675; -967.000; -892.000
324.267;  -33.175; -254.000; -276.000
324.402; -129.800; -960.000; -983.000
324.538;  -21.625; -279.000; -104.000
324.674;    1.600;  164.000;   77.000
324.810;   93.825;  226.000;  308.000
324.946;  -20.875; -810.000; -658.000
325.082;  -79.750; -568.000; -475.000
325.217;  -19.825;  -62.000;   16.000
325.353; -115.450; -764.000; -659.000
325.489;  -83.200; -540.000; -506.000
325.625;  -75.425; -579.000; -525.000
325.760;   57.700;  517.000;  376.000
325.896;  -36.550; -515.000; -702.000
326.032;  -60.125; -403.000; -352.000
326.168;  -67.625; -462.000; -369.000
326.303;  -54.500; -352.000; -461.000
326.439;  -19.525; -336.000; -276.000
326.575;   -0.650; -190.000;  -29.000
326.710;    2.875; -156.000;  -30.000
326.846;  -18.750;  146.000;  103.000
326.982;  -96.000; -530.000; -548.000
327.117;  -74.650; -481.000; -442.000
327.253;  -89.625; -745.000; -742.000
327.388; -138.650;-1137.000;-1153.000
327.524;  -51.375; -811.000; -578.000
327.659;  -29.475;  -58.000;  -22.000
327.795;  -12.700;   69.000;   45.000
327.931;  -97.650; -723.000; -499.000
328.066;  -35.725; -417.000; -276.000
328.202;  -21.650;   12.000; -129.000
328.337;   99.400;  957.000;  713.000
328.473;   29.150;  -12.000;  -74.000
328.608;  -25.675; -256.000; -267.000
328.743; -100.150; -799.000; -664.000
328.879;   11.725;  214.000;  114.000
329.014;  -34.850; -102.000; -122.000
329.150;  -87.300; -358.000; -483.000
329.285;  -80.100; -465.000; -466.000
329.421;  -53.775; -548.000; -246.000
329.556;  -22.275;  -36.000;   85.000
329.691;  -99.000; -633.000; -615.000
329.827;  -92.625; -626.000; -480.000
329.962;  -46.775;  131.000; -301.000
330.097;  -91.725; -673.000; -585.000
330.233;  -57.150; -410.000; -223.000
330.368; -138.100; -839.000; -628.000
330.503;   -1.400;    3.000;   98.000
330.638;   -6.950;  -93.000; -125.000
330.774;  -62.625; -609.000; -530.000
330.909;  -50.425; -434.000; -244.000
331.044;  -93.125; -714.000; -708.000
331.179; -182.200;-1217.000;-1109.000
331.315;    0.575;   77.000;   20.000
331.450;   -1.825;  157.000;  285.000
331.585;  -98.350; -805.000; -706.000
331.720;  -95.250; -510.000; -460.000
331.855;   -7.250;  -35.000; -102.000
331.990;  251.775;   62.000;  138.000
332.126;  130.525; -110.000;   71.000
332.261;  -25.625; -379.000; -265.000
332.396;  -13.550; -135.000; -242.000
332.531;  -96.875;-1074.000;-1031.000
332.666;   36.225; -519.000; -363.000
332.801; -101.550; -726.000; -807.000
332.936;  -27.275; -192.000; -122.000
333.071; -139.275; -870.000; -817.000
333.206;   13.450;  307.000;  379.000
333.341;   23.225;  344.000;  418.000
333.476;  -85.550; -627.000; -623.000
333.611;  -42.700; -251.000; -173.000
333.746;  -49.550; -381.000; -464.000
333.881; -127.925; -973.000; -935.000
334.016; -124.700; -936.000; -917.000
334.151; -125.975; -746.000; -702.000
334.286;    8.525;  152.000;  186.000
334.421;  -28.200; -125.000; -178.000
334.556;  -94.975; -611.000; -567.000
334.690;  -91.175; -631.000; -577.000
334.825;   51.600;  381.000;   83.000
334.960;  -75.225; -285.000; -413.000
335.095;   11.500;  135.000;  -91.000
335.230;  -97.625; -722.000; -738.000
335.365; -140.700;-1084.000; -990.000
335.499; -142.250;-1108.000;-1037.000
335.634;   25.025;    9.000;  534.000
335.769; -115.000; -755.000; -720.000
335.904;  -64.975; -603.000; -561.000
336.038;  -75.900; -735.000; -657.000
336.173; -119.325;-1206.000;-1194.000
336.308;   -4.850; -116.000; -189.000
336.443;   17.200; -544.000; -634.000
336.577;  -77.700; -936.000; -787.000
336.712;   55.650;   -4.000;  -12.000
336.847;  -52.275; -724.000; -607.000
336.981;   44.825; -272.000; -208.000
337.116;  263.575;  615.000;  501.000
337.250;  116.375; -434.000; -421.000
337.385;  265.200; -297.000; -208.000
337.520;  101.775; -632.000; -603.000
337.654;  -44.200; -215.000; -126.000
337.789; -141.275; -989.000; -933.000
337.923;  -46.150; -104.000; -205.000
338.058;  -91.450; -673.000; -738.000
338.192;  -52.475; -611.000; -488.000
338.327;  -10.700;  -18.000; -155.000
338.461;  -75.050; -299.000; -469.000
338.596;  -97.725; -780.000; -638.000
338.730; -100.600; -767.000; -803.000
338.865;   88.600;  -46.000; -140.000
338.999;  -49.625; -846.000; -702.000
339.134;  -27.550; -634.000; -536.000
339.268;    3.225; -741.000; -603.000
339.403;  382.675; -740.000; -775.000
339.537;  124.325; -894.000; -820.000
339.671; -121.325; -829.000; -813.000
339.806;  -55.425; -556.000; -512.000
339.940;   13.200; -261.000; -235.000
340.074; -103.625; -685.000; -510.000
340.209;  -45.425; -351.000; -230.000
340.343;  -79.975; -517.000; -573.000
340.477;  145.375;  998.000; 1036.000
340.612;  -55.325;-1033.000; -900.000
340.746;  135.900; -199.000; -243.000
340.880;  -85.175; -924.000; -785.000
341.014;  -14.225;  -45.000; -154.000
341.149; -123.850; -756.000; -718.000
341.283; -112.475; -839.000; -754.000
341.417; -125.300;-1124.000; -938.000
341.551;   84.525; -768.000; -708.000
341.685;  -35.000; -633.000; -611.000
341.820;  -52.125; -562.000; -493.000
341.954;  -57.550; -218.000; -349.000
342.088; -143.025;-1102.000;-1019.000
342.222;   53.075;  565.000;  618.000
342.356;  -76.975; -395.000; -335.000
342.490; -116.425; -880.000; -841.000
342.624;  -45.475; -339.000; -242.000
342.758;  -18.050; -364.000; -312.000
342.892;  -75.550; -710.000; -585.000
343.026;  -32.650;  -58.000; -116.000
343.160;  -67.525; -426.000; -376.000
343.294;  -89.925; -474.000; -337.000
343.428;  -35.375; -488.000; -448.000
343.562;  -18.350; -172.000;  -23.000
343.696;  -31.150; -385.000; -314.000
343.830;  -39.300; -362.000; -356.000
343.964;    0.125; -231.000; -168.000
344.098;  774.350;  199.000;   70.000
344.232;  623.925; -266.000; -127.000
344.366;   66.725; -567.000; -453.000
344.500;   24.400; -665.000; -744.000
344.634;    9.475; -324.000; -164.000
344.768;  -35.100; -531.000; -341.000
344.902;   10.025;  278.000;  256.000
345.035;  -84.250; -556.000; -496.000
345.169; -132.850; -933.000; -656.000
345.303;  -71.300; -308.000; -482.000
345.437;  -78.300; -826.000; -717.000
345.571;  -69.975; -675.000; -594.000
345.704;  -75.225; -309.000; -532.000
345.838;  -16.400; -331.000; -284.000
345.972;  -51.725; -543.000; -495.000
346.106;  152.250; -179.000; -190.000
346.239;  390.425; -312.000; -243.000
346.373;   -2.200; -343.000; -302.000
346.507; -148.325; -950.000; -962.000
346.640;  109.350;  -30.000;   13.000
346.774;  -62.575; -650.000; -797.000
346.908;  -23.200; -138.000;  -11.000
347.041; -107.150; -646.000; -593.000
347.175;    3.750;  259.000;   27.000
347.309;  -85.300; -698.000; -628.000
347.442; -104.575; -883.000; -732.000
347.576;  241.100;  670.000;  668.000
347.709;  157.000; -123.000;  -52.000
347.843; -108.125; -933.000; -825.000
347.976;   22.100;  235.000;  294.000
348.110; -179.150;-1268.000;-1186.000
348.243; -114.650; -679.000; -772.000
348.377;    2.550;  -26.000;   60.000
348.510;   61.200;  403.000;  540.000
348.644;  -48.825;  -37.000; -159.000
348.777;    4.875;  180.000;  191.000
348.911;  -54.600; -142.000; -112.000
349.044;  148.250;  471.000;  448.000
349.178;  104.925;-1069.000;-1006.000
349.311;  105.250;  141.000;  255.000
349.444;  -26.225; -927.000; -813.000
349.578;  -17.950; -347.000; -200.000
349.711; -114.475; -959.000; -862.000
349.845;  -11.350; -661.000; -591.000
349.978; -142.150;-1224.000;-1137.000
350.111;  -80.650; -546.000; -612.000
350.244;  -81.750; -596.000; -700.000
350.378;   -7.050; -392.000; -393.000
350.511;  -90.150; -393.000; -426.000
350.644; -113.075; -808.000; -806.000
350.778;   14.500;  168.000;  104.000
350.911;   -2.625;  134.000;  140.000
351.044; -104.450; -685.000; -615.000
351.177;  -24.650; -321.000; -281.000
351.310;  -22.950;    3.000; -131.000
351.444;  -93.225; -888.000; -788.000
351.577;   87.025;  140.000;   90.000
351.710;   84.100;  593.000;  417.000
351.843;  -26.000; -165.000;  -77.000
351.976;  -20.150;  149.000;  -79.000
352.109;  -94.050; -621.000; -612.000
352.242;  -31.625; -464.000; -419.000
352.376;  -73.825; -580.000; -636.000
352.509;  117.700; -437.000; -356.000
352.642;  -28.525; -654.000; -604.000
352.775;   59.500; -141.000;  -98.000
352.908; -120.600; -933.000; -904.000
353.041; -114.900; -814.000; -824.000
353.174;  -72.250; -551.000; -424.000
353.307;  -86.175; -753.000; -764.000
353.440;   55.600;  541.000;  453.000
353.573; -103.600; -957.000;-1008.000
353.706;  -63.150; -384.000; -558.000
353.839;  -39.150; -264.000; -220.000
353.971; -108.275; -657.000; -512.000
354.104;  -89.475; -896.000; -835.000
354.237;  -51.475; -627.000; -662.000
354.370;  -75.900; -846.000; -879.000
354.503; -192.975;-1231.000;-1308.000
354.636;  -57.625; -529.000; -348.000
354.769; -132.175; -937.000; -860.000
354.902;  -11.450; -230.000; -139.000
355.034;  -26.750; -164.000; -220.000
355.167;  -26.950; -262.000; -162.000
355.300;  -98.075;-1061.000; -880.000
355.433;  974.675;  -71.000;  -14.000
355.565; 1532.700; -402.000; -384.000
355.698;  385.750; -356.000; -296.000
355.831;  -22.000; -882.000; -801.000
355.964;   50.350; -285.000; -170.000
356.096;  -91.150; -856.000; -843.000
356.229;   -7.550; -523.000; -530.000
356.362;  319.200; -373.000; -266.000
356.494;  604.425; -229.000; -162.000
356.627;  406.975;  269.000;  377.000
356.760;  665.825;  120.000;   53.000
356.892;  984.525; -286.000; -601.000
357.025;  554.350;  403.000;  389.000
357.157;  481.775; -167.000; -179.000
357.290;  711.450; -856.000; -713.000
357.423;  208.150; -667.000; -556.000
357.555;  104.975; -217.000; -228.000
357.688;  102.575; -483.000; -364.000
357.820;  380.700; -870.000; -877.000
357.953; 3292.575; -563.000; -589.000
358.085;  681.100; -632.000; -612.000
358.218;  847.275;-1131.000; -932.000
358.350;  160.750;  -58.000;  312.000
358.483; -140.700;-1300.000;-1187.000
358.615;  -44.200;-1182.000;-1078.000
358.747;  -98.975;-1187.000;-1058.000
358.880;    2.925; -810.000; -744.000
359.012;  -22.250; -376.000; -202.000
359.145;  -49.125; -480.000; -511.000
359.277;   16.350; -962.000; -913.000
359.409; 2705.850;  536.000;  231.000
359.542;  683.575; -738.000; -688.000
359.674;   62.800;   46.000;   13.000
359.806;  -73.350; -565.000; -438.000
359.939;  -56.150; -617.000; -516.000
360.071;   -5.850; -583.000; -579.000
360.203;  -25.500; -411.000; -364.000
360.335;   47.000;  164.000;  -16.000
360.468;  166.525; -249.000; -307.000
360.600; 2216.225; -547.000; -454.000
360.732; 2922.675; -546.000; -423.000
360.864;  395.200;-1216.000;-1044.000
360.996;  219.950; -516.000; -554.000
361.129;   13.775; -389.000; -598.000
361.261;   13.950;  110.000; -113.000
361.393;  -25.100; -252.000; -214.000
361.525;   20.300;   94.000;  244.000
361.657;  -61.925; -821.000; -703.000
361.789;   -6.950; -139.000; -155.000
361.921;  156.100; -642.000; -593.000
362.053;  221.025;  524.000;  541.000
362.185;   30.925;  288.000;   72.000
362.318;  -84.175; -709.000; -705.000
362.450;   86.100;  294.000;  444.000
362.582;   32.675; -913.000; -870.000
362.714;  -42.350; -353.000; -332.000
362.846;  -88.950; -606.000; -490.000
362.978; -144.050; -941.000; -811.000
363.109;   35.125; -161.000; -260.000
363.241;  345.250; -739.000; -749.000
363.373;  433.600; -649.000; -564.000
363.505;  677.475; -186.000;  -91.000
363.637;  146.600; -787.000; -601.000
363.769; -127.975;-1067.000;-1080.000
363.901;  -68.850; -596.000; -654.000
364.033; -133.450;-1103.000;-1062.000
364.165;  -11.925; -283.000; -283.000
364.296;   50.150; -316.000; -177.000
364.428;   65.950;-1344.000;-1220.000
364.560;  -85.125; -679.000; -661.000
364.692;  -68.675; -738.000; -835.000
364.824;  177.400; -588.000; -456.000
364.955;  417.925; -402.000; -564.000
365.087;  982.725;-1097.000; -852.000
365.219;   24.500; -686.000; -816.000
365.351;  -75.725; -526.000; -572.000
365.482;   50.425;  300.000;  240.000
365.614;  -56.975; -402.000; -314.000
365.746;  -98.025; -729.000; -752.000
365.877; -106.725; -706.000; -672.000
366.009;  264.300;  -35.000;  -62.000
366.141;  -90.600;-1249.000;-1134.000
366.272; -121.025; -803.000; -719.000
366.404; -120.350;-1005.000; -874.000
366.535;  -16.525; -139.000;  -12.000
366.667; -105.475; -644.000; -649.000
366.799;   37.400;  353.000;  203.000
366.930; -140.750; -862.000; -996.000
367.062;  121.425; -639.000; -613.000
367.193;  157.750; -872.000; -842.000
367.325;  -69.075; -580.000; -684.000
367.456;   22.450; -246.000;   31.000
367.588;  156.900; -371.000; -318.000
367.719;   15.950;  -44.000;  -45.000
367.851;  -17.175; -222.000; -241.000
367.982;  -58.350; -875.000; -732.000
368.113;   79.575; -475.000; -358.000
368.245; -132.750; -960.000; -841.000
368.376;  -36.525; -254.000; -302.000
368.508;  -42.125; -188.000; -263.000
368.639; -145.525;-1166.000;-1034.000
368.770;  -49.400; -670.000; -589.000
368.902;  -61.950; -836.000; -926.000
369.033; -114.225; -906.000; -855.000
369.164;  -54.525; -720.000; -653.000
369.296; -120.000; -452.000; -601.000
369.427;   -4.550; -209.000; -144.000
369.558;  -57.750; -593.000; -377.000
369.689;  -89.175; -721.000; -569.000
369.821; -148.825; -951.000; -845.000
369.952;  -28.325;   42.000; -108.000
370.083;  -54.950; -229.000; -108.000
370.214;  -86.450; -735.000; -650.000
370.345;  -14.125;   65.000;   81.000
370.477; -102.575; -810.000; -790.000
370.608;  185.175; -328.000; -264.000
370.739;  -75.950;-1233.000;-1292.000
370.870;  -71.200;-1102.000; -923.000
371.001;   71.250; -378.000; -467.000
371.132;  -93.875; -754.000; -735.000
371.263;  -26.000;  -42.000; -148.000
371.394; -140.600; -841.000; -748.000
371.525;   31.850;  345.000;  225.000
371.657;  -90.625; -808.000; -670.000
371.788;   45.000;  103.000;  199.000
371.919;  135.500; -384.000; -304.000
372.050; 3166.250;  -91.000; -156.000
372.181;  944.200; -188.000; -294.000
372.311;  307.500;   42.000; -127.000
372.442;   10.375; -457.000; -451.000
372.573;  -42.500; -444.000; -340.000
372.704; -140.225;-1008.000; -980.000
372.835;   59.200; -228.000; -289.000
372.966;  -69.975; -646.000; -554.000
373.097;  -64.200; -575.000; -711.000
373.228;  -69.150; -717.000; -542.000
373.359;   66.950; -824.000; -536.000
373.490;  768.525; -881.000; -727.000
373.620;  934.900;-1001.000; -803.000
373.751; 1495.175; -332.000; -396.000
373.882;  642.400; -663.000; -733.000
374.013;   27.975; -449.000; -262.000
374.143;  -50.625; -581.000; -659.000
374.274; -124.450; -987.000; -908.000
374.405;  147.000; -388.000; -276.000
374.536;  356.175; -526.000; -387.000
374.666;  908.975; -759.000; -807.000
374.797;  165.050; -817.000; -868.000
374.928;  689.500; -710.000; -560.000
375.058;  740.850; -535.000; -500.000
375.189;   67.025;  -59.000;  -93.000
375.320; -117.725; -928.000;-1034.000
375.450;  -51.025; -625.000; -616.000
375.581;  -45.475; -526.000; -436.000
375.712;  -37.050; -574.000; -250.000
375.842;  225.875; -438.000; -415.000
375.973;  167.550; -554.000; -513.000
376.103;  -58.450; -665.000; -648.000
376.234;  -69.650; -531.000; -552.000
376.364;  -73.625; -944.000; -867.000
376.495;  300.675;  925.000;  529.000
376.625;  -40.225; -472.000; -485.000
376.756;   22.000; -709.000; -678.000
376.886;  -99.575;-1178.000;-1026.000
377.017;   46.075;-1048.000;-1061.000
377.147;  334.850; -786.000; -782.000
377.278;   58.600;  174.000;  228.000
377.408; -136.150; -801.000; -815.000
377.538; -108.800; -707.000; -693.000
377.669;  -89.550; -537.000; -613.000
377.799; -111.200; -645.000; -635.000
377.929;  -67.975; -610.000; -428.000
378.060; -132.700; -781.000; -847.000
378.190;  -63.125; -726.000; -531.000
378.320;  -60.100; -401.000; -406.000
378.451;  -20.850; -131.000;  -22.000
378.581;  -12.950;  -67.000; -110.000
378.711;  118.900; 1035.000;  866.000
378.841;  -30.900; -533.000; -675.000
378.972;  -85.000; -871.000; -751.000
379.102;  -14.050; -652.000; -579.000
379.232;  -29.025; -126.000;  -73.000
379.362; -120.700;-1001.000; -885.000
379.492;   -6.725; -373.000; -424.000
379.623;   70.450;    0.000;  111.000
379.753; -104.650;-1107.000; -974.000
379.883;  157.475;   59.000;  156.000
380.013;  -35.650;-1081.000;-1017.000
380.143; -125.050;-1097.000;-1056.000
380.273; -115.275; -985.000; -861.000
380.403;  -10.175; -344.000; -257.000
380.533;  -38.150; -651.000; -664.000
380.663;   52.425;  173.000;  128.000
380.793; -114.825;-1027.000;-1074.000
380.923;  -25.075; -103.000;  -34.000
381.053; -106.725; -613.000; -623.000
381.183;  -41.700; -106.000; -248.000
381.313;    9.100; -656.000; -470.000
381.443;    9.700; -692.000; -473.000
381.573;  141.200; -402.000; -409.000
381.703;  178.525;-1249.000;-1095.000
381.833; -153.800;-1454.000;-1336.000
381.963;   88.475; -134.000;  -87.000
382.093; 1190.225; -925.000; -909.000
382.223;  360.075; -713.000; -602.000
382.353;  -34.675; -801.000; -608.000
382.482;  274.150;-1091.000; -964.000
382.612;  616.200; -872.000; -644.000
382.742;  349.275; -695.000; -622.000
382.872;  195.350; -565.000; -551.000
383.002;   54.975;  347.000; -132.000
383.131;  -26.850; -226.000; -160.000
383.261;  -47.050; -706.000; -768.000
383.391;  269.400; -552.000; -377.000
383.521; 3336.175;  451.000;  263.000
383.650;  802.650; -947.000; -904.000
383.780;  -14.500; -783.000; -656.000
383.910;   90.400;  880.000;  802.000
384.039;   -9.250; -794.000; -656.000
384.169;  128.125;-1205.000;-1017.000
384.299;  -33.300; -650.000; -662.000
384.428; -115.450; -764.000; -680.000
384.558;  -49.350; -308.000; -275.000
384.687;  -68.450; -414.000; -334.000
384.817;   11.150;   75.000;   -2.000
384.947;   -7.150; -234.000; -141.000
385.076;  247.600;  982.000;  912.000
385.206;   76.100;  369.000;  480.000
385.335;  -51.400; -549.000; -417.000
385.465;  -96.475; -655.000; -663.000
385.594;  112.225;  -53.000;  -44.000
385.724;  314.450; -868.000; -838.000
385.853;   91.050; -296.000; -270.000
385.982; 1154.425; -743.000; -787.000
386.112; 1813.775;-1052.000; -871.000
386.241;  107.225; -307.000; -312.000
386.371;   28.250; -174.000;  -87.000
386.500;  -26.200; -825.000; -789.000
386.629;   13.425; -874.000; -817.000
386.759;   43.825;  -43.000;   68.000
386.888;  -17.425; -170.000; -250.000
387.017;  -95.025; -648.000; -620.000
387.147;  -89.825; -771.000; -798.000
387.276;  -37.550; -410.000; -397.000
387.405;  -11.900; -398.000; -342.000
387.535;  -63.950; -452.000; -361.000
387.664;  -69.525; -692.000; -620.000
387.793;   24.700; -198.000; -113.000
387.922;  420.675;  255.000;  200.000
388.052;  -13.900; -576.000; -423.000
388.181;  -18.325; -342.000; -472.000
388.310;  -43.425; -889.000; -710.000
388.439;  -56.600; -749.000; -742.000
388.568;  155.400;  365.000;  244.000
388.697;  872.750; -756.000; -653.000
388.826;  153.800; -768.000; -666.000
388.956;   37.200; -285.000; -307.000
389.085;  -45.725; -347.000; -287.000
389.214; -114.800; -842.000; -872.000
389.343;  -60.675; -645.000; -413.000
389.472;  406.825;  126.000;  149.000
389.601;  494.125;   91.000;    0.000
389.730;    3.050; -568.000; -687.000
389.859;   50.500;  226.000;   46.000
389.988;  146.775; -423.000; -408.000
390.117;  110.725; -168.000; -146.000
390.246;  -25.600; -331.000; -320.000
390.375;   53.825; -673.000; -626.000
390.504;  -75.250; -703.000; -621.000
390.633; -120.100; -672.000; -726.000
390.761;  -88.800; -732.000; -645.000
390.890;    0.275;   -4.000; -130.000
391.019;  -33.450; -421.000; -441.000
391.148; -133.200; -826.000; -855.000
391.277;  -83.425; -576.000; -493.000
391.406; -109.875; -821.000; -805.000
391.534;   15.100;  574.000; -301.000
391.663;  -84.900; -583.000; -645.000
391.792;  -85.725; -673.000; -701.000
391.921;   70.875;   -3.000;   15.000
392.050;  136.425; -287.000; -228.000
392.178;  -71.925;-1206.000;-1061.000
392.307;   89.175; -758.000; -712.000
392.436;   49.725; -427.000; -641.000
392.564;   29.000;  166.000;   -6.000
392.693; -109.125; -860.000; -682.000
392.822;  156.875; -529.000; -534.000
392.950;   44.375; -880.000; -714.000
393.079;  266.775; -188.000; -328.000
393.208;  -25.550; -488.000; -511.000
393.336;  -13.550; -170.000; -145.000
393.465;  -46.000; -317.000; -199.000
393.593;    3.700;   62.000;   79.000
393.722; -164.425;-1121.000; -916.000
393.850;  -37.475; -188.000;  -61.000
393.979; -159.600; -926.000; -805.000
394.107;  -73.725; -517.000; -537.000
394.236;  -33.125; -570.000; -507.000
394.364;  168.025;  383.000;  206.000
394.493;  233.825; -911.000; -767.000
394.621;  -31.325; -955.000; -916.000
394.750;  721.925; -873.000; -923.000
394.878; 3033.000; -247.000; -149.000
395.007; 4096.100; -721.000; -807.000
395.135;  310.225; -790.000; -721.000
395.263; -106.700;-1038.000;-1040.000
395.392;    3.700;  -25.000; -107.000
395.520; -140.900; -818.000; -679.000
395.648; -104.125; -865.000; -915.000
395.777;  -36.175; -366.000; -405.000
395.905;  -51.275; -449.000; -564.000
396.033;   -7.775;  217.000;  172.000
396.162;  393.050; -399.000; -453.000
396.290;  351.925;  -17.000;   -2.000
396.418;   53.875; -555.000; -514.000
396.546;  -80.225; -571.000; -466.000
396.674; -103.700; -850.000; -878.000
396.803;  -18.400;  -72.000;  -23.000
396.931;   51.875; -179.000; -199.000
397.059;    2.800;-1026.000; -989.000
397.187; -125.250;-1026.000; -975.000
397.315; -156.050; -884.000; -649.000
397.443; -112.825; -592.000; -443.000
397.572;  -84.100; -578.000; -424.000
397.700;  -23.250; -607.000; -614.000
397.828;   -9.475;  120.000;  -90.000
397.956;  -65.625; -508.000; -478.000
398.084;  -72.350; -767.000; -626.000
398.212;   18.125;  137.000;  124.000
398.340;    0.225;  -56.000;  159.000
398.468;   14.550; -390.000; -169.000
398.596; -142.775; -993.000; -953.000
398.724; -127.050; -762.000; -767.000
398.852; -176.350;-1024.000; -976.000
398.980;  -67.700; -560.000; -560.000
399.108;  -73.650; -982.000; -735.000
399.236;    0.975;   13.000;    8.000
399.363;    1.175;  222.000;  196.000
399.491;  -62.600; -404.000; -398.000
399.619; -138.075; -829.000; -800.000
399.747; -102.375; -859.000; -771.000
399.875;   67.250;  220.000;  234.000
400.003;  -69.475; -359.000; -284.000
400.130; -106.475; -421.000; -341.000
400.258;  -29.250;  -83.000;   38.000
400.386;  -73.250; -352.000; -168.000
400.514;  -62.975; -526.000; -587.000
400.641; -105.750; -928.000; -802.000
400.769; -133.800; -979.000; -888.000
400.897; -125.750; -838.000; -793.000
401.025;  -23.875; -166.000; -152.000
401.152;    2.550;  220.000;   38.000
401.280;  -88.875; -430.000; -429.000
401.408; -125.450; -712.000; -576.000
401.535; -109.650; -735.000; -758.000
401.663; -195.750;-1134.000;-1054.000
401.790;  -87.900; -514.000; -525.000
401.918;   31.550;  436.000;  405.000
402.046;  -10.550;  134.000;  122.000
402.173;  -35.775;  -18.000;    7.000
402.301;  -75.275; -519.000; -397.000
402.428;   31.350;  528.000;  383.000
402.556; -156.875;-1188.000; -913.000
402.683;  -32.650;  -20.000;   -1.000
402.811;  -18.725;  -37.000; -206.000
402.938;  -12.200;   20.000;   27.000
403.066;  151.725; -574.000; -558.000
403.193;  287.825;  299.000;  239.000
403.321;  196.275; -396.000; -574.000
403.448;  254.350;   83.000;   27.000
403.575;  120.125;  -90.000;  -46.000
403.703; -111.825; -732.000; -557.000
403.830;  -68.650; -531.000; -496.000
403.957; -142.300;-1117.000;-1023.000
404.085;    0.300;  -61.000; -172.000
404.212;   86.725;  -50.000;   63.000
404.339;  270.375; -566.000; -306.000
404.467; 6029.275; -612.000; -524.000
404.594; 3767.625; -287.000; -227.000
404.721;  818.700; -869.000; -764.000
404.848;   65.725; -113.000; -202.000
404.976; -106.125; -856.000; -783.000
405.103;  -11.300;  -14.000;  -82.000
405.230;    0.250;  190.000;  226.000
405.357;   11.475;  117.000;   44.000
405.484;  274.875;  -49.000;    5.000
405.612;   40.500; -548.000; -563.000
405.739;  -66.375; -488.000; -243.000
405.866;   68.150;  669.000;  385.000
405.993;  -48.350; -398.000; -102.000
406.120; -137.200; -801.000; -887.000
406.247;  -59.425; -323.000; -342.000
406.374;  356.325;  540.000;  629.000
406.501;   39.700; -632.000; -702.000
406.628;  -82.975; -621.000; -589.000
406.755; -131.575; -803.000; -620.000
406.882;  -47.000; -228.000; -277.000
407.009; -107.875; -719.000; -628.000
407.136;   26.950; -480.000; -401.000
407.263;   69.525; -939.000; -829.000
407.390;  -93.725; -692.000; -614.000
407.517; -180.825;-1139.000;-1187.000
407.644;  -71.075; -332.000; -256.000
407.771;  -79.100; -249.000; -287.000
407.898;    3.475;  168.000;  328.000
408.025;  -72.025; -421.000; -313.000
408.151;  -10.425;   82.000;  153.000
408.278;  -70.775; -267.000; -216.000
408.405; -125.375; -931.000; -899.000
408.532;  -92.150; -549.000; -542.000
408.659; -124.950; -677.000; -648.000
408.785; -215.600;-1298.000;-1170.000
408.912;  -70.250; -412.000; -296.000
409.039; -121.975; -610.000; -686.000
409.166; -109.450; -591.000; -555.000
409.292; -127.700; -571.000; -534.000
409.419; -126.375; -665.000; -649.000
409.546;  -91.850; -431.000; -192.000
409.672;  -99.425; -713.000; -545.000
409.799;  -22.300;  -36.000;   34.000
409.926;  -37.150; -180.000; -179.000
410.052; -182.225;-1127.000;-1091.000
410.179;  -60.125; -368.000; -392.000
410.305; -100.175; -375.000; -493.000
410.432;  -56.525; -220.000; -333.000
410.558;  -95.125; -305.000; -380.000
410.685; -111.575; -688.000; -431.000
410.812;  -97.150; -409.000; -588.000
410.938; -152.100; -964.000; -808.000
411.065; -115.500; -671.000; -645.000
411.191;  -22.775; -189.000; -174.000
411.317; -119.325; -823.000; -742.000
411.444;  -73.700; -317.000; -246.000
411.570;  -71.275; -339.000; -294.000
411.697; -133.525; -758.000; -752.000
411.823; -181.125; -989.000; -999.000
411.949;  -50.925;  -56.000;   17.000
412.076; -119.400; -539.000; -519.000
412.202; -125.075; -758.000; -757.000
412.329; -139.050; -798.000; -752.000
412.455; -123.300; -821.000; -657.000
412.581;  -20.125;  -15.000;  172.000
412.707;  -68.325; -540.000; -457.000
412.834;    3.700;  156.000;  219.000
412.960;  -89.750; -785.000; -784.000
413.086;  -96.375; -743.000; -701.000
413.212;  131.675;  604.000;  578.000
413.339;  -78.700; -685.000; -701.000
413.465;  -19.775; -364.000; -310.000
413.591;  -92.025; -757.000; -474.000
413.717;  -59.950; -358.000; -366.000
413.843; -145.475; -839.000; -861.000
413.969;  -62.550;  -47.000; -292.000
414.096; -117.475; -679.000; -679.000
414.222;   -7.975;  -33.000;   85.000
414.348;  -43.800; -652.000; -385.000
414.474;   76.425;   38.000;  -52.000
414.600;  -17.475; -126.000; -144.000
414.726;  -16.325;  -96.000;  -55.000
414.852;  -79.725; -365.000; -342.000
414.978;   20.275;  104.000;  -18.000
415.104;   23.525;   38.000;   80.000
415.230;    2.675; -329.000; -330.000
415.356;   34.600; -409.000; -514.000
415.482;  168.100;   13.000;  -35.000
415.608;  267.600; -247.000; -323.000
415.734;  970.750;   67.000;   38.000
415.860;20276.600; -875.000; -767.000
415.986;14648.750; -685.000; -607.000
416.111; 1256.150; -798.000; -652.000
416.237;  251.025; -424.000; -571.000
416.363; 1165.650; -765.000; -733.000
416.489; 4349.775; -324.000; -251.000
416.615;  453.450; -707.000; -742.000
416.741;  -30.900; -677.000; -784.000
416.866; -105.625; -673.000; -736.000
416.992; -115.825; -801.000; -818.000
417.118;  -23.450;  -41.000;  -80.000
417.244;  -66.675; -798.000; -531.000
417.369; -105.150; -801.000; -612.000
417.495;  -23.300; -325.000; -254.000
417.621;  -98.650;-1015.000; -803.000
417.746;    3.525; -579.000; -572.000
417.872;   42.650; -254.000; -144.000
417.998;   50.525; -515.000; -530.000
418.123; 1085.825;-1073.000; -845.000
418.249; 5595.550; -512.000; -601.000
418.374;  788.375; -916.000; -824.000
418.500;  107.125; -383.000; -482.000
418.626;  107.400;   70.000;  -59.000
418.751;  113.625; -549.000; -448.000
418.877;  190.750; -637.000; -643.000
419.002; 1859.700; -688.000; -560.000
419.128;13004.950; -930.000; -721.000
419.253; 3182.050; -967.000; -837.000
419.379;  424.575; -391.000; -338.000
419.504;  401.875;  325.000;  415.000
419.629;  526.500; -393.000; -212.000
419.755; 3772.650; -317.000; -254.000
419.880;22178.250;  -98.000;   67.000
420.006;11858.875; -280.000; -221.000
420.131;30228.275; -662.000; -775.000
420.256; 4317.175; -315.000; -316.000
420.382;  553.425; -665.000; -687.000
420.507;   61.500; -649.000; -778.000
420.632;   88.750; -337.000; -339.000
420.758;  181.250; -251.000; -425.000
420.883;  -99.950; -876.000; -672.000
421.008; -106.775; -775.000; -619.000
421.133;  -81.300; -509.000; -467.000
421.259;  -60.375; -325.000; -259.000
421.384; -121.900; -834.000; -693.000
421.509;  -71.775;-1052.000; -862.000
421.634;  884.125; -936.000; -820.000
421.759;  382.725; -359.000; -327.000
421.885;  -68.425; -717.000; -656.000
422.010;  -84.825; -673.000; -542.000
422.135; -151.775; -695.000; -727.000
422.260;   30.050;  340.000;  280.000
422.385;  -54.650;   12.000;  -98.000
422.510;    3.050;  151.000;  -26.000
422.635;    9.575;  -87.000;  -43.000
422.760;   70.600; -766.000; -791.000
422.885;   49.925;  -57.000;  -80.000
423.010;  -46.650; -112.000; -169.000
423.135; -104.350; -481.000; -561.000
423.260;  -17.200; -150.000; -245.000
423.385;   48.475;  476.000;  222.000
423.510;   21.700;   71.000;  -22.000
423.635;   51.550;  133.000;   45.000
423.760;   43.500;  383.000;  328.000
423.885;   50.600;  336.000;  391.000
424.010;   -9.850;  -68.000;  -13.000
424.135;  -28.025;    5.000;  -33.000
424.259;  -88.400; -654.000; -457.000
424.384;  -68.700; -279.000; -272.000
424.509;  -37.250; -260.000; -186.000
424.634; -104.750; -761.000; -623.000
424.759;  -33.675; -688.000; -544.000
424.883;  -23.100; -506.000; -527.000
425.008;  161.500; -502.000; -410.000
425.133; 2038.875; -679.000; -653.000
425.258;  952.350; -517.000; -381.000
425.382;  878.825; -867.000; -774.000
425.507; 2260.975; -487.000; -543.000
425.632;  379.875; -802.000; -663.000
425.756;  470.100; -256.000; -146.000
425.881; 7049.850; -831.000; -857.000
426.006;18908.700; -604.000; -355.000
426.130; 2861.725; -696.000; -508.000
426.255;  376.475; -611.000; -491.000
426.379;  153.300; -189.000; -577.000
426.504;  376.550;  660.000;  544.000
426.629; 4089.050; -519.000; -466.000
426.753; 2839.125;   64.000;  -46.000
426.878;  319.925; -252.000; -288.000
427.002;  149.675; -651.000; -668.000
427.127; 1636.250;  -35.000; -158.000
427.251;11765.350;  372.000;  401.000
427.375; 3360.900; -191.000; -173.000
427.500; 2055.000; -616.000; -610.000
427.624;  663.600; -234.000; -400.000
427.749;   63.125; -216.000; -225.000
427.873;  -47.100; -499.000; -412.000
427.997;  -49.725; -222.000; -230.000
428.122;   48.675;  795.000;  703.000
428.246;   65.575;  433.000;  434.000
428.371; -137.175; -869.000; -773.000
428.495; -106.200; -624.000; -646.000
428.619;  -25.825; -186.000; -117.000
428.743;    9.000;   65.000;  132.000
428.868;   -9.275; -732.000; -643.000
428.992; 1196.600; -219.000; -326.000
429.116;  468.600; -329.000; -357.000
429.240;  212.600;  419.000;  426.000
429.365;  -34.475; -454.000; -574.000
429.489;  -59.550; -638.000; -647.000
429.613;    3.275; -236.000; -177.000
429.737;   18.950; -563.000; -432.000
429.861;  261.925; -247.000; -133.000
429.985; 5717.100; -425.000; -305.000
430.109; 6273.375; -770.000; -908.000
430.234;  708.825;   76.000;  -50.000
430.358;   59.450; -250.000; -160.000
430.482;  -75.350; -672.000; -564.000
430.606;  -69.400; -655.000; -375.000
430.730;  -18.500; -437.000; -388.000
430.854;   69.350; -909.000; -835.000
430.978;  -90.200; -795.000; -764.000
431.102;  -97.150; -499.000; -422.000
431.226; -126.350; -874.000; -815.000
431.350;    9.100;  345.000;  422.000
431.474;  -90.100; -661.000; -373.000
431.597; -158.075;-1060.000; -848.000
431.721;  -93.900; -276.000; -267.000
431.845; -141.950; -704.000; -472.000
431.969;  -70.100; -304.000; -349.000
432.093;  -93.225; -395.000; -317.000
432.217;  -21.475;   32.000;   82.000
432.341;  -96.125; -523.000; -518.000
432.464;    8.950;   96.000;   40.000
432.588;  116.625; -401.000; -329.000
432.712;   67.700;  -52.000;  -52.000
432.836;   28.375;  213.000;  263.000
432.959;  -17.125; -372.000; -311.000
433.083;   70.100;   11.000;    2.000
433.207;  406.300;  285.000;  930.000
433.330; 5224.225; -391.000; -200.000
433.454; 6479.425; -654.000; -638.000
433.578; 3708.150;  583.000;  278.000
433.701;  690.125; -623.000; -675.000
433.825;  104.300; -292.000; -299.000
433.949;  114.325;   28.000;  -72.000
434.072;   19.600; -410.000; -323.000
434.196;  -14.425; -309.000; -117.000
434.319; 3818.725;25482.000;25124.000
434.443;  694.275; -656.000; -603.000
434.566; 2729.450;  281.000;   62.000
434.690;  455.800; -637.000; -383.000
434.813;   42.475; -251.000; -173.000
434.937;  -80.750; -569.000; -696.000
435.060;  -67.675; -423.000; -332.000
435.184;  197.500; -492.000; -217.000
435.307;  118.900;  159.000;  102.000
435.431;  -23.200;  -40.000;   24.000
435.554;  -83.825; -399.000; -240.000
435.677;  -86.075; -350.000; -258.000
435.801;  -55.400;  -25.000;   49.000
435.924;  -27.000;    1.000;  -67.000
436.048; -133.050;-1019.000; -732.000
436.171;  -75.250; -240.000;  -66.000
436.294;  -41.500; -248.000; -229.000
436.417;   93.625; -963.000; -849.000
436.541;  -88.175; -814.000; -840.000
436.664;  -53.700; -242.000; -316.000
436.787;  -31.825;   13.000;  113.000
436.910; -126.450; -792.000; -422.000
437.034;   -1.600;  142.000;  143.000
437.157;   37.600;  -11.000;    0.000
437.280;  -79.725; -392.000; -292.000
437.403; -114.500; -982.000; -869.000
437.526;  413.300; -903.000; -865.000
437.649; 1732.175; -505.000; -332.000
437.772;  203.075; -692.000; -540.000
437.896;   89.200;  700.000;  544.000
438.019; -116.400; -758.000; -503.000
438.142; -104.400; -596.000; -506.000
438.265;  -50.325; -639.000; -670.000
438.388;  421.450; -520.000; -410.000
438.511;   35.900; -597.000; -394.000
438.634;  -51.150; -247.000; -125.000
438.757; -143.175; -693.000; -619.000
438.880;  -33.225;  -34.000;  -57.000
439.003;  -89.100; -417.000; -437.000
439.126;  -68.250; -287.000; -167.000
439.248;  -76.225;  -98.000; -139.000
439.371;  -42.475;    9.000;  -53.000
439.494;   27.700;  510.000;  439.000
439.617;  -37.800;   65.000;  -88.000
439.740; -180.800; -968.000; -816.000
439.863; -148.150; -755.000; -595.000
439.986; -132.275; -476.000; -431.000
440.108;  -42.625; -161.000; -112.000
440.231; -172.700; -950.000; -836.000
440.354;  -47.725;  -64.000; -150.000
440.477;   -5.725; -566.000; -542.000
440.599;  -17.425; -200.000; -225.000
440.722; -129.975; -709.000; -586.000
440.845;   67.100;  751.000;  928.000
440.968; -126.875; -415.000; -311.000
441.090;  -73.725; -199.000;  -33.000
441.213; -178.600;-1021.000; -825.000
441.336;  -61.050; -159.000;   -5.000
441.458;  -87.325; -549.000; -396.000
441.581;  -87.950; -628.000; -629.000
441.703;  -77.850; -152.000;   13.000
441.826; -126.650; -557.000; -400.000
441.948;  -65.700;   56.000;   51.000
442.071;   24.100;  555.000;  424.000
442.193; -125.500; -531.000; -485.000
442.316;    4.150;  152.000;   97.000
442.438;   32.975; -233.000;  -10.000
442.561;   45.525;  272.000;  262.000
442.683;  379.475; -809.000; -522.000
442.806;  885.400;   -8.000;   74.000
442.928;  -22.950; -859.000; -604.000
443.051;  -75.875; -577.000; -373.000
443.173; -116.300; -341.000; -339.000
443.295;  -87.100; -263.000; -371.000
443.418;  -61.850; -321.000;  -29.000
443.540;  -23.650; -106.000;   -4.000
443.662; -131.150; -563.000; -465.000
443.785;  -16.725;  335.000;  199.000
443.907; -107.750; -362.000; -208.000
444.029; -139.750; -767.000; -494.000
444.152; -161.100; -644.000; -554.000
444.274;  -45.175;  -18.000;  -24.000
444.396; -108.850; -461.000; -221.000
444.518; -130.450; -691.000; -454.000
444.640; -119.600; -268.000; -111.000
444.763;  -16.075;  388.000;  249.000
444.885; -119.000; -432.000; -392.000
445.007;  -41.675;   35.000;   86.000
445.129; -124.175; -610.000; -515.000
445.251; -119.200; -372.000; -439.000
445.373; -156.225; -537.000; -386.000
445.495;    8.100;  242.000;  350.000
445.617;   55.075;  853.000;  753.000
445.739;  -77.375; -215.000;  -97.000
445.861;  -60.050; -245.000; -112.000
445.984;  -52.175; -267.000; -101.000
446.105;  138.125; -418.000; -251.000
446.227;  472.575; -176.000;  -19.000
446.349;  -15.000; -358.000; -249.000
446.471;  -97.600; -615.000; -448.000
446.593;  -75.650; -316.000;   19.000
446.715;  -23.475;  -67.000;   41.000
446.837;   57.525;  697.000;  832.000
446.959;  -93.450; -457.000; -478.000
447.081; -123.700; -628.000; -518.000
447.203;   47.525;  862.000;  834.000
447.325;  -98.575; -270.000;   42.000
447.446;  -13.700;  286.000;  530.000
447.568; -165.900; -921.000; -803.000
447.690;  -88.400; -236.000; -245.000
447.812; -150.750; -798.000; -519.000
447.933;  -15.475;  155.000;  127.000
448.055;  -63.000; -306.000; -261.000
448.177;  117.900;   31.000;   79.000
448.299;   21.625; -935.000; -727.000
448.420;    3.625;  -25.000;  159.000
448.542;  -51.550;   -3.000;   33.000
448.664;  -32.775;  109.000;  322.000
448.785;  -42.000;  265.000;   83.000
448.907;  -89.650; -614.000; -353.000
449.028;  -63.725; -771.000; -471.000
449.150;   53.650;  492.000;  589.000
449.272; -191.575;-1044.000; -913.000
449.393;   27.200;  612.000;  694.000
449.515; -147.725; -634.000; -581.000
449.636;  -72.325; -264.000; -155.000
449.758;   74.025;  763.000;  622.000
449.879;  -88.175; -498.000; -396.000
450.001;  -91.225; -149.000;  -49.000
450.122;  -47.275;  -95.000;  162.000
450.244;  -35.325;   37.000;  364.000
450.365;  -94.200; -495.000; -301.000
450.486;  -34.350;   80.000;  268.000
450.608;   21.050;  393.000;  326.000
450.729;   71.050;  578.000;  645.000
450.850;    8.325; -574.000; -466.000
450.972;  801.000; -552.000; -389.000
451.093; 5189.050;  190.000;  588.000
451.214; 2231.000; -516.000; -337.000
451.336;  402.975;  773.000;  579.000
451.457;   57.225;  264.000;  393.000
451.578;  -46.125; -118.000;  -74.000
451.699; -132.300; -546.000; -540.000
451.821;  -58.925; -284.000;  -50.000
451.942;  -33.375;  278.000;  285.000
452.063;   26.200;  228.000;  419.000
452.184;  577.975;  -54.000;  -49.000
452.305; 1133.675;  103.000;  170.000
452.427;  130.475; -549.000; -301.000
452.548;  -29.075;   23.000;   79.000
452.669;  -59.100; -257.000;  -89.000
452.790;  -51.775;    3.000;  -18.000
452.911;    3.550;  195.000;  259.000
453.032;  -73.300; -289.000;  -60.000
453.153;  -59.525;  -29.000;   81.000
453.274;   40.850;  737.000;  868.000
453.395;  -55.150;  -51.000;  175.000
453.516;  116.400; 1317.000; 1388.000
453.637;  -76.200; -205.000; -150.000
453.758;  -46.525;   15.000;   69.000
453.879; -136.775; -462.000; -250.000
454.000;   77.150; 1086.000;  948.000
454.121; -137.475; -554.000; -326.000
454.242; -124.700; -599.000; -383.000
454.362;  -65.525;  -99.000;  114.000
454.483;  -37.575; -309.000; -229.000
454.604;   45.650;  512.000;  580.000
454.725; -135.325; -627.000; -555.000
454.846; -150.200; -474.000; -406.000
454.967;  -25.725;  230.000;  539.000
455.087;  -38.175;  179.000;  153.000
455.208;   12.275;  554.000;  856.000
455.329;  -80.425;  -22.000;   82.000
455.450;   35.775;  473.000;  633.000
455.570;  -89.425; -234.000; -211.000
455.691;  -41.125;  201.000;  407.000
455.812; -116.050; -270.000;  -92.000
455.932;  -60.975;  107.000;  -97.000
456.053;  -91.050;   36.000;   24.000
456.173; -116.650; -433.000; -355.000
456.294; -137.400; -476.000; -303.000
456.415;  -79.150;  -73.000;   70.000
456.535;  -45.825;  297.000;  273.000
456.656;  -46.125;  132.000;  240.000
456.776;  -74.800;    3.000;  298.000
456.897;  -15.400;  308.000;  513.000
457.017;  -76.475; -153.000;   -3.000
457.138; -120.775; -402.000; -249.000
457.258;  -43.400;  263.000;  224.000
457.379;  -27.125;  509.000;  521.000
457.499;  -22.875;  443.000;  432.000
457.620; -131.700; -407.000; -231.000
457.740; -105.300; -132.000;  -11.000
457.860;  -67.250;   87.000;   44.000
457.981;  -47.250;  132.000;  124.000
458.101;  -66.025;  -89.000;   40.000
458.221;  -28.300;  336.000;  402.000
458.342;  -65.975;   -4.000;  -37.000
458.462;    8.225;  617.000;  352.000
458.582;  -27.425; -302.000; -294.000
458.703;   12.825;  303.000;  154.000
458.823;  -23.625;   22.000;  163.000
458.943;   16.075;  341.000;  467.000
459.063;  -29.875; 1124.000;  192.000
459.183;  -29.125;  328.000;  313.000
459.304;   -5.500;  315.000;  517.000
459.424;  -70.950; -246.000;  -89.000
459.544;  344.800;  388.000;  764.000
459.664;  871.750;  499.000;  506.000
459.784;  311.500; 1004.000; 1175.000
459.904;   48.150;  867.000;  744.000
460.024;   67.375;  867.000;  684.000
460.144;   -1.600;  449.000;  554.000
460.264;  -14.275;  515.000;  327.000
460.385;  -96.475; -145.000; -119.000
460.505;   21.950;  905.000;  858.000
460.625; -106.300;  -17.000;  -68.000
460.745;  -33.450;  396.000;  541.000
460.864;  -65.650;  153.000;  469.000
460.984;   16.400;  499.000;  573.000
461.104;  132.500; 1656.000; 1775.000
461.224;   15.850;  657.000;  650.000
461.344;  -34.350;  431.000;  360.000
461.464;  -37.175;  258.000;  513.000
461.584;  -33.800;  283.000;  466.000
461.704;  -53.175;   58.000;  108.000
461.824;  -50.950;  238.000;  259.000
461.943;  -53.250;  191.000;  130.000
462.063;  -78.825;    2.000;  324.000
462.183;   25.300;  639.000;  717.000
462.303;  102.550; 1678.000; 1230.000
462.422;   15.325;  781.000;  840.000
462.542;  -50.850;  271.000;  391.000
462.662;   26.800;  353.000;  380.000
462.782;  237.250;  833.000;  572.000
462.901;  495.450;  545.000;  717.000
463.021;  272.750; 1702.000; 1638.000
463.141;    7.125;  337.000;  770.000
463.260;  -31.075;  614.000;  474.000
463.380;    7.600;  902.000;  884.000
463.499;  -31.800;  342.000;  332.000
463.619;  -40.025;  581.000;  559.000
463.738;   96.000; 1644.000;  903.000
463.858;    1.025;  657.000;  811.000
463.978;  -31.800;  542.000;  396.000
464.097;   31.850;  921.000; 1114.000
464.217;  100.600; 1196.000; 1143.000
464.336;  116.300; 1068.000; 1130.000
464.455;  -33.675;  328.000;  659.000
464.575;   15.525;  597.000;  602.000
464.694;  156.050; 1204.000; 1179.000
464.814;  132.925; 1190.000; 1138.000
464.933;   69.200; 1095.000; 1027.000
465.052;   86.925; 1412.000; 1054.000
465.172;   75.600;  922.000;  799.000
465.291;  122.875; 1376.000; 1320.000
465.410;   -7.275;  462.000;  735.000
465.530;   86.875; 1355.000; 1310.000
465.649;   50.050; 1209.000; 1273.000
465.768;  139.750; 1673.000; 1508.000
465.888;   52.975;  941.000; 1174.000
466.007;   95.925; 1335.000; 1440.000
466.126;  -12.075;  721.000;  641.000
466.245;   36.025; 1176.000; 1187.000
466.364;   12.550;  950.000; 1060.000
466.484;   41.150; 1024.000; 1213.000
466.603;   18.075; 1101.000; 1222.000
466.722;  115.875; 1490.000; 1769.000
466.841;   75.925; 1151.000; 1401.000
466.960;   34.025; 1069.000;  972.000
467.079;  131.625; 1971.000; 1786.000
467.198;   46.100; 1238.000; 1181.000
467.317;   76.850; 1768.000; 1162.000
467.436;   63.425; 1709.000; 1261.000
467.555;  109.675; 1796.000; 1746.000
467.674;   57.900; 1227.000; 1329.000
467.793;   45.125; 1376.000; 1374.000
467.912;   83.600; 1658.000; 1539.000
468.031;  122.550; 2038.000; 1930.000
468.150;  132.800; 1842.000; 1837.000
468.269;  162.075; 2313.000; 2090.000
468.388;  182.400; 2168.000; 2339.000
468.507;  234.500; 2884.000; 2903.000
468.626;  231.250; 2555.000; 2541.000
468.744;  139.825; 2018.000; 2174.000
468.863;  209.425; 2312.000; 2523.000
468.982;   91.225; 1503.000; 1555.000
469.101;  229.550; 2788.000; 2692.000
469.220;  138.250; 2333.000; 2176.000
469.338;  245.250; 2935.000; 3051.000
469.457;  178.425; 2719.000; 2545.000
469.576;  358.075; 3953.000; 3784.000
469.695;  233.950; 2877.000; 3066.000
469.813;  427.900; 4148.000; 4192.000
469.932;  395.225; 4255.000; 4485.000
470.051;  422.325; 4075.000; 4161.000
470.169;  885.725; 4470.000; 4338.000
470.288; 1515.675; 4700.000; 4809.000
470.406;  877.050; 5059.000; 5194.000
470.525;  620.500; 6101.000; 5787.000
470.644;  638.450; 6847.000; 6794.000
470.762;  816.800; 8397.000; 7873.000
470.881;  892.875; 8651.000; 8464.000
470.999; 1046.475; 9685.000; 9151.000
471.118; 1110.700;11174.000;10711.000

