
Integration time [ms]: 100.000
Averaging Nr. [scans]: 40
Smoothing Nr. [pixels]: 0
Data measured with spectrometer [name]: 2101012U2
Wave   ;Sample   ;Dark     ;Reference
[nm]   ;[counts] ;[counts] ;[counts] 

197.733;   68.975;  516.000;  404.000
197.879;  -70.450; -610.000; -634.000
198.025;  -32.200; -475.000; -420.000
198.171;  -78.950; -602.000; -612.000
198.317;  -23.225; -401.000; -316.000
198.463;  -71.475; -655.000; -404.000
198.609;   30.975;  181.000; -137.000
198.755;  -83.575; -644.000; -410.000
198.901;  -59.200; -505.000; -424.000
199.047;  -66.100; -615.000; -488.000
199.193;  -30.825; -230.000; -468.000
199.339;  -44.275; -222.000; -369.000
199.485;   46.350;  330.000;  271.000
199.631;   13.350;  227.000;  310.000
199.777;  -36.750; -466.000; -398.000
199.923;  -60.475; -610.000; -424.000
200.069;   -1.025; -141.000;  -58.000
200.215;   57.925;  128.000;  453.000
200.361;   43.775;  243.000;  477.000
200.507;  -59.425; -600.000; -373.000
200.653;  -14.150; -371.000; -194.000
200.798;  -50.825; -215.000; -125.000
200.944;  -14.475; -146.000;  -41.000
201.090;   25.850;   61.000;  222.000
201.236;   12.450; -116.000; -158.000
201.382;  117.250;  874.000;  903.000
201.528;    8.475;  -58.000;  -48.000
201.674;  -33.600; -386.000; -293.000
201.819;  -52.425; -540.000; -439.000
201.965;  -78.675; -699.000; -447.000
202.111;  -20.725; -273.000; -226.000
202.257;  -40.150; -250.000; -238.000
202.402;   -8.850;   13.000;  -36.000
202.548;  -31.000; -169.000; -116.000
202.694;   89.150;  410.000; -183.000
202.840;  -80.700; -603.000; -531.000
202.985;  -60.725; -681.000; -639.000
203.131;  -98.050; -832.000; -666.000
203.277;  -15.625; -199.000; -262.000
203.423;  -58.250; -434.000; -520.000
203.568;  -36.100; -462.000; -237.000
203.714;  -69.875; -535.000; -542.000
203.860;  -77.975; -682.000; -641.000
204.005;   10.525;  112.000;  167.000
204.151;   86.300;  561.000;  556.000
204.296;  -41.175; -354.000; -221.000
204.442;  -63.525; -600.000; -547.000
204.588;  -79.800; -592.000; -579.000
204.733;   26.475;  178.000;  168.000
204.879; -139.075;-1018.000; -822.000
205.025;    5.925;  -99.000;  126.000
205.170;   -9.375;  -17.000;   94.000
205.316;   83.875;  438.000;  661.000
205.461;  -76.300; -698.000; -554.000
205.607;   84.275;  609.000;  665.000
205.752;  -75.700; -626.000; -551.000
205.898;  -42.200; -501.000; -391.000
206.043;  -64.875; -578.000; -506.000
206.189;  -23.175; -243.000; -285.000
206.334;   80.375;  554.000;  606.000
206.480;   96.575;  409.000;  239.000
206.625;  -82.750; -529.000; -552.000
206.771;  -33.400; -451.000; -373.000
206.916;  -39.125; -210.000; -537.000
207.062;  -68.075; -545.000; -591.000
207.207;  -59.000; -546.000; -443.000
207.353;   47.725;  185.000;  460.000
207.498;    5.275;  196.000;   85.000
207.643;  -47.950; -501.000; -370.000
207.789; -137.375;-1069.000; -910.000
207.934;  -75.900; -665.000; -713.000
208.080;  -23.025; -154.000;   66.000
208.225;    7.025;  -22.000;  -57.000
208.370;  -98.575; -727.000; -619.000
208.516;  -59.950; -741.000; -487.000
208.661;  -39.500; -127.000;  -69.000
208.806;  -17.300; -165.000; -171.000
208.952; -124.500;-1044.000; -731.000
209.097;   78.000;  378.000;  349.000
209.242;  -48.975; -307.000; -382.000
209.387;   75.225;  392.000;  350.000
209.533;  -50.750; -321.000; -350.000
209.678;   85.550;  472.000;  543.000
209.823;  -55.500; -408.000; -310.000
209.969;  -97.575; -860.000; -757.000
210.114; -119.175; -907.000; -719.000
210.259; -107.275; -939.000; -889.000
210.404;  -17.225; -171.000;  103.000
210.549;   20.450;  108.000;    3.000
210.695;  -18.225;   -3.000;  -95.000
210.840;   51.650;   94.000;   67.000
210.985;  -66.275; -484.000; -303.000
211.130;   64.875;  268.000;  406.000
211.275;   12.500;  207.000;  199.000
211.420;  -39.700; -300.000; -289.000
211.566;  -71.400; -536.000; -489.000
211.711;   26.775;  218.000;  157.000
211.856;  -66.200; -545.000; -519.000
212.001;   26.725;  151.000;   44.000
212.146;   22.225;  153.000;   49.000
212.291;  -13.350; -210.000; -186.000
212.436;  -37.850; -280.000;   -6.000
212.581;  -71.775; -685.000; -653.000
212.726;  -76.425; -487.000; -538.000
212.871;  -30.675; -552.000; -217.000
213.016; -152.700;-1172.000;-1029.000
213.161;   70.675;  406.000;  291.000
213.306;  -82.450; -435.000; -577.000
213.451;  -83.325; -778.000; -689.000
213.596;  -56.125; -455.000; -347.000
213.741;  -45.175; -448.000; -538.000
213.886;  -89.075; -498.000; -517.000
214.031;  -15.925; -294.000; -124.000
214.176;  -55.350; -408.000; -341.000
214.321;  -26.800; -296.000; -157.000
214.466;  -17.225; -163.000;  -43.000
214.611;   10.925;  -61.000;  -10.000
214.756; -103.950; -948.000; -858.000
214.901;  -26.825; -388.000; -226.000
215.046; -122.675; -797.000; -825.000
215.191;   26.575;  128.000;   35.000
215.336;  -31.275; -157.000;  -19.000
215.480;  -61.550; -684.000; -505.000
215.625;  -13.400; -175.000;  -19.000
215.770;  -63.400; -757.000; -662.000
215.915;  -12.750;   -5.000;  -97.000
216.060;   -7.725; -113.000;  -21.000
216.205; -109.700; -731.000; -779.000
216.349;  -60.400; -470.000; -533.000
216.494; -145.450; -939.000; -867.000
216.639; -100.075; -823.000; -888.000
216.784;  -93.725; -577.000; -525.000
216.929;   62.675;  392.000;  281.000
217.073;  -24.275; -244.000;  -31.000
217.218;   22.600;   78.000;  -47.000
217.363;  -76.700; -656.000; -618.000
217.507;  -80.425; -623.000; -588.000
217.652; -130.675; -845.000; -874.000
217.797;  -84.375; -708.000; -659.000
217.942; -117.925; -856.000; -720.000
218.086;   77.850;  608.000;  539.000
218.231;  -19.175; -174.000;  -26.000
218.376;  -24.275; -337.000; -229.000
218.520;   -8.025;  -41.000;   96.000
218.665;  -24.725; -338.000; -204.000
218.810;  -46.150; -275.000; -233.000
218.954;   24.675;  201.000;   35.000
219.099; -114.525; -713.000; -963.000
219.243;  -81.775; -589.000; -554.000
219.388;  -37.825; -264.000; -136.000
219.532;   -0.450; -116.000; -116.000
219.677;  -69.700; -564.000; -521.000
219.822;   19.475;   33.000;   89.000
219.966;   -7.050;   17.000;  -99.000
220.111;  -29.975; -328.000;  -40.000
220.255; -114.725; -797.000; -750.000
220.400;  -14.875; -180.000; -146.000
220.544;  -72.200; -516.000; -450.000
220.689;  -53.950; -422.000; -451.000
220.833;  -25.350; -123.000;  -58.000
220.978;  -47.575; -393.000; -563.000
221.122;   22.975;  319.000;  307.000
221.267; -113.775; -906.000; -837.000
221.411;  -76.325; -478.000; -394.000
221.555;    2.600; -104.000;  -23.000
221.700;  -60.300; -329.000; -222.000
221.844;   46.100;  255.000;  272.000
221.989;  -47.600; -328.000; -311.000
222.133;  -23.000; -289.000; -307.000
222.277;  -22.325;    5.000;   78.000
222.422;   21.875;  227.000;  113.000
222.566;  -43.925; -381.000; -214.000
222.711;  -45.475; -414.000; -479.000
222.855;  -73.050; -643.000; -586.000
222.999;  -69.100; -642.000; -717.000
223.144;  -28.125; -195.000; -194.000
223.288;   65.875;  423.000;  251.000
223.432;   15.875;  184.000;  230.000
223.576;   14.525;  152.000;  -21.000
223.721;   36.600;  364.000;  273.000
223.865;  -54.075; -472.000; -475.000
224.009;  204.800; 1673.000; 1631.000
224.153;  -65.625; -660.000; -671.000
224.298;  -74.100; -531.000; -489.000
224.442;   -2.675;  -74.000;  -33.000
224.586;  -10.675; -169.000; -106.000
224.730;  -94.875; -858.000; -670.000
224.875; -115.400; -739.000; -688.000
225.019;   10.575;  102.000;  188.000
225.163;   50.725;  208.000;  341.000
225.307;   35.350;   97.000;  -91.000
225.451;   31.850;  360.000;  481.000
225.595;   31.725;  264.000;  176.000
225.739;  -33.950; -170.000;  -94.000
225.884;    7.750;   86.000;    5.000
226.028; -111.300; -760.000; -626.000
226.172;  -27.125; -260.000; -273.000
226.316; -124.525; -941.000; -902.000
226.460;  -58.975; -645.000; -493.000
226.604;  -54.650; -406.000; -400.000
226.748;  -78.900; -836.000; -733.000
226.892;  -47.150; -227.000; -181.000
227.036;  -35.650; -537.000; -447.000
227.180;  -58.800; -551.000; -375.000
227.324;  -53.975; -561.000; -580.000
227.468; -112.350; -819.000; -717.000
227.612;   13.875;  242.000;  -28.000
227.756; -113.825; -845.000; -698.000
227.900;   56.525;  342.000;  441.000
228.044;  -63.850; -509.000; -290.000
228.188;   63.000;  448.000;  568.000
228.332;  -92.725; -546.000; -472.000
228.476;   -8.200; -223.000; -149.000
228.620;  -39.200; -210.000; -150.000
228.764;   75.750;  431.000;  349.000
228.908;  -32.325; -155.000;   30.000
229.052;  -46.600; -615.000; -528.000
229.195;  -24.150; -172.000;   13.000
229.339;  -16.275; -235.000; -305.000
229.483;  -42.950;    5.000; -162.000
229.627;    2.825; -156.000;  139.000
229.771;  -52.200; -218.000; -294.000
229.915;    2.375;  230.000;   79.000
230.059;  -98.500; -648.000; -663.000
230.202;  -41.900; -370.000; -317.000
230.346;  -31.225; -107.000;  107.000
230.490;  -66.675; -489.000; -521.000
230.634; -106.775; -736.000; -553.000
230.777;   79.075;  478.000;  509.000
230.921;  -58.675; -450.000; -359.000
231.065;  -44.325; -246.000; -286.000
231.209;   10.650;  261.000;  265.000
231.352;   35.175;   54.000;   40.000
231.496;    8.625;  568.000;  188.000
231.640;  -82.350; -693.000; -621.000
231.783;   64.325;  546.000;  525.000
231.927;  -38.325; -294.000; -365.000
232.071; -126.700; -962.000; -736.000
232.214; -107.800; -980.000; -764.000
232.358; -103.925; -683.000; -599.000
232.502;    7.050;  -19.000;    7.000
232.645; -143.025;-1090.000; -927.000
232.789;  -16.525; -257.000; -218.000
232.933;  -53.450; -407.000; -224.000
233.076; -122.175;-1038.000; -897.000
233.220; -120.650; -752.000; -777.000
233.363;  -57.950; -669.000; -477.000
233.507;   39.525;  371.000;  129.000
233.650;  -94.325; -764.000; -834.000
233.794;   51.300;  438.000;  461.000
233.938;  -44.900; -530.000; -362.000
234.081;  -37.275;  -93.000;   31.000
234.225;  -64.350; -631.000; -539.000
234.368; -129.700; -773.000; -723.000
234.512;  -24.600; -385.000; -299.000
234.655; -100.275; -582.000; -555.000
234.798;  -61.750; -493.000; -466.000
234.942; -127.125; -884.000;-1002.000
235.085;  -64.950; -651.000; -443.000
235.229;  -78.125; -405.000; -410.000
235.372;  -34.125; -247.000; -191.000
235.516;  -77.825; -397.000; -321.000
235.659;   17.000;   92.000;  121.000
235.802;  -16.650;  -38.000;  -22.000
235.946;   29.750;  335.000;  215.000
236.089;   22.675;  126.000;  250.000
236.233;   51.150;  275.000;  298.000
236.376;  -51.500; -235.000; -378.000
236.519;  -57.100; -297.000; -319.000
236.663;  -26.425; -215.000; -117.000
236.806; -127.325;-1029.000; -999.000
236.949;   56.525;  543.000;  431.000
237.092;   58.225;  412.000;  391.000
237.236;  -88.575; -589.000; -502.000
237.379;   52.050;  352.000;  428.000
237.522; -122.075; -879.000; -768.000
237.666;  -18.425; -271.000;   18.000
237.809; -125.200; -851.000; -823.000
237.952;   33.650;  469.000;  271.000
238.095;  -71.350; -447.000; -442.000
238.238;   81.425;  688.000;  700.000
238.382;  -13.000;  166.000;  103.000
238.525;  -66.350; -598.000; -511.000
238.668; -147.600;-1060.000; -985.000
238.811;  -73.625; -638.000; -643.000
238.954;  -66.050; -483.000; -334.000
239.097;   98.775;  617.000;  664.000
239.241;   22.650;  394.000;  326.000
239.384;  -28.400; -254.000; -214.000
239.527;  -61.225; -424.000; -224.000
239.670; -137.125; -994.000;-1091.000
239.813; -114.900; -696.000; -658.000
239.956;   84.725;  579.000;  473.000
240.099; -113.800; -778.000; -725.000
240.242;   56.150;  428.000;  432.000
240.385;   22.975;  466.000;  450.000
240.528;  -57.675; -706.000; -473.000
240.671;    6.525;  189.000;  134.000
240.814;  -23.400; -441.000; -158.000
240.957;  -99.725; -767.000; -578.000
241.100;  -91.625; -779.000; -755.000
241.243; -146.100;-1234.000; -893.000
241.386;  -59.075; -508.000; -379.000
241.529;  -92.975; -735.000; -547.000
241.672;  -60.550; -566.000; -495.000
241.815; -128.350; -832.000; -808.000
241.958;  -17.125; -125.000; -182.000
242.101;  -84.325; -545.000; -390.000
242.244;  -28.825; -270.000; -325.000
242.387;  -63.200; -304.000; -246.000
242.530;   64.700;  470.000;  134.000
242.673;  -46.325; -381.000; -309.000
242.815; -112.375; -925.000; -899.000
242.958;  -83.575; -482.000; -381.000
243.101;   10.250;  132.000;  187.000
243.244;  -92.800; -564.000; -521.000
243.387;  -35.050; -313.000; -316.000
243.530;  -96.275; -657.000; -674.000
243.672;    1.825;   43.000;  -92.000
243.815;  -52.400; -355.000; -283.000
243.958;  -11.375;   98.000;  -26.000
244.101;    2.375;   59.000;  -16.000
244.243;   -9.200;  -47.000;  101.000
244.386; -121.075; -761.000; -630.000
244.529;  -18.750; -132.000; -139.000
244.672; -147.175;-1154.000; -951.000
244.814;  -68.850; -621.000; -794.000
244.957;  -46.850; -380.000; -304.000
245.100;  -75.950; -489.000; -489.000
245.242;  -57.050; -387.000; -374.000
245.385;   -0.575;  -59.000;  -39.000
245.528; -132.800; -871.000; -705.000
245.670;   95.875;  612.000;  634.000
245.813;  -90.225; -599.000; -547.000
245.956;  -25.175; -324.000; -275.000
246.098;  -69.700; -508.000; -650.000
246.241;   13.275;  194.000;   48.000
246.383;  -14.150; -119.000;  -73.000
246.526;  -67.325; -454.000; -525.000
246.669; -125.700; -889.000; -780.000
246.811;   26.125;  172.000;   -1.000
246.954;  -71.575; -512.000; -426.000
247.096;  -12.550;  -84.000;   -6.000
247.239;  -75.725; -482.000; -445.000
247.381;  -50.800; -647.000; -488.000
247.524;   68.725;  645.000;  679.000
247.666;   -5.525;   58.000;   11.000
247.809; -134.150; -887.000; -691.000
247.951;  -12.175;  -75.000;  138.000
248.094;   23.325;  432.000;  308.000
248.236; -149.875;-1262.000;-1238.000
248.378;    5.125; -356.000;  -81.000
248.521;  -20.325; -334.000; -337.000
248.663;  -39.875; -236.000; -267.000
248.806;  -11.075; -300.000; -266.000
248.948; -100.525; -886.000; -763.000
249.090;  -29.225; -428.000; -398.000
249.233;  -51.400; -344.000; -381.000
249.375;  -60.700; -474.000; -451.000
249.518;  -17.550;  -83.000; -133.000
249.660;   11.825; -103.000;    3.000
249.802; -179.050;-1303.000;-1189.000
249.945;  -59.025; -612.000; -540.000
250.087; -122.825; -834.000; -768.000
250.229;  -49.600; -362.000; -480.000
250.371;  -89.675; -494.000; -439.000
250.514;  -45.525; -310.000; -244.000
250.656;  -16.400;   69.000;  102.000
250.798; -103.450; -849.000; -800.000
250.940;  -64.275; -322.000; -322.000
251.083;  -18.950; -335.000; -111.000
251.225;   45.225;  338.000;  310.000
251.367;  -39.325; -274.000; -373.000
251.509;  -42.375; -265.000; -210.000
251.651;  -93.500; -731.000; -671.000
251.794;   53.475;  538.000;  632.000
251.936; -102.500; -821.000; -747.000
252.078;  -92.675; -540.000; -461.000
252.220;  -61.250; -645.000; -477.000
252.362;   80.150;  344.000;  462.000
252.504;  -67.525; -677.000; -584.000
252.646; -113.550; -875.000; -722.000
252.788;    9.875;   14.000; -128.000
252.931;  -40.625; -257.000; -253.000
253.073;  -39.375; -376.000; -317.000
253.215;  -12.975;  141.000;  122.000
253.357;   -9.950;   82.000; -153.000
253.499;  -55.325; -374.000; -234.000
253.641;  -81.450; -749.000; -594.000
253.783; -103.975; -609.000; -527.000
253.925;  -75.725; -586.000; -591.000
254.067; -108.375; -744.000; -667.000
254.209;  -23.650; -391.000; -259.000
254.351; -153.900; -865.000; -883.000
254.493;  -44.150; -441.000; -417.000
254.635; -141.800; -936.000; -818.000
254.777;  -86.725; -752.000; -687.000
254.918;  -83.825; -512.000; -430.000
255.060;  -47.825; -551.000; -395.000
255.202;  -65.600; -473.000; -261.000
255.344;  -74.075; -658.000; -455.000
255.486;  -85.625; -471.000; -406.000
255.628;  -91.350; -780.000; -781.000
255.770;  -99.525; -676.000; -536.000
255.912;  -53.125; -559.000; -468.000
256.053; -103.375; -730.000; -508.000
256.195;  161.975; 1008.000;  903.000
256.337; -105.125; -861.000; -595.000
256.479;   70.575;  532.000;  416.000
256.621;  -51.475; -394.000; -212.000
256.762;  -90.275; -789.000; -742.000
256.904;   57.800;  485.000;  487.000
257.046;  -35.900; -381.000; -271.000
257.188;  -62.250; -351.000; -264.000
257.329;  -61.725; -525.000; -464.000
257.471; -122.450; -939.000; -807.000
257.613;  -57.325; -584.000; -498.000
257.755; -150.775;-1073.000; -982.000
257.896;   40.525;  286.000;  392.000
258.038;  -82.950; -403.000; -352.000
258.180;  -33.725; -354.000; -279.000
258.321;  -78.400; -581.000; -457.000
258.463;   12.300;  -71.000;  133.000
258.605;  -82.025; -562.000; -570.000
258.746;  -92.100; -886.000; -772.000
258.888; -160.425;-1026.000;-1020.000
259.029;   30.500;  121.000;   -8.000
259.171; -103.100; -614.000; -550.000
259.313;   18.400;  -49.000;  -47.000
259.454;  -90.725; -536.000; -414.000
259.596;  -43.400; -483.000; -390.000
259.737;  -77.375; -590.000; -474.000
259.879;   37.900;  217.000;  311.000
260.020;   76.000;  901.000;  636.000
260.162;  -32.125; -146.000; -253.000
260.303; -132.800; -768.000; -687.000
260.445;  -83.875; -609.000; -613.000
260.586;   17.975;  392.000;  157.000
260.728;  -37.625; -360.000; -248.000
260.869; -132.325; -350.000; -343.000
261.011;   80.725;  706.000;  537.000
261.152;  -71.850; -479.000; -319.000
261.293;  -74.100; -576.000; -595.000
261.435;  -36.200; -219.000; -184.000
261.576;  -44.600; -455.000; -325.000
261.718;   40.625;  420.000;  470.000
261.859; -132.600; -940.000; -949.000
262.000; -136.200; -951.000;-1016.000
262.142;  -14.275;  -52.000;  -60.000
262.283; -120.925; -808.000; -691.000
262.424;  -76.175; -666.000; -625.000
262.566; -159.650;-1161.000; -983.000
262.707; -106.350; -840.000; -830.000
262.848; -136.250; -769.000; -726.000
262.990;  -44.575; -362.000; -345.000
263.131;   73.875;  650.000;  681.000
263.272;    0.850;  -61.000;  -41.000
263.413;  -99.175; -589.000; -561.000
263.555;  -58.975; -669.000; -143.000
263.696;  -99.175; -550.000; -641.000
263.837;  -60.725; -449.000; -551.000
263.978;  -20.125;   -5.000;  -77.000
264.119;  -31.050; -283.000; -264.000
264.261; -137.550; -847.000; -630.000
264.402;   -9.625;   33.000;   40.000
264.543;  -90.900; -509.000; -524.000
264.684;    0.900;   61.000;  -50.000
264.825;  -90.800; -816.000; -538.000
264.966;    4.600;  -84.000;  -67.000
265.107; -116.775; -646.000; -670.000
265.248; -108.000; -825.000; -812.000
265.390;   -6.250;  152.000;   -9.000
265.531;  -17.225; -238.000; -107.000
265.672;  -88.450; -557.000; -630.000
265.813;   67.775;  563.000;  439.000
265.954; -154.700; -959.000; -940.000
266.095;  -16.025; -372.000; -322.000
266.236; -103.300; -686.000; -548.000
266.377;  -28.650; -243.000; -297.000
266.518;  -78.925; -619.000; -547.000
266.659;   37.250;  170.000;  268.000
266.800;   -0.400;   83.000;   85.000
266.941;  -64.300; -487.000; -478.000
267.082;   13.425;  354.000;   99.000
267.223;  -47.875; -344.000; -273.000
267.364; -115.150; -892.000; -686.000
267.504;   -6.100;    3.000;  135.000
267.645;   -8.225;  160.000;   67.000
267.786;  -26.150; -147.000;  -86.000
267.927;  -88.850; -473.000; -379.000
268.068;   -4.450; -186.000;  -61.000
268.209;  -59.000; -175.000; -413.000
268.350;  -61.950; -388.000; -532.000
268.490;  -97.375; -648.000; -521.000
268.631;   25.150;  127.000;  225.000
268.772; -116.625; -874.000; -647.000
268.913;  -41.675; -328.000; -476.000
269.054;  -24.500; -117.000;   12.000
269.194;  -43.575; -418.000; -402.000
269.335; -155.850;-1137.000;-1074.000
269.476;  -17.000;   33.000;  -35.000
269.617;  -67.625; -347.000; -392.000
269.757;  -92.800; -713.000; -646.000
269.898; -119.975; -856.000; -613.000
270.039;  -53.825; -415.000; -405.000
270.180; -149.450; -952.000; -816.000
270.320;  -21.625; -190.000; -250.000
270.461;  -42.925; -277.000; -249.000
270.602;  -11.175; -186.000; -156.000
270.742; -125.375; -868.000; -943.000
270.883;  -40.850; -442.000; -390.000
271.023;  -62.725; -358.000; -357.000
271.164;  -65.875; -607.000; -528.000
271.305; -100.275; -666.000; -654.000
271.445;  -92.600; -722.000; -683.000
271.586;  -70.450; -462.000; -283.000
271.726;  -40.150; -397.000; -322.000
271.867;  -68.700; -594.000; -534.000
272.008;  198.750; -473.000; -285.000
272.148;  133.825;  462.000;  468.000
272.289;    4.000; -113.000; -181.000
272.429;   -2.550;   19.000;  185.000
272.570;  -76.150; -633.000; -737.000
272.710; -119.025; -825.000; -775.000
272.851;   -9.600;  113.000; -130.000
272.991; -179.850;-1173.000;-1077.000
273.131;  -50.850; -419.000; -459.000
273.272; -106.975; -683.000; -723.000
273.412;   25.300; -143.000;  -31.000
273.553;  -58.375; -488.000; -507.000
273.693;  134.525;  913.000;  858.000
273.834;  -99.875; -894.000; -692.000
273.974;  -58.875; -664.000; -615.000
274.114; -107.275; -772.000; -560.000
274.255;   83.850;  414.000;  373.000
274.395;   -1.600; -180.000; -125.000
274.535;   43.625;  199.000;  350.000
274.676;   21.950;  225.000;   94.000
274.816;    4.575;  110.000;   34.000
274.956;  -93.975; -624.000; -690.000
275.097;  -54.550;-1014.000; -922.000
275.237; -113.750; -913.000; -803.000
275.377;  -90.900; -778.000; -689.000
275.517; -155.475; -878.000; -937.000
275.658;  -52.725; -590.000; -555.000
275.798;  -75.250; -606.000; -413.000
275.938;   28.600;  215.000;  323.000
276.078; -104.625; -626.000; -395.000
276.218;    9.825;   99.000;  104.000
276.359; -123.650;-1026.000;-1024.000
276.499;  -66.000; -605.000; -446.000
276.639;  -40.600; -305.000; -151.000
276.779;  -51.100; -475.000; -357.000
276.919; -110.550; -783.000; -624.000
277.059;   -3.050; -261.000; -212.000
277.199;  -37.625; -357.000; -259.000
277.340;   61.525;  287.000;  175.000
277.480; -103.500; -840.000; -693.000
277.620;   25.250;  192.000;   16.000
277.760; -202.075;-1533.000;-1294.000
277.900;   17.025;  113.000;   33.000
278.040;   10.075;  137.000;  159.000
278.180;   51.400;  270.000;  170.000
278.320;   -9.200;   21.000;   56.000
278.460;  -77.625; -443.000; -469.000
278.600;  -83.600; -708.000; -598.000
278.740;   56.075;  448.000;  224.000
278.880;  -57.125; -768.000; -791.000
279.020;    4.075; -194.000; -144.000
279.160; -100.175; -672.000; -595.000
279.300; -113.575; -926.000; -873.000
279.440;  -89.525; -709.000; -622.000
279.579;    4.125;-1014.000; -929.000
279.719;  -42.650; -410.000; -394.000
279.859;   88.050;   -4.000;   41.000
279.999;   24.475; -208.000;  101.000
280.139;  -11.250; -435.000; -387.000
280.279;  -77.050; -708.000; -745.000
280.419;  -10.175; -229.000; -147.000
280.559;  -32.575; -259.000; -180.000
280.698;  -71.825; -790.000; -639.000
280.838;  -96.025; -778.000; -800.000
280.978;  -81.375; -846.000; -790.000
281.118; -126.400; -811.000; -704.000
281.257;   14.025;   24.000;    6.000
281.397; -116.250;-1094.000; -960.000
281.537;  -88.400; -599.000; -712.000
281.677;  -40.875; -150.000; -101.000
281.816;  -87.875; -700.000; -630.000
281.956;  -34.375; -193.000; -257.000
282.096;  -49.275; -539.000; -396.000
282.235; -113.675; -672.000; -638.000
282.375;  -12.100; -243.000;  -98.000
282.515; -102.725; -715.000; -707.000
282.654;   40.250;   29.000;  106.000
282.794;   22.100;  388.000;  244.000
282.934;  -46.825; -530.000; -491.000
283.073; -143.425;-1030.000; -857.000
283.213;  -49.900; -460.000; -467.000
283.353;  -44.125; -408.000; -349.000
283.492;  -24.400; -264.000; -296.000
283.632;  -41.750; -254.000; -168.000
283.771;  -88.675; -859.000; -730.000
283.911;  -63.225; -369.000; -260.000
284.050; -107.300; -794.000; -748.000
284.190; -164.150;-1229.000;-1096.000
284.329; -141.900;-1055.000; -964.000
284.469;  -73.100; -516.000; -591.000
284.608;  -52.200; -559.000; -598.000
284.748;  -90.475; -614.000; -570.000
284.887;   10.025;  -87.000;  -20.000
285.027; -137.150; -844.000; -892.000
285.166;  -27.250; -192.000; -249.000
285.306;   -3.675; -116.000;  -33.000
285.445;  -43.525; -229.000; -343.000
285.584;  -95.575; -630.000; -494.000
285.724;  -36.175; -282.000; -322.000
285.863; -117.075; -857.000; -507.000
286.002;  -49.400; -366.000; -276.000
286.142; -104.900; -715.000; -622.000
286.281;  -72.050; -525.000; -493.000
286.420;  -81.825; -554.000; -417.000
286.560;   83.125;  653.000;  623.000
286.699; -145.625; -958.000; -912.000
286.838;  -82.650; -590.000; -591.000
286.978; -105.250; -533.000; -537.000
287.117; -132.350;-1085.000; -950.000
287.256;  -41.750; -228.000; -211.000
287.395;  -32.825; -197.000; -378.000
287.535;  -57.625; -370.000; -298.000
287.674;  -66.550; -509.000; -484.000
287.813;   45.000;  661.000;  533.000
287.952; -113.925;-1010.000; -871.000
288.091; -149.275;-1049.000; -915.000
288.231;   24.925;   13.000;   15.000
288.370; -182.575;-1217.000;-1200.000
288.509;  -72.475; -728.000; -645.000
288.648; -102.050; -770.000; -548.000
288.787;  -27.350; -243.000;  -87.000
288.926;  -68.075; -454.000; -475.000
289.065;  131.775;  859.000;  672.000
289.204;  -51.000; -377.000; -217.000
289.344;  -74.375; -791.000; -690.000
289.483;   21.800;  416.000;  304.000
289.622;  -11.125; -291.000; -149.000
289.761;  -21.400; -309.000; -166.000
289.900;  -88.075; -785.000; -626.000
290.039;  -17.250;  -12.000;  -95.000
290.178;  -41.475; -274.000; -180.000
290.317;  -99.825; -618.000; -479.000
290.456;  -66.025; -463.000; -451.000
290.595; -156.300; -961.000; -833.000
290.734; -128.500; -904.000; -891.000
290.873;  -63.500; -456.000; -420.000
291.011; -113.700; -833.000; -843.000
291.150; -102.350; -770.000; -682.000
291.289;  -13.825; -343.000; -110.000
291.428;  -89.625; -599.000; -480.000
291.567;  -44.700; -370.000; -442.000
291.706;   -9.750;  109.000;  154.000
291.845;  -68.825; -597.000; -505.000
291.984; -180.625;-1234.000;-1061.000
292.122;   87.075;  602.000;  582.000
292.261;   42.775;  620.000;  463.000
292.400;   12.200; -144.000;  211.000
292.539; -129.450; -959.000; -813.000
292.678;  -19.675; -325.000; -300.000
292.816; -169.050;-1136.000; -965.000
292.955;  -79.625; -844.000; -684.000
293.094;  -32.700; -173.000; -337.000
293.233;  -48.625; -556.000; -400.000
293.371;  -31.625; -225.000;  -84.000
293.510; -109.525; -866.000; -780.000
293.649; -146.650; -959.000; -924.000
293.787;  -47.775;-1083.000;-1012.000
293.926;   -1.900; -113.000;  -32.000
294.065;  -31.500; -379.000; -290.000
294.203;   40.625;  298.000;  406.000
294.342;   22.075;   74.000;  156.000
294.481; 6316.600;51180.000; -836.000
294.619;  -26.600; -425.000; -582.000
294.758; -140.150;-1230.000;-1137.000
294.896;   76.350; -125.000;    5.000
295.035; -127.550;-1040.000;-1006.000
295.174; -117.125;-1082.000; -954.000
295.312;  -44.075; -323.000; -203.000
295.451;    9.825; -307.000; -428.000
295.589;  -68.850; -389.000; -518.000
295.728;   26.900; -292.000; -165.000
295.866;    4.275;  -36.000;  -51.000
296.005;  -48.575; -584.000; -341.000
296.143;  -59.600; -558.000; -596.000
296.282;  -92.825; -957.000; -881.000
296.420;  -97.975; -657.000; -557.000
296.559;  -70.625; -892.000; -633.000
296.697;   24.800; -847.000; -665.000
296.835;   86.650;-1141.000;-1002.000
296.974;   50.200;  -23.000;   39.000
297.112;   29.600; -443.000; -504.000
297.251;  -81.775; -815.000; -755.000
297.389;  106.075; -576.000; -438.000
297.527;   32.575; -145.000;  -83.000
297.666;  -38.375; -486.000; -438.000
297.804;  -54.950; -404.000; -264.000
297.942;    0.700; -136.000; -161.000
298.081;  -22.475; -183.000;   63.000
298.219;   88.025;  -17.000;  -19.000
298.357;   45.600; -144.000;  -71.000
298.495;   68.575; -810.000; -812.000
298.634;   75.250;  245.000;  219.000
298.772;   67.175; -220.000; -338.000
298.910;  -43.275; -309.000; -182.000
299.048;   -5.575; -130.000; -153.000
299.187;  -44.675; -350.000; -250.000
299.325;   22.750;   52.000;  122.000
299.463;   71.525; -389.000; -299.000
299.601;  142.575; -327.000; -271.000
299.739;  -99.300; -908.000; -883.000
299.877;  -56.925; -791.000; -703.000
300.016;  -42.050;-1095.000; -935.000
300.154;  195.250;  -19.000; -161.000
300.292;   64.150; -428.000; -348.000
300.430;   32.925; -408.000; -291.000
300.568; -103.400; -940.000; -874.000
300.706;  -45.900; -366.000; -469.000
300.844;  -75.150;-1108.000; -979.000
300.982;  127.725;  246.000;  282.000
301.120; -108.625; -965.000; -866.000
301.258;  -60.775; -812.000; -705.000
301.396;   28.075;  104.000;  -41.000
301.534;  116.550; -218.000; -293.000
301.672;    8.900; -664.000; -521.000
301.810;   60.725; -613.000; -545.000
301.948;  124.025;   53.000;  149.000
302.086;  702.125; -250.000;  -32.000
302.224; 1044.825; -610.000; -585.000
302.362;   48.825; -558.000; -622.000
302.500;  -13.975; -923.000; -893.000
302.638;  124.400;  128.000;  245.000
302.776;  -12.625; -352.000; -408.000
302.913;   45.650;  447.000;  236.000
303.051;    2.400;  -86.000;  -23.000
303.189;   63.550;   90.000;  118.000
303.327;  -41.550; -341.000; -256.000
303.465;  -68.575; -832.000; -588.000
303.603; -104.425; -805.000; -604.000
303.740;  113.500;  417.000;  241.000
303.878;   25.800; -800.000; -759.000
304.016;  -90.075; -915.000; -790.000
304.154; -131.150;-1123.000;-1152.000
304.291;  -24.325; -505.000; -554.000
304.429;   -4.025;  102.000;   74.000
304.567; -120.825; -908.000; -893.000
304.705;  -55.500; -408.000; -515.000
304.842;  128.150; -616.000; -540.000
304.980;   53.900;  215.000;   35.000
305.118;   63.575; -367.000; -365.000
305.255;  -70.825; -945.000; -927.000
305.393;   64.550;  178.000;  239.000
305.531;  -90.825;-1173.000; -956.000
305.668;  -61.625; -663.000; -582.000
305.806;  104.275; -358.000; -439.000
305.943;  127.975; -629.000; -637.000
306.081;   52.275; -378.000; -267.000
306.219;  -96.625; -863.000; -748.000
306.356;   -6.175;  158.000;   27.000
306.494;  120.775;  981.000;  761.000
306.631;   -3.550;  -11.000;  -55.000
306.769;   19.700; -613.000; -485.000
306.906;  -22.100; -284.000; -258.000
307.044;  -62.050; -473.000; -488.000
307.181;  -77.375; -410.000; -332.000
307.319;   20.575;  112.000;   87.000
307.456; -168.875;-1191.000;-1153.000
307.594;  -97.975; -980.000; -727.000
307.731;  -20.950; -371.000; -164.000
307.868;   10.725;  -15.000;   20.000
308.006; -142.100; -961.000; -847.000
308.143;  -61.175; -618.000; -330.000
308.281;  174.800;  -37.000; -254.000
308.418;    6.400; -748.000; -640.000
308.555;  -79.175; -400.000; -250.000
308.693;  -57.800; -577.000; -573.000
308.830; -120.250; -712.000; -657.000
308.967;    6.650; -215.000;  -95.000
309.105;  -57.625; -507.000; -396.000
309.242;   56.500; -468.000; -367.000
309.379;  342.025; -577.000; -655.000
309.517;  -42.550; -936.000; -948.000
309.654; -112.450; -910.000; -734.000
309.791;  -74.075; -662.000; -580.000
309.928; -126.950; -977.000; -914.000
310.065;  213.300;  819.000;  697.000
310.203;    3.750; -825.000; -850.000
310.340;   -4.475; -465.000; -321.000
310.477;  -74.200; -412.000; -516.000
310.614;  -48.650; -383.000; -473.000
310.751;  -73.350; -427.000; -518.000
310.889;  -13.650;    1.000;   11.000
311.026; -154.100;-1161.000; -939.000
311.163;  -32.875; -386.000; -380.000
311.300;  -66.700; -512.000; -479.000
311.437;  -74.200; -658.000; -619.000
311.574; -157.325;-1226.000; -985.000
311.711;  -59.550; -595.000; -433.000
311.848;  -43.675; -380.000; -388.000
311.985;   17.825;  270.000;   93.000
312.122; -135.800; -932.000; -762.000
312.259; -100.650; -941.000; -994.000
312.396;  -89.550; -508.000; -551.000
312.533;  -85.875; -812.000; -790.000
312.670; -130.375;-1070.000; -898.000
312.807;  -25.600; -352.000; -367.000
312.944;  -68.775; -513.000; -611.000
313.081;  -22.500; -150.000; -415.000
313.218; -102.500;-1111.000; -867.000
313.355;   13.575; -531.000; -449.000
313.492;   -2.275; -455.000; -292.000
313.629;  145.400;  815.000;  735.000
313.766; -147.200;-1176.000;-1008.000
313.902;   -3.200; -186.000;   21.000
314.039;  -57.225; -372.000; -289.000
314.176;   30.675;  286.000;  192.000
314.313;  -79.425; -569.000; -473.000
314.450;  -75.550; -788.000; -684.000
314.587;  -81.125; -468.000; -480.000
314.723;    4.950;  -78.000;  130.000
314.860;    9.350;  318.000;  332.000
314.997;   40.100;  223.000;  142.000
315.134;  -37.375; -385.000; -368.000
315.270;  -33.175; -480.000; -496.000
315.407; -127.000;-1094.000; -967.000
315.544;  -50.525; -657.000; -538.000
315.681;  -66.350; -681.000; -565.000
315.817;   40.750; -133.000; -176.000
315.954;   28.625; -613.000; -392.000
316.091; -114.675;-1045.000;-1023.000
316.227;  -32.325;  -71.000; -179.000
316.364;  -13.300;   23.000;    6.000
316.500;  -49.300; -113.000; -300.000
316.637;  -39.850; -181.000; -302.000
316.774;  -85.750; -625.000; -358.000
316.910;  -84.575; -598.000; -629.000
317.047;  -74.250; -487.000; -351.000
317.183;  -38.575; -435.000; -566.000
317.320;  -27.100; -367.000; -321.000
317.456;  -65.375; -733.000; -805.000
317.593;  -86.475; -598.000; -641.000
317.729;   16.975;  168.000;  -67.000
317.866; -198.475;-1434.000;-1285.000
318.002;  -85.525; -708.000; -948.000
318.139;  -99.300; -883.000; -867.000
318.275;  -88.325;-1003.000; -738.000
318.412;  -63.875; -517.000; -336.000
318.548;  -30.350; -751.000; -720.000
318.685; -105.700; -985.000; -888.000
318.821;  -88.600; -762.000; -735.000
318.957;  -11.025;   34.000;  -23.000
319.094;   52.625;  297.000;  154.000
319.230;  -52.800; -756.000; -742.000
319.367;  159.275; -471.000; -520.000
319.503;   80.000; -538.000; -436.000
319.639;  -91.675; -877.000; -793.000
319.775;  -65.125; -750.000; -685.000
319.912;  -38.725; -424.000; -519.000
320.048;  -84.175;-1184.000;-1184.000
320.184;   82.975;   59.000;   70.000
320.321;  -66.500; -497.000; -467.000
320.457;   81.325;  475.000;  662.000
320.593;  -68.675; -375.000; -382.000
320.729;  -93.775; -732.000; -734.000
320.866;  -77.175; -577.000; -635.000
321.002;  -74.300; -759.000; -809.000
321.138;  -15.700; -135.000; -211.000
321.274;   92.500; -148.000; -115.000
321.410;  -22.975; -585.000; -353.000
321.546;   -4.150;-1011.000; -911.000
321.683;   39.050;  400.000;  185.000
321.819;   11.575;  -48.000; -117.000
321.955; -108.550; -743.000; -722.000
322.091;  -40.175; -585.000; -540.000
322.227;  -17.625; -382.000; -202.000
322.363;   -9.650; -320.000; -215.000
322.499;  -53.400; -343.000; -331.000
322.635;  182.175;  636.000;  443.000
322.771;   10.875; -139.000;   12.000
322.907;   90.925;  129.000;  327.000
323.043;  -34.925; -115.000; -206.000
323.179;  -15.200; -394.000; -363.000
323.315;   37.150; -401.000; -371.000
323.451;  104.100; -328.000; -236.000
323.587;   57.275;  -60.000;  -77.000
323.723;   18.075; -682.000; -601.000
323.859;  -13.975; -258.000;  -76.000
323.995;  -29.525; -467.000; -409.000
324.131; -115.850; -967.000; -892.000
324.267;  -25.375; -254.000; -276.000
324.402; -134.100; -960.000; -983.000
324.538;  -12.950; -279.000; -104.000
324.674;    6.275;  164.000;   77.000
324.810;  140.350;  226.000;  308.000
324.946;   17.675; -810.000; -658.000
325.082;  -53.425; -568.000; -475.000
325.217;   -8.125;  -62.000;   16.000
325.353; -100.000; -764.000; -659.000
325.489; -101.750; -540.000; -506.000
325.625;  -60.900; -579.000; -525.000
325.760;   60.700;  517.000;  376.000
325.896;  -23.425; -515.000; -702.000
326.032;  -63.875; -403.000; -352.000
326.168;  -57.525; -462.000; -369.000
326.303;  -60.100; -352.000; -461.000
326.439;  -19.325; -336.000; -276.000
326.575;   -7.050; -190.000;  -29.000
326.710;   -4.675; -156.000;  -30.000
326.846;  -16.150;  146.000;  103.000
326.982;  -81.950; -530.000; -548.000
327.117;  -74.450; -481.000; -442.000
327.253;  -71.500; -745.000; -742.000
327.388; -156.750;-1137.000;-1153.000
327.524;  -30.650; -811.000; -578.000
327.659;  -30.225;  -58.000;  -22.000
327.795;   -1.450;   69.000;   45.000
327.931;  -92.200; -723.000; -499.000
328.066;  -14.550; -417.000; -276.000
328.202;  -11.450;   12.000; -129.000
328.337;  108.175;  957.000;  713.000
328.473;   15.750;  -12.000;  -74.000
328.608;  -19.375; -256.000; -267.000
328.743;  -87.175; -799.000; -664.000
328.879;   23.575;  214.000;  114.000
329.014;  -47.050; -102.000; -122.000
329.150;  -88.125; -358.000; -483.000
329.285;  -87.600; -465.000; -466.000
329.421;  -39.800; -548.000; -246.000
329.556;  -26.600;  -36.000;   85.000
329.691;  -92.075; -633.000; -615.000
329.827;  -94.800; -626.000; -480.000
329.962;  -29.250;  131.000; -301.000
330.097; -102.850; -673.000; -585.000
330.233;  -43.300; -410.000; -223.000
330.368; -140.625; -839.000; -628.000
330.503;    0.150;    3.000;   98.000
330.638;    3.950;  -93.000; -125.000
330.774;  -38.650; -609.000; -530.000
330.909;  -57.225; -434.000; -244.000
331.044;  -88.875; -714.000; -708.000
331.179; -178.375;-1217.000;-1109.000
331.315;   -0.925;   77.000;   20.000
331.450;   24.025;  157.000;  285.000
331.585;  -71.025; -805.000; -706.000
331.720;  -82.425; -510.000; -460.000
331.855;   -8.675;  -35.000; -102.000
331.990;  231.300;   62.000;  138.000
332.126;  124.600; -110.000;   71.000
332.261;  -21.000; -379.000; -265.000
332.396;   -5.950; -135.000; -242.000
332.531; -101.200;-1074.000;-1031.000
332.666;   34.325; -519.000; -363.000
332.801; -104.325; -726.000; -807.000
332.936;  -10.800; -192.000; -122.000
333.071; -151.650; -870.000; -817.000
333.206;   27.200;  307.000;  379.000
333.341;   25.100;  344.000;  418.000
333.476;  -88.700; -627.000; -623.000
333.611;  -40.775; -251.000; -173.000
333.746;  -36.075; -381.000; -464.000
333.881; -125.550; -973.000; -935.000
334.016; -117.625; -936.000; -917.000
334.151; -122.850; -746.000; -702.000
334.286;   27.600;  152.000;  186.000
334.421;  -21.325; -125.000; -178.000
334.556;  -73.400; -611.000; -567.000
334.690;  -98.975; -631.000; -577.000
334.825;   63.750;  381.000;   83.000
334.960;  -70.400; -285.000; -413.000
335.095;   19.075;  135.000;  -91.000
335.230; -107.250; -722.000; -738.000
335.365; -128.350;-1084.000; -990.000
335.499; -136.825;-1108.000;-1037.000
335.634;   18.475;    9.000;  534.000
335.769;  -96.750; -755.000; -720.000
335.904;  -59.800; -603.000; -561.000
336.038;  -58.100; -735.000; -657.000
336.173; -105.075;-1206.000;-1194.000
336.308;    5.175; -116.000; -189.000
336.443;   19.800; -544.000; -634.000
336.577;  -70.100; -936.000; -787.000
336.712;   72.575;   -4.000;  -12.000
336.847;  -44.125; -724.000; -607.000
336.981;   69.000; -272.000; -208.000
337.116;  292.900;  615.000;  501.000
337.250;  165.200; -434.000; -421.000
337.385;  251.575; -297.000; -208.000
337.520;   88.250; -632.000; -603.000
337.654;  -43.650; -215.000; -126.000
337.789; -116.375; -989.000; -933.000
337.923;  -34.525; -104.000; -205.000
338.058;  -81.050; -673.000; -738.000
338.192;  -37.075; -611.000; -488.000
338.327;   12.150;  -18.000; -155.000
338.461;  -80.025; -299.000; -469.000
338.596;  -83.675; -780.000; -638.000
338.730; -108.175; -767.000; -803.000
338.865;   95.825;  -46.000; -140.000
338.999;  -56.850; -846.000; -702.000
339.134;  -12.575; -634.000; -536.000
339.268;   10.500; -741.000; -603.000
339.403;  368.700; -740.000; -775.000
339.537;   94.350; -894.000; -820.000
339.671; -116.350; -829.000; -813.000
339.806;  -75.050; -556.000; -512.000
339.940;   13.750; -261.000; -235.000
340.074; -101.400; -685.000; -510.000
340.209;  -44.425; -351.000; -230.000
340.343;  -97.500; -517.000; -573.000
340.477;  148.550;  998.000; 1036.000
340.612;  -55.175;-1033.000; -900.000
340.746;  152.950; -199.000; -243.000
340.880;  -76.850; -924.000; -785.000
341.014;  -14.250;  -45.000; -154.000
341.149; -114.225; -756.000; -718.000
341.283;  -97.875; -839.000; -754.000
341.417;  -87.050;-1124.000; -938.000
341.551;  161.700; -768.000; -708.000
341.685;  -14.300; -633.000; -611.000
341.820;  -31.450; -562.000; -493.000
341.954;  -53.800; -218.000; -349.000
342.088; -147.050;-1102.000;-1019.000
342.222;   57.200;  565.000;  618.000
342.356;  -50.100; -395.000; -335.000
342.490;  -96.950; -880.000; -841.000
342.624;  -45.750; -339.000; -242.000
342.758;  -11.875; -364.000; -312.000
342.892;  -38.350; -710.000; -585.000
343.026;  -50.475;  -58.000; -116.000
343.160;  -55.975; -426.000; -376.000
343.294;  -88.025; -474.000; -337.000
343.428;    4.600; -488.000; -448.000
343.562;  -12.175; -172.000;  -23.000
343.696;   -8.900; -385.000; -314.000
343.830;  -20.125; -362.000; -356.000
343.964;   24.275; -231.000; -168.000
344.098; 1025.800;  199.000;   70.000
344.232;  882.925; -266.000; -127.000
344.366;   95.825; -567.000; -453.000
344.500;   87.625; -665.000; -744.000
344.634;   32.850; -324.000; -164.000
344.768;  -16.950; -531.000; -341.000
344.902;   19.825;  278.000;  256.000
345.035;  -70.350; -556.000; -496.000
345.169; -137.175; -933.000; -656.000
345.303;  -20.350; -308.000; -482.000
345.437;  -67.025; -826.000; -717.000
345.571;  -68.200; -675.000; -594.000
345.704;  -67.850; -309.000; -532.000
345.838;   -8.250; -331.000; -284.000
345.972;  -49.250; -543.000; -495.000
346.106;  162.700; -179.000; -190.000
346.239;  410.500; -312.000; -243.000
346.373;   19.425; -343.000; -302.000
346.507; -139.375; -950.000; -962.000
346.640;  178.375;  -30.000;   13.000
346.774;  -43.150; -650.000; -797.000
346.908;   -9.950; -138.000;  -11.000
347.041;  -92.775; -646.000; -593.000
347.175;    5.750;  259.000;   27.000
347.309;  -70.775; -698.000; -628.000
347.442;  -81.625; -883.000; -732.000
347.576;  291.650;  670.000;  668.000
347.709;  242.725; -123.000;  -52.000
347.843;  -93.975; -933.000; -825.000
347.976;   44.850;  235.000;  294.000
348.110; -185.000;-1268.000;-1186.000
348.243;  -90.125; -679.000; -772.000
348.377;   -1.650;  -26.000;   60.000
348.510;   70.025;  403.000;  540.000
348.644;  -31.175;  -37.000; -159.000
348.777;    4.975;  180.000;  191.000
348.911;  -57.525; -142.000; -112.000
349.044;  182.950;  471.000;  448.000
349.178;  192.375;-1069.000;-1006.000
349.311;  132.525;  141.000;  255.000
349.444;  -14.050; -927.000; -813.000
349.578;   -0.525; -347.000; -200.000
349.711;  -97.600; -959.000; -862.000
349.845;   13.675; -661.000; -591.000
349.978; -153.225;-1224.000;-1137.000
350.111;  -73.050; -546.000; -612.000
350.244;  -75.600; -596.000; -700.000
350.378;   16.950; -392.000; -393.000
350.511;  -58.375; -393.000; -426.000
350.644; -105.900; -808.000; -806.000
350.778;  -21.825;  168.000;  104.000
350.911;   17.650;  134.000;  140.000
351.044;  -90.200; -685.000; -615.000
351.177;  -15.550; -321.000; -281.000
351.310;  -27.625;    3.000; -131.000
351.444;  -70.575; -888.000; -788.000
351.577;  136.975;  140.000;   90.000
351.710;   95.225;  593.000;  417.000
351.843;  -33.825; -165.000;  -77.000
351.976;    0.625;  149.000;  -79.000
352.109;  -85.425; -621.000; -612.000
352.242;  -20.550; -464.000; -419.000
352.376;  -60.275; -580.000; -636.000
352.509;  221.350; -437.000; -356.000
352.642;   26.100; -654.000; -604.000
352.775;   72.275; -141.000;  -98.000
352.908; -117.825; -933.000; -904.000
353.041;  -91.400; -814.000; -824.000
353.174;  -55.850; -551.000; -424.000
353.307;  -74.175; -753.000; -764.000
353.440;   85.700;  541.000;  453.000
353.573;  -98.000; -957.000;-1008.000
353.706;  -49.000; -384.000; -558.000
353.839;   -9.325; -264.000; -220.000
353.971;  -80.825; -657.000; -512.000
354.104;  -69.875; -896.000; -835.000
354.237;  -38.900; -627.000; -662.000
354.370;  -66.775; -846.000; -879.000
354.503; -182.300;-1231.000;-1308.000
354.636;  -21.950; -529.000; -348.000
354.769; -123.325; -937.000; -860.000
354.902;   -0.650; -230.000; -139.000
355.034;  -15.075; -164.000; -220.000
355.167;   -8.375; -262.000; -162.000
355.300;  -96.175;-1061.000; -880.000
355.433;  956.725;  -71.000;  -14.000
355.565; 1441.025; -402.000; -384.000
355.698;  389.850; -356.000; -296.000
355.831;   -3.300; -882.000; -801.000
355.964;  100.550; -285.000; -170.000
356.096;  -75.650; -856.000; -843.000
356.229;   27.100; -523.000; -530.000
356.362;  292.725; -373.000; -266.000
356.494;  585.200; -229.000; -162.000
356.627;  508.600;  269.000;  377.000
356.760;  638.675;  120.000;   53.000
356.892;  912.500; -286.000; -601.000
357.025;  719.975;  403.000;  389.000
357.157;  673.800; -167.000; -179.000
357.290;  636.800; -856.000; -713.000
357.423;  195.250; -667.000; -556.000
357.555;  131.650; -217.000; -228.000
357.688;  133.025; -483.000; -364.000
357.820;  507.000; -870.000; -877.000
357.953; 4091.650; -563.000; -589.000
358.085;  930.100; -632.000; -612.000
358.218; 1306.000;-1131.000; -932.000
358.350;  246.700;  -58.000;  312.000
358.483; -125.175;-1300.000;-1187.000
358.615;   23.925;-1182.000;-1078.000
358.747;  -36.750;-1187.000;-1058.000
358.880;   39.325; -810.000; -744.000
359.012;   -6.575; -376.000; -202.000
359.145;  -22.400; -480.000; -511.000
359.277;   80.250; -962.000; -913.000
359.409; 3331.450;  536.000;  231.000
359.542;  915.775; -738.000; -688.000
359.674;   93.750;   46.000;   13.000
359.806;  -55.925; -565.000; -438.000
359.939;  -30.075; -617.000; -516.000
360.071;  -15.050; -583.000; -579.000
360.203;  -23.000; -411.000; -364.000
360.335;   62.100;  164.000;  -16.000
360.468;  232.250; -249.000; -307.000
360.600; 2674.600; -547.000; -454.000
360.732; 2795.150; -546.000; -423.000
360.864;  379.575;-1216.000;-1044.000
360.996;  320.325; -516.000; -554.000
361.129;   48.975; -389.000; -598.000
361.261;   31.200;  110.000; -113.000
361.393;  -41.750; -252.000; -214.000
361.525;   32.275;   94.000;  244.000
361.657;  -38.125; -821.000; -703.000
361.789;   20.600; -139.000; -155.000
361.921;  240.575; -642.000; -593.000
362.053;  289.050;  524.000;  541.000
362.185;   48.450;  288.000;   72.000
362.318;  -64.075; -709.000; -705.000
362.450;  128.800;  294.000;  444.000
362.582;  144.100; -913.000; -870.000
362.714;  -29.200; -353.000; -332.000
362.846;  -73.550; -606.000; -490.000
362.978; -139.675; -941.000; -811.000
363.109;   79.475; -161.000; -260.000
363.241;  472.100; -739.000; -749.000
363.373;  424.900; -649.000; -564.000
363.505;  644.125; -186.000;  -91.000
363.637;  171.500; -787.000; -601.000
363.769; -112.850;-1067.000;-1080.000
363.901;  -53.225; -596.000; -654.000
364.033; -105.050;-1103.000;-1062.000
364.165;   -4.025; -283.000; -283.000
364.296;   77.750; -316.000; -177.000
364.428;   61.600;-1344.000;-1220.000
364.560;  -74.550; -679.000; -661.000
364.692;  -44.950; -738.000; -835.000
364.824;  305.975; -588.000; -456.000
364.955;  473.075; -402.000; -564.000
365.087;  854.725;-1097.000; -852.000
365.219;   30.850; -686.000; -816.000
365.351;  -65.275; -526.000; -572.000
365.482;   68.100;  300.000;  240.000
365.614;  -49.750; -402.000; -314.000
365.746;  -91.750; -729.000; -752.000
365.877; -113.150; -706.000; -672.000
366.009;  266.275;  -35.000;  -62.000
366.141;  -90.825;-1249.000;-1134.000
366.272;  -91.725; -803.000; -719.000
366.404; -120.125;-1005.000; -874.000
366.535;    5.400; -139.000;  -12.000
366.667; -116.625; -644.000; -649.000
366.799;   46.000;  353.000;  203.000
366.930; -113.325; -862.000; -996.000
367.062;  134.275; -639.000; -613.000
367.193;  125.700; -872.000; -842.000
367.325;  -59.900; -580.000; -684.000
367.456;   63.300; -246.000;   31.000
367.588;  172.300; -371.000; -318.000
367.719;   20.850;  -44.000;  -45.000
367.851;  -18.975; -222.000; -241.000
367.982;  -55.350; -875.000; -732.000
368.113;  132.175; -475.000; -358.000
368.245; -120.275; -960.000; -841.000
368.376;  -17.375; -254.000; -302.000
368.508;  -37.625; -188.000; -263.000
368.639; -127.225;-1166.000;-1034.000
368.770;  -15.125; -670.000; -589.000
368.902;  -38.875; -836.000; -926.000
369.033; -123.800; -906.000; -855.000
369.164;  -43.125; -720.000; -653.000
369.296; -116.525; -452.000; -601.000
369.427;   12.575; -209.000; -144.000
369.558;  -61.625; -593.000; -377.000
369.689;  -81.675; -721.000; -569.000
369.821; -121.900; -951.000; -845.000
369.952;   -6.500;   42.000; -108.000
370.083;  -50.775; -229.000; -108.000
370.214;  -79.325; -735.000; -650.000
370.345;   -7.500;   65.000;   81.000
370.477;  -67.000; -810.000; -790.000
370.608;  249.925; -328.000; -264.000
370.739;  -27.525;-1233.000;-1292.000
370.870;  -36.825;-1102.000; -923.000
371.001;  112.375; -378.000; -467.000
371.132;  -83.375; -754.000; -735.000
371.263;  -13.425;  -42.000; -148.000
371.394; -124.575; -841.000; -748.000
371.525;   37.850;  345.000;  225.000
371.657;  -90.725; -808.000; -670.000
371.788;   67.550;  103.000;  199.000
371.919;  204.350; -384.000; -304.000
372.050; 4007.300;  -91.000; -156.000
372.181; 1253.675; -188.000; -294.000
372.311;  421.975;   42.000; -127.000
372.442;   54.375; -457.000; -451.000
372.573;  -13.900; -444.000; -340.000
372.704; -124.450;-1008.000; -980.000
372.835;   96.225; -228.000; -289.000
372.966;  -67.825; -646.000; -554.000
373.097;  -56.225; -575.000; -711.000
373.228;  -29.975; -717.000; -542.000
373.359;  158.725; -824.000; -536.000
373.490; 1040.525; -881.000; -727.000
373.620; 1340.725;-1001.000; -803.000
373.751; 1971.200; -332.000; -396.000
373.882;  914.500; -663.000; -733.000
374.013;   85.825; -449.000; -262.000
374.143;  -24.000; -581.000; -659.000
374.274;  -89.825; -987.000; -908.000
374.405;  214.725; -388.000; -276.000
374.536;  497.525; -526.000; -387.000
374.666; 1295.375; -759.000; -807.000
374.797;  249.925; -817.000; -868.000
374.928;  982.525; -710.000; -560.000
375.058; 1016.100; -535.000; -500.000
375.189;  103.825;  -59.000;  -93.000
375.320; -106.200; -928.000;-1034.000
375.450;  -36.475; -625.000; -616.000
375.581;  -56.650; -526.000; -436.000
375.712;  -14.700; -574.000; -250.000
375.842;  347.950; -438.000; -415.000
375.973;  258.725; -554.000; -513.000
376.103;  -33.725; -665.000; -648.000
376.234;  -67.600; -531.000; -552.000
376.364;  -38.875; -944.000; -867.000
376.495;  364.700;  925.000;  529.000
376.625;   -9.650; -472.000; -485.000
376.756;   90.175; -709.000; -678.000
376.886;  -56.025;-1178.000;-1026.000
377.017;   48.350;-1048.000;-1061.000
377.147;  330.100; -786.000; -782.000
377.278;   79.700;  174.000;  228.000
377.408; -128.700; -801.000; -815.000
377.538; -101.100; -707.000; -693.000
377.669;  -76.525; -537.000; -613.000
377.799;  -58.400; -645.000; -635.000
377.929;  -55.000; -610.000; -428.000
378.060; -117.950; -781.000; -847.000
378.190;  -65.600; -726.000; -531.000
378.320;  -32.575; -401.000; -406.000
378.451;  -27.900; -131.000;  -22.000
378.581;    0.900;  -67.000; -110.000
378.711;  144.550; 1035.000;  866.000
378.841;    5.975; -533.000; -675.000
378.972;  -66.450; -871.000; -751.000
379.102;    6.900; -652.000; -579.000
379.232;  -18.425; -126.000;  -73.000
379.362; -100.775;-1001.000; -885.000
379.492;   22.475; -373.000; -424.000
379.623;  118.400;    0.000;  111.000
379.753;  -91.000;-1107.000; -974.000
379.883;  215.500;   59.000;  156.000
380.013;   24.600;-1081.000;-1017.000
380.143;  -78.775;-1097.000;-1056.000
380.273;  -94.075; -985.000; -861.000
380.403;    9.600; -344.000; -257.000
380.533;  -21.950; -651.000; -664.000
380.663;   67.650;  173.000;  128.000
380.793;  -89.025;-1027.000;-1074.000
380.923;  -16.875; -103.000;  -34.000
381.053;  -99.725; -613.000; -623.000
381.183;  -15.575; -106.000; -248.000
381.313;   39.325; -656.000; -470.000
381.443;   69.350; -692.000; -473.000
381.573;  227.950; -402.000; -409.000
381.703;  354.025;-1249.000;-1095.000
381.833; -126.825;-1454.000;-1336.000
381.963;  127.900; -134.000;  -87.000
382.093; 1527.125; -925.000; -909.000
382.223;  520.325; -713.000; -602.000
382.353;  -13.550; -801.000; -608.000
382.482;  442.925;-1091.000; -964.000
382.612;  864.100; -872.000; -644.000
382.742;  500.225; -695.000; -622.000
382.872;  302.275; -565.000; -551.000
383.002;   79.125;  347.000; -132.000
383.131;  -28.600; -226.000; -160.000
383.261;  -27.750; -706.000; -768.000
383.391;  292.700; -552.000; -377.000
383.521; 3079.075;  451.000;  263.000
383.650;  733.750; -947.000; -904.000
383.780;   -1.775; -783.000; -656.000
383.910;  100.400;  880.000;  802.000
384.039;   42.850; -794.000; -656.000
384.169;  262.875;-1205.000;-1017.000
384.299;   17.825; -650.000; -662.000
384.428; -101.650; -764.000; -680.000
384.558;  -34.750; -308.000; -275.000
384.687;  -50.000; -414.000; -334.000
384.817;   15.500;   75.000;   -2.000
384.947;   29.625; -234.000; -141.000
385.076;  318.800;  982.000;  912.000
385.206;  111.525;  369.000;  480.000
385.335;  -15.850; -549.000; -417.000
385.465;  -88.200; -655.000; -663.000
385.594;  152.475;  -53.000;  -44.000
385.724;  488.275; -868.000; -838.000
385.853;  152.975; -296.000; -270.000
385.982; 1529.050; -743.000; -787.000
386.112; 2457.875;-1052.000; -871.000
386.241;  151.450; -307.000; -312.000
386.371;   43.725; -174.000;  -87.000
386.500;    7.125; -825.000; -789.000
386.629;   36.675; -874.000; -817.000
386.759;   60.750;  -43.000;   68.000
386.888;   -5.350; -170.000; -250.000
387.017;  -84.225; -648.000; -620.000
387.147;  -75.175; -771.000; -798.000
387.276;   -0.625; -410.000; -397.000
387.405;   31.675; -398.000; -342.000
387.535;  -34.250; -452.000; -361.000
387.664;  -42.200; -692.000; -620.000
387.793;   65.100; -198.000; -113.000
387.922;  578.700;  255.000;  200.000
388.052;   28.150; -576.000; -423.000
388.181;   40.875; -342.000; -472.000
388.310;   28.225; -889.000; -710.000
388.439;  -20.000; -749.000; -742.000
388.568;  189.400;  365.000;  244.000
388.697; 1188.025; -756.000; -653.000
388.826;  262.200; -768.000; -666.000
388.956;   93.900; -285.000; -307.000
389.085;  -33.500; -347.000; -287.000
389.214; -102.825; -842.000; -872.000
389.343;  -62.775; -645.000; -413.000
389.472;  394.125;  126.000;  149.000
389.601;  532.300;   91.000;    0.000
389.730;   19.725; -568.000; -687.000
389.859;   59.625;  226.000;   46.000
389.988;  232.025; -423.000; -408.000
390.117;  149.450; -168.000; -146.000
390.246;    8.150; -331.000; -320.000
390.375;  116.050; -673.000; -626.000
390.504;  -42.725; -703.000; -621.000
390.633;  -94.200; -672.000; -726.000
390.761;  -49.350; -732.000; -645.000
390.890;   15.325;   -4.000; -130.000
391.019;   -8.575; -421.000; -441.000
391.148; -106.900; -826.000; -855.000
391.277;  -57.350; -576.000; -493.000
391.406;  -65.500; -821.000; -805.000
391.534;   40.000;  574.000; -301.000
391.663;  -77.825; -583.000; -645.000
391.792;  -76.800; -673.000; -701.000
391.921;   93.400;   -3.000;   15.000
392.050;  217.425; -287.000; -228.000
392.178;  -33.500;-1206.000;-1061.000
392.307;  182.975; -758.000; -712.000
392.436;   84.350; -427.000; -641.000
392.564;   20.150;  166.000;   -6.000
392.693; -107.175; -860.000; -682.000
392.822;  248.525; -529.000; -534.000
392.950;  127.250; -880.000; -714.000
393.079;  375.675; -188.000; -328.000
393.208;   44.650; -488.000; -511.000
393.336;   -1.725; -170.000; -145.000
393.465;  -54.275; -317.000; -199.000
393.593;   11.750;   62.000;   79.000
393.722; -157.525;-1121.000; -916.000
393.850;  -27.675; -188.000;  -61.000
393.979; -156.575; -926.000; -805.000
394.107;  -57.925; -517.000; -537.000
394.236;  -30.650; -570.000; -507.000
394.364;  246.600;  383.000;  206.000
394.493;  395.450; -911.000; -767.000
394.621;   -3.900; -955.000; -916.000
394.750;  675.525; -873.000; -923.000
394.878; 2840.100; -247.000; -149.000
395.007; 3935.575; -721.000; -807.000
395.135;  319.825; -790.000; -721.000
395.263;  -85.850;-1038.000;-1040.000
395.392;   13.250;  -25.000; -107.000
395.520; -146.425; -818.000; -679.000
395.648;  -70.275; -865.000; -915.000
395.777;   -7.075; -366.000; -405.000
395.905;  -38.500; -449.000; -564.000
396.033;   15.300;  217.000;  172.000
396.162;  653.175; -399.000; -453.000
396.290;  576.425;  -17.000;   -2.000
396.418;  138.950; -555.000; -514.000
396.546;  -70.725; -571.000; -466.000
396.674;  -80.800; -850.000; -878.000
396.803;    4.200;  -72.000;  -23.000
396.931;   97.050; -179.000; -199.000
397.059;   97.450;-1026.000; -989.000
397.187; -103.075;-1026.000; -975.000
397.315; -139.650; -884.000; -649.000
397.443;  -88.800; -592.000; -443.000
397.572;  -95.400; -578.000; -424.000
397.700;   16.450; -607.000; -614.000
397.828;   19.100;  120.000;  -90.000
397.956;  -35.100; -508.000; -478.000
398.084;  -93.175; -767.000; -626.000
398.212;   49.675;  137.000;  124.000
398.340;   13.375;  -56.000;  159.000
398.468;   48.075; -390.000; -169.000
398.596; -130.550; -993.000; -953.000
398.724; -114.325; -762.000; -767.000
398.852; -179.600;-1024.000; -976.000
398.980;  -59.750; -560.000; -560.000
399.108;  -52.400; -982.000; -735.000
399.236;   53.500;   13.000;    8.000
399.363;   -2.875;  222.000;  196.000
399.491;  -61.425; -404.000; -398.000
399.619; -131.175; -829.000; -800.000
399.747;  -85.425; -859.000; -771.000
399.875;   80.275;  220.000;  234.000
400.003;  -29.725; -359.000; -284.000
400.130;  -96.925; -421.000; -341.000
400.258;  -24.350;  -83.000;   38.000
400.386;  -76.350; -352.000; -168.000
400.514;  -36.750; -526.000; -587.000
400.641;  -80.525; -928.000; -802.000
400.769; -134.400; -979.000; -888.000
400.897; -124.950; -838.000; -793.000
401.025;   -0.375; -166.000; -152.000
401.152;  -22.000;  220.000;   38.000
401.280;  -77.550; -430.000; -429.000
401.408; -110.850; -712.000; -576.000
401.535;  -86.600; -735.000; -758.000
401.663; -187.700;-1134.000;-1054.000
401.790;  -85.700; -514.000; -525.000
401.918;   27.250;  436.000;  405.000
402.046;  -25.050;  134.000;  122.000
402.173;  -38.350;  -18.000;    7.000
402.301;  -60.375; -519.000; -397.000
402.428;   45.750;  528.000;  383.000
402.556; -133.650;-1188.000; -913.000
402.683;  -37.225;  -20.000;   -1.000
402.811;  -12.950;  -37.000; -206.000
402.938;  -21.425;   20.000;   27.000
403.066;  213.525; -574.000; -558.000
403.193;  396.750;  299.000;  239.000
403.321;  303.375; -396.000; -574.000
403.448;  346.850;   83.000;   27.000
403.575;  175.550;  -90.000;  -46.000
403.703;  -97.975; -732.000; -557.000
403.830;  -57.800; -531.000; -496.000
403.957; -144.375;-1117.000;-1023.000
404.085;    7.850;  -61.000; -172.000
404.212;  115.200;  -50.000;   63.000
404.339;  256.700; -566.000; -306.000
404.467; 5538.825; -612.000; -524.000
404.594; 3875.750; -287.000; -227.000
404.721;  959.025; -869.000; -764.000
404.848;  105.300; -113.000; -202.000
404.976; -106.175; -856.000; -783.000
405.103;   -0.825;  -14.000;  -82.000
405.230;  -13.175;  190.000;  226.000
405.357;   27.500;  117.000;   44.000
405.484;  247.475;  -49.000;    5.000
405.612;   70.250; -548.000; -563.000
405.739;  -77.950; -488.000; -243.000
405.866;   85.550;  669.000;  385.000
405.993;  -53.975; -398.000; -102.000
406.120; -122.450; -801.000; -887.000
406.247;  -63.700; -323.000; -342.000
406.374;  496.450;  540.000;  629.000
406.501;  133.775; -632.000; -702.000
406.628;  -70.500; -621.000; -589.000
406.755; -117.050; -803.000; -620.000
406.882;  -31.575; -228.000; -277.000
407.009; -108.725; -719.000; -628.000
407.136;   75.175; -480.000; -401.000
407.263;  167.000; -939.000; -829.000
407.390;  -66.800; -692.000; -614.000
407.517; -172.050;-1139.000;-1187.000
407.644;  -48.925; -332.000; -256.000
407.771; -148.550; -249.000; -287.000
407.898;   13.150;  168.000;  328.000
408.025;  -78.100; -421.000; -313.000
408.151;    5.175;   82.000;  153.000
408.278;  -87.875; -267.000; -216.000
408.405; -114.925; -931.000; -899.000
408.532;  -75.125; -549.000; -542.000
408.659;  -96.525; -677.000; -648.000
408.785; -207.650;-1298.000;-1170.000
408.912;  -58.900; -412.000; -296.000
409.039; -115.475; -610.000; -686.000
409.166;  -97.675; -591.000; -555.000
409.292; -117.750; -571.000; -534.000
409.419; -106.600; -665.000; -649.000
409.546; -104.375; -431.000; -192.000
409.672; -110.250; -713.000; -545.000
409.799;  -19.500;  -36.000;   34.000
409.926;  -43.625; -180.000; -179.000
410.052; -175.200;-1127.000;-1091.000
410.179;  -60.525; -368.000; -392.000
410.305;  -94.850; -375.000; -493.000
410.432;  -32.625; -220.000; -333.000
410.558;  -82.525; -305.000; -380.000
410.685; -103.900; -688.000; -431.000
410.812; -104.950; -409.000; -588.000
410.938; -121.225; -964.000; -808.000
411.065;  -81.000; -671.000; -645.000
411.191;  -10.675; -189.000; -174.000
411.317; -121.325; -823.000; -742.000
411.444;  -50.650; -317.000; -246.000
411.570;  -98.950; -339.000; -294.000
411.697; -120.525; -758.000; -752.000
411.823; -176.225; -989.000; -999.000
411.949;  -24.375;  -56.000;   17.000
412.076; -106.575; -539.000; -519.000
412.202; -104.075; -758.000; -757.000
412.329; -132.425; -798.000; -752.000
412.455; -109.100; -821.000; -657.000
412.581;  -24.525;  -15.000;  172.000
412.707;  -63.150; -540.000; -457.000
412.834;   20.525;  156.000;  219.000
412.960;  -71.475; -785.000; -784.000
413.086; -100.350; -743.000; -701.000
413.212;  155.775;  604.000;  578.000
413.339;  -57.325; -685.000; -701.000
413.465;    9.350; -364.000; -310.000
413.591;  -95.950; -757.000; -474.000
413.717;  -55.400; -358.000; -366.000
413.843; -143.575; -839.000; -861.000
413.969;  -59.525;  -47.000; -292.000
414.096; -112.725; -679.000; -679.000
414.222;    4.200;  -33.000;   85.000
414.348;  -22.050; -652.000; -385.000
414.474;  119.000;   38.000;  -52.000
414.600;  -22.950; -126.000; -144.000
414.726;   -3.425;  -96.000;  -55.000
414.852;  -67.625; -365.000; -342.000
414.978;   51.200;  104.000;  -18.000
415.104;   34.625;   38.000;   80.000
415.230;   32.175; -329.000; -330.000
415.356;   25.375; -409.000; -514.000
415.482;  211.175;   13.000;  -35.000
415.608;  257.900; -247.000; -323.000
415.734;  940.100;   67.000;   38.000
415.860;19286.325; -875.000; -767.000
415.986;14651.250; -685.000; -607.000
416.111; 1284.475; -798.000; -652.000
416.237;  272.500; -424.000; -571.000
416.363; 1056.050; -765.000; -733.000
416.489; 4079.825; -324.000; -251.000
416.615;  455.100; -707.000; -742.000
416.741;  -16.875; -677.000; -784.000
416.866; -102.600; -673.000; -736.000
416.992; -117.225; -801.000; -818.000
417.118;  -27.700;  -41.000;  -80.000
417.244;  -54.325; -798.000; -531.000
417.369;  -88.625; -801.000; -612.000
417.495;    6.075; -325.000; -254.000
417.621;  -80.200;-1015.000; -803.000
417.746;   18.400; -579.000; -572.000
417.872;   40.325; -254.000; -144.000
417.998;   65.050; -515.000; -530.000
418.123;  973.550;-1073.000; -845.000
418.249; 5300.200; -512.000; -601.000
418.374;  762.900; -916.000; -824.000
418.500;  122.025; -383.000; -482.000
418.626;   96.225;   70.000;  -59.000
418.751;  131.650; -549.000; -448.000
418.877;  182.150; -637.000; -643.000
419.002; 1665.225; -688.000; -560.000
419.128;12178.275; -930.000; -721.000
419.253; 3171.400; -967.000; -837.000
419.379;  391.975; -391.000; -338.000
419.504;  384.075;  325.000;  415.000
419.629;  486.700; -393.000; -212.000
419.755; 3355.175; -317.000; -254.000
419.880;20399.300;  -98.000;   67.000
420.006;11066.225; -280.000; -221.000
420.131;29014.075; -662.000; -775.000
420.256; 4394.275; -315.000; -316.000
420.382;  546.400; -665.000; -687.000
420.507;   69.875; -649.000; -778.000
420.632;  152.375; -337.000; -339.000
420.758;  304.600; -251.000; -425.000
420.883;  -81.175; -876.000; -672.000
421.008;  -82.275; -775.000; -619.000
421.133;  -97.975; -509.000; -467.000
421.259;  -37.675; -325.000; -259.000
421.384; -116.400; -834.000; -693.000
421.509;  -31.600;-1052.000; -862.000
421.634; 1300.600; -936.000; -820.000
421.759;  603.650; -359.000; -327.000
421.885;  -55.350; -717.000; -656.000
422.010;  -69.700; -673.000; -542.000
422.135; -155.175; -695.000; -727.000
422.260;   45.750;  340.000;  280.000
422.385;  -38.375;   12.000;  -98.000
422.510;   14.950;  151.000;  -26.000
422.635;   16.900;  -87.000;  -43.000
422.760;  133.675; -766.000; -791.000
422.885;   55.625;  -57.000;  -80.000
423.010;  -24.825; -112.000; -169.000
423.135; -114.850; -481.000; -561.000
423.260;   -4.700; -150.000; -245.000
423.385;   61.725;  476.000;  222.000
423.510;   49.650;   71.000;  -22.000
423.635;   89.825;  133.000;   45.000
423.760;   64.900;  383.000;  328.000
423.885;   44.900;  336.000;  391.000
424.010;   30.600;  -68.000;  -13.000
424.135;  -22.150;    5.000;  -33.000
424.259;  -71.825; -654.000; -457.000
424.384;  -73.950; -279.000; -272.000
424.509;  -18.600; -260.000; -186.000
424.634;  -96.125; -761.000; -623.000
424.759;  -12.950; -688.000; -544.000
424.883;  -29.900; -506.000; -527.000
425.008;  162.050; -502.000; -410.000
425.133; 1934.750; -679.000; -653.000
425.258;  969.775; -517.000; -381.000
425.382; 1092.025; -867.000; -774.000
425.507; 2983.700; -487.000; -543.000
425.632;  482.900; -802.000; -663.000
425.756;  453.775; -256.000; -146.000
425.881; 6037.400; -831.000; -857.000
426.006;17105.825; -604.000; -355.000
426.130; 2818.225; -696.000; -508.000
426.255;  357.950; -611.000; -491.000
426.379;  161.300; -189.000; -577.000
426.504;  373.175;  660.000;  544.000
426.629; 3913.275; -519.000; -466.000
426.753; 2875.225;   64.000;  -46.000
426.878;  312.675; -252.000; -288.000
427.002;  159.275; -651.000; -668.000
427.127; 1527.825;  -35.000; -158.000
427.251;11059.450;  372.000;  401.000
427.375; 3317.225; -191.000; -173.000
427.500; 2515.650; -616.000; -610.000
427.624;  893.175; -234.000; -400.000
427.749;  129.825; -216.000; -225.000
427.873;  -45.175; -499.000; -412.000
427.997;  -33.225; -222.000; -230.000
428.122;   77.550;  795.000;  703.000
428.246;   82.950;  433.000;  434.000
428.371; -134.200; -869.000; -773.000
428.495;  -88.550; -624.000; -646.000
428.619;  -27.325; -186.000; -117.000
428.743;   18.225;   65.000;  132.000
428.868;   19.625; -732.000; -643.000
428.992; 1568.650; -219.000; -326.000
429.116;  660.900; -329.000; -357.000
429.240;  318.400;  419.000;  426.000
429.365;  -17.200; -454.000; -574.000
429.489;  -36.875; -638.000; -647.000
429.613;   14.325; -236.000; -177.000
429.737;   30.150; -563.000; -432.000
429.861;  254.675; -247.000; -133.000
429.985; 5331.025; -425.000; -305.000
430.109; 6115.225; -770.000; -908.000
430.234;  722.425;   76.000;  -50.000
430.358;   70.000; -250.000; -160.000
430.482;  -64.700; -672.000; -564.000
430.606;  -60.200; -655.000; -375.000
430.730;   30.000; -437.000; -388.000
430.854;  146.800; -909.000; -835.000
430.978;  -50.375; -795.000; -764.000
431.102;  -91.550; -499.000; -422.000
431.226; -114.000; -874.000; -815.000
431.350;    6.550;  345.000;  422.000
431.474;  -73.375; -661.000; -373.000
431.597; -153.750;-1060.000; -848.000
431.721;  -69.725; -276.000; -267.000
431.845; -140.450; -704.000; -472.000
431.969;  -73.475; -304.000; -349.000
432.093; -102.925; -395.000; -317.000
432.217;  -16.925;   32.000;   82.000
432.341; -102.150; -523.000; -518.000
432.464;   20.600;   96.000;   40.000
432.588;  235.775; -401.000; -329.000
432.712;  132.250;  -52.000;  -52.000
432.836;   40.350;  213.000;  263.000
432.959;  -15.500; -372.000; -311.000
433.083;   63.750;   11.000;    2.000
433.207;  372.325;  285.000;  930.000
433.330; 4797.150; -391.000; -200.000
433.454; 6189.000; -654.000; -638.000
433.578; 3521.075;  583.000;  278.000
433.701;  706.825; -623.000; -675.000
433.825;  170.225; -292.000; -299.000
433.949;  211.350;   28.000;  -72.000
434.072;   59.550; -410.000; -323.000
434.196;   -4.325; -309.000; -117.000
434.319; 3627.125;25482.000;25124.000
434.443;  708.725; -656.000; -603.000
434.566; 2634.900;  281.000;   62.000
434.690;  476.475; -637.000; -383.000
434.813;   48.425; -251.000; -173.000
434.937;  -69.575; -569.000; -696.000
435.060;  -48.900; -423.000; -332.000
435.184;  364.225; -492.000; -217.000
435.307;  197.675;  159.000;  102.000
435.431;   15.500;  -40.000;   24.000
435.554;  -83.025; -399.000; -240.000
435.677;  -80.925; -350.000; -258.000
435.801;  -56.025;  -25.000;   49.000
435.924;   -7.775;    1.000;  -67.000
436.048; -119.925;-1019.000; -732.000
436.171;  -55.400; -240.000;  -66.000
436.294;  -48.025; -248.000; -229.000
436.417;   95.075; -963.000; -849.000
436.541;  -80.750; -814.000; -840.000
436.664;  -48.525; -242.000; -316.000
436.787;  -40.700;   13.000;  113.000
436.910; -101.500; -792.000; -422.000
437.034;   11.350;  142.000;  143.000
437.157;   70.025;  -11.000;    0.000
437.280;  -52.050; -392.000; -292.000
437.403;  -86.550; -982.000; -869.000
437.526;  698.125; -903.000; -865.000
437.649; 2614.475; -505.000; -332.000
437.772;  439.950; -692.000; -540.000
437.896;  130.250;  700.000;  544.000
438.019; -104.825; -758.000; -503.000
438.142; -100.050; -596.000; -506.000
438.265;   -3.825; -639.000; -670.000
438.388;  621.700; -520.000; -410.000
438.511;  122.100; -597.000; -394.000
438.634;  -30.400; -247.000; -125.000
438.757; -130.775; -693.000; -619.000
438.880;  -15.425;  -34.000;  -57.000
439.003;  -75.125; -417.000; -437.000
439.126;  -60.600; -287.000; -167.000
439.248;  -79.475;  -98.000; -139.000
439.371;  -50.350;    9.000;  -53.000
439.494;   17.650;  510.000;  439.000
439.617;  -53.100;   65.000;  -88.000
439.740; -187.900; -968.000; -816.000
439.863; -144.825; -755.000; -595.000
439.986; -126.625; -476.000; -431.000
440.108;  -42.150; -161.000; -112.000
440.231; -165.025; -950.000; -836.000
440.354;  -26.125;  -64.000; -150.000
440.477;   43.475; -566.000; -542.000
440.599;   30.425; -200.000; -225.000
440.722; -133.475; -709.000; -586.000
440.845;   79.300;  751.000;  928.000
440.968; -117.650; -415.000; -311.000
441.090;  -53.125; -199.000;  -33.000
441.213; -173.775;-1021.000; -825.000
441.336;  -31.175; -159.000;   -5.000
441.458;  -91.600; -549.000; -396.000
441.581;  -76.875; -628.000; -629.000
441.703;  -80.950; -152.000;   13.000
441.826; -114.375; -557.000; -400.000
441.948;  -44.175;   56.000;   51.000
442.071;   29.925;  555.000;  424.000
442.193; -134.575; -531.000; -485.000
442.316;   28.175;  152.000;   97.000
442.438;   44.825; -233.000;  -10.000
442.561;   79.975;  272.000;  262.000
442.683;  583.900; -809.000; -522.000
442.806; 1360.000;   -8.000;   74.000
442.928;   40.025; -859.000; -604.000
443.051;  -57.450; -577.000; -373.000
443.173;  -91.850; -341.000; -339.000
443.295;  -93.850; -263.000; -371.000
443.418;  -81.275; -321.000;  -29.000
443.540;   -1.725; -106.000;   -4.000
443.662; -131.100; -563.000; -465.000
443.785;  -17.250;  335.000;  199.000
443.907; -102.200; -362.000; -208.000
444.029; -117.775; -767.000; -494.000
444.152; -148.550; -644.000; -554.000
444.274;  -22.850;  -18.000;  -24.000
444.396; -118.450; -461.000; -221.000
444.518; -132.325; -691.000; -454.000
444.640; -106.275; -268.000; -111.000
444.763;  -15.075;  388.000;  249.000
444.885; -118.725; -432.000; -392.000
445.007;  -30.550;   35.000;   86.000
445.129; -111.975; -610.000; -515.000
445.251;  -90.250; -372.000; -439.000
445.373; -141.000; -537.000; -386.000
445.495;    5.875;  242.000;  350.000
445.617;   38.675;  853.000;  753.000
445.739;  -52.750; -215.000;  -97.000
445.861;  -29.525; -245.000; -112.000
445.984;   -9.175; -267.000; -101.000
446.105;  193.650; -418.000; -251.000
446.227;  694.375; -176.000;  -19.000
446.349;   23.075; -358.000; -249.000
446.471;  -86.025; -615.000; -448.000
446.593;  -74.900; -316.000;   19.000
446.715;   14.275;  -67.000;   41.000
446.837;   44.075;  697.000;  832.000
446.959;  -88.100; -457.000; -478.000
447.081; -144.450; -628.000; -518.000
447.203;   70.325;  862.000;  834.000
447.325;  -93.600; -270.000;   42.000
447.446;   -0.575;  286.000;  530.000
447.568; -156.525; -921.000; -803.000
447.690;  -68.525; -236.000; -245.000
447.812; -162.875; -798.000; -519.000
447.933;  -16.675;  155.000;  127.000
448.055;  -65.875; -306.000; -261.000
448.177;  151.700;   31.000;   79.000
448.299;  109.150; -935.000; -727.000
448.420;   23.700;  -25.000;  159.000
448.542;  -64.675;   -3.000;   33.000
448.664;  -25.000;  109.000;  322.000
448.785;  -29.725;  265.000;   83.000
448.907;  -53.450; -614.000; -353.000
449.028;  -26.775; -771.000; -471.000
449.150;   69.875;  492.000;  589.000
449.272; -176.650;-1044.000; -913.000
449.393;   30.850;  612.000;  694.000
449.515; -159.875; -634.000; -581.000
449.636;  -48.800; -264.000; -155.000
449.758;   70.650;  763.000;  622.000
449.879;  -81.450; -498.000; -396.000
450.001;  -81.625; -149.000;  -49.000
450.122;  -29.325;  -95.000;  162.000
450.244;  -44.425;   37.000;  364.000
450.365;  -77.625; -495.000; -301.000
450.486;  -35.725;   80.000;  268.000
450.608;   31.400;  393.000;  326.000
450.729;   54.725;  578.000;  645.000
450.850;   13.525; -574.000; -466.000
450.972;  693.000; -552.000; -389.000
451.093; 4705.975;  190.000;  588.000
451.214; 2166.800; -516.000; -337.000
451.336;  361.450;  773.000;  579.000
451.457;   42.100;  264.000;  393.000
451.578;  -36.775; -118.000;  -74.000
451.699; -133.150; -546.000; -540.000
451.821;  -58.750; -284.000;  -50.000
451.942;  -16.175;  278.000;  285.000
452.063;   33.925;  228.000;  419.000
452.184;  512.125;  -54.000;  -49.000
452.305; 1087.650;  103.000;  170.000
452.427;  123.375; -549.000; -301.000
452.548;  -13.125;   23.000;   79.000
452.669;  -50.050; -257.000;  -89.000
452.790;  -31.075;    3.000;  -18.000
452.911;  -10.550;  195.000;  259.000
453.032;  -59.200; -289.000;  -60.000
453.153;  -54.075;  -29.000;   81.000
453.274;   70.075;  737.000;  868.000
453.395;  -62.525;  -51.000;  175.000
453.516;  138.050; 1317.000; 1388.000
453.637;  -65.925; -205.000; -150.000
453.758;  -48.050;   15.000;   69.000
453.879; -122.500; -462.000; -250.000
454.000;   76.000; 1086.000;  948.000
454.121; -115.400; -554.000; -326.000
454.242; -103.975; -599.000; -383.000
454.362;  -59.075;  -99.000;  114.000
454.483;  -29.800; -309.000; -229.000
454.604;   51.325;  512.000;  580.000
454.725; -115.325; -627.000; -555.000
454.846; -128.900; -474.000; -406.000
454.967;  -24.875;  230.000;  539.000
455.087;  -48.275;  179.000;  153.000
455.208;   21.450;  554.000;  856.000
455.329;  -69.725;  -22.000;   82.000
455.450;   55.250;  473.000;  633.000
455.570;  -92.300; -234.000; -211.000
455.691;  -33.700;  201.000;  407.000
455.812; -113.875; -270.000;  -92.000
455.932;  -64.625;  107.000;  -97.000
456.053;  -96.100;   36.000;   24.000
456.173;  -97.225; -433.000; -355.000
456.294; -123.825; -476.000; -303.000
456.415;  -55.475;  -73.000;   70.000
456.535;  -53.075;  297.000;  273.000
456.656;  -30.575;  132.000;  240.000
456.776;  -79.525;    3.000;  298.000
456.897;   -3.575;  308.000;  513.000
457.017;  -85.100; -153.000;   -3.000
457.138; -107.700; -402.000; -249.000
457.258;  -35.125;  263.000;  224.000
457.379;  -11.500;  509.000;  521.000
457.499;  -35.475;  443.000;  432.000
457.620; -123.550; -407.000; -231.000
457.740; -102.825; -132.000;  -11.000
457.860;  -44.450;   87.000;   44.000
457.981;  -62.775;  132.000;  124.000
458.101;  -72.775;  -89.000;   40.000
458.221;  -26.775;  336.000;  402.000
458.342;  -60.825;   -4.000;  -37.000
458.462;   26.050;  617.000;  352.000
458.582;  -46.875; -302.000; -294.000
458.703;   -7.025;  303.000;  154.000
458.823;   -7.550;   22.000;  163.000
458.943;   -3.225;  341.000;  467.000
459.063;  -12.575; 1124.000;  192.000
459.183;  -21.225;  328.000;  313.000
459.304;    4.450;  315.000;  517.000
459.424;  -72.925; -246.000;  -89.000
459.544;  315.350;  388.000;  764.000
459.664;  809.100;  499.000;  506.000
459.784;  326.175; 1004.000; 1175.000
459.904;   43.525;  867.000;  744.000
460.024;   80.500;  867.000;  684.000
460.144;    5.250;  449.000;  554.000
460.264;    4.225;  515.000;  327.000
460.385; -106.500; -145.000; -119.000
460.505;   48.725;  905.000;  858.000
460.625;  -96.650;  -17.000;  -68.000
460.745;  -21.400;  396.000;  541.000
460.864;  -74.450;  153.000;  469.000
460.984;   20.950;  499.000;  573.000
461.104;  124.300; 1656.000; 1775.000
461.224;   39.000;  657.000;  650.000
461.344;  -29.675;  431.000;  360.000
461.464;  -17.650;  258.000;  513.000
461.584;  -31.175;  283.000;  466.000
461.704;  -38.000;   58.000;  108.000
461.824;  -64.300;  238.000;  259.000
461.943;  -30.025;  191.000;  130.000
462.063;  -75.075;    2.000;  324.000
462.183;   40.075;  639.000;  717.000
462.303;   87.775; 1678.000; 1230.000
462.422;   29.250;  781.000;  840.000
462.542;  -46.500;  271.000;  391.000
462.662;   35.600;  353.000;  380.000
462.782;  227.750;  833.000;  572.000
462.901;  492.500;  545.000;  717.000
463.021;  268.975; 1702.000; 1638.000
463.141;    2.825;  337.000;  770.000
463.260;  -27.450;  614.000;  474.000
463.380;   22.300;  902.000;  884.000
463.499;  -50.900;  342.000;  332.000
463.619;  -27.200;  581.000;  559.000
463.738;   99.725; 1644.000;  903.000
463.858;   14.450;  657.000;  811.000
463.978;  -41.400;  542.000;  396.000
464.097;   44.000;  921.000; 1114.000
464.217;  110.350; 1196.000; 1143.000
464.336;  117.075; 1068.000; 1130.000
464.455;  -31.075;  328.000;  659.000
464.575;   43.500;  597.000;  602.000
464.694;  166.850; 1204.000; 1179.000
464.814;  135.425; 1190.000; 1138.000
464.933;   79.775; 1095.000; 1027.000
465.052;  101.275; 1412.000; 1054.000
465.172;   77.950;  922.000;  799.000
465.291;  165.075; 1376.000; 1320.000
465.410;   19.075;  462.000;  735.000
465.530;   83.800; 1355.000; 1310.000
465.649;   54.100; 1209.000; 1273.000
465.768;  144.775; 1673.000; 1508.000
465.888;   41.675;  941.000; 1174.000
466.007;   89.275; 1335.000; 1440.000
466.126;   -6.250;  721.000;  641.000
466.245;   57.400; 1176.000; 1187.000
466.364;   23.100;  950.000; 1060.000
466.484;   63.500; 1024.000; 1213.000
466.603;   27.425; 1101.000; 1222.000
466.722;  135.725; 1490.000; 1769.000
466.841;   69.675; 1151.000; 1401.000
466.960;   53.425; 1069.000;  972.000
467.079;  116.800; 1971.000; 1786.000
467.198;   60.450; 1238.000; 1181.000
467.317;   89.350; 1768.000; 1162.000
467.436;   76.950; 1709.000; 1261.000
467.555;  109.150; 1796.000; 1746.000
467.674;   70.975; 1227.000; 1329.000
467.793;   42.850; 1376.000; 1374.000
467.912;   86.450; 1658.000; 1539.000
468.031;  127.575; 2038.000; 1930.000
468.150;  155.250; 1842.000; 1837.000
468.269;  178.500; 2313.000; 2090.000
468.388;  197.050; 2168.000; 2339.000
468.507;  236.250; 2884.000; 2903.000
468.626;  268.925; 2555.000; 2541.000
468.744;  131.100; 2018.000; 2174.000
468.863;  215.475; 2312.000; 2523.000
468.982;   96.500; 1503.000; 1555.000
469.101;  235.600; 2788.000; 2692.000
469.220;  148.650; 2333.000; 2176.000
469.338;  244.725; 2935.000; 3051.000
469.457;  183.550; 2719.000; 2545.000
469.576;  338.950; 3953.000; 3784.000
469.695;  233.300; 2877.000; 3066.000
469.813;  420.075; 4148.000; 4192.000
469.932;  403.350; 4255.000; 4485.000
470.051;  414.550; 4075.000; 4161.000
470.169;  822.225; 4470.000; 4338.000
470.288; 1461.775; 4700.000; 4809.000
470.406;  862.025; 5059.000; 5194.000
470.525;  635.000; 6101.000; 5787.000
470.644;  651.625; 6847.000; 6794.000
470.762;  818.900; 8397.000; 7873.000
470.881;  904.725; 8651.000; 8464.000
470.999; 1012.925; 9685.000; 9151.000
471.118; 1120.425;11174.000;10711.000

