
Integration time [ms]: 100.000
Averaging Nr. [scans]: 40
Smoothing Nr. [pixels]: 0
Data measured with spectrometer [name]: 2101012U2
Wave   ;Sample   ;Dark     ;Reference
[nm]   ;[counts] ;[counts] ;[counts] 

197.733;   60.550;  516.000;  404.000
197.879;  -76.225; -610.000; -634.000
198.025;  -48.575; -475.000; -420.000
198.171;  -67.325; -602.000; -612.000
198.317;  -17.575; -401.000; -316.000
198.463;  -51.775; -655.000; -404.000
198.609;   14.450;  181.000; -137.000
198.755;  -66.225; -644.000; -410.000
198.901;  -67.525; -505.000; -424.000
199.047;  -57.575; -615.000; -488.000
199.193;  -38.425; -230.000; -468.000
199.339;  -37.900; -222.000; -369.000
199.485;   34.650;  330.000;  271.000
199.631;   17.500;  227.000;  310.000
199.777;  -44.750; -466.000; -398.000
199.923;  -60.450; -610.000; -424.000
200.069;  -12.200; -141.000;  -58.000
200.215;   63.850;  128.000;  453.000
200.361;   43.800;  243.000;  477.000
200.507;  -50.075; -600.000; -373.000
200.653;  -22.050; -371.000; -194.000
200.798;  -33.325; -215.000; -125.000
200.944;  -10.450; -146.000;  -41.000
201.090;   40.950;   61.000;  222.000
201.236;  -12.250; -116.000; -158.000
201.382;  121.875;  874.000;  903.000
201.528;    4.600;  -58.000;  -48.000
201.674;  -32.450; -386.000; -293.000
201.819;  -65.475; -540.000; -439.000
201.965;  -74.400; -699.000; -447.000
202.111;  -28.500; -273.000; -226.000
202.257;  -37.175; -250.000; -238.000
202.402;    1.950;   13.000;  -36.000
202.548;  -20.075; -169.000; -116.000
202.694;   77.075;  410.000; -183.000
202.840;  -64.275; -603.000; -531.000
202.985;  -76.400; -681.000; -639.000
203.131; -100.600; -832.000; -666.000
203.277;  -37.500; -199.000; -262.000
203.423;  -48.350; -434.000; -520.000
203.568;  -41.050; -462.000; -237.000
203.714;  -77.675; -535.000; -542.000
203.860;  -91.700; -682.000; -641.000
204.005;   17.825;  112.000;  167.000
204.151;   75.175;  561.000;  556.000
204.296;  -37.250; -354.000; -221.000
204.442;  -73.125; -600.000; -547.000
204.588;  -69.575; -592.000; -579.000
204.733;   17.000;  178.000;  168.000
204.879; -127.800;-1018.000; -822.000
205.025;   16.800;  -99.000;  126.000
205.170;    8.850;  -17.000;   94.000
205.316;   81.050;  438.000;  661.000
205.461;  -73.750; -698.000; -554.000
205.607;   87.000;  609.000;  665.000
205.752;  -61.275; -626.000; -551.000
205.898;  -53.350; -501.000; -391.000
206.043;  -56.975; -578.000; -506.000
206.189;  -42.475; -243.000; -285.000
206.334;   86.425;  554.000;  606.000
206.480;   69.325;  409.000;  239.000
206.625;  -61.000; -529.000; -552.000
206.771;  -38.450; -451.000; -373.000
206.916;  -23.575; -210.000; -537.000
207.062;  -68.500; -545.000; -591.000
207.207;  -54.275; -546.000; -443.000
207.353;   51.100;  185.000;  460.000
207.498;    7.150;  196.000;   85.000
207.643;  -56.000; -501.000; -370.000
207.789; -122.050;-1069.000; -910.000
207.934;  -90.300; -665.000; -713.000
208.080;  -27.175; -154.000;   66.000
208.225;  -22.425;  -22.000;  -57.000
208.370;  -81.150; -727.000; -619.000
208.516;  -78.500; -741.000; -487.000
208.661;  -18.600; -127.000;  -69.000
208.806;  -22.350; -165.000; -171.000
208.952; -108.175;-1044.000; -731.000
209.097;   64.500;  378.000;  349.000
209.242;  -41.275; -307.000; -382.000
209.387;   61.600;  392.000;  350.000
209.533;  -53.725; -321.000; -350.000
209.678;   70.300;  472.000;  543.000
209.823;  -54.675; -408.000; -310.000
209.969;  -96.025; -860.000; -757.000
210.114;  -90.900; -907.000; -719.000
210.259; -113.300; -939.000; -889.000
210.404;   -0.325; -171.000;  103.000
210.549;    5.075;  108.000;    3.000
210.695;  -12.700;   -3.000;  -95.000
210.840;   34.175;   94.000;   67.000
210.985;  -69.500; -484.000; -303.000
211.130;   76.950;  268.000;  406.000
211.275;   20.275;  207.000;  199.000
211.420;  -51.325; -300.000; -289.000
211.566;  -67.950; -536.000; -489.000
211.711;   21.325;  218.000;  157.000
211.856;  -64.825; -545.000; -519.000
212.001;    3.250;  151.000;   44.000
212.146;   29.925;  153.000;   49.000
212.291;  -21.300; -210.000; -186.000
212.436;  -24.225; -280.000;   -6.000
212.581;  -77.525; -685.000; -653.000
212.726;  -64.475; -487.000; -538.000
212.871;  -46.425; -552.000; -217.000
213.016; -135.825;-1172.000;-1029.000
213.161;   63.350;  406.000;  291.000
213.306;  -70.550; -435.000; -577.000
213.451;  -92.925; -778.000; -689.000
213.596;  -35.900; -455.000; -347.000
213.741;  -63.025; -448.000; -538.000
213.886;  -61.750; -498.000; -517.000
214.031;  -13.300; -294.000; -124.000
214.176;  -29.375; -408.000; -341.000
214.321;  -16.350; -296.000; -157.000
214.466;  -25.500; -163.000;  -43.000
214.611;    1.825;  -61.000;  -10.000
214.756; -108.850; -948.000; -858.000
214.901;  -14.750; -388.000; -226.000
215.046; -108.100; -797.000; -825.000
215.191;   14.550;  128.000;   35.000
215.336;   -7.600; -157.000;  -19.000
215.480;  -78.175; -684.000; -505.000
215.625;   -9.275; -175.000;  -19.000
215.770;  -71.950; -757.000; -662.000
215.915;  -12.525;   -5.000;  -97.000
216.060;  -17.050; -113.000;  -21.000
216.205; -109.100; -731.000; -779.000
216.349;  -79.825; -470.000; -533.000
216.494; -122.825; -939.000; -867.000
216.639; -118.600; -823.000; -888.000
216.784;  -83.950; -577.000; -525.000
216.929;   36.425;  392.000;  281.000
217.073;  -17.225; -244.000;  -31.000
217.218;    4.050;   78.000;  -47.000
217.363;  -81.200; -656.000; -618.000
217.507;  -77.950; -623.000; -588.000
217.652; -117.100; -845.000; -874.000
217.797;  -87.500; -708.000; -659.000
217.942;  -97.250; -856.000; -720.000
218.086;   61.450;  608.000;  539.000
218.231;  -18.875; -174.000;  -26.000
218.376;  -38.850; -337.000; -229.000
218.520;   -0.200;  -41.000;   96.000
218.665;  -38.525; -338.000; -204.000
218.810;  -38.875; -275.000; -233.000
218.954;    5.050;  201.000;   35.000
219.099; -101.850; -713.000; -963.000
219.243;  -55.375; -589.000; -554.000
219.388;  -33.600; -264.000; -136.000
219.532;  -15.300; -116.000; -116.000
219.677;  -75.125; -564.000; -521.000
219.822;   11.150;   33.000;   89.000
219.966;   12.625;   17.000;  -99.000
220.111;  -31.750; -328.000;  -40.000
220.255;  -86.525; -797.000; -750.000
220.400;  -16.200; -180.000; -146.000
220.544;  -63.725; -516.000; -450.000
220.689;  -61.975; -422.000; -451.000
220.833;  -15.550; -123.000;  -58.000
220.978;  -54.500; -393.000; -563.000
221.122;   19.350;  319.000;  307.000
221.267; -123.200; -906.000; -837.000
221.411;  -71.525; -478.000; -394.000
221.555;   -9.150; -104.000;  -23.000
221.700;  -52.500; -329.000; -222.000
221.844;   42.450;  255.000;  272.000
221.989;  -25.625; -328.000; -311.000
222.133;  -49.950; -289.000; -307.000
222.277;   -1.275;    5.000;   78.000
222.422;   18.350;  227.000;  113.000
222.566;  -28.950; -381.000; -214.000
222.711;  -43.900; -414.000; -479.000
222.855;  -76.600; -643.000; -586.000
222.999;  -76.350; -642.000; -717.000
223.144;  -21.525; -195.000; -194.000
223.288;   46.275;  423.000;  251.000
223.432;   32.525;  184.000;  230.000
223.576;    4.175;  152.000;  -21.000
223.721;   32.175;  364.000;  273.000
223.865;  -65.000; -472.000; -475.000
224.009;  236.050; 1673.000; 1631.000
224.153;  -77.075; -660.000; -671.000
224.298;  -67.025; -531.000; -489.000
224.442;   -5.400;  -74.000;  -33.000
224.586;   -3.475; -169.000; -106.000
224.730; -103.150; -858.000; -670.000
224.875;  -98.850; -739.000; -688.000
225.019;    7.075;  102.000;  188.000
225.163;   43.375;  208.000;  341.000
225.307;   13.000;   97.000;  -91.000
225.451;   49.075;  360.000;  481.000
225.595;   17.575;  264.000;  176.000
225.739;  -17.250; -170.000;  -94.000
225.884;   -1.075;   86.000;    5.000
226.028;  -90.650; -760.000; -626.000
226.172;  -40.400; -260.000; -273.000
226.316;  -97.625; -941.000; -902.000
226.460;  -74.225; -645.000; -493.000
226.604;  -53.775; -406.000; -400.000
226.748; -103.450; -836.000; -733.000
226.892;  -24.000; -227.000; -181.000
227.036;  -45.075; -537.000; -447.000
227.180;  -61.575; -551.000; -375.000
227.324;  -63.900; -561.000; -580.000
227.468; -109.825; -819.000; -717.000
227.612;   -4.400;  242.000;  -28.000
227.756;  -96.150; -845.000; -698.000
227.900;   44.475;  342.000;  441.000
228.044;  -59.850; -509.000; -290.000
228.188;   54.950;  448.000;  568.000
228.332;  -75.275; -546.000; -472.000
228.476;  -24.700; -223.000; -149.000
228.620;  -18.500; -210.000; -150.000
228.764;   39.250;  431.000;  349.000
228.908;  -11.350; -155.000;   30.000
229.052;  -70.100; -615.000; -528.000
229.195;  -19.675; -172.000;   13.000
229.339;  -31.000; -235.000; -305.000
229.483;  -26.300;    5.000; -162.000
229.627;   -2.925; -156.000;  139.000
229.771;  -40.475; -218.000; -294.000
229.915;   -3.425;  230.000;   79.000
230.059;  -82.875; -648.000; -663.000
230.202;  -44.350; -370.000; -317.000
230.346;  -23.075; -107.000;  107.000
230.490;  -63.500; -489.000; -521.000
230.634; -107.350; -736.000; -553.000
230.777;   76.025;  478.000;  509.000
230.921;  -49.250; -450.000; -359.000
231.065;  -53.750; -246.000; -286.000
231.209;   31.700;  261.000;  265.000
231.352;   17.600;   54.000;   40.000
231.496;   24.400;  568.000;  188.000
231.640;  -79.850; -693.000; -621.000
231.783;   68.100;  546.000;  525.000
231.927;  -44.225; -294.000; -365.000
232.071; -112.400; -962.000; -736.000
232.214; -119.700; -980.000; -764.000
232.358;  -93.175; -683.000; -599.000
232.502;   -1.900;  -19.000;    7.000
232.645; -118.950;-1090.000; -927.000
232.789;  -40.700; -257.000; -218.000
232.933;  -25.825; -407.000; -224.000
233.076; -121.175;-1038.000; -897.000
233.220; -105.100; -752.000; -777.000
233.363;  -87.425; -669.000; -477.000
233.507;   59.650;  371.000;  129.000
233.650; -106.975; -764.000; -834.000
233.794;   42.700;  438.000;  461.000
233.938;  -61.600; -530.000; -362.000
234.081;  -18.750;  -93.000;   31.000
234.225;  -76.200; -631.000; -539.000
234.368;  -98.325; -773.000; -723.000
234.512;  -47.200; -385.000; -299.000
234.655;  -76.550; -582.000; -555.000
234.798;  -76.200; -493.000; -466.000
234.942; -124.700; -884.000;-1002.000
235.085;  -91.975; -651.000; -443.000
235.229;  -58.950; -405.000; -410.000
235.372;  -51.050; -247.000; -191.000
235.516;  -56.650; -397.000; -321.000
235.659;    6.550;   92.000;  121.000
235.802;  -16.000;  -38.000;  -22.000
235.946;   35.225;  335.000;  215.000
236.089;   25.525;  126.000;  250.000
236.233;   44.825;  275.000;  298.000
236.376;  -47.850; -235.000; -378.000
236.519;  -43.750; -297.000; -319.000
236.663;  -16.675; -215.000; -117.000
236.806; -139.575;-1029.000; -999.000
236.949;   39.875;  543.000;  431.000
237.092;   57.700;  412.000;  391.000
237.236;  -80.075; -589.000; -502.000
237.379;   54.050;  352.000;  428.000
237.522; -131.925; -879.000; -768.000
237.666;   -8.950; -271.000;   18.000
237.809; -117.300; -851.000; -823.000
237.952;   31.025;  469.000;  271.000
238.095;  -51.600; -447.000; -442.000
238.238;   60.375;  688.000;  700.000
238.382;    2.050;  166.000;  103.000
238.525;  -70.350; -598.000; -511.000
238.668; -136.125;-1060.000; -985.000
238.811;  -82.000; -638.000; -643.000
238.954;  -48.700; -483.000; -334.000
239.097;   80.475;  617.000;  664.000
239.241;   38.225;  394.000;  326.000
239.384;  -45.225; -254.000; -214.000
239.527;  -46.575; -424.000; -224.000
239.670; -137.475; -994.000;-1091.000
239.813; -109.500; -696.000; -658.000
239.956;   64.175;  579.000;  473.000
240.099;  -95.975; -778.000; -725.000
240.242;   45.675;  428.000;  432.000
240.385;   53.400;  466.000;  450.000
240.528;  -77.975; -706.000; -473.000
240.671;   12.325;  189.000;  134.000
240.814;  -50.225; -441.000; -158.000
240.957;  -94.400; -767.000; -578.000
241.100;  -85.500; -779.000; -755.000
241.243; -136.950;-1234.000; -893.000
241.386;  -65.125; -508.000; -379.000
241.529;  -80.775; -735.000; -547.000
241.672;  -71.700; -566.000; -495.000
241.815; -116.550; -832.000; -808.000
241.958;  -19.400; -125.000; -182.000
242.101;  -79.600; -545.000; -390.000
242.244;  -47.500; -270.000; -325.000
242.387;  -41.575; -304.000; -246.000
242.530;   60.875;  470.000;  134.000
242.673;  -28.850; -381.000; -309.000
242.815; -121.100; -925.000; -899.000
242.958;  -57.425; -482.000; -381.000
243.101;   15.850;  132.000;  187.000
243.244;  -70.700; -564.000; -521.000
243.387;  -38.975; -313.000; -316.000
243.530;  -99.125; -657.000; -674.000
243.672;    2.200;   43.000;  -92.000
243.815;  -46.100; -355.000; -283.000
243.958;   -2.825;   98.000;  -26.000
244.101;   11.175;   59.000;  -16.000
244.243;  -16.925;  -47.000;  101.000
244.386; -110.525; -761.000; -630.000
244.529;  -29.025; -132.000; -139.000
244.672; -151.125;-1154.000; -951.000
244.814; -100.550; -621.000; -794.000
244.957;  -59.075; -380.000; -304.000
245.100;  -76.825; -489.000; -489.000
245.242;  -45.950; -387.000; -374.000
245.385;  -11.650;  -59.000;  -39.000
245.528; -124.825; -871.000; -705.000
245.670;   82.275;  612.000;  634.000
245.813;  -91.550; -599.000; -547.000
245.956;  -40.775; -324.000; -275.000
246.098;  -72.050; -508.000; -650.000
246.241;    4.650;  194.000;   48.000
246.383;  -22.450; -119.000;  -73.000
246.526;  -86.150; -454.000; -525.000
246.669;  -95.975; -889.000; -780.000
246.811;   13.150;  172.000;   -1.000
246.954;  -57.225; -512.000; -426.000
247.096;  -22.150;  -84.000;   -6.000
247.239;  -72.275; -482.000; -445.000
247.381;  -65.775; -647.000; -488.000
247.524;   72.400;  645.000;  679.000
247.666;    0.700;   58.000;   11.000
247.809; -106.600; -887.000; -691.000
247.951;   -1.375;  -75.000;  138.000
248.094;   35.250;  432.000;  308.000
248.236; -150.800;-1262.000;-1238.000
248.378;   21.500; -356.000;  -81.000
248.521;  -27.925; -334.000; -337.000
248.663;  -34.050; -236.000; -267.000
248.806;  -38.925; -300.000; -266.000
248.948;  -93.750; -886.000; -763.000
249.090;  -42.950; -428.000; -398.000
249.233;  -46.375; -344.000; -381.000
249.375;  -70.100; -474.000; -451.000
249.518;  -20.325;  -83.000; -133.000
249.660;  -11.100; -103.000;    3.000
249.802; -157.825;-1303.000;-1189.000
249.945;  -72.800; -612.000; -540.000
250.087; -101.125; -834.000; -768.000
250.229;  -51.725; -362.000; -480.000
250.371;  -67.375; -494.000; -439.000
250.514;  -62.800; -310.000; -244.000
250.656;  -59.700;   69.000;  102.000
250.798; -110.025; -849.000; -800.000
250.940;  -57.075; -322.000; -322.000
251.083;  -24.675; -335.000; -111.000
251.225;   54.650;  338.000;  310.000
251.367;  -39.400; -274.000; -373.000
251.509;  -33.875; -265.000; -210.000
251.651;  -91.475; -731.000; -671.000
251.794;   51.400;  538.000;  632.000
251.936;  -91.975; -821.000; -747.000
252.078;  -75.925; -540.000; -461.000
252.220;  -63.350; -645.000; -477.000
252.362;   90.850;  344.000;  462.000
252.504;  -63.300; -677.000; -584.000
252.646;  -94.625; -875.000; -722.000
252.788;   -8.925;   14.000; -128.000
252.931;  -37.825; -257.000; -253.000
253.073;  -49.475; -376.000; -317.000
253.215;   -5.575;  141.000;  122.000
253.357;  -27.700;   82.000; -153.000
253.499;  -34.025; -374.000; -234.000
253.641;  -94.475; -749.000; -594.000
253.783;  -88.675; -609.000; -527.000
253.925;  -92.750; -586.000; -591.000
254.067; -106.025; -744.000; -667.000
254.209;  -32.275; -391.000; -259.000
254.351; -123.825; -865.000; -883.000
254.493;  -60.875; -441.000; -417.000
254.635; -122.350; -936.000; -818.000
254.777;  -84.975; -752.000; -687.000
254.918;  -66.800; -512.000; -430.000
255.060;  -62.100; -551.000; -395.000
255.202;  -56.750; -473.000; -261.000
255.344;  -65.850; -658.000; -455.000
255.486;  -55.175; -471.000; -406.000
255.628; -111.975; -780.000; -781.000
255.770;  -74.125; -676.000; -536.000
255.912;  -68.075; -559.000; -468.000
256.053;  -80.125; -730.000; -508.000
256.195;  153.200; 1008.000;  903.000
256.337; -100.800; -861.000; -595.000
256.479;   57.775;  532.000;  416.000
256.621;  -41.900; -394.000; -212.000
256.762;  -95.750; -789.000; -742.000
256.904;   54.125;  485.000;  487.000
257.046;  -52.675; -381.000; -271.000
257.188;  -35.700; -351.000; -264.000
257.329;  -75.800; -525.000; -464.000
257.471; -117.275; -939.000; -807.000
257.613;  -69.500; -584.000; -498.000
257.755; -143.675;-1073.000; -982.000
257.896;   21.050;  286.000;  392.000
258.038;  -73.175; -403.000; -352.000
258.180;  -45.850; -354.000; -279.000
258.321;  -91.275; -581.000; -457.000
258.463;  -16.600;  -71.000;  133.000
258.605;  -85.175; -562.000; -570.000
258.746; -101.325; -886.000; -772.000
258.888; -134.675;-1026.000;-1020.000
259.029;   27.350;  121.000;   -8.000
259.171;  -73.550; -614.000; -550.000
259.313;  -11.725;  -49.000;  -47.000
259.454;  -71.825; -536.000; -414.000
259.596;  -59.550; -483.000; -390.000
259.737;  -73.000; -590.000; -474.000
259.879;   35.850;  217.000;  311.000
260.020;   96.300;  901.000;  636.000
260.162;  -46.275; -146.000; -253.000
260.303; -123.450; -768.000; -687.000
260.445;  -81.725; -609.000; -613.000
260.586;   22.200;  392.000;  157.000
260.728;  -53.450; -360.000; -248.000
260.869; -101.725; -350.000; -343.000
261.011;   68.425;  706.000;  537.000
261.152;  -55.875; -479.000; -319.000
261.293;  -82.975; -576.000; -595.000
261.435;  -32.725; -219.000; -184.000
261.576;  -45.125; -455.000; -325.000
261.718;   56.125;  420.000;  470.000
261.859; -124.550; -940.000; -949.000
262.000; -125.875; -951.000;-1016.000
262.142;  -17.025;  -52.000;  -60.000
262.283; -102.125; -808.000; -691.000
262.424;  -97.850; -666.000; -625.000
262.566; -131.025;-1161.000; -983.000
262.707; -114.600; -840.000; -830.000
262.848; -122.825; -769.000; -726.000
262.990;  -51.525; -362.000; -345.000
263.131;   78.150;  650.000;  681.000
263.272;   -5.875;  -61.000;  -41.000
263.413;  -94.650; -589.000; -561.000
263.555;  -67.325; -669.000; -143.000
263.696;  -84.125; -550.000; -641.000
263.837;  -69.700; -449.000; -551.000
263.978;   -7.050;   -5.000;  -77.000
264.119;  -45.725; -283.000; -264.000
264.261; -106.025; -847.000; -630.000
264.402;   -4.700;   33.000;   40.000
264.543;  -78.750; -509.000; -524.000
264.684;   -9.000;   61.000;  -50.000
264.825;  -66.050; -816.000; -538.000
264.966;   -6.475;  -84.000;  -67.000
265.107; -117.450; -646.000; -670.000
265.248; -123.950; -825.000; -812.000
265.390;   12.725;  152.000;   -9.000
265.531;  -25.325; -238.000; -107.000
265.672;  -79.250; -557.000; -630.000
265.813;   54.825;  563.000;  439.000
265.954; -149.175; -959.000; -940.000
266.095;  -14.950; -372.000; -322.000
266.236; -106.150; -686.000; -548.000
266.377;  -31.000; -243.000; -297.000
266.518;  -75.425; -619.000; -547.000
266.659;   26.775;  170.000;  268.000
266.800;   16.050;   83.000;   85.000
266.941;  -74.900; -487.000; -478.000
267.082;   12.925;  354.000;   99.000
267.223;  -59.850; -344.000; -273.000
267.364; -116.625; -892.000; -686.000
267.504;   -8.800;    3.000;  135.000
267.645;   -4.275;  160.000;   67.000
267.786;  -36.775; -147.000;  -86.000
267.927;  -55.850; -473.000; -379.000
268.068;  -21.425; -186.000;  -61.000
268.209;  -44.450; -175.000; -413.000
268.350;  -73.750; -388.000; -532.000
268.490;  -67.750; -648.000; -521.000
268.631;   23.425;  127.000;  225.000
268.772; -105.100; -874.000; -647.000
268.913;  -56.400; -328.000; -476.000
269.054;    0.850; -117.000;   12.000
269.194;  -47.050; -418.000; -402.000
269.335; -155.575;-1137.000;-1074.000
269.476;  -10.975;   33.000;  -35.000
269.617;  -47.475; -347.000; -392.000
269.757;  -94.575; -713.000; -646.000
269.898;  -76.400; -856.000; -613.000
270.039;  -60.025; -415.000; -405.000
270.180; -127.200; -952.000; -816.000
270.320;  -20.900; -190.000; -250.000
270.461;  -31.875; -277.000; -249.000
270.602;  -25.325; -186.000; -156.000
270.742; -116.275; -868.000; -943.000
270.883;  -64.100; -442.000; -390.000
271.023;  -45.550; -358.000; -357.000
271.164;  -71.800; -607.000; -528.000
271.305;  -94.625; -666.000; -654.000
271.445;  -93.500; -722.000; -683.000
271.586;  -79.475; -462.000; -283.000
271.726;  -34.425; -397.000; -322.000
271.867;  -50.250; -594.000; -534.000
272.008;  196.200; -473.000; -285.000
272.148;  141.975;  462.000;  468.000
272.289;    7.650; -113.000; -181.000
272.429;   10.925;   19.000;  185.000
272.570;  -97.475; -633.000; -737.000
272.710;  -89.325; -825.000; -775.000
272.851;  -21.900;  113.000; -130.000
272.991; -164.675;-1173.000;-1077.000
273.131;  -69.050; -419.000; -459.000
273.272; -101.475; -683.000; -723.000
273.412;   19.750; -143.000;  -31.000
273.553;  -45.500; -488.000; -507.000
273.693;  115.625;  913.000;  858.000
273.834;  -75.275; -894.000; -692.000
273.974;  -79.725; -664.000; -615.000
274.114;  -92.075; -772.000; -560.000
274.255;   76.225;  414.000;  373.000
274.395;    7.525; -180.000; -125.000
274.535;   32.250;  199.000;  350.000
274.676;   21.675;  225.000;   94.000
274.816;   12.550;  110.000;   34.000
274.956;  -76.500; -624.000; -690.000
275.097;  -51.725;-1014.000; -922.000
275.237; -102.900; -913.000; -803.000
275.377;  -89.350; -778.000; -689.000
275.517; -136.475; -878.000; -937.000
275.658;  -55.400; -590.000; -555.000
275.798;  -54.325; -606.000; -413.000
275.938;   19.325;  215.000;  323.000
276.078;  -96.000; -626.000; -395.000
276.218;  -14.575;   99.000;  104.000
276.359; -127.225;-1026.000;-1024.000
276.499;  -75.925; -605.000; -446.000
276.639;  -36.450; -305.000; -151.000
276.779;  -52.100; -475.000; -357.000
276.919;  -89.925; -783.000; -624.000
277.059;  -23.475; -261.000; -212.000
277.199;  -35.650; -357.000; -259.000
277.340;   56.050;  287.000;  175.000
277.480; -103.700; -840.000; -693.000
277.620;   16.825;  192.000;   16.000
277.760; -191.950;-1533.000;-1294.000
277.900;   23.225;  113.000;   33.000
278.040;   23.550;  137.000;  159.000
278.180;   26.550;  270.000;  170.000
278.320;    6.500;   21.000;   56.000
278.460;  -68.800; -443.000; -469.000
278.600;  -86.250; -708.000; -598.000
278.740;   36.900;  448.000;  224.000
278.880;  -25.325; -768.000; -791.000
279.020;   -9.250; -194.000; -144.000
279.160;  -74.150; -672.000; -595.000
279.300; -108.300; -926.000; -873.000
279.440;  -80.500; -709.000; -622.000
279.579;    4.725;-1014.000; -929.000
279.719;  -44.375; -410.000; -394.000
279.859;   78.425;   -4.000;   41.000
279.999;   43.000; -208.000;  101.000
280.139;  -14.125; -435.000; -387.000
280.279;  -57.200; -708.000; -745.000
280.419;  -28.575; -229.000; -147.000
280.559;  -30.175; -259.000; -180.000
280.698;  -78.075; -790.000; -639.000
280.838;  -78.750; -778.000; -800.000
280.978; -100.775; -846.000; -790.000
281.118; -100.925; -811.000; -704.000
281.257;   -2.750;   24.000;    6.000
281.397;  -98.875;-1094.000; -960.000
281.537;  -80.450; -599.000; -712.000
281.677;  -14.650; -150.000; -101.000
281.816;  -93.750; -700.000; -630.000
281.956;  -19.725; -193.000; -257.000
282.096;  -67.350; -539.000; -396.000
282.235;  -99.600; -672.000; -638.000
282.375;  -14.025; -243.000;  -98.000
282.515;  -85.750; -715.000; -707.000
282.654;   34.675;   29.000;  106.000
282.794;   21.775;  388.000;  244.000
282.934;  -44.875; -530.000; -491.000
283.073; -118.475;-1030.000; -857.000
283.213;  -45.950; -460.000; -467.000
283.353;  -32.025; -408.000; -349.000
283.492;  -28.825; -264.000; -296.000
283.632;  -36.000; -254.000; -168.000
283.771;  -99.225; -859.000; -730.000
283.911;  -39.175; -369.000; -260.000
284.050; -102.700; -794.000; -748.000
284.190; -147.350;-1229.000;-1096.000
284.329; -132.800;-1055.000; -964.000
284.469;  -51.300; -516.000; -591.000
284.608;  -49.325; -559.000; -598.000
284.748;  -69.900; -614.000; -570.000
284.887;   -7.775;  -87.000;  -20.000
285.027; -111.125; -844.000; -892.000
285.166;  -37.500; -192.000; -249.000
285.306;   17.300; -116.000;  -33.000
285.445;  -41.150; -229.000; -343.000
285.584; -102.100; -630.000; -494.000
285.724;  -53.725; -282.000; -322.000
285.863; -109.000; -857.000; -507.000
286.002;  -61.525; -366.000; -276.000
286.142; -101.350; -715.000; -622.000
286.281;  -71.125; -525.000; -493.000
286.420;  -74.500; -554.000; -417.000
286.560;   83.900;  653.000;  623.000
286.699; -121.900; -958.000; -912.000
286.838;  -80.450; -590.000; -591.000
286.978;  -81.850; -533.000; -537.000
287.117; -131.350;-1085.000; -950.000
287.256;  -33.725; -228.000; -211.000
287.395;  -54.875; -197.000; -378.000
287.535;  -46.750; -370.000; -298.000
287.674;  -81.225; -509.000; -484.000
287.813;   58.300;  661.000;  533.000
287.952; -119.075;-1010.000; -871.000
288.091; -127.600;-1049.000; -915.000
288.231;   18.300;   13.000;   15.000
288.370; -163.775;-1217.000;-1200.000
288.509;  -91.875; -728.000; -645.000
288.648;  -86.800; -770.000; -548.000
288.787;  -26.375; -243.000;  -87.000
288.926;  -51.700; -454.000; -475.000
289.065;  110.675;  859.000;  672.000
289.204;  -41.525; -377.000; -217.000
289.344; -101.475; -791.000; -690.000
289.483;   31.275;  416.000;  304.000
289.622;  -32.200; -291.000; -149.000
289.761;  -10.325; -309.000; -166.000
289.900; -107.350; -785.000; -626.000
290.039;  -12.450;  -12.000;  -95.000
290.178;  -35.300; -274.000; -180.000
290.317;  -55.875; -618.000; -479.000
290.456;  -57.125; -463.000; -451.000
290.595; -119.600; -961.000; -833.000
290.734; -145.450; -904.000; -891.000
290.873;  -61.875; -456.000; -420.000
291.011; -101.125; -833.000; -843.000
291.150;  -92.125; -770.000; -682.000
291.289;  -27.700; -343.000; -110.000
291.428;  -80.000; -599.000; -480.000
291.567;  -55.375; -370.000; -442.000
291.706;   -8.700;  109.000;  154.000
291.845;  -88.400; -597.000; -505.000
291.984; -151.775;-1234.000;-1061.000
292.122;   70.225;  602.000;  582.000
292.261;   48.800;  620.000;  463.000
292.400;    3.175; -144.000;  211.000
292.539; -113.100; -959.000; -813.000
292.678;  -48.075; -325.000; -300.000
292.816; -148.050;-1136.000; -965.000
292.955;  -79.575; -844.000; -684.000
293.094;  -24.350; -173.000; -337.000
293.233;  -52.975; -556.000; -400.000
293.371;  -28.075; -225.000;  -84.000
293.510; -110.325; -866.000; -780.000
293.649; -115.800; -959.000; -924.000
293.787;  -51.325;-1083.000;-1012.000
293.926;    0.250; -113.000;  -32.000
294.065;  -50.875; -379.000; -290.000
294.203;   51.025;  298.000;  406.000
294.342;   36.225;   74.000;  156.000
294.481; 5466.625;51180.000; -836.000
294.619;  -37.200; -425.000; -582.000
294.758; -126.100;-1230.000;-1137.000
294.896;   74.950; -125.000;    5.000
295.035; -102.200;-1040.000;-1006.000
295.174; -106.725;-1082.000; -954.000
295.312;  -42.100; -323.000; -203.000
295.451;    3.050; -307.000; -428.000
295.589;  -49.725; -389.000; -518.000
295.728;   14.775; -292.000; -165.000
295.866;   -0.175;  -36.000;  -51.000
296.005;  -60.125; -584.000; -341.000
296.143;  -58.625; -558.000; -596.000
296.282;  -86.025; -957.000; -881.000
296.420;  -80.300; -657.000; -557.000
296.559;  -81.475; -892.000; -633.000
296.697;   58.575; -847.000; -665.000
296.835;  107.700;-1141.000;-1002.000
296.974;   47.325;  -23.000;   39.000
297.112;   26.075; -443.000; -504.000
297.251;  -66.200; -815.000; -755.000
297.389;  113.275; -576.000; -438.000
297.527;   47.700; -145.000;  -83.000
297.666;  -48.825; -486.000; -438.000
297.804;  -53.475; -404.000; -264.000
297.942;    0.825; -136.000; -161.000
298.081;   -6.450; -183.000;   63.000
298.219;   86.425;  -17.000;  -19.000
298.357;   82.550; -144.000;  -71.000
298.495;   60.850; -810.000; -812.000
298.634;   99.300;  245.000;  219.000
298.772;   69.775; -220.000; -338.000
298.910;  -34.025; -309.000; -182.000
299.048;  -12.350; -130.000; -153.000
299.187;  -30.950; -350.000; -250.000
299.325;   12.550;   52.000;  122.000
299.463;   71.125; -389.000; -299.000
299.601;  142.950; -327.000; -271.000
299.739;  -86.250; -908.000; -883.000
299.877;  -85.500; -791.000; -703.000
300.016;  -27.300;-1095.000; -935.000
300.154;  172.850;  -19.000; -161.000
300.292;   88.650; -428.000; -348.000
300.430;   64.100; -408.000; -291.000
300.568;  -88.525; -940.000; -874.000
300.706;  -28.175; -366.000; -469.000
300.844;  -43.000;-1108.000; -979.000
300.982;  114.925;  246.000;  282.000
301.120; -110.275; -965.000; -866.000
301.258;  -61.650; -812.000; -705.000
301.396;   46.725;  104.000;  -41.000
301.534;  112.900; -218.000; -293.000
301.672;    9.575; -664.000; -521.000
301.810;   75.425; -613.000; -545.000
301.948;  128.675;   53.000;  149.000
302.086;  729.050; -250.000;  -32.000
302.224; 1107.725; -610.000; -585.000
302.362;   60.675; -558.000; -622.000
302.500;   10.775; -923.000; -893.000
302.638;  125.000;  128.000;  245.000
302.776;    9.350; -352.000; -408.000
302.913;   40.275;  447.000;  236.000
303.051;   11.550;  -86.000;  -23.000
303.189;   57.450;   90.000;  118.000
303.327;  -24.850; -341.000; -256.000
303.465;  -70.350; -832.000; -588.000
303.603;  -86.575; -805.000; -604.000
303.740;  125.725;  417.000;  241.000
303.878;   34.500; -800.000; -759.000
304.016;  -90.000; -915.000; -790.000
304.154;  -93.750;-1123.000;-1152.000
304.291;  -28.300; -505.000; -554.000
304.429;   23.050;  102.000;   74.000
304.567; -124.625; -908.000; -893.000
304.705;  -61.275; -408.000; -515.000
304.842;  124.750; -616.000; -540.000
304.980;   66.025;  215.000;   35.000
305.118;   77.525; -367.000; -365.000
305.255;  -60.100; -945.000; -927.000
305.393;   44.900;  178.000;  239.000
305.531;  -84.275;-1173.000; -956.000
305.668;  -69.425; -663.000; -582.000
305.806;  135.425; -358.000; -439.000
305.943;  131.300; -629.000; -637.000
306.081;   72.750; -378.000; -267.000
306.219; -103.900; -863.000; -748.000
306.356;    4.825;  158.000;   27.000
306.494;  111.300;  981.000;  761.000
306.631;   -0.675;  -11.000;  -55.000
306.769;   23.775; -613.000; -485.000
306.906;    6.750; -284.000; -258.000
307.044;  -51.575; -473.000; -488.000
307.181;  -47.825; -410.000; -332.000
307.319;    8.200;  112.000;   87.000
307.456; -152.950;-1191.000;-1153.000
307.594;  -96.325; -980.000; -727.000
307.731;    7.175; -371.000; -164.000
307.868;    6.550;  -15.000;   20.000
308.006; -122.100; -961.000; -847.000
308.143;  -64.050; -618.000; -330.000
308.281;  229.300;  -37.000; -254.000
308.418;   -4.475; -748.000; -640.000
308.555;  -56.800; -400.000; -250.000
308.693;  -71.575; -577.000; -573.000
308.830;  -93.725; -712.000; -657.000
308.967;   -1.325; -215.000;  -95.000
309.105;  -38.575; -507.000; -396.000
309.242;   56.925; -468.000; -367.000
309.379;  412.475; -577.000; -655.000
309.517;  -27.100; -936.000; -948.000
309.654;  -92.375; -910.000; -734.000
309.791;  -65.450; -662.000; -580.000
309.928; -108.550; -977.000; -914.000
310.065;  179.750;  819.000;  697.000
310.203;   20.600; -825.000; -850.000
310.340;   -1.050; -465.000; -321.000
310.477;  -65.975; -412.000; -516.000
310.614;  -65.850; -383.000; -473.000
310.751;  -66.025; -427.000; -518.000
310.889;  -30.450;    1.000;   11.000
311.026; -133.825;-1161.000; -939.000
311.163;  -43.775; -386.000; -380.000
311.300;  -65.250; -512.000; -479.000
311.437;  -85.075; -658.000; -619.000
311.574; -139.700;-1226.000; -985.000
311.711;  -52.575; -595.000; -433.000
311.848;  -31.550; -380.000; -388.000
311.985;   18.275;  270.000;   93.000
312.122; -102.350; -932.000; -762.000
312.259; -114.700; -941.000; -994.000
312.396;  -62.950; -508.000; -551.000
312.533;  -86.775; -812.000; -790.000
312.670; -115.100;-1070.000; -898.000
312.807;  -36.575; -352.000; -367.000
312.944;  -64.700; -513.000; -611.000
313.081;  -28.125; -150.000; -415.000
313.218;  -82.700;-1111.000; -867.000
313.355;   23.300; -531.000; -449.000
313.492;    8.275; -455.000; -292.000
313.629;  136.150;  815.000;  735.000
313.766; -149.675;-1176.000;-1008.000
313.902;  -14.625; -186.000;   21.000
314.039;  -45.425; -372.000; -289.000
314.176;   30.500;  286.000;  192.000
314.313;  -72.850; -569.000; -473.000
314.450;  -66.350; -788.000; -684.000
314.587;  -41.575; -468.000; -480.000
314.723;   -1.925;  -78.000;  130.000
314.860;   49.475;  318.000;  332.000
314.997;   28.425;  223.000;  142.000
315.134;  -28.675; -385.000; -368.000
315.270;  -27.000; -480.000; -496.000
315.407; -112.675;-1094.000; -967.000
315.544;  -42.125; -657.000; -538.000
315.681;  -58.550; -681.000; -565.000
315.817;   34.875; -133.000; -176.000
315.954;   17.125; -613.000; -392.000
316.091; -123.925;-1045.000;-1023.000
316.227;  -22.075;  -71.000; -179.000
316.364;   16.750;   23.000;    6.000
316.500;  -40.750; -113.000; -300.000
316.637;  -34.200; -181.000; -302.000
316.774;  -80.725; -625.000; -358.000
316.910;  -86.650; -598.000; -629.000
317.047;  -60.525; -487.000; -351.000
317.183;  -35.075; -435.000; -566.000
317.320;  -15.025; -367.000; -321.000
317.456;  -76.225; -733.000; -805.000
317.593;  -79.775; -598.000; -641.000
317.729;  -14.325;  168.000;  -67.000
317.866; -187.475;-1434.000;-1285.000
318.002;  -89.050; -708.000; -948.000
318.139;  -70.850; -883.000; -867.000
318.275;  -96.825;-1003.000; -738.000
318.412;  -49.850; -517.000; -336.000
318.548;  -19.950; -751.000; -720.000
318.685;  -86.200; -985.000; -888.000
318.821;  -81.200; -762.000; -735.000
318.957;   -8.950;   34.000;  -23.000
319.094;   38.825;  297.000;  154.000
319.230;  -45.000; -756.000; -742.000
319.367;  175.675; -471.000; -520.000
319.503;   75.575; -538.000; -436.000
319.639;  -84.725; -877.000; -793.000
319.775;  -40.425; -750.000; -685.000
319.912;  -49.100; -424.000; -519.000
320.048;  -68.925;-1184.000;-1184.000
320.184;   66.550;   59.000;   70.000
320.321;  -42.475; -497.000; -467.000
320.457;   55.550;  475.000;  662.000
320.593;  -53.450; -375.000; -382.000
320.729;  -99.250; -732.000; -734.000
320.866;  -53.450; -577.000; -635.000
321.002;  -74.125; -759.000; -809.000
321.138;   -7.425; -135.000; -211.000
321.274;   80.750; -148.000; -115.000
321.410;   -7.000; -585.000; -353.000
321.546;  -12.250;-1011.000; -911.000
321.683;   75.125;  400.000;  185.000
321.819;    2.600;  -48.000; -117.000
321.955;  -86.450; -743.000; -722.000
322.091;  -18.775; -585.000; -540.000
322.227;    2.300; -382.000; -202.000
322.363;    4.775; -320.000; -215.000
322.499;  -36.900; -343.000; -331.000
322.635;  177.325;  636.000;  443.000
322.771;   32.150; -139.000;   12.000
322.907;   76.675;  129.000;  327.000
323.043;  -16.950; -115.000; -206.000
323.179;  -21.575; -394.000; -363.000
323.315;   57.275; -401.000; -371.000
323.451;  116.325; -328.000; -236.000
323.587;   97.350;  -60.000;  -77.000
323.723;   36.975; -682.000; -601.000
323.859;   -9.650; -258.000;  -76.000
323.995;  -19.075; -467.000; -409.000
324.131; -113.825; -967.000; -892.000
324.267;  -35.400; -254.000; -276.000
324.402; -119.825; -960.000; -983.000
324.538;   -7.375; -279.000; -104.000
324.674;   31.725;  164.000;   77.000
324.810;  154.000;  226.000;  308.000
324.946;   30.700; -810.000; -658.000
325.082;  -83.350; -568.000; -475.000
325.217;    3.200;  -62.000;   16.000
325.353;  -93.025; -764.000; -659.000
325.489;  -78.825; -540.000; -506.000
325.625;  -84.425; -579.000; -525.000
325.760;   53.725;  517.000;  376.000
325.896;  -33.575; -515.000; -702.000
326.032;  -44.875; -403.000; -352.000
326.168;  -55.425; -462.000; -369.000
326.303;  -50.850; -352.000; -461.000
326.439;  -22.525; -336.000; -276.000
326.575;    3.675; -190.000;  -29.000
326.710;   -8.650; -156.000;  -30.000
326.846;   -9.625;  146.000;  103.000
326.982;  -93.125; -530.000; -548.000
327.117;  -70.900; -481.000; -442.000
327.253;  -92.100; -745.000; -742.000
327.388; -153.350;-1137.000;-1153.000
327.524;  -31.850; -811.000; -578.000
327.659;  -16.375;  -58.000;  -22.000
327.795;   -7.325;   69.000;   45.000
327.931;  -82.375; -723.000; -499.000
328.066;  -22.175; -417.000; -276.000
328.202;   -4.450;   12.000; -129.000
328.337;  114.725;  957.000;  713.000
328.473;   43.175;  -12.000;  -74.000
328.608;  -32.575; -256.000; -267.000
328.743;  -55.700; -799.000; -664.000
328.879;    9.700;  214.000;  114.000
329.014;  -25.100; -102.000; -122.000
329.150;  -74.800; -358.000; -483.000
329.285;  -64.025; -465.000; -466.000
329.421;  -42.750; -548.000; -246.000
329.556;  -20.550;  -36.000;   85.000
329.691;  -89.050; -633.000; -615.000
329.827;  -58.400; -626.000; -480.000
329.962;  -35.100;  131.000; -301.000
330.097;  -80.550; -673.000; -585.000
330.233;  -44.375; -410.000; -223.000
330.368; -108.775; -839.000; -628.000
330.503;  -28.150;    3.000;   98.000
330.638;    1.525;  -93.000; -125.000
330.774;  -41.975; -609.000; -530.000
330.909;  -40.975; -434.000; -244.000
331.044;  -85.050; -714.000; -708.000
331.179; -169.625;-1217.000;-1109.000
331.315;   10.350;   77.000;   20.000
331.450;   12.250;  157.000;  285.000
331.585;  -87.325; -805.000; -706.000
331.720;  -71.725; -510.000; -460.000
331.855;   -3.525;  -35.000; -102.000
331.990;  242.575;   62.000;  138.000
332.126;  125.700; -110.000;   71.000
332.261;  -15.575; -379.000; -265.000
332.396;   -5.750; -135.000; -242.000
332.531;  -91.850;-1074.000;-1031.000
332.666;   31.175; -519.000; -363.000
332.801;  -95.350; -726.000; -807.000
332.936;  -18.750; -192.000; -122.000
333.071; -146.950; -870.000; -817.000
333.206;   19.025;  307.000;  379.000
333.341;   48.075;  344.000;  418.000
333.476;  -84.300; -627.000; -623.000
333.611;  -43.600; -251.000; -173.000
333.746;  -43.450; -381.000; -464.000
333.881; -105.875; -973.000; -935.000
334.016; -110.475; -936.000; -917.000
334.151; -100.300; -746.000; -702.000
334.286;   37.625;  152.000;  186.000
334.421;  -19.750; -125.000; -178.000
334.556;  -81.250; -611.000; -567.000
334.690;  -80.575; -631.000; -577.000
334.825;   53.575;  381.000;   83.000
334.960;  -45.200; -285.000; -413.000
335.095;    7.475;  135.000;  -91.000
335.230;  -99.900; -722.000; -738.000
335.365; -131.225;-1084.000; -990.000
335.499; -102.300;-1108.000;-1037.000
335.634;   30.550;    9.000;  534.000
335.769;  -76.300; -755.000; -720.000
335.904;  -69.800; -603.000; -561.000
336.038;  -38.375; -735.000; -657.000
336.173;  -93.125;-1206.000;-1194.000
336.308;   13.225; -116.000; -189.000
336.443;   17.500; -544.000; -634.000
336.577;  -47.175; -936.000; -787.000
336.712;   78.575;   -4.000;  -12.000
336.847;  -10.875; -724.000; -607.000
336.981;   89.825; -272.000; -208.000
337.116;  315.900;  615.000;  501.000
337.250;  195.200; -434.000; -421.000
337.385;  257.025; -297.000; -208.000
337.520;   72.200; -632.000; -603.000
337.654;  -25.650; -215.000; -126.000
337.789; -109.475; -989.000; -933.000
337.923;  -11.700; -104.000; -205.000
338.058;  -69.100; -673.000; -738.000
338.192;  -12.725; -611.000; -488.000
338.327;   -9.225;  -18.000; -155.000
338.461;  -45.725; -299.000; -469.000
338.596;  -88.900; -780.000; -638.000
338.730;  -91.025; -767.000; -803.000
338.865;   98.250;  -46.000; -140.000
338.999;  -43.175; -846.000; -702.000
339.134;  -20.775; -634.000; -536.000
339.268;   13.875; -741.000; -603.000
339.403;  370.075; -740.000; -775.000
339.537;  104.700; -894.000; -820.000
339.671; -115.600; -829.000; -813.000
339.806;  -54.275; -556.000; -512.000
339.940;   18.050; -261.000; -235.000
340.074;  -88.725; -685.000; -510.000
340.209;  -48.425; -351.000; -230.000
340.343;  -77.250; -517.000; -573.000
340.477;  140.050;  998.000; 1036.000
340.612;  -56.150;-1033.000; -900.000
340.746;  120.150; -199.000; -243.000
340.880;  -48.350; -924.000; -785.000
341.014;  -36.700;  -45.000; -154.000
341.149; -102.200; -756.000; -718.000
341.283;  -98.375; -839.000; -754.000
341.417;  -72.625;-1124.000; -938.000
341.551;  183.875; -768.000; -708.000
341.685;  -16.200; -633.000; -611.000
341.820;  -53.075; -562.000; -493.000
341.954;  -43.775; -218.000; -349.000
342.088; -141.250;-1102.000;-1019.000
342.222;   61.925;  565.000;  618.000
342.356;  -49.100; -395.000; -335.000
342.490;  -80.775; -880.000; -841.000
342.624;  -32.775; -339.000; -242.000
342.758;   22.150; -364.000; -312.000
342.892;  -53.750; -710.000; -585.000
343.026;  -37.375;  -58.000; -116.000
343.160;  -48.500; -426.000; -376.000
343.294;  -67.400; -474.000; -337.000
343.428;   -9.025; -488.000; -448.000
343.562;  -13.425; -172.000;  -23.000
343.696;  -21.850; -385.000; -314.000
343.830;   -3.900; -362.000; -356.000
343.964;   24.600; -231.000; -168.000
344.098; 1066.600;  199.000;   70.000
344.232;  894.325; -266.000; -127.000
344.366;  109.475; -567.000; -453.000
344.500;   90.025; -665.000; -744.000
344.634;   49.925; -324.000; -164.000
344.768;   -4.800; -531.000; -341.000
344.902;   35.550;  278.000;  256.000
345.035;  -65.800; -556.000; -496.000
345.169; -120.200; -933.000; -656.000
345.303;  -14.725; -308.000; -482.000
345.437;  -49.625; -826.000; -717.000
345.571;  -73.200; -675.000; -594.000
345.704;  -50.200; -309.000; -532.000
345.838;  -11.675; -331.000; -284.000
345.972;  -38.850; -543.000; -495.000
346.106;  159.750; -179.000; -190.000
346.239;  444.950; -312.000; -243.000
346.373;   20.400; -343.000; -302.000
346.507; -123.525; -950.000; -962.000
346.640;  174.000;  -30.000;   13.000
346.774;  -13.425; -650.000; -797.000
346.908;   -7.825; -138.000;  -11.000
347.041;  -76.200; -646.000; -593.000
347.175;   12.125;  259.000;   27.000
347.309;  -57.275; -698.000; -628.000
347.442;  -91.125; -883.000; -732.000
347.576;  325.850;  670.000;  668.000
347.709;  233.025; -123.000;  -52.000
347.843;  -67.325; -933.000; -825.000
347.976;   39.525;  235.000;  294.000
348.110; -167.150;-1268.000;-1186.000
348.243; -103.275; -679.000; -772.000
348.377;   -3.125;  -26.000;   60.000
348.510;   34.950;  403.000;  540.000
348.644;  -25.775;  -37.000; -159.000
348.777;   -7.250;  180.000;  191.000
348.911;  -50.150; -142.000; -112.000
349.044;  181.800;  471.000;  448.000
349.178;  220.625;-1069.000;-1006.000
349.311;  123.000;  141.000;  255.000
349.444;    3.825; -927.000; -813.000
349.578;    0.200; -347.000; -200.000
349.711;  -78.425; -959.000; -862.000
349.845;    4.550; -661.000; -591.000
349.978; -133.550;-1224.000;-1137.000
350.111;  -77.650; -546.000; -612.000
350.244;  -49.150; -596.000; -700.000
350.378;   18.375; -392.000; -393.000
350.511;  -48.025; -393.000; -426.000
350.644;  -90.900; -808.000; -806.000
350.778;   16.250;  168.000;  104.000
350.911;   -3.375;  134.000;  140.000
351.044;  -88.175; -685.000; -615.000
351.177;  -34.400; -321.000; -281.000
351.310;  -11.600;    3.000; -131.000
351.444;  -65.000; -888.000; -788.000
351.577;  143.800;  140.000;   90.000
351.710;   90.325;  593.000;  417.000
351.843;  -28.550; -165.000;  -77.000
351.976;   -3.475;  149.000;  -79.000
352.109;  -65.275; -621.000; -612.000
352.242;   -5.800; -464.000; -419.000
352.376;  -40.125; -580.000; -636.000
352.509;  224.075; -437.000; -356.000
352.642;   53.175; -654.000; -604.000
352.775;   82.875; -141.000;  -98.000
352.908; -106.500; -933.000; -904.000
353.041;  -98.775; -814.000; -824.000
353.174;  -53.300; -551.000; -424.000
353.307;  -73.525; -753.000; -764.000
353.440;   78.625;  541.000;  453.000
353.573; -107.300; -957.000;-1008.000
353.706;   -3.375; -384.000; -558.000
353.839;  -11.600; -264.000; -220.000
353.971;  -78.825; -657.000; -512.000
354.104;  -73.300; -896.000; -835.000
354.237;  -29.375; -627.000; -662.000
354.370;  -71.025; -846.000; -879.000
354.503; -174.150;-1231.000;-1308.000
354.636;  -26.775; -529.000; -348.000
354.769; -111.350; -937.000; -860.000
354.902;   -1.725; -230.000; -139.000
355.034;   -8.600; -164.000; -220.000
355.167;  -24.100; -262.000; -162.000
355.300;  -75.800;-1061.000; -880.000
355.433;  939.900;  -71.000;  -14.000
355.565; 1484.725; -402.000; -384.000
355.698;  371.500; -356.000; -296.000
355.831;   23.525; -882.000; -801.000
355.964;  100.950; -285.000; -170.000
356.096;  -57.825; -856.000; -843.000
356.229;   14.175; -523.000; -530.000
356.362;  310.450; -373.000; -266.000
356.494;  580.900; -229.000; -162.000
356.627;  547.000;  269.000;  377.000
356.760;  656.825;  120.000;   53.000
356.892;  925.875; -286.000; -601.000
357.025;  757.025;  403.000;  389.000
357.157;  735.025; -167.000; -179.000
357.290;  631.050; -856.000; -713.000
357.423;  202.350; -667.000; -556.000
357.555;  130.000; -217.000; -228.000
357.688;  140.475; -483.000; -364.000
357.820;  541.725; -870.000; -877.000
357.953; 4147.875; -563.000; -589.000
358.085;  969.700; -632.000; -612.000
358.218; 1442.125;-1131.000; -932.000
358.350;  263.600;  -58.000;  312.000
358.483;  -92.425;-1300.000;-1187.000
358.615;   22.250;-1182.000;-1078.000
358.747;  -11.875;-1187.000;-1058.000
358.880;   63.075; -810.000; -744.000
359.012;    5.675; -376.000; -202.000
359.145;  -31.850; -480.000; -511.000
359.277;   86.250; -962.000; -913.000
359.409; 3397.925;  536.000;  231.000
359.542;  954.225; -738.000; -688.000
359.674;   97.375;   46.000;   13.000
359.806;  -47.475; -565.000; -438.000
359.939;  -42.875; -617.000; -516.000
360.071;  -17.650; -583.000; -579.000
360.203;  -14.425; -411.000; -364.000
360.335;   61.225;  164.000;  -16.000
360.468;  221.175; -249.000; -307.000
360.600; 2686.875; -547.000; -454.000
360.732; 2715.425; -546.000; -423.000
360.864;  408.175;-1216.000;-1044.000
360.996;  349.425; -516.000; -554.000
361.129;   86.200; -389.000; -598.000
361.261;   21.325;  110.000; -113.000
361.393;  -29.125; -252.000; -214.000
361.525;   28.775;   94.000;  244.000
361.657;  -10.975; -821.000; -703.000
361.789;   24.650; -139.000; -155.000
361.921;  303.625; -642.000; -593.000
362.053;  309.125;  524.000;  541.000
362.185;   65.625;  288.000;   72.000
362.318;  -53.150; -709.000; -705.000
362.450;  146.275;  294.000;  444.000
362.582;  180.225; -913.000; -870.000
362.714;  -30.300; -353.000; -332.000
362.846;  -78.300; -606.000; -490.000
362.978; -132.025; -941.000; -811.000
363.109;   69.350; -161.000; -260.000
363.241;  553.900; -739.000; -749.000
363.373;  434.875; -649.000; -564.000
363.505;  646.000; -186.000;  -91.000
363.637;  174.400; -787.000; -601.000
363.769; -116.450;-1067.000;-1080.000
363.901;  -57.700; -596.000; -654.000
364.033; -102.125;-1103.000;-1062.000
364.165;    9.300; -283.000; -283.000
364.296;   98.400; -316.000; -177.000
364.428;   74.325;-1344.000;-1220.000
364.560;  -53.800; -679.000; -661.000
364.692;  -44.125; -738.000; -835.000
364.824;  351.950; -588.000; -456.000
364.955;  455.600; -402.000; -564.000
365.087;  859.925;-1097.000; -852.000
365.219;   41.025; -686.000; -816.000
365.351;  -50.800; -526.000; -572.000
365.482;   59.550;  300.000;  240.000
365.614;  -31.600; -402.000; -314.000
365.746;  -92.125; -729.000; -752.000
365.877;  -77.350; -706.000; -672.000
366.009;  243.150;  -35.000;  -62.000
366.141;  -82.400;-1249.000;-1134.000
366.272; -107.950; -803.000; -719.000
366.404; -114.100;-1005.000; -874.000
366.535;  -15.800; -139.000;  -12.000
366.667;  -97.275; -644.000; -649.000
366.799;   50.700;  353.000;  203.000
366.930; -106.925; -862.000; -996.000
367.062;  122.200; -639.000; -613.000
367.193;  135.450; -872.000; -842.000
367.325;  -56.050; -580.000; -684.000
367.456;   84.250; -246.000;   31.000
367.588;  155.425; -371.000; -318.000
367.719;   30.475;  -44.000;  -45.000
367.851;  -11.950; -222.000; -241.000
367.982;  -22.200; -875.000; -732.000
368.113;  137.475; -475.000; -358.000
368.245; -102.550; -960.000; -841.000
368.376;  -33.075; -254.000; -302.000
368.508;  -19.025; -188.000; -263.000
368.639; -134.575;-1166.000;-1034.000
368.770;   11.600; -670.000; -589.000
368.902;  -55.700; -836.000; -926.000
369.033;  -91.025; -906.000; -855.000
369.164;  -51.550; -720.000; -653.000
369.296; -105.650; -452.000; -601.000
369.427;    5.150; -209.000; -144.000
369.558;  -24.925; -593.000; -377.000
369.689;  -75.650; -721.000; -569.000
369.821; -126.775; -951.000; -845.000
369.952;  -12.475;   42.000; -108.000
370.083;  -41.900; -229.000; -108.000
370.214;  -72.925; -735.000; -650.000
370.345;   12.100;   65.000;   81.000
370.477;  -70.575; -810.000; -790.000
370.608;  295.425; -328.000; -264.000
370.739;  -12.350;-1233.000;-1292.000
370.870;    2.725;-1102.000; -923.000
371.001;  116.650; -378.000; -467.000
371.132;  -56.500; -754.000; -735.000
371.263;   -8.425;  -42.000; -148.000
371.394; -123.250; -841.000; -748.000
371.525;   30.675;  345.000;  225.000
371.657;  -72.975; -808.000; -670.000
371.788;   80.525;  103.000;  199.000
371.919;  201.000; -384.000; -304.000
372.050; 4136.000;  -91.000; -156.000
372.181; 1309.000; -188.000; -294.000
372.311;  458.275;   42.000; -127.000
372.442;   74.825; -457.000; -451.000
372.573;   -9.850; -444.000; -340.000
372.704;  -93.925;-1008.000; -980.000
372.835;  105.300; -228.000; -289.000
372.966;  -50.050; -646.000; -554.000
373.097;  -51.750; -575.000; -711.000
373.228;  -11.875; -717.000; -542.000
373.359;  192.425; -824.000; -536.000
373.490; 1092.550; -881.000; -727.000
373.620; 1424.850;-1001.000; -803.000
373.751; 2071.550; -332.000; -396.000
373.882;  978.325; -663.000; -733.000
374.013;  104.000; -449.000; -262.000
374.143;  -27.050; -581.000; -659.000
374.274;  -81.950; -987.000; -908.000
374.405;  220.525; -388.000; -276.000
374.536;  539.200; -526.000; -387.000
374.666; 1372.775; -759.000; -807.000
374.797;  288.475; -817.000; -868.000
374.928; 1036.375; -710.000; -560.000
375.058; 1096.275; -535.000; -500.000
375.189;  107.475;  -59.000;  -93.000
375.320;  -90.825; -928.000;-1034.000
375.450;  -23.500; -625.000; -616.000
375.581;  -28.950; -526.000; -436.000
375.712;  -21.825; -574.000; -250.000
375.842;  390.150; -438.000; -415.000
375.973;  297.075; -554.000; -513.000
376.103;  -12.675; -665.000; -648.000
376.234;  -79.925; -531.000; -552.000
376.364;  -17.300; -944.000; -867.000
376.495;  380.175;  925.000;  529.000
376.625;   42.875; -472.000; -485.000
376.756;  101.325; -709.000; -678.000
376.886;  -31.450;-1178.000;-1026.000
377.017;   55.900;-1048.000;-1061.000
377.147;  331.875; -786.000; -782.000
377.278;   78.525;  174.000;  228.000
377.408; -123.400; -801.000; -815.000
377.538; -109.375; -707.000; -693.000
377.669;  -70.400; -537.000; -613.000
377.799;  -75.675; -645.000; -635.000
377.929;  -46.050; -610.000; -428.000
378.060; -122.950; -781.000; -847.000
378.190;  -40.300; -726.000; -531.000
378.320;  -48.925; -401.000; -406.000
378.451;    6.875; -131.000;  -22.000
378.581;   -6.550;  -67.000; -110.000
378.711;  183.200; 1035.000;  866.000
378.841;   -4.225; -533.000; -675.000
378.972;  -47.550; -871.000; -751.000
379.102;   15.425; -652.000; -579.000
379.232;   -9.175; -126.000;  -73.000
379.362;  -97.250;-1001.000; -885.000
379.492;   39.200; -373.000; -424.000
379.623;  127.725;    0.000;  111.000
379.753;  -70.925;-1107.000; -974.000
379.883;  232.675;   59.000;  156.000
380.013;   44.950;-1081.000;-1017.000
380.143;  -89.475;-1097.000;-1056.000
380.273;  -81.600; -985.000; -861.000
380.403;   -5.950; -344.000; -257.000
380.533;    5.275; -651.000; -664.000
380.663;   90.875;  173.000;  128.000
380.793;  -55.575;-1027.000;-1074.000
380.923;   -5.800; -103.000;  -34.000
381.053;  -76.075; -613.000; -623.000
381.183;  -32.675; -106.000; -248.000
381.313;   75.625; -656.000; -470.000
381.443;   71.350; -692.000; -473.000
381.573;  271.375; -402.000; -409.000
381.703;  397.350;-1249.000;-1095.000
381.833;  -89.100;-1454.000;-1336.000
381.963;  133.725; -134.000;  -87.000
382.093; 1616.000; -925.000; -909.000
382.223;  522.500; -713.000; -602.000
382.353;   11.225; -801.000; -608.000
382.482;  468.550;-1091.000; -964.000
382.612;  925.525; -872.000; -644.000
382.742;  551.425; -695.000; -622.000
382.872;  345.025; -565.000; -551.000
383.002;   79.650;  347.000; -132.000
383.131;  -11.475; -226.000; -160.000
383.261;  -28.800; -706.000; -768.000
383.391;  314.550; -552.000; -377.000
383.521; 3000.525;  451.000;  263.000
383.650;  746.175; -947.000; -904.000
383.780;  -10.475; -783.000; -656.000
383.910;  124.350;  880.000;  802.000
384.039;   49.250; -794.000; -656.000
384.169;  313.475;-1205.000;-1017.000
384.299;   17.125; -650.000; -662.000
384.428;  -81.050; -764.000; -680.000
384.558;  -17.125; -308.000; -275.000
384.687;  -30.000; -414.000; -334.000
384.817;   28.850;   75.000;   -2.000
384.947;   44.100; -234.000; -141.000
385.076;  326.350;  982.000;  912.000
385.206;  124.850;  369.000;  480.000
385.335;  -22.400; -549.000; -417.000
385.465;  -55.825; -655.000; -663.000
385.594;  157.050;  -53.000;  -44.000
385.724;  536.825; -868.000; -838.000
385.853;  159.775; -296.000; -270.000
385.982; 1589.200; -743.000; -787.000
386.112; 2619.125;-1052.000; -871.000
386.241;  214.400; -307.000; -312.000
386.371;   20.350; -174.000;  -87.000
386.500;   26.475; -825.000; -789.000
386.629;   46.425; -874.000; -817.000
386.759;   79.875;  -43.000;   68.000
386.888;    8.025; -170.000; -250.000
387.017;  -48.050; -648.000; -620.000
387.147;  -64.325; -771.000; -798.000
387.276;   32.300; -410.000; -397.000
387.405;   40.750; -398.000; -342.000
387.535;  -16.425; -452.000; -361.000
387.664;  -58.850; -692.000; -620.000
387.793;   98.575; -198.000; -113.000
387.922;  623.200;  255.000;  200.000
388.052;   65.350; -576.000; -423.000
388.181;   33.150; -342.000; -472.000
388.310;   59.525; -889.000; -710.000
388.439;    0.950; -749.000; -742.000
388.568;  231.525;  365.000;  244.000
388.697; 1281.150; -756.000; -653.000
388.826;  312.000; -768.000; -666.000
388.956;   78.750; -285.000; -307.000
389.085;  -16.725; -347.000; -287.000
389.214; -103.750; -842.000; -872.000
389.343;  -48.150; -645.000; -413.000
389.472;  378.925;  126.000;  149.000
389.601;  546.975;   91.000;    0.000
389.730;   48.500; -568.000; -687.000
389.859;   64.825;  226.000;   46.000
389.988;  224.350; -423.000; -408.000
390.117;  193.875; -168.000; -146.000
390.246;    5.700; -331.000; -320.000
390.375;  160.550; -673.000; -626.000
390.504;  -46.700; -703.000; -621.000
390.633;  -92.575; -672.000; -726.000
390.761;  -44.475; -732.000; -645.000
390.890;   52.900;   -4.000; -130.000
391.019;  -19.075; -421.000; -441.000
391.148; -111.425; -826.000; -855.000
391.277;  -60.650; -576.000; -493.000
391.406;  -65.025; -821.000; -805.000
391.534;   17.725;  574.000; -301.000
391.663;  -46.400; -583.000; -645.000
391.792;  -74.025; -673.000; -701.000
391.921;  135.825;   -3.000;   15.000
392.050;  233.650; -287.000; -228.000
392.178;   15.650;-1206.000;-1061.000
392.307;  171.050; -758.000; -712.000
392.436;  129.975; -427.000; -641.000
392.564;   35.150;  166.000;   -6.000
392.693;  -76.050; -860.000; -682.000
392.822;  242.825; -529.000; -534.000
392.950;  155.225; -880.000; -714.000
393.079;  388.725; -188.000; -328.000
393.208;   50.300; -488.000; -511.000
393.336;   -6.525; -170.000; -145.000
393.465;  -43.325; -317.000; -199.000
393.593;    7.425;   62.000;   79.000
393.722; -140.300;-1121.000; -916.000
393.850;  -34.900; -188.000;  -61.000
393.979; -145.100; -926.000; -805.000
394.107;  -71.600; -517.000; -537.000
394.236;    2.000; -570.000; -507.000
394.364;  235.850;  383.000;  206.000
394.493;  483.350; -911.000; -767.000
394.621;   26.650; -955.000; -916.000
394.750;  675.200; -873.000; -923.000
394.878; 2797.950; -247.000; -149.000
395.007; 4014.025; -721.000; -807.000
395.135;  320.225; -790.000; -721.000
395.263;  -78.075;-1038.000;-1040.000
395.392;    3.100;  -25.000; -107.000
395.520; -120.550; -818.000; -679.000
395.648;  -80.650; -865.000; -915.000
395.777;   15.675; -366.000; -405.000
395.905;  -34.775; -449.000; -564.000
396.033;   22.475;  217.000;  172.000
396.162;  717.900; -399.000; -453.000
396.290;  684.250;  -17.000;   -2.000
396.418;  143.725; -555.000; -514.000
396.546;  -46.325; -571.000; -466.000
396.674;  -73.775; -850.000; -878.000
396.803;   12.725;  -72.000;  -23.000
396.931;  126.550; -179.000; -199.000
397.059;  126.100;-1026.000; -989.000
397.187; -100.000;-1026.000; -975.000
397.315; -120.050; -884.000; -649.000
397.443;  -99.200; -592.000; -443.000
397.572;  -91.950; -578.000; -424.000
397.700;   16.900; -607.000; -614.000
397.828;   53.575;  120.000;  -90.000
397.956;  -48.525; -508.000; -478.000
398.084;  -60.275; -767.000; -626.000
398.212;   52.075;  137.000;  124.000
398.340;   24.425;  -56.000;  159.000
398.468;   70.025; -390.000; -169.000
398.596; -118.075; -993.000; -953.000
398.724; -112.125; -762.000; -767.000
398.852; -148.575;-1024.000; -976.000
398.980;  -65.325; -560.000; -560.000
399.108;  -32.075; -982.000; -735.000
399.236;   34.550;   13.000;    8.000
399.363;   18.225;  222.000;  196.000
399.491;  -70.275; -404.000; -398.000
399.619; -111.600; -829.000; -800.000
399.747;  -86.575; -859.000; -771.000
399.875;   88.725;  220.000;  234.000
400.003;  -54.175; -359.000; -284.000
400.130;  -88.650; -421.000; -341.000
400.258;  -29.050;  -83.000;   38.000
400.386;  -65.900; -352.000; -168.000
400.514;  -37.200; -526.000; -587.000
400.641;  -62.875; -928.000; -802.000
400.769; -142.125; -979.000; -888.000
400.897;  -97.375; -838.000; -793.000
401.025;  -14.150; -166.000; -152.000
401.152;    4.000;  220.000;   38.000
401.280;  -96.500; -430.000; -429.000
401.408; -112.150; -712.000; -576.000
401.535; -104.650; -735.000; -758.000
401.663; -175.150;-1134.000;-1054.000
401.790;  -72.700; -514.000; -525.000
401.918;   40.750;  436.000;  405.000
402.046;  -30.675;  134.000;  122.000
402.173;  -41.850;  -18.000;    7.000
402.301;  -72.150; -519.000; -397.000
402.428;   31.100;  528.000;  383.000
402.556; -142.050;-1188.000; -913.000
402.683;  -35.100;  -20.000;   -1.000
402.811;  -23.625;  -37.000; -206.000
402.938;   -4.975;   20.000;   27.000
403.066;  229.125; -574.000; -558.000
403.193;  417.625;  299.000;  239.000
403.321;  316.800; -396.000; -574.000
403.448;  400.275;   83.000;   27.000
403.575;  185.275;  -90.000;  -46.000
403.703;  -67.525; -732.000; -557.000
403.830;  -68.125; -531.000; -496.000
403.957; -133.425;-1117.000;-1023.000
404.085;    5.275;  -61.000; -172.000
404.212;  118.400;  -50.000;   63.000
404.339;  254.100; -566.000; -306.000
404.467; 5481.400; -612.000; -524.000
404.594; 3990.950; -287.000; -227.000
404.721; 1051.650; -869.000; -764.000
404.848;  106.925; -113.000; -202.000
404.976;  -90.250; -856.000; -783.000
405.103;  -28.500;  -14.000;  -82.000
405.230;    3.575;  190.000;  226.000
405.357;   20.200;  117.000;   44.000
405.484;  255.400;  -49.000;    5.000
405.612;   58.675; -548.000; -563.000
405.739;  -55.175; -488.000; -243.000
405.866;   72.475;  669.000;  385.000
405.993;  -15.600; -398.000; -102.000
406.120; -124.825; -801.000; -887.000
406.247;  -33.650; -323.000; -342.000
406.374;  505.000;  540.000;  629.000
406.501;  170.475; -632.000; -702.000
406.628;  -65.800; -621.000; -589.000
406.755;  -87.800; -803.000; -620.000
406.882;  -31.300; -228.000; -277.000
407.009;  -93.825; -719.000; -628.000
407.136;   74.375; -480.000; -401.000
407.263;  230.525; -939.000; -829.000
407.390;  -62.950; -692.000; -614.000
407.517; -150.050;-1139.000;-1187.000
407.644;  -66.475; -332.000; -256.000
407.771;  -62.300; -249.000; -287.000
407.898;    1.750;  168.000;  328.000
408.025;  -52.250; -421.000; -313.000
408.151;  -21.350;   82.000;  153.000
408.278;  -53.600; -267.000; -216.000
408.405; -111.950; -931.000; -899.000
408.532;  -54.025; -549.000; -542.000
408.659; -109.325; -677.000; -648.000
408.785; -180.825;-1298.000;-1170.000
408.912;  -69.000; -412.000; -296.000
409.039; -103.775; -610.000; -686.000
409.166; -110.600; -591.000; -555.000
409.292;  -89.400; -571.000; -534.000
409.419; -114.350; -665.000; -649.000
409.546;  -87.100; -431.000; -192.000
409.672; -108.825; -713.000; -545.000
409.799;   -6.075;  -36.000;   34.000
409.926;  -42.325; -180.000; -179.000
410.052; -167.875;-1127.000;-1091.000
410.179;  -57.475; -368.000; -392.000
410.305;  -88.575; -375.000; -493.000
410.432;  -39.600; -220.000; -333.000
410.558;  -82.900; -305.000; -380.000
410.685; -108.850; -688.000; -431.000
410.812;  -91.275; -409.000; -588.000
410.938; -141.350; -964.000; -808.000
411.065;  -87.500; -671.000; -645.000
411.191;  -23.150; -189.000; -174.000
411.317; -104.925; -823.000; -742.000
411.444;  -61.775; -317.000; -246.000
411.570;  -74.775; -339.000; -294.000
411.697; -124.375; -758.000; -752.000
411.823; -162.500; -989.000; -999.000
411.949;  -19.175;  -56.000;   17.000
412.076; -103.300; -539.000; -519.000
412.202; -112.825; -758.000; -757.000
412.329; -121.000; -798.000; -752.000
412.455; -115.275; -821.000; -657.000
412.581;  -24.575;  -15.000;  172.000
412.707;  -51.725; -540.000; -457.000
412.834;   23.850;  156.000;  219.000
412.960;  -70.450; -785.000; -784.000
413.086;  -77.650; -743.000; -701.000
413.212;  152.075;  604.000;  578.000
413.339;  -37.425; -685.000; -701.000
413.465;    6.325; -364.000; -310.000
413.591;  -80.725; -757.000; -474.000
413.717;  -57.850; -358.000; -366.000
413.843; -123.450; -839.000; -861.000
413.969;  -44.925;  -47.000; -292.000
414.096; -106.325; -679.000; -679.000
414.222;   -9.125;  -33.000;   85.000
414.348;   -5.125; -652.000; -385.000
414.474;  134.000;   38.000;  -52.000
414.600;   -3.725; -126.000; -144.000
414.726;  -16.700;  -96.000;  -55.000
414.852;  -52.075; -365.000; -342.000
414.978;   26.625;  104.000;  -18.000
415.104;   57.125;   38.000;   80.000
415.230;   43.825; -329.000; -330.000
415.356;   47.600; -409.000; -514.000
415.482;  213.575;   13.000;  -35.000
415.608;  277.225; -247.000; -323.000
415.734;  945.525;   67.000;   38.000
415.860;19190.725; -875.000; -767.000
415.986;15325.075; -685.000; -607.000
416.111; 1348.475; -798.000; -652.000
416.237;  278.125; -424.000; -571.000
416.363; 1019.900; -765.000; -733.000
416.489; 4125.225; -324.000; -251.000
416.615;  502.375; -707.000; -742.000
416.741;  -13.400; -677.000; -784.000
416.866;  -80.725; -673.000; -736.000
416.992; -106.175; -801.000; -818.000
417.118;  -29.550;  -41.000;  -80.000
417.244;  -64.075; -798.000; -531.000
417.369;  -60.900; -801.000; -612.000
417.495;    3.725; -325.000; -254.000
417.621;  -77.375;-1015.000; -803.000
417.746;    6.600; -579.000; -572.000
417.872;   52.575; -254.000; -144.000
417.998;   56.350; -515.000; -530.000
418.123;  948.125;-1073.000; -845.000
418.249; 5333.200; -512.000; -601.000
418.374;  842.000; -916.000; -824.000
418.500;  127.025; -383.000; -482.000
418.626;  121.150;   70.000;  -59.000
418.751;  136.050; -549.000; -448.000
418.877;  203.250; -637.000; -643.000
419.002; 1618.650; -688.000; -560.000
419.128;12120.675; -930.000; -721.000
419.253; 3276.950; -967.000; -837.000
419.379;  421.350; -391.000; -338.000
419.504;  398.000;  325.000;  415.000
419.629;  515.650; -393.000; -212.000
419.755; 3152.900; -317.000; -254.000
419.880;20227.000;  -98.000;   67.000
420.006;11023.900; -280.000; -221.000
420.131;29394.125; -662.000; -775.000
420.256; 4647.625; -315.000; -316.000
420.382;  617.350; -665.000; -687.000
420.507;   93.400; -649.000; -778.000
420.632;  176.050; -337.000; -339.000
420.758;  327.175; -251.000; -425.000
420.883;  -60.275; -876.000; -672.000
421.008;  -81.525; -775.000; -619.000
421.133;  -59.600; -509.000; -467.000
421.259;  -46.700; -325.000; -259.000
421.384;  -99.450; -834.000; -693.000
421.509;  -40.200;-1052.000; -862.000
421.634; 1402.225; -936.000; -820.000
421.759;  664.650; -359.000; -327.000
421.885;  -19.525; -717.000; -656.000
422.010;  -65.550; -673.000; -542.000
422.135; -134.500; -695.000; -727.000
422.260;   32.325;  340.000;  280.000
422.385;  -38.100;   12.000;  -98.000
422.510;   11.000;  151.000;  -26.000
422.635;   26.050;  -87.000;  -43.000
422.760;  122.050; -766.000; -791.000
422.885;   70.725;  -57.000;  -80.000
423.010;  -42.525; -112.000; -169.000
423.135;  -78.650; -481.000; -561.000
423.260;  -14.175; -150.000; -245.000
423.385;   80.925;  476.000;  222.000
423.510;   30.525;   71.000;  -22.000
423.635;  103.275;  133.000;   45.000
423.760;   66.025;  383.000;  328.000
423.885;   80.525;  336.000;  391.000
424.010;   18.675;  -68.000;  -13.000
424.135;  -21.675;    5.000;  -33.000
424.259;  -79.900; -654.000; -457.000
424.384;  -57.425; -279.000; -272.000
424.509;  -20.850; -260.000; -186.000
424.634;  -84.825; -761.000; -623.000
424.759;  -15.875; -688.000; -544.000
424.883;   -1.300; -506.000; -527.000
425.008;  175.450; -502.000; -410.000
425.133; 1931.850; -679.000; -653.000
425.258;  977.750; -517.000; -381.000
425.382; 1126.375; -867.000; -774.000
425.507; 3049.700; -487.000; -543.000
425.632;  536.075; -802.000; -663.000
425.756;  457.975; -256.000; -146.000
425.881; 5817.650; -831.000; -857.000
426.006;16936.700; -604.000; -355.000
426.130; 2911.600; -696.000; -508.000
426.255;  380.075; -611.000; -491.000
426.379;  175.150; -189.000; -577.000
426.504;  355.500;  660.000;  544.000
426.629; 3869.550; -519.000; -466.000
426.753; 2949.650;   64.000;  -46.000
426.878;  346.900; -252.000; -288.000
427.002;  191.375; -651.000; -668.000
427.127; 1500.550;  -35.000; -158.000
427.251;10979.325;  372.000;  401.000
427.375; 3462.475; -191.000; -173.000
427.500; 2552.300; -616.000; -610.000
427.624;  986.000; -234.000; -400.000
427.749;  112.125; -216.000; -225.000
427.873;  -24.375; -499.000; -412.000
427.997;  -40.750; -222.000; -230.000
428.122;   79.725;  795.000;  703.000
428.246;   89.750;  433.000;  434.000
428.371; -116.175; -869.000; -773.000
428.495;  -96.300; -624.000; -646.000
428.619;  -16.750; -186.000; -117.000
428.743;   38.025;   65.000;  132.000
428.868;   41.225; -732.000; -643.000
428.992; 1578.225; -219.000; -326.000
429.116;  717.450; -329.000; -357.000
429.240;  348.850;  419.000;  426.000
429.365;    4.375; -454.000; -574.000
429.489;  -25.250; -638.000; -647.000
429.613;   34.650; -236.000; -177.000
429.737;   51.025; -563.000; -432.000
429.861;  274.650; -247.000; -133.000
429.985; 5230.675; -425.000; -305.000
430.109; 6301.950; -770.000; -908.000
430.234;  782.750;   76.000;  -50.000
430.358;   81.325; -250.000; -160.000
430.482;  -65.600; -672.000; -564.000
430.606;  -51.825; -655.000; -375.000
430.730;   28.700; -437.000; -388.000
430.854;  211.000; -909.000; -835.000
430.978;  -64.725; -795.000; -764.000
431.102;  -71.125; -499.000; -422.000
431.226; -102.975; -874.000; -815.000
431.350;   32.700;  345.000;  422.000
431.474;  -68.150; -661.000; -373.000
431.597; -128.875;-1060.000; -848.000
431.721;  -77.025; -276.000; -267.000
431.845; -125.975; -704.000; -472.000
431.969;  -70.325; -304.000; -349.000
432.093;  -85.600; -395.000; -317.000
432.217;  -16.200;   32.000;   82.000
432.341;  -79.200; -523.000; -518.000
432.464;    5.450;   96.000;   40.000
432.588;  257.700; -401.000; -329.000
432.712;  139.125;  -52.000;  -52.000
432.836;   47.825;  213.000;  263.000
432.959;  -17.100; -372.000; -311.000
433.083;   58.400;   11.000;    2.000
433.207;  358.000;  285.000;  930.000
433.330; 4675.125; -391.000; -200.000
433.454; 6282.975; -654.000; -638.000
433.578; 3593.800;  583.000;  278.000
433.701;  734.050; -623.000; -675.000
433.825;  200.375; -292.000; -299.000
433.949;  226.275;   28.000;  -72.000
434.072;  111.275; -410.000; -323.000
434.196;    0.525; -309.000; -117.000
434.319; 3637.500;25482.000;25124.000
434.443;  716.825; -656.000; -603.000
434.566; 2651.475;  281.000;   62.000
434.690;  502.500; -637.000; -383.000
434.813;   60.275; -251.000; -173.000
434.937;  -78.425; -569.000; -696.000
435.060;  -17.775; -423.000; -332.000
435.184;  407.250; -492.000; -217.000
435.307;  234.500;  159.000;  102.000
435.431;    3.675;  -40.000;   24.000
435.554;  -86.725; -399.000; -240.000
435.677;  -89.550; -350.000; -258.000
435.801;  -37.275;  -25.000;   49.000
435.924;  -10.475;    1.000;  -67.000
436.048;  -78.075;-1019.000; -732.000
436.171;  -52.175; -240.000;  -66.000
436.294;  -29.950; -248.000; -229.000
436.417;   81.625; -963.000; -849.000
436.541;  -66.150; -814.000; -840.000
436.664;  -53.775; -242.000; -316.000
436.787;  -25.875;   13.000;  113.000
436.910; -115.400; -792.000; -422.000
437.034;    7.725;  142.000;  143.000
437.157;   65.800;  -11.000;    0.000
437.280;  -36.100; -392.000; -292.000
437.403;  -79.950; -982.000; -869.000
437.526;  725.650; -903.000; -865.000
437.649; 2817.550; -505.000; -332.000
437.772;  534.525; -692.000; -540.000
437.896;  147.275;  700.000;  544.000
438.019;  -75.625; -758.000; -503.000
438.142;  -73.850; -596.000; -506.000
438.265;    3.625; -639.000; -670.000
438.388;  695.000; -520.000; -410.000
438.511;  182.950; -597.000; -394.000
438.634;  -42.950; -247.000; -125.000
438.757; -121.025; -693.000; -619.000
438.880;  -28.950;  -34.000;  -57.000
439.003;  -55.775; -417.000; -437.000
439.126;  -66.800; -287.000; -167.000
439.248;  -48.625;  -98.000; -139.000
439.371;  -52.125;    9.000;  -53.000
439.494;   32.600;  510.000;  439.000
439.617;  -47.500;   65.000;  -88.000
439.740; -182.000; -968.000; -816.000
439.863; -140.625; -755.000; -595.000
439.986; -117.450; -476.000; -431.000
440.108;  -56.225; -161.000; -112.000
440.231; -155.100; -950.000; -836.000
440.354;  -30.950;  -64.000; -150.000
440.477;   59.675; -566.000; -542.000
440.599;   33.875; -200.000; -225.000
440.722; -109.525; -709.000; -586.000
440.845;   62.725;  751.000;  928.000
440.968; -102.500; -415.000; -311.000
441.090;  -61.675; -199.000;  -33.000
441.213; -152.750;-1021.000; -825.000
441.336;  -60.325; -159.000;   -5.000
441.458;  -74.225; -549.000; -396.000
441.581;  -63.400; -628.000; -629.000
441.703;  -57.725; -152.000;   13.000
441.826; -108.625; -557.000; -400.000
441.948;  -47.325;   56.000;   51.000
442.071;   12.350;  555.000;  424.000
442.193; -102.850; -531.000; -485.000
442.316;   14.675;  152.000;   97.000
442.438;   59.025; -233.000;  -10.000
442.561;   68.275;  272.000;  262.000
442.683;  621.450; -809.000; -522.000
442.806; 1457.875;   -8.000;   74.000
442.928;  103.175; -859.000; -604.000
443.051;  -65.750; -577.000; -373.000
443.173;  -85.900; -341.000; -339.000
443.295;  -73.775; -263.000; -371.000
443.418;  -55.775; -321.000;  -29.000
443.540;    5.800; -106.000;   -4.000
443.662; -112.075; -563.000; -465.000
443.785;  -33.250;  335.000;  199.000
443.907;  -90.725; -362.000; -208.000
444.029; -137.975; -767.000; -494.000
444.152; -140.650; -644.000; -554.000
444.274;  -29.750;  -18.000;  -24.000
444.396; -111.050; -461.000; -221.000
444.518; -137.000; -691.000; -454.000
444.640; -102.025; -268.000; -111.000
444.763;  -35.875;  388.000;  249.000
444.885; -106.825; -432.000; -392.000
445.007;  -22.600;   35.000;   86.000
445.129; -106.525; -610.000; -515.000
445.251;  -99.025; -372.000; -439.000
445.373; -123.375; -537.000; -386.000
445.495;  -11.450;  242.000;  350.000
445.617;   70.100;  853.000;  753.000
445.739;  -66.750; -215.000;  -97.000
445.861;  -23.275; -245.000; -112.000
445.984;  -30.500; -267.000; -101.000
446.105;  233.375; -418.000; -251.000
446.227;  749.350; -176.000;  -19.000
446.349;   56.400; -358.000; -249.000
446.471;  -91.875; -615.000; -448.000
446.593;  -65.775; -316.000;   19.000
446.715;   -5.900;  -67.000;   41.000
446.837;   55.900;  697.000;  832.000
446.959;  -98.075; -457.000; -478.000
447.081; -136.225; -628.000; -518.000
447.203;   46.500;  862.000;  834.000
447.325;  -76.975; -270.000;   42.000
447.446;   -6.625;  286.000;  530.000
447.568; -150.425; -921.000; -803.000
447.690;  -79.625; -236.000; -245.000
447.812; -135.650; -798.000; -519.000
447.933;  -26.350;  155.000;  127.000
448.055;  -58.625; -306.000; -261.000
448.177;  167.525;   31.000;   79.000
448.299;  158.325; -935.000; -727.000
448.420;   27.025;  -25.000;  159.000
448.542;  -48.125;   -3.000;   33.000
448.664;  -33.450;  109.000;  322.000
448.785;  -37.425;  265.000;   83.000
448.907;  -90.675; -614.000; -353.000
449.028;  -17.050; -771.000; -471.000
449.150;   62.200;  492.000;  589.000
449.272; -158.875;-1044.000; -913.000
449.393;   32.400;  612.000;  694.000
449.515; -136.775; -634.000; -581.000
449.636;  -64.600; -264.000; -155.000
449.758;   76.025;  763.000;  622.000
449.879;  -93.950; -498.000; -396.000
450.001;  -74.550; -149.000;  -49.000
450.122;  -43.500;  -95.000;  162.000
450.244;  -20.675;   37.000;  364.000
450.365;  -96.050; -495.000; -301.000
450.486;  -24.975;   80.000;  268.000
450.608;   14.925;  393.000;  326.000
450.729;   66.150;  578.000;  645.000
450.850;    6.875; -574.000; -466.000
450.972;  644.975; -552.000; -389.000
451.093; 4566.300;  190.000;  588.000
451.214; 2241.600; -516.000; -337.000
451.336;  417.075;  773.000;  579.000
451.457;   55.400;  264.000;  393.000
451.578;  -51.650; -118.000;  -74.000
451.699; -127.250; -546.000; -540.000
451.821;  -65.175; -284.000;  -50.000
451.942;   -8.350;  278.000;  285.000
452.063;   23.300;  228.000;  419.000
452.184;  488.925;  -54.000;  -49.000
452.305; 1085.725;  103.000;  170.000
452.427;  163.125; -549.000; -301.000
452.548;   -9.775;   23.000;   79.000
452.669;  -31.900; -257.000;  -89.000
452.790;  -41.175;    3.000;  -18.000
452.911;   -3.375;  195.000;  259.000
453.032;  -65.000; -289.000;  -60.000
453.153;  -38.075;  -29.000;   81.000
453.274;   59.150;  737.000;  868.000
453.395;  -42.650;  -51.000;  175.000
453.516;  128.800; 1317.000; 1388.000
453.637;  -50.450; -205.000; -150.000
453.758;  -56.700;   15.000;   69.000
453.879; -103.025; -462.000; -250.000
454.000;   73.600; 1086.000;  948.000
454.121; -104.500; -554.000; -326.000
454.242; -109.900; -599.000; -383.000
454.362;  -46.975;  -99.000;  114.000
454.483;  -45.425; -309.000; -229.000
454.604;   79.700;  512.000;  580.000
454.725; -115.000; -627.000; -555.000
454.846; -108.650; -474.000; -406.000
454.967;  -25.125;  230.000;  539.000
455.087;  -51.175;  179.000;  153.000
455.208;    5.050;  554.000;  856.000
455.329;  -70.325;  -22.000;   82.000
455.450;   23.900;  473.000;  633.000
455.570;  -73.900; -234.000; -211.000
455.691;  -54.650;  201.000;  407.000
455.812;  -96.950; -270.000;  -92.000
455.932;  -63.325;  107.000;  -97.000
456.053;  -77.550;   36.000;   24.000
456.173; -113.675; -433.000; -355.000
456.294; -125.950; -476.000; -303.000
456.415;  -61.650;  -73.000;   70.000
456.535;  -24.375;  297.000;  273.000
456.656;  -37.900;  132.000;  240.000
456.776;  -62.100;    3.000;  298.000
456.897;    4.675;  308.000;  513.000
457.017;  -76.775; -153.000;   -3.000
457.138; -110.325; -402.000; -249.000
457.258;  -19.300;  263.000;  224.000
457.379;  -31.275;  509.000;  521.000
457.499;  -24.175;  443.000;  432.000
457.620; -116.075; -407.000; -231.000
457.740;  -86.375; -132.000;  -11.000
457.860;  -57.900;   87.000;   44.000
457.981;  -32.450;  132.000;  124.000
458.101;  -88.275;  -89.000;   40.000
458.221;  -17.700;  336.000;  402.000
458.342;  -63.175;   -4.000;  -37.000
458.462;   21.300;  617.000;  352.000
458.582;  -41.375; -302.000; -294.000
458.703;    4.000;  303.000;  154.000
458.823;  -33.175;   22.000;  163.000
458.943;   21.275;  341.000;  467.000
459.063;  -14.600; 1124.000;  192.000
459.183;  -19.400;  328.000;  313.000
459.304;    2.100;  315.000;  517.000
459.424;  -53.150; -246.000;  -89.000
459.544;  313.050;  388.000;  764.000
459.664;  813.875;  499.000;  506.000
459.784;  337.725; 1004.000; 1175.000
459.904;   62.825;  867.000;  744.000
460.024;   73.900;  867.000;  684.000
460.144;   21.400;  449.000;  554.000
460.264;   -7.025;  515.000;  327.000
460.385;  -92.450; -145.000; -119.000
460.505;   31.825;  905.000;  858.000
460.625;  -85.025;  -17.000;  -68.000
460.745;  -15.200;  396.000;  541.000
460.864;  -54.650;  153.000;  469.000
460.984;   21.375;  499.000;  573.000
461.104;  146.425; 1656.000; 1775.000
461.224;    4.725;  657.000;  650.000
461.344;  -28.925;  431.000;  360.000
461.464;  -40.725;  258.000;  513.000
461.584;  -10.800;  283.000;  466.000
461.704;  -41.800;   58.000;  108.000
461.824;  -59.825;  238.000;  259.000
461.943;  -51.225;  191.000;  130.000
462.063;  -72.250;    2.000;  324.000
462.183;   46.900;  639.000;  717.000
462.303;  100.525; 1678.000; 1230.000
462.422;   40.475;  781.000;  840.000
462.542;  -29.025;  271.000;  391.000
462.662;   24.025;  353.000;  380.000
462.782;  212.225;  833.000;  572.000
462.901;  477.050;  545.000;  717.000
463.021;  302.100; 1702.000; 1638.000
463.141;  -12.075;  337.000;  770.000
463.260;  -21.650;  614.000;  474.000
463.380;   12.950;  902.000;  884.000
463.499;  -27.875;  342.000;  332.000
463.619;  -34.850;  581.000;  559.000
463.738;  125.275; 1644.000;  903.000
463.858;   22.125;  657.000;  811.000
463.978;  -25.950;  542.000;  396.000
464.097;   49.650;  921.000; 1114.000
464.217;  113.475; 1196.000; 1143.000
464.336;  112.075; 1068.000; 1130.000
464.455;  -28.450;  328.000;  659.000
464.575;   42.225;  597.000;  602.000
464.694;  187.700; 1204.000; 1179.000
464.814;  117.675; 1190.000; 1138.000
464.933;   75.850; 1095.000; 1027.000
465.052;   87.275; 1412.000; 1054.000
465.172;   91.175;  922.000;  799.000
465.291;  142.600; 1376.000; 1320.000
465.410;   39.200;  462.000;  735.000
465.530;   88.425; 1355.000; 1310.000
465.649;   82.975; 1209.000; 1273.000
465.768;  136.800; 1673.000; 1508.000
465.888;   70.350;  941.000; 1174.000
466.007;   87.400; 1335.000; 1440.000
466.126;    2.950;  721.000;  641.000
466.245;   35.500; 1176.000; 1187.000
466.364;   26.575;  950.000; 1060.000
466.484;   51.250; 1024.000; 1213.000
466.603;   29.950; 1101.000; 1222.000
466.722;  125.825; 1490.000; 1769.000
466.841;   84.550; 1151.000; 1401.000
466.960;   34.525; 1069.000;  972.000
467.079;  142.450; 1971.000; 1786.000
467.198;   46.900; 1238.000; 1181.000
467.317;   82.175; 1768.000; 1162.000
467.436;   77.075; 1709.000; 1261.000
467.555;  130.675; 1796.000; 1746.000
467.674;   71.475; 1227.000; 1329.000
467.793;   62.850; 1376.000; 1374.000
467.912;   88.150; 1658.000; 1539.000
468.031;  143.625; 2038.000; 1930.000
468.150;  136.700; 1842.000; 1837.000
468.269;  200.775; 2313.000; 2090.000
468.388;  181.400; 2168.000; 2339.000
468.507;  251.725; 2884.000; 2903.000
468.626;  273.075; 2555.000; 2541.000
468.744;  159.500; 2018.000; 2174.000
468.863;  190.400; 2312.000; 2523.000
468.982;   99.725; 1503.000; 1555.000
469.101;  228.700; 2788.000; 2692.000
469.220;  173.350; 2333.000; 2176.000
469.338;  241.750; 2935.000; 3051.000
469.457;  197.950; 2719.000; 2545.000
469.576;  339.175; 3953.000; 3784.000
469.695;  256.875; 2877.000; 3066.000
469.813;  418.050; 4148.000; 4192.000
469.932;  416.600; 4255.000; 4485.000
470.051;  421.275; 4075.000; 4161.000
470.169;  814.825; 4470.000; 4338.000
470.288; 1431.900; 4700.000; 4809.000
470.406;  920.975; 5059.000; 5194.000
470.525;  619.025; 6101.000; 5787.000
470.644;  652.150; 6847.000; 6794.000
470.762;  779.000; 8397.000; 7873.000
470.881;  904.925; 8651.000; 8464.000
470.999; 1020.825; 9685.000; 9151.000
471.118; 1106.275;11174.000;10711.000

