
Integration time [ms]: 100.000
Averaging Nr. [scans]: 40
Smoothing Nr. [pixels]: 0
Data measured with spectrometer [name]: 2101012U2
Wave   ;Sample   ;Dark     ;Reference
[nm]   ;[counts] ;[counts] ;[counts] 

197.733;   53.750;  516.000;  404.000
197.879;  -92.175; -610.000; -634.000
198.025;  -61.575; -475.000; -420.000
198.171;  -74.350; -602.000; -612.000
198.317;  -26.500; -401.000; -316.000
198.463;  -67.575; -655.000; -404.000
198.609;   19.700;  181.000; -137.000
198.755;  -76.550; -644.000; -410.000
198.901;  -65.525; -505.000; -424.000
199.047;  -62.150; -615.000; -488.000
199.193;  -49.650; -230.000; -468.000
199.339;  -34.050; -222.000; -369.000
199.485;   45.225;  330.000;  271.000
199.631;    9.325;  227.000;  310.000
199.777;  -62.100; -466.000; -398.000
199.923;  -70.600; -610.000; -424.000
200.069;  -13.950; -141.000;  -58.000
200.215;   45.975;  128.000;  453.000
200.361;   30.250;  243.000;  477.000
200.507;  -80.325; -600.000; -373.000
200.653;  -18.500; -371.000; -194.000
200.798;  -42.025; -215.000; -125.000
200.944;  -12.250; -146.000;  -41.000
201.090;   49.625;   61.000;  222.000
201.236;  -12.350; -116.000; -158.000
201.382;  116.875;  874.000;  903.000
201.528;  -10.925;  -58.000;  -48.000
201.674;  -40.375; -386.000; -293.000
201.819;  -56.000; -540.000; -439.000
201.965;  -89.175; -699.000; -447.000
202.111;  -37.700; -273.000; -226.000
202.257;  -31.175; -250.000; -238.000
202.402;   -2.850;   13.000;  -36.000
202.548;  -18.650; -169.000; -116.000
202.694;   73.425;  410.000; -183.000
202.840;  -86.750; -603.000; -531.000
202.985;  -73.400; -681.000; -639.000
203.131; -109.750; -832.000; -666.000
203.277;  -24.525; -199.000; -262.000
203.423;  -51.950; -434.000; -520.000
203.568;  -36.350; -462.000; -237.000
203.714;  -56.050; -535.000; -542.000
203.860; -101.425; -682.000; -641.000
204.005;    9.450;  112.000;  167.000
204.151;   72.475;  561.000;  556.000
204.296;  -44.700; -354.000; -221.000
204.442;  -72.125; -600.000; -547.000
204.588;  -77.850; -592.000; -579.000
204.733;   25.000;  178.000;  168.000
204.879; -125.550;-1018.000; -822.000
205.025;   14.775;  -99.000;  126.000
205.170;   -1.225;  -17.000;   94.000
205.316;   68.175;  438.000;  661.000
205.461;  -87.900; -698.000; -554.000
205.607;   79.125;  609.000;  665.000
205.752;  -67.875; -626.000; -551.000
205.898;  -51.450; -501.000; -391.000
206.043;  -69.275; -578.000; -506.000
206.189;  -33.700; -243.000; -285.000
206.334;   72.200;  554.000;  606.000
206.480;   81.425;  409.000;  239.000
206.625;  -81.275; -529.000; -552.000
206.771;  -64.100; -451.000; -373.000
206.916;  -32.850; -210.000; -537.000
207.062;  -83.025; -545.000; -591.000
207.207;  -56.625; -546.000; -443.000
207.353;   54.725;  185.000;  460.000
207.498;   -9.550;  196.000;   85.000
207.643;  -72.875; -501.000; -370.000
207.789; -134.000;-1069.000; -910.000
207.934; -104.500; -665.000; -713.000
208.080;  -31.150; -154.000;   66.000
208.225;    7.325;  -22.000;  -57.000
208.370;  -77.700; -727.000; -619.000
208.516;  -93.075; -741.000; -487.000
208.661;  -20.450; -127.000;  -69.000
208.806;  -30.950; -165.000; -171.000
208.952; -127.375;-1044.000; -731.000
209.097;   55.350;  378.000;  349.000
209.242;  -46.925; -307.000; -382.000
209.387;   57.125;  392.000;  350.000
209.533;  -64.825; -321.000; -350.000
209.678;   77.800;  472.000;  543.000
209.823;  -62.800; -408.000; -310.000
209.969; -109.300; -860.000; -757.000
210.114; -117.850; -907.000; -719.000
210.259; -114.500; -939.000; -889.000
210.404;    0.700; -171.000;  103.000
210.549;    0.425;  108.000;    3.000
210.695;  -24.100;   -3.000;  -95.000
210.840;   35.900;   94.000;   67.000
210.985;  -68.800; -484.000; -303.000
211.130;   66.150;  268.000;  406.000
211.275;   24.150;  207.000;  199.000
211.420;  -59.625; -300.000; -289.000
211.566;  -69.825; -536.000; -489.000
211.711;   22.025;  218.000;  157.000
211.856;  -56.550; -545.000; -519.000
212.001;    2.800;  151.000;   44.000
212.146;   32.425;  153.000;   49.000
212.291;  -28.600; -210.000; -186.000
212.436;  -51.750; -280.000;   -6.000
212.581;  -77.250; -685.000; -653.000
212.726;  -81.050; -487.000; -538.000
212.871;  -64.725; -552.000; -217.000
213.016; -138.400;-1172.000;-1029.000
213.161;   58.225;  406.000;  291.000
213.306;  -87.025; -435.000; -577.000
213.451;  -87.450; -778.000; -689.000
213.596;  -39.275; -455.000; -347.000
213.741;  -49.125; -448.000; -538.000
213.886;  -73.675; -498.000; -517.000
214.031;  -30.750; -294.000; -124.000
214.176;  -46.950; -408.000; -341.000
214.321;  -32.450; -296.000; -157.000
214.466;  -19.175; -163.000;  -43.000
214.611;   -5.425;  -61.000;  -10.000
214.756; -122.000; -948.000; -858.000
214.901;  -14.325; -388.000; -226.000
215.046; -117.900; -797.000; -825.000
215.191;   23.325;  128.000;   35.000
215.336;  -23.275; -157.000;  -19.000
215.480;  -60.950; -684.000; -505.000
215.625;   -5.725; -175.000;  -19.000
215.770;  -85.875; -757.000; -662.000
215.915;  -13.075;   -5.000;  -97.000
216.060;  -33.425; -113.000;  -21.000
216.205; -117.225; -731.000; -779.000
216.349;  -79.775; -470.000; -533.000
216.494; -138.575; -939.000; -867.000
216.639; -108.350; -823.000; -888.000
216.784;  -98.275; -577.000; -525.000
216.929;   60.650;  392.000;  281.000
217.073;  -21.300; -244.000;  -31.000
217.218;   12.325;   78.000;  -47.000
217.363;  -81.150; -656.000; -618.000
217.507;  -89.575; -623.000; -588.000
217.652; -125.750; -845.000; -874.000
217.797;  -93.825; -708.000; -659.000
217.942; -100.425; -856.000; -720.000
218.086;   69.550;  608.000;  539.000
218.231;  -16.850; -174.000;  -26.000
218.376;  -36.325; -337.000; -229.000
218.520;   -0.025;  -41.000;   96.000
218.665;  -30.650; -338.000; -204.000
218.810;  -36.925; -275.000; -233.000
218.954;   21.050;  201.000;   35.000
219.099; -115.550; -713.000; -963.000
219.243;  -73.050; -589.000; -554.000
219.388;  -32.225; -264.000; -136.000
219.532;   -2.750; -116.000; -116.000
219.677;  -88.125; -564.000; -521.000
219.822;   -5.325;   33.000;   89.000
219.966;    0.425;   17.000;  -99.000
220.111;  -34.175; -328.000;  -40.000
220.255;  -99.575; -797.000; -750.000
220.400;  -27.050; -180.000; -146.000
220.544;  -71.375; -516.000; -450.000
220.689;  -56.325; -422.000; -451.000
220.833;  -22.500; -123.000;  -58.000
220.978;  -51.325; -393.000; -563.000
221.122;   25.175;  319.000;  307.000
221.267; -118.350; -906.000; -837.000
221.411;  -65.100; -478.000; -394.000
221.555;   -7.500; -104.000;  -23.000
221.700;  -47.050; -329.000; -222.000
221.844;   22.850;  255.000;  272.000
221.989;  -62.525; -328.000; -311.000
222.133;  -45.025; -289.000; -307.000
222.277;  -10.175;    5.000;   78.000
222.422;   10.775;  227.000;  113.000
222.566;  -46.200; -381.000; -214.000
222.711;  -57.750; -414.000; -479.000
222.855;  -84.750; -643.000; -586.000
222.999;  -78.600; -642.000; -717.000
223.144;  -36.450; -195.000; -194.000
223.288;   49.100;  423.000;  251.000
223.432;   19.825;  184.000;  230.000
223.576;    4.975;  152.000;  -21.000
223.721;   37.275;  364.000;  273.000
223.865;  -45.250; -472.000; -475.000
224.009;  203.875; 1673.000; 1631.000
224.153;  -86.850; -660.000; -671.000
224.298;  -69.975; -531.000; -489.000
224.442;  -25.350;  -74.000;  -33.000
224.586;  -19.950; -169.000; -106.000
224.730; -103.175; -858.000; -670.000
224.875; -102.025; -739.000; -688.000
225.019;    9.000;  102.000;  188.000
225.163;   46.000;  208.000;  341.000
225.307;   17.525;   97.000;  -91.000
225.451;   44.450;  360.000;  481.000
225.595;   21.450;  264.000;  176.000
225.739;  -31.400; -170.000;  -94.000
225.884;   11.225;   86.000;    5.000
226.028; -102.650; -760.000; -626.000
226.172;  -34.750; -260.000; -273.000
226.316; -124.425; -941.000; -902.000
226.460;  -71.700; -645.000; -493.000
226.604;  -43.950; -406.000; -400.000
226.748; -106.575; -836.000; -733.000
226.892;  -31.650; -227.000; -181.000
227.036;  -58.475; -537.000; -447.000
227.180;  -51.675; -551.000; -375.000
227.324;  -66.275; -561.000; -580.000
227.468; -133.300; -819.000; -717.000
227.612;    4.475;  242.000;  -28.000
227.756; -102.025; -845.000; -698.000
227.900;   49.350;  342.000;  441.000
228.044;  -65.800; -509.000; -290.000
228.188;   56.800;  448.000;  568.000
228.332;  -84.950; -546.000; -472.000
228.476;  -33.750; -223.000; -149.000
228.620;  -18.675; -210.000; -150.000
228.764;   58.150;  431.000;  349.000
228.908;  -37.800; -155.000;   30.000
229.052;  -53.625; -615.000; -528.000
229.195;  -22.275; -172.000;   13.000
229.339;  -25.800; -235.000; -305.000
229.483;  -30.175;    5.000; -162.000
229.627;   -4.350; -156.000;  139.000
229.771;  -59.775; -218.000; -294.000
229.915;    8.100;  230.000;   79.000
230.059; -101.775; -648.000; -663.000
230.202;  -35.025; -370.000; -317.000
230.346;  -20.925; -107.000;  107.000
230.490;  -53.375; -489.000; -521.000
230.634; -106.750; -736.000; -553.000
230.777;   53.100;  478.000;  509.000
230.921;  -50.675; -450.000; -359.000
231.065;  -50.400; -246.000; -286.000
231.209;   28.800;  261.000;  265.000
231.352;   11.175;   54.000;   40.000
231.496;   13.525;  568.000;  188.000
231.640;  -83.600; -693.000; -621.000
231.783;   55.100;  546.000;  525.000
231.927;  -55.950; -294.000; -365.000
232.071; -118.725; -962.000; -736.000
232.214; -116.350; -980.000; -764.000
232.358;  -91.900; -683.000; -599.000
232.502;    3.450;  -19.000;    7.000
232.645; -146.675;-1090.000; -927.000
232.789;  -25.025; -257.000; -218.000
232.933;  -45.150; -407.000; -224.000
233.076; -119.225;-1038.000; -897.000
233.220; -101.250; -752.000; -777.000
233.363;  -81.000; -669.000; -477.000
233.507;   57.300;  371.000;  129.000
233.650; -100.700; -764.000; -834.000
233.794;   29.750;  438.000;  461.000
233.938;  -64.275; -530.000; -362.000
234.081;  -20.175;  -93.000;   31.000
234.225;  -69.250; -631.000; -539.000
234.368; -109.925; -773.000; -723.000
234.512;  -49.100; -385.000; -299.000
234.655;  -88.600; -582.000; -555.000
234.798;  -82.850; -493.000; -466.000
234.942; -127.950; -884.000;-1002.000
235.085;  -76.575; -651.000; -443.000
235.229;  -69.800; -405.000; -410.000
235.372;  -53.550; -247.000; -191.000
235.516;  -54.375; -397.000; -321.000
235.659;    4.925;   92.000;  121.000
235.802;  -22.550;  -38.000;  -22.000
235.946;   19.975;  335.000;  215.000
236.089;   24.025;  126.000;  250.000
236.233;   58.650;  275.000;  298.000
236.376;  -43.550; -235.000; -378.000
236.519;  -44.200; -297.000; -319.000
236.663;  -30.650; -215.000; -117.000
236.806; -139.750;-1029.000; -999.000
236.949;   56.125;  543.000;  431.000
237.092;   56.675;  412.000;  391.000
237.236;  -89.600; -589.000; -502.000
237.379;   52.950;  352.000;  428.000
237.522; -115.725; -879.000; -768.000
237.666;  -38.075; -271.000;   18.000
237.809; -116.225; -851.000; -823.000
237.952;   29.675;  469.000;  271.000
238.095;  -56.975; -447.000; -442.000
238.238;   87.275;  688.000;  700.000
238.382;  -18.625;  166.000;  103.000
238.525;  -78.400; -598.000; -511.000
238.668; -147.925;-1060.000; -985.000
238.811;  -88.475; -638.000; -643.000
238.954;  -59.725; -483.000; -334.000
239.097;   90.000;  617.000;  664.000
239.241;   21.625;  394.000;  326.000
239.384;  -23.850; -254.000; -214.000
239.527;  -66.650; -424.000; -224.000
239.670; -151.525; -994.000;-1091.000
239.813; -114.775; -696.000; -658.000
239.956;   85.450;  579.000;  473.000
240.099; -100.300; -778.000; -725.000
240.242;   55.225;  428.000;  432.000
240.385;   39.675;  466.000;  450.000
240.528;  -73.425; -706.000; -473.000
240.671;   13.125;  189.000;  134.000
240.814;  -45.975; -441.000; -158.000
240.957; -106.100; -767.000; -578.000
241.100;  -94.750; -779.000; -755.000
241.243; -144.175;-1234.000; -893.000
241.386;  -70.150; -508.000; -379.000
241.529;  -91.425; -735.000; -547.000
241.672;  -74.225; -566.000; -495.000
241.815; -120.575; -832.000; -808.000
241.958;  -34.350; -125.000; -182.000
242.101;  -73.350; -545.000; -390.000
242.244;  -43.975; -270.000; -325.000
242.387;  -50.375; -304.000; -246.000
242.530;   59.675;  470.000;  134.000
242.673;  -54.375; -381.000; -309.000
242.815; -119.350; -925.000; -899.000
242.958;  -66.350; -482.000; -381.000
243.101;   12.100;  132.000;  187.000
243.244;  -88.750; -564.000; -521.000
243.387;  -55.950; -313.000; -316.000
243.530; -104.250; -657.000; -674.000
243.672;   -2.475;   43.000;  -92.000
243.815;  -69.625; -355.000; -283.000
243.958;  -13.200;   98.000;  -26.000
244.101;   -6.600;   59.000;  -16.000
244.243;  -30.875;  -47.000;  101.000
244.386; -105.025; -761.000; -630.000
244.529;  -28.600; -132.000; -139.000
244.672; -160.350;-1154.000; -951.000
244.814;  -98.800; -621.000; -794.000
244.957;  -60.000; -380.000; -304.000
245.100;  -73.025; -489.000; -489.000
245.242;  -74.950; -387.000; -374.000
245.385;    8.100;  -59.000;  -39.000
245.528; -117.350; -871.000; -705.000
245.670;   82.275;  612.000;  634.000
245.813;  -80.625; -599.000; -547.000
245.956;  -26.875; -324.000; -275.000
246.098;  -76.700; -508.000; -650.000
246.241;    8.625;  194.000;   48.000
246.383;  -27.975; -119.000;  -73.000
246.526;  -86.250; -454.000; -525.000
246.669; -129.275; -889.000; -780.000
246.811;    9.625;  172.000;   -1.000
246.954;  -61.000; -512.000; -426.000
247.096;  -27.600;  -84.000;   -6.000
247.239;  -73.450; -482.000; -445.000
247.381;  -67.650; -647.000; -488.000
247.524;   73.500;  645.000;  679.000
247.666;  -16.950;   58.000;   11.000
247.809; -111.050; -887.000; -691.000
247.951;  -12.225;  -75.000;  138.000
248.094;   31.425;  432.000;  308.000
248.236; -165.825;-1262.000;-1238.000
248.378;   14.275; -356.000;  -81.000
248.521;  -19.500; -334.000; -337.000
248.663;  -38.650; -236.000; -267.000
248.806;  -32.225; -300.000; -266.000
248.948;  -86.850; -886.000; -763.000
249.090;  -51.625; -428.000; -398.000
249.233;  -45.250; -344.000; -381.000
249.375;  -70.000; -474.000; -451.000
249.518;  -28.475;  -83.000; -133.000
249.660;  -14.100; -103.000;    3.000
249.802; -164.725;-1303.000;-1189.000
249.945;  -77.900; -612.000; -540.000
250.087; -120.225; -834.000; -768.000
250.229;  -61.125; -362.000; -480.000
250.371;  -77.700; -494.000; -439.000
250.514;  -66.050; -310.000; -244.000
250.656;  -73.375;   69.000;  102.000
250.798; -116.950; -849.000; -800.000
250.940;  -60.275; -322.000; -322.000
251.083;  -33.575; -335.000; -111.000
251.225;   53.200;  338.000;  310.000
251.367;  -47.625; -274.000; -373.000
251.509;  -42.825; -265.000; -210.000
251.651;  -94.875; -731.000; -671.000
251.794;   65.900;  538.000;  632.000
251.936; -111.800; -821.000; -747.000
252.078;  -81.325; -540.000; -461.000
252.220;  -71.825; -645.000; -477.000
252.362;   70.800;  344.000;  462.000
252.504;  -59.050; -677.000; -584.000
252.646; -108.575; -875.000; -722.000
252.788;   -5.050;   14.000; -128.000
252.931;  -44.900; -257.000; -253.000
253.073;  -39.675; -376.000; -317.000
253.215;  -14.450;  141.000;  122.000
253.357;  -18.600;   82.000; -153.000
253.499;  -59.725; -374.000; -234.000
253.641;  -86.025; -749.000; -594.000
253.783; -101.175; -609.000; -527.000
253.925;  -93.950; -586.000; -591.000
254.067; -109.800; -744.000; -667.000
254.209;  -37.100; -391.000; -259.000
254.351; -133.475; -865.000; -883.000
254.493;  -68.650; -441.000; -417.000
254.635; -134.475; -936.000; -818.000
254.777;  -92.625; -752.000; -687.000
254.918;  -63.450; -512.000; -430.000
255.060;  -63.075; -551.000; -395.000
255.202;  -59.275; -473.000; -261.000
255.344;  -72.775; -658.000; -455.000
255.486;  -69.525; -471.000; -406.000
255.628; -108.275; -780.000; -781.000
255.770;  -89.225; -676.000; -536.000
255.912;  -70.400; -559.000; -468.000
256.053;  -88.975; -730.000; -508.000
256.195;  139.650; 1008.000;  903.000
256.337;  -96.525; -861.000; -595.000
256.479;   55.000;  532.000;  416.000
256.621;  -46.675; -394.000; -212.000
256.762;  -97.825; -789.000; -742.000
256.904;   60.900;  485.000;  487.000
257.046;  -44.675; -381.000; -271.000
257.188;  -56.500; -351.000; -264.000
257.329;  -74.475; -525.000; -464.000
257.471; -115.550; -939.000; -807.000
257.613;  -76.000; -584.000; -498.000
257.755; -144.150;-1073.000; -982.000
257.896;   39.300;  286.000;  392.000
258.038;  -77.225; -403.000; -352.000
258.180;  -50.600; -354.000; -279.000
258.321;  -88.375; -581.000; -457.000
258.463;    1.075;  -71.000;  133.000
258.605;  -83.875; -562.000; -570.000
258.746; -110.650; -886.000; -772.000
258.888; -158.425;-1026.000;-1020.000
259.029;    0.925;  121.000;   -8.000
259.171;  -92.225; -614.000; -550.000
259.313;   -5.525;  -49.000;  -47.000
259.454;  -84.450; -536.000; -414.000
259.596;  -62.925; -483.000; -390.000
259.737;  -74.500; -590.000; -474.000
259.879;   20.700;  217.000;  311.000
260.020;   80.525;  901.000;  636.000
260.162;  -41.250; -146.000; -253.000
260.303; -116.450; -768.000; -687.000
260.445;  -84.825; -609.000; -613.000
260.586;   20.300;  392.000;  157.000
260.728;  -40.350; -360.000; -248.000
260.869; -110.350; -350.000; -343.000
261.011;   66.400;  706.000;  537.000
261.152;  -73.650; -479.000; -319.000
261.293;  -81.100; -576.000; -595.000
261.435;  -29.800; -219.000; -184.000
261.576;  -57.750; -455.000; -325.000
261.718;   55.900;  420.000;  470.000
261.859; -130.025; -940.000; -949.000
262.000; -138.275; -951.000;-1016.000
262.142;  -32.050;  -52.000;  -60.000
262.283; -114.400; -808.000; -691.000
262.424;  -90.700; -666.000; -625.000
262.566; -150.850;-1161.000; -983.000
262.707; -114.550; -840.000; -830.000
262.848; -120.450; -769.000; -726.000
262.990;  -55.550; -362.000; -345.000
263.131;   78.325;  650.000;  681.000
263.272;   -9.600;  -61.000;  -41.000
263.413;  -87.325; -589.000; -561.000
263.555;  -70.900; -669.000; -143.000
263.696;  -88.875; -550.000; -641.000
263.837;  -68.000; -449.000; -551.000
263.978;   -7.750;   -5.000;  -77.000
264.119;  -31.400; -283.000; -264.000
264.261; -116.375; -847.000; -630.000
264.402;   12.550;   33.000;   40.000
264.543;  -71.225; -509.000; -524.000
264.684;  -18.850;   61.000;  -50.000
264.825;  -75.725; -816.000; -538.000
264.966;   -8.575;  -84.000;  -67.000
265.107; -114.400; -646.000; -670.000
265.248; -128.600; -825.000; -812.000
265.390;   -7.400;  152.000;   -9.000
265.531;  -24.825; -238.000; -107.000
265.672;  -91.225; -557.000; -630.000
265.813;   52.750;  563.000;  439.000
265.954; -150.625; -959.000; -940.000
266.095;  -20.100; -372.000; -322.000
266.236;  -98.150; -686.000; -548.000
266.377;  -59.850; -243.000; -297.000
266.518;  -58.300; -619.000; -547.000
266.659;   12.825;  170.000;  268.000
266.800;    0.550;   83.000;   85.000
266.941;  -69.475; -487.000; -478.000
267.082;    6.325;  354.000;   99.000
267.223;  -57.875; -344.000; -273.000
267.364; -118.650; -892.000; -686.000
267.504;  -18.150;    3.000;  135.000
267.645;    0.700;  160.000;   67.000
267.786;  -37.125; -147.000;  -86.000
267.927;  -72.350; -473.000; -379.000
268.068;  -27.900; -186.000;  -61.000
268.209;  -48.175; -175.000; -413.000
268.350;  -70.775; -388.000; -532.000
268.490;  -80.750; -648.000; -521.000
268.631;   26.125;  127.000;  225.000
268.772; -113.600; -874.000; -647.000
268.913;  -52.750; -328.000; -476.000
269.054;   -5.625; -117.000;   12.000
269.194;  -57.475; -418.000; -402.000
269.335; -168.425;-1137.000;-1074.000
269.476;  -19.975;   33.000;  -35.000
269.617;  -52.225; -347.000; -392.000
269.757;  -98.675; -713.000; -646.000
269.898; -104.625; -856.000; -613.000
270.039;  -72.325; -415.000; -405.000
270.180; -136.475; -952.000; -816.000
270.320;  -27.125; -190.000; -250.000
270.461;  -49.300; -277.000; -249.000
270.602;  -13.925; -186.000; -156.000
270.742; -122.550; -868.000; -943.000
270.883;  -60.175; -442.000; -390.000
271.023;  -56.725; -358.000; -357.000
271.164;  -78.750; -607.000; -528.000
271.305;  -94.425; -666.000; -654.000
271.445;  -87.475; -722.000; -683.000
271.586;  -74.475; -462.000; -283.000
271.726;  -55.150; -397.000; -322.000
271.867;  -53.600; -594.000; -534.000
272.008;  206.550; -473.000; -285.000
272.148;  138.525;  462.000;  468.000
272.289;   15.025; -113.000; -181.000
272.429;   25.100;   19.000;  185.000
272.570;  -80.050; -633.000; -737.000
272.710;  -94.825; -825.000; -775.000
272.851;  -29.750;  113.000; -130.000
272.991; -170.825;-1173.000;-1077.000
273.131;  -76.350; -419.000; -459.000
273.272; -105.175; -683.000; -723.000
273.412;   18.550; -143.000;  -31.000
273.553;  -54.650; -488.000; -507.000
273.693;  133.850;  913.000;  858.000
273.834;  -88.550; -894.000; -692.000
273.974;  -79.125; -664.000; -615.000
274.114; -104.275; -772.000; -560.000
274.255;   65.050;  414.000;  373.000
274.395;   20.125; -180.000; -125.000
274.535;   53.000;  199.000;  350.000
274.676;   15.200;  225.000;   94.000
274.816;    2.725;  110.000;   34.000
274.956;  -67.100; -624.000; -690.000
275.097;  -43.375;-1014.000; -922.000
275.237; -109.100; -913.000; -803.000
275.377;  -98.575; -778.000; -689.000
275.517; -141.625; -878.000; -937.000
275.658;  -64.125; -590.000; -555.000
275.798;  -73.125; -606.000; -413.000
275.938;   28.050;  215.000;  323.000
276.078; -107.000; -626.000; -395.000
276.218;   11.925;   99.000;  104.000
276.359; -128.050;-1026.000;-1024.000
276.499;  -80.575; -605.000; -446.000
276.639;  -25.975; -305.000; -151.000
276.779;  -54.025; -475.000; -357.000
276.919;  -98.925; -783.000; -624.000
277.059;  -25.325; -261.000; -212.000
277.199;  -47.700; -357.000; -259.000
277.340;   45.000;  287.000;  175.000
277.480; -108.525; -840.000; -693.000
277.620;   28.575;  192.000;   16.000
277.760; -194.625;-1533.000;-1294.000
277.900;   17.600;  113.000;   33.000
278.040;   15.275;  137.000;  159.000
278.180;   44.875;  270.000;  170.000
278.320;   -3.550;   21.000;   56.000
278.460;  -63.575; -443.000; -469.000
278.600;  -87.275; -708.000; -598.000
278.740;   52.725;  448.000;  224.000
278.880;  -28.525; -768.000; -791.000
279.020;  -11.475; -194.000; -144.000
279.160;  -96.650; -672.000; -595.000
279.300; -110.350; -926.000; -873.000
279.440;  -82.225; -709.000; -622.000
279.579;  -21.675;-1014.000; -929.000
279.719;  -51.625; -410.000; -394.000
279.859;   71.125;   -4.000;   41.000
279.999;   31.375; -208.000;  101.000
280.139;   -6.300; -435.000; -387.000
280.279;  -71.500; -708.000; -745.000
280.419;  -21.775; -229.000; -147.000
280.559;  -29.975; -259.000; -180.000
280.698;  -76.025; -790.000; -639.000
280.838;  -92.250; -778.000; -800.000
280.978;  -92.775; -846.000; -790.000
281.118;  -96.325; -811.000; -704.000
281.257;    6.750;   24.000;    6.000
281.397;  -96.625;-1094.000; -960.000
281.537;  -81.300; -599.000; -712.000
281.677;  -15.275; -150.000; -101.000
281.816;  -90.425; -700.000; -630.000
281.956;  -37.875; -193.000; -257.000
282.096;  -62.900; -539.000; -396.000
282.235;  -96.400; -672.000; -638.000
282.375;  -24.175; -243.000;  -98.000
282.515; -101.825; -715.000; -707.000
282.654;   39.075;   29.000;  106.000
282.794;   22.000;  388.000;  244.000
282.934;  -54.550; -530.000; -491.000
283.073; -127.975;-1030.000; -857.000
283.213;  -68.875; -460.000; -467.000
283.353;  -29.500; -408.000; -349.000
283.492;  -34.650; -264.000; -296.000
283.632;  -49.700; -254.000; -168.000
283.771;  -90.425; -859.000; -730.000
283.911;  -38.550; -369.000; -260.000
284.050; -111.250; -794.000; -748.000
284.190; -138.575;-1229.000;-1096.000
284.329; -136.850;-1055.000; -964.000
284.469;  -40.225; -516.000; -591.000
284.608;  -60.225; -559.000; -598.000
284.748;  -77.500; -614.000; -570.000
284.887;   -3.000;  -87.000;  -20.000
285.027; -120.900; -844.000; -892.000
285.166;  -29.875; -192.000; -249.000
285.306;   12.350; -116.000;  -33.000
285.445;  -38.550; -229.000; -343.000
285.584;  -96.050; -630.000; -494.000
285.724;  -42.775; -282.000; -322.000
285.863; -117.800; -857.000; -507.000
286.002;  -59.475; -366.000; -276.000
286.142; -108.325; -715.000; -622.000
286.281;  -69.575; -525.000; -493.000
286.420;  -86.525; -554.000; -417.000
286.560;   85.475;  653.000;  623.000
286.699; -134.050; -958.000; -912.000
286.838;  -91.175; -590.000; -591.000
286.978;  -87.125; -533.000; -537.000
287.117; -147.000;-1085.000; -950.000
287.256;  -28.725; -228.000; -211.000
287.395;  -49.850; -197.000; -378.000
287.535;  -54.100; -370.000; -298.000
287.674;  -75.850; -509.000; -484.000
287.813;   56.975;  661.000;  533.000
287.952; -128.825;-1010.000; -871.000
288.091; -144.600;-1049.000; -915.000
288.231;   17.125;   13.000;   15.000
288.370; -169.925;-1217.000;-1200.000
288.509;  -91.250; -728.000; -645.000
288.648; -105.800; -770.000; -548.000
288.787;  -21.875; -243.000;  -87.000
288.926;  -56.575; -454.000; -475.000
289.065;  118.175;  859.000;  672.000
289.204;  -60.325; -377.000; -217.000
289.344;  -96.075; -791.000; -690.000
289.483;   18.725;  416.000;  304.000
289.622;  -32.950; -291.000; -149.000
289.761;  -20.150; -309.000; -166.000
289.900; -111.500; -785.000; -626.000
290.039;  -15.525;  -12.000;  -95.000
290.178;  -40.950; -274.000; -180.000
290.317;  -77.575; -618.000; -479.000
290.456;  -69.225; -463.000; -451.000
290.595; -134.325; -961.000; -833.000
290.734; -148.375; -904.000; -891.000
290.873;  -56.300; -456.000; -420.000
291.011; -115.025; -833.000; -843.000
291.150; -102.125; -770.000; -682.000
291.289;  -32.750; -343.000; -110.000
291.428;  -94.725; -599.000; -480.000
291.567;  -47.050; -370.000; -442.000
291.706;   -9.250;  109.000;  154.000
291.845;  -98.150; -597.000; -505.000
291.984; -160.400;-1234.000;-1061.000
292.122;   70.125;  602.000;  582.000
292.261;   43.475;  620.000;  463.000
292.400;   21.250; -144.000;  211.000
292.539; -118.025; -959.000; -813.000
292.678;  -35.725; -325.000; -300.000
292.816; -151.050;-1136.000; -965.000
292.955;  -77.725; -844.000; -684.000
293.094;  -23.050; -173.000; -337.000
293.233;  -52.000; -556.000; -400.000
293.371;  -19.350; -225.000;  -84.000
293.510; -114.550; -866.000; -780.000
293.649; -126.750; -959.000; -924.000
293.787;  -32.450;-1083.000;-1012.000
293.926;    1.750; -113.000;  -32.000
294.065;  -30.250; -379.000; -290.000
294.203;   54.875;  298.000;  406.000
294.342;   28.850;   74.000;  156.000
294.481; 5747.225;51180.000; -836.000
294.619;  -31.925; -425.000; -582.000
294.758; -139.875;-1230.000;-1137.000
294.896;   99.925; -125.000;    5.000
295.035; -112.025;-1040.000;-1006.000
295.174; -114.525;-1082.000; -954.000
295.312;  -46.850; -323.000; -203.000
295.451;    7.350; -307.000; -428.000
295.589;  -45.275; -389.000; -518.000
295.728;   23.650; -292.000; -165.000
295.866;    7.075;  -36.000;  -51.000
296.005;  -60.500; -584.000; -341.000
296.143;  -62.950; -558.000; -596.000
296.282; -100.700; -957.000; -881.000
296.420;  -75.650; -657.000; -557.000
296.559;  -73.100; -892.000; -633.000
296.697;   54.025; -847.000; -665.000
296.835;   92.850;-1141.000;-1002.000
296.974;   65.625;  -23.000;   39.000
297.112;   43.050; -443.000; -504.000
297.251;  -76.300; -815.000; -755.000
297.389;  129.800; -576.000; -438.000
297.527;   45.850; -145.000;  -83.000
297.666;  -54.450; -486.000; -438.000
297.804;  -48.200; -404.000; -264.000
297.942;  -11.650; -136.000; -161.000
298.081;    2.575; -183.000;   63.000
298.219;   84.650;  -17.000;  -19.000
298.357;   72.650; -144.000;  -71.000
298.495;   65.025; -810.000; -812.000
298.634;   95.775;  245.000;  219.000
298.772;   92.050; -220.000; -338.000
298.910;  -25.350; -309.000; -182.000
299.048;  -16.725; -130.000; -153.000
299.187;  -28.025; -350.000; -250.000
299.325;   19.275;   52.000;  122.000
299.463;   73.775; -389.000; -299.000
299.601;  135.250; -327.000; -271.000
299.739;  -98.800; -908.000; -883.000
299.877;  -89.850; -791.000; -703.000
300.016;  -26.850;-1095.000; -935.000
300.154;  198.125;  -19.000; -161.000
300.292;   91.975; -428.000; -348.000
300.430;   43.525; -408.000; -291.000
300.568; -102.275; -940.000; -874.000
300.706;  -40.400; -366.000; -469.000
300.844;  -50.475;-1108.000; -979.000
300.982;  135.700;  246.000;  282.000
301.120; -104.450; -965.000; -866.000
301.258;  -59.250; -812.000; -705.000
301.396;   22.975;  104.000;  -41.000
301.534;  108.900; -218.000; -293.000
301.672;   30.200; -664.000; -521.000
301.810;   70.200; -613.000; -545.000
301.948;  161.100;   53.000;  149.000
302.086;  765.100; -250.000;  -32.000
302.224; 1172.750; -610.000; -585.000
302.362;   60.525; -558.000; -622.000
302.500;   19.525; -923.000; -893.000
302.638;  139.975;  128.000;  245.000
302.776;    3.950; -352.000; -408.000
302.913;   35.325;  447.000;  236.000
303.051;    3.425;  -86.000;  -23.000
303.189;   70.325;   90.000;  118.000
303.327;  -22.950; -341.000; -256.000
303.465;  -77.275; -832.000; -588.000
303.603;  -79.075; -805.000; -604.000
303.740;  105.425;  417.000;  241.000
303.878;   40.325; -800.000; -759.000
304.016;  -97.825; -915.000; -790.000
304.154; -114.975;-1123.000;-1152.000
304.291;  -39.725; -505.000; -554.000
304.429;   -0.600;  102.000;   74.000
304.567; -120.200; -908.000; -893.000
304.705;  -58.575; -408.000; -515.000
304.842;  133.625; -616.000; -540.000
304.980;   62.675;  215.000;   35.000
305.118;   60.300; -367.000; -365.000
305.255;  -68.125; -945.000; -927.000
305.393;   66.325;  178.000;  239.000
305.531;  -94.400;-1173.000; -956.000
305.668;  -56.125; -663.000; -582.000
305.806;  122.750; -358.000; -439.000
305.943;  141.450; -629.000; -637.000
306.081;   80.775; -378.000; -267.000
306.219; -104.525; -863.000; -748.000
306.356;   -5.300;  158.000;   27.000
306.494;  101.900;  981.000;  761.000
306.631;    2.925;  -11.000;  -55.000
306.769;    6.925; -613.000; -485.000
306.906;  -25.275; -284.000; -258.000
307.044;  -60.150; -473.000; -488.000
307.181;  -67.375; -410.000; -332.000
307.319;    1.600;  112.000;   87.000
307.456; -169.700;-1191.000;-1153.000
307.594;  -98.025; -980.000; -727.000
307.731;  -16.975; -371.000; -164.000
307.868;   -0.975;  -15.000;   20.000
308.006; -132.000; -961.000; -847.000
308.143;  -60.775; -618.000; -330.000
308.281;  191.975;  -37.000; -254.000
308.418;    9.000; -748.000; -640.000
308.555;  -72.425; -400.000; -250.000
308.693;  -76.150; -577.000; -573.000
308.830; -119.600; -712.000; -657.000
308.967;  -21.750; -215.000;  -95.000
309.105;  -44.075; -507.000; -396.000
309.242;   47.425; -468.000; -367.000
309.379;  387.925; -577.000; -655.000
309.517;  -43.225; -936.000; -948.000
309.654; -110.575; -910.000; -734.000
309.791;  -72.725; -662.000; -580.000
309.928; -111.700; -977.000; -914.000
310.065;  201.425;  819.000;  697.000
310.203;    4.475; -825.000; -850.000
310.340;   -4.575; -465.000; -321.000
310.477;  -73.525; -412.000; -516.000
310.614;  -61.100; -383.000; -473.000
310.751;  -84.150; -427.000; -518.000
310.889;  -32.725;    1.000;   11.000
311.026; -141.100;-1161.000; -939.000
311.163;  -55.550; -386.000; -380.000
311.300;  -69.675; -512.000; -479.000
311.437;  -69.300; -658.000; -619.000
311.574; -157.225;-1226.000; -985.000
311.711;  -66.325; -595.000; -433.000
311.848;  -37.325; -380.000; -388.000
311.985;   21.925;  270.000;   93.000
312.122; -112.950; -932.000; -762.000
312.259; -108.125; -941.000; -994.000
312.396;  -83.850; -508.000; -551.000
312.533;  -95.950; -812.000; -790.000
312.670; -116.575;-1070.000; -898.000
312.807;  -33.050; -352.000; -367.000
312.944;  -81.150; -513.000; -611.000
313.081;  -46.100; -150.000; -415.000
313.218; -100.275;-1111.000; -867.000
313.355;   18.275; -531.000; -449.000
313.492;   11.925; -455.000; -292.000
313.629;  129.775;  815.000;  735.000
313.766; -145.850;-1176.000;-1008.000
313.902;   -8.450; -186.000;   21.000
314.039;  -41.075; -372.000; -289.000
314.176;   29.150;  286.000;  192.000
314.313;  -67.975; -569.000; -473.000
314.450;  -63.800; -788.000; -684.000
314.587;  -60.050; -468.000; -480.000
314.723;   -2.450;  -78.000;  130.000
314.860;   29.900;  318.000;  332.000
314.997;   43.900;  223.000;  142.000
315.134;  -32.400; -385.000; -368.000
315.270;  -20.300; -480.000; -496.000
315.407; -121.050;-1094.000; -967.000
315.544;  -55.750; -657.000; -538.000
315.681;  -62.475; -681.000; -565.000
315.817;   48.700; -133.000; -176.000
315.954;   35.425; -613.000; -392.000
316.091; -122.325;-1045.000;-1023.000
316.227;  -30.150;  -71.000; -179.000
316.364;   -1.725;   23.000;    6.000
316.500;  -48.250; -113.000; -300.000
316.637;  -44.250; -181.000; -302.000
316.774;  -85.150; -625.000; -358.000
316.910;  -92.525; -598.000; -629.000
317.047;  -60.225; -487.000; -351.000
317.183;  -37.800; -435.000; -566.000
317.320;  -19.850; -367.000; -321.000
317.456;  -66.225; -733.000; -805.000
317.593; -100.475; -598.000; -641.000
317.729;   -3.925;  168.000;  -67.000
317.866; -185.425;-1434.000;-1285.000
318.002;  -90.050; -708.000; -948.000
318.139;  -81.375; -883.000; -867.000
318.275;  -96.900;-1003.000; -738.000
318.412;  -57.625; -517.000; -336.000
318.548;  -19.000; -751.000; -720.000
318.685;  -84.150; -985.000; -888.000
318.821;  -91.450; -762.000; -735.000
318.957;  -12.750;   34.000;  -23.000
319.094;   33.200;  297.000;  154.000
319.230;  -33.725; -756.000; -742.000
319.367;  170.550; -471.000; -520.000
319.503;   81.000; -538.000; -436.000
319.639;  -90.300; -877.000; -793.000
319.775;  -39.800; -750.000; -685.000
319.912;  -35.375; -424.000; -519.000
320.048;  -82.750;-1184.000;-1184.000
320.184;   67.900;   59.000;   70.000
320.321;  -56.450; -497.000; -467.000
320.457;   67.450;  475.000;  662.000
320.593;  -53.750; -375.000; -382.000
320.729; -108.875; -732.000; -734.000
320.866;  -61.575; -577.000; -635.000
321.002;  -65.525; -759.000; -809.000
321.138;   -3.775; -135.000; -211.000
321.274;   79.875; -148.000; -115.000
321.410;  -15.000; -585.000; -353.000
321.546;    0.625;-1011.000; -911.000
321.683;   61.225;  400.000;  185.000
321.819;    6.725;  -48.000; -117.000
321.955;  -93.225; -743.000; -722.000
322.091;  -34.050; -585.000; -540.000
322.227;   -5.200; -382.000; -202.000
322.363;  -11.800; -320.000; -215.000
322.499;  -45.225; -343.000; -331.000
322.635;  197.475;  636.000;  443.000
322.771;   36.775; -139.000;   12.000
322.907;   98.725;  129.000;  327.000
323.043;  -10.875; -115.000; -206.000
323.179;  -24.050; -394.000; -363.000
323.315;   54.250; -401.000; -371.000
323.451;  122.100; -328.000; -236.000
323.587;   73.375;  -60.000;  -77.000
323.723;   40.625; -682.000; -601.000
323.859;   -0.050; -258.000;  -76.000
323.995;  -28.525; -467.000; -409.000
324.131; -115.025; -967.000; -892.000
324.267;  -42.550; -254.000; -276.000
324.402; -133.850; -960.000; -983.000
324.538;   -8.050; -279.000; -104.000
324.674;   26.075;  164.000;   77.000
324.810;  145.775;  226.000;  308.000
324.946;   31.975; -810.000; -658.000
325.082;  -67.175; -568.000; -475.000
325.217;    0.700;  -62.000;   16.000
325.353;  -85.925; -764.000; -659.000
325.489;  -85.900; -540.000; -506.000
325.625;  -72.425; -579.000; -525.000
325.760;   43.950;  517.000;  376.000
325.896;  -40.400; -515.000; -702.000
326.032;  -50.575; -403.000; -352.000
326.168;  -64.325; -462.000; -369.000
326.303;  -64.450; -352.000; -461.000
326.439;  -21.775; -336.000; -276.000
326.575;   12.000; -190.000;  -29.000
326.710;   -5.575; -156.000;  -30.000
326.846;  -17.625;  146.000;  103.000
326.982;  -97.850; -530.000; -548.000
327.117;  -88.825; -481.000; -442.000
327.253;  -97.050; -745.000; -742.000
327.388; -110.400;-1137.000;-1153.000
327.524;  -30.725; -811.000; -578.000
327.659;  -30.400;  -58.000;  -22.000
327.795;  -28.875;   69.000;   45.000
327.931;  -91.700; -723.000; -499.000
328.066;  -15.800; -417.000; -276.000
328.202;    0.050;   12.000; -129.000
328.337;   99.600;  957.000;  713.000
328.473;   24.600;  -12.000;  -74.000
328.608;  -24.025; -256.000; -267.000
328.743;  -73.550; -799.000; -664.000
328.879;   24.550;  214.000;  114.000
329.014;  -37.525; -102.000; -122.000
329.150;  -86.075; -358.000; -483.000
329.285;  -83.325; -465.000; -466.000
329.421;  -49.900; -548.000; -246.000
329.556;  -32.350;  -36.000;   85.000
329.691; -113.075; -633.000; -615.000
329.827;  -86.525; -626.000; -480.000
329.962;  -48.950;  131.000; -301.000
330.097;  -91.025; -673.000; -585.000
330.233;  -46.525; -410.000; -223.000
330.368; -131.025; -839.000; -628.000
330.503;  -19.050;    3.000;   98.000
330.638;    2.575;  -93.000; -125.000
330.774;  -47.325; -609.000; -530.000
330.909;  -49.800; -434.000; -244.000
331.044;  -92.150; -714.000; -708.000
331.179; -173.650;-1217.000;-1109.000
331.315;   -5.500;   77.000;   20.000
331.450;    9.375;  157.000;  285.000
331.585;  -92.475; -805.000; -706.000
331.720;  -73.175; -510.000; -460.000
331.855;  -26.700;  -35.000; -102.000
331.990;  225.275;   62.000;  138.000
332.126;  105.925; -110.000;   71.000
332.261;  -22.750; -379.000; -265.000
332.396;    3.875; -135.000; -242.000
332.531; -106.700;-1074.000;-1031.000
332.666;   15.400; -519.000; -363.000
332.801; -104.100; -726.000; -807.000
332.936;  -25.200; -192.000; -122.000
333.071; -145.625; -870.000; -817.000
333.206;   14.900;  307.000;  379.000
333.341;   22.450;  344.000;  418.000
333.476;  -82.825; -627.000; -623.000
333.611;  -39.125; -251.000; -173.000
333.746;  -39.450; -381.000; -464.000
333.881; -125.475; -973.000; -935.000
334.016; -120.125; -936.000; -917.000
334.151; -108.950; -746.000; -702.000
334.286;   24.100;  152.000;  186.000
334.421;   -7.700; -125.000; -178.000
334.556;  -81.275; -611.000; -567.000
334.690;  -70.250; -631.000; -577.000
334.825;   62.675;  381.000;   83.000
334.960;  -45.725; -285.000; -413.000
335.095;   10.850;  135.000;  -91.000
335.230;  -95.925; -722.000; -738.000
335.365; -129.600;-1084.000; -990.000
335.499; -126.450;-1108.000;-1037.000
335.634;   33.100;    9.000;  534.000
335.769;  -86.400; -755.000; -720.000
335.904;  -45.150; -603.000; -561.000
336.038;  -52.550; -735.000; -657.000
336.173;  -97.250;-1206.000;-1194.000
336.308;    9.925; -116.000; -189.000
336.443;   27.500; -544.000; -634.000
336.577;  -52.500; -936.000; -787.000
336.712;   91.250;   -4.000;  -12.000
336.847;  -19.125; -724.000; -607.000
336.981;  102.000; -272.000; -208.000
337.116;  320.025;  615.000;  501.000
337.250;  208.175; -434.000; -421.000
337.385;  206.600; -297.000; -208.000
337.520;   66.925; -632.000; -603.000
337.654;  -39.025; -215.000; -126.000
337.789; -137.375; -989.000; -933.000
337.923;  -35.425; -104.000; -205.000
338.058;  -74.750; -673.000; -738.000
338.192;  -33.475; -611.000; -488.000
338.327;   -5.475;  -18.000; -155.000
338.461;  -64.425; -299.000; -469.000
338.596;  -91.425; -780.000; -638.000
338.730;  -88.225; -767.000; -803.000
338.865;   73.850;  -46.000; -140.000
338.999;  -67.375; -846.000; -702.000
339.134;  -35.750; -634.000; -536.000
339.268;   10.750; -741.000; -603.000
339.403;  339.550; -740.000; -775.000
339.537;  105.175; -894.000; -820.000
339.671; -111.475; -829.000; -813.000
339.806;  -55.350; -556.000; -512.000
339.940;   10.800; -261.000; -235.000
340.074;  -91.350; -685.000; -510.000
340.209;  -50.700; -351.000; -230.000
340.343;  -83.525; -517.000; -573.000
340.477;  156.800;  998.000; 1036.000
340.612;  -57.525;-1033.000; -900.000
340.746;  106.475; -199.000; -243.000
340.880;  -66.525; -924.000; -785.000
341.014;  -18.275;  -45.000; -154.000
341.149; -102.925; -756.000; -718.000
341.283; -111.900; -839.000; -754.000
341.417;  -70.150;-1124.000; -938.000
341.551;  193.850; -768.000; -708.000
341.685;  -13.575; -633.000; -611.000
341.820;  -46.925; -562.000; -493.000
341.954;  -39.225; -218.000; -349.000
342.088; -147.875;-1102.000;-1019.000
342.222;   49.075;  565.000;  618.000
342.356;  -52.975; -395.000; -335.000
342.490;  -77.600; -880.000; -841.000
342.624;  -40.925; -339.000; -242.000
342.758;    5.175; -364.000; -312.000
342.892;  -51.075; -710.000; -585.000
343.026;  -28.800;  -58.000; -116.000
343.160;  -67.050; -426.000; -376.000
343.294;  -81.800; -474.000; -337.000
343.428;    3.200; -488.000; -448.000
343.562;  -19.200; -172.000;  -23.000
343.696;  -16.850; -385.000; -314.000
343.830;  -14.350; -362.000; -356.000
343.964;   29.900; -231.000; -168.000
344.098; 1144.475;  199.000;   70.000
344.232;  952.025; -266.000; -127.000
344.366;  118.300; -567.000; -453.000
344.500;   87.575; -665.000; -744.000
344.634;   56.350; -324.000; -164.000
344.768;    7.625; -531.000; -341.000
344.902;   23.550;  278.000;  256.000
345.035;  -76.900; -556.000; -496.000
345.169; -124.575; -933.000; -656.000
345.303;   -9.800; -308.000; -482.000
345.437;  -70.750; -826.000; -717.000
345.571;  -71.850; -675.000; -594.000
345.704;  -66.825; -309.000; -532.000
345.838;  -12.775; -331.000; -284.000
345.972;  -19.200; -543.000; -495.000
346.106;  162.975; -179.000; -190.000
346.239;  452.200; -312.000; -243.000
346.373;   34.450; -343.000; -302.000
346.507; -127.825; -950.000; -962.000
346.640;  185.100;  -30.000;   13.000
346.774;  -28.025; -650.000; -797.000
346.908;   -9.600; -138.000;  -11.000
347.041;  -90.400; -646.000; -593.000
347.175;  -12.375;  259.000;   27.000
347.309;  -57.125; -698.000; -628.000
347.442;  -95.550; -883.000; -732.000
347.576;  347.750;  670.000;  668.000
347.709;  271.575; -123.000;  -52.000
347.843;  -78.450; -933.000; -825.000
347.976;   38.600;  235.000;  294.000
348.110; -175.875;-1268.000;-1186.000
348.243;  -91.950; -679.000; -772.000
348.377;    5.375;  -26.000;   60.000
348.510;   58.925;  403.000;  540.000
348.644;  -33.900;  -37.000; -159.000
348.777;    4.875;  180.000;  191.000
348.911;  -46.275; -142.000; -112.000
349.044;  203.700;  471.000;  448.000
349.178;  211.950;-1069.000;-1006.000
349.311;  117.000;  141.000;  255.000
349.444;   -6.625; -927.000; -813.000
349.578;  -11.050; -347.000; -200.000
349.711;  -83.900; -959.000; -862.000
349.845;   37.725; -661.000; -591.000
349.978; -130.575;-1224.000;-1137.000
350.111;  -72.200; -546.000; -612.000
350.244;  -65.000; -596.000; -700.000
350.378;   11.700; -392.000; -393.000
350.511;  -68.900; -393.000; -426.000
350.644; -103.400; -808.000; -806.000
350.778;    5.175;  168.000;  104.000
350.911;   -7.400;  134.000;  140.000
351.044;  -76.425; -685.000; -615.000
351.177;  -27.650; -321.000; -281.000
351.310;  -21.750;    3.000; -131.000
351.444;  -62.350; -888.000; -788.000
351.577;  148.225;  140.000;   90.000
351.710;   86.450;  593.000;  417.000
351.843;  -37.725; -165.000;  -77.000
351.976;    5.000;  149.000;  -79.000
352.109;  -87.850; -621.000; -612.000
352.242;   -2.575; -464.000; -419.000
352.376;  -41.800; -580.000; -636.000
352.509;  235.900; -437.000; -356.000
352.642;   56.325; -654.000; -604.000
352.775;   88.900; -141.000;  -98.000
352.908; -107.700; -933.000; -904.000
353.041; -100.600; -814.000; -824.000
353.174;  -44.650; -551.000; -424.000
353.307;  -84.525; -753.000; -764.000
353.440;   61.725;  541.000;  453.000
353.573;  -99.650; -957.000;-1008.000
353.706;  -42.600; -384.000; -558.000
353.839;  -13.400; -264.000; -220.000
353.971;  -87.350; -657.000; -512.000
354.104;  -64.575; -896.000; -835.000
354.237;  -21.925; -627.000; -662.000
354.370;  -70.925; -846.000; -879.000
354.503; -182.750;-1231.000;-1308.000
354.636;  -29.550; -529.000; -348.000
354.769; -121.150; -937.000; -860.000
354.902;  -14.825; -230.000; -139.000
355.034;  -30.025; -164.000; -220.000
355.167;   -8.100; -262.000; -162.000
355.300;  -94.375;-1061.000; -880.000
355.433;  910.400;  -71.000;  -14.000
355.565; 1401.625; -402.000; -384.000
355.698;  339.350; -356.000; -296.000
355.831;    7.375; -882.000; -801.000
355.964;  105.825; -285.000; -170.000
356.096;  -71.325; -856.000; -843.000
356.229;   25.275; -523.000; -530.000
356.362;  279.900; -373.000; -266.000
356.494;  573.500; -229.000; -162.000
356.627;  566.850;  269.000;  377.000
356.760;  638.425;  120.000;   53.000
356.892;  872.525; -286.000; -601.000
357.025;  791.525;  403.000;  389.000
357.157;  746.400; -167.000; -179.000
357.290;  578.575; -856.000; -713.000
357.423;  199.600; -667.000; -556.000
357.555;  147.475; -217.000; -228.000
357.688;  145.600; -483.000; -364.000
357.820;  562.025; -870.000; -877.000
357.953; 4384.050; -563.000; -589.000
358.085; 1029.850; -632.000; -612.000
358.218; 1556.275;-1131.000; -932.000
358.350;  294.775;  -58.000;  312.000
358.483; -104.650;-1300.000;-1187.000
358.615;   24.425;-1182.000;-1078.000
358.747;  -26.600;-1187.000;-1058.000
358.880;   67.500; -810.000; -744.000
359.012;   10.950; -376.000; -202.000
359.145;  -33.250; -480.000; -511.000
359.277;   99.100; -962.000; -913.000
359.409; 3585.625;  536.000;  231.000
359.542; 1000.550; -738.000; -688.000
359.674;   82.275;   46.000;   13.000
359.806;  -73.400; -565.000; -438.000
359.939;  -37.275; -617.000; -516.000
360.071;  -15.250; -583.000; -579.000
360.203;  -10.700; -411.000; -364.000
360.335;   62.900;  164.000;  -16.000
360.468;  248.225; -249.000; -307.000
360.600; 2859.100; -547.000; -454.000
360.732; 2634.625; -546.000; -423.000
360.864;  378.350;-1216.000;-1044.000
360.996;  368.850; -516.000; -554.000
361.129;   75.525; -389.000; -598.000
361.261;   16.175;  110.000; -113.000
361.393;  -20.325; -252.000; -214.000
361.525;   25.100;   94.000;  244.000
361.657;  -32.350; -821.000; -703.000
361.789;   17.950; -139.000; -155.000
361.921;  310.900; -642.000; -593.000
362.053;  304.450;  524.000;  541.000
362.185;   49.425;  288.000;   72.000
362.318;  -57.575; -709.000; -705.000
362.450;  155.175;  294.000;  444.000
362.582;  200.775; -913.000; -870.000
362.714;  -21.950; -353.000; -332.000
362.846;  -76.275; -606.000; -490.000
362.978; -136.600; -941.000; -811.000
363.109;   77.500; -161.000; -260.000
363.241;  572.450; -739.000; -749.000
363.373;  423.825; -649.000; -564.000
363.505;  589.925; -186.000;  -91.000
363.637;  145.875; -787.000; -601.000
363.769; -104.400;-1067.000;-1080.000
363.901;  -56.750; -596.000; -654.000
364.033;  -97.525;-1103.000;-1062.000
364.165;    1.925; -283.000; -283.000
364.296;   67.900; -316.000; -177.000
364.428;   50.825;-1344.000;-1220.000
364.560;  -66.950; -679.000; -661.000
364.692;  -49.375; -738.000; -835.000
364.824;  360.475; -588.000; -456.000
364.955;  455.100; -402.000; -564.000
365.087;  787.350;-1097.000; -852.000
365.219;   21.025; -686.000; -816.000
365.351;  -55.700; -526.000; -572.000
365.482;   45.650;  300.000;  240.000
365.614;  -35.050; -402.000; -314.000
365.746;  -88.500; -729.000; -752.000
365.877; -106.650; -706.000; -672.000
366.009;  240.650;  -35.000;  -62.000
366.141;  -91.000;-1249.000;-1134.000
366.272;  -94.325; -803.000; -719.000
366.404; -113.750;-1005.000; -874.000
366.535;   -6.825; -139.000;  -12.000
366.667; -104.950; -644.000; -649.000
366.799;   43.525;  353.000;  203.000
366.930; -105.275; -862.000; -996.000
367.062;  105.425; -639.000; -613.000
367.193;  130.725; -872.000; -842.000
367.325;  -65.600; -580.000; -684.000
367.456;   95.850; -246.000;   31.000
367.588;  147.975; -371.000; -318.000
367.719;   18.525;  -44.000;  -45.000
367.851;  -10.050; -222.000; -241.000
367.982;  -24.000; -875.000; -732.000
368.113;  132.100; -475.000; -358.000
368.245; -106.325; -960.000; -841.000
368.376;   -2.500; -254.000; -302.000
368.508;  -37.550; -188.000; -263.000
368.639; -138.250;-1166.000;-1034.000
368.770;   27.725; -670.000; -589.000
368.902;  -45.550; -836.000; -926.000
369.033;  -98.225; -906.000; -855.000
369.164;  -53.625; -720.000; -653.000
369.296; -106.975; -452.000; -601.000
369.427;   13.375; -209.000; -144.000
369.558;  -31.900; -593.000; -377.000
369.689;  -92.225; -721.000; -569.000
369.821; -127.825; -951.000; -845.000
369.952;  -22.775;   42.000; -108.000
370.083;  -49.375; -229.000; -108.000
370.214;  -76.375; -735.000; -650.000
370.345;   -0.900;   65.000;   81.000
370.477;  -69.000; -810.000; -790.000
370.608;  303.600; -328.000; -264.000
370.739;  -14.850;-1233.000;-1292.000
370.870;    0.600;-1102.000; -923.000
371.001;  130.175; -378.000; -467.000
371.132;  -75.450; -754.000; -735.000
371.263;  -20.000;  -42.000; -148.000
371.394; -132.875; -841.000; -748.000
371.525;   33.325;  345.000;  225.000
371.657;  -83.250; -808.000; -670.000
371.788;   82.300;  103.000;  199.000
371.919;  233.250; -384.000; -304.000
372.050; 4411.850;  -91.000; -156.000
372.181; 1350.100; -188.000; -294.000
372.311;  456.650;   42.000; -127.000
372.442;   74.050; -457.000; -451.000
372.573;  -13.150; -444.000; -340.000
372.704; -108.275;-1008.000; -980.000
372.835;  117.925; -228.000; -289.000
372.966;  -53.075; -646.000; -554.000
373.097;  -65.850; -575.000; -711.000
373.228;  -15.200; -717.000; -542.000
373.359;  209.775; -824.000; -536.000
373.490; 1203.250; -881.000; -727.000
373.620; 1492.450;-1001.000; -803.000
373.751; 2271.925; -332.000; -396.000
373.882; 1041.925; -663.000; -733.000
374.013;  110.275; -449.000; -262.000
374.143;  -20.200; -581.000; -659.000
374.274;  -94.925; -987.000; -908.000
374.405;  208.475; -388.000; -276.000
374.536;  584.425; -526.000; -387.000
374.666; 1471.425; -759.000; -807.000
374.797;  310.800; -817.000; -868.000
374.928; 1135.600; -710.000; -560.000
375.058; 1157.175; -535.000; -500.000
375.189;   98.350;  -59.000;  -93.000
375.320;  -85.875; -928.000;-1034.000
375.450;  -35.800; -625.000; -616.000
375.581;  -43.600; -526.000; -436.000
375.712;  -13.275; -574.000; -250.000
375.842;  413.750; -438.000; -415.000
375.973;  312.925; -554.000; -513.000
376.103;  -17.750; -665.000; -648.000
376.234;  -81.650; -531.000; -552.000
376.364;    2.475; -944.000; -867.000
376.495;  382.400;  925.000;  529.000
376.625;   32.825; -472.000; -485.000
376.756;  113.125; -709.000; -678.000
376.886;  -45.250;-1178.000;-1026.000
377.017;   30.275;-1048.000;-1061.000
377.147;  282.975; -786.000; -782.000
377.278;   53.600;  174.000;  228.000
377.408; -120.750; -801.000; -815.000
377.538; -107.450; -707.000; -693.000
377.669;  -72.850; -537.000; -613.000
377.799;  -81.125; -645.000; -635.000
377.929;  -42.925; -610.000; -428.000
378.060; -129.800; -781.000; -847.000
378.190;  -53.700; -726.000; -531.000
378.320;  -56.425; -401.000; -406.000
378.451;  -13.975; -131.000;  -22.000
378.581;    0.500;  -67.000; -110.000
378.711;  169.875; 1035.000;  866.000
378.841;    3.825; -533.000; -675.000
378.972;  -62.800; -871.000; -751.000
379.102;   27.300; -652.000; -579.000
379.232;   -6.425; -126.000;  -73.000
379.362;  -92.000;-1001.000; -885.000
379.492;   41.600; -373.000; -424.000
379.623;  127.700;    0.000;  111.000
379.753;  -75.175;-1107.000; -974.000
379.883;  236.600;   59.000;  156.000
380.013;   51.125;-1081.000;-1017.000
380.143;  -77.600;-1097.000;-1056.000
380.273;  -88.150; -985.000; -861.000
380.403;   -0.425; -344.000; -257.000
380.533;   -3.325; -651.000; -664.000
380.663;   85.275;  173.000;  128.000
380.793;  -76.450;-1027.000;-1074.000
380.923;  -19.050; -103.000;  -34.000
381.053;  -95.300; -613.000; -623.000
381.183;  -13.500; -106.000; -248.000
381.313;   74.000; -656.000; -470.000
381.443;   67.600; -692.000; -473.000
381.573;  279.325; -402.000; -409.000
381.703;  429.850;-1249.000;-1095.000
381.833; -103.675;-1454.000;-1336.000
381.963;  139.225; -134.000;  -87.000
382.093; 1710.425; -925.000; -909.000
382.223;  545.550; -713.000; -602.000
382.353;    6.375; -801.000; -608.000
382.482;  506.275;-1091.000; -964.000
382.612;  954.150; -872.000; -644.000
382.742;  567.700; -695.000; -622.000
382.872;  364.950; -565.000; -551.000
383.002;   81.875;  347.000; -132.000
383.131;  -11.275; -226.000; -160.000
383.261;  -44.550; -706.000; -768.000
383.391;  288.700; -552.000; -377.000
383.521; 2863.275;  451.000;  263.000
383.650;  657.950; -947.000; -904.000
383.780;  -12.475; -783.000; -656.000
383.910;  116.950;  880.000;  802.000
384.039;   66.450; -794.000; -656.000
384.169;  328.025;-1205.000;-1017.000
384.299;    6.950; -650.000; -662.000
384.428;  -93.150; -764.000; -680.000
384.558;  -40.250; -308.000; -275.000
384.687;  -37.100; -414.000; -334.000
384.817;   13.150;   75.000;   -2.000
384.947;   52.200; -234.000; -141.000
385.076;  337.125;  982.000;  912.000
385.206;  125.675;  369.000;  480.000
385.335;  -18.900; -549.000; -417.000
385.465;  -71.375; -655.000; -663.000
385.594;  163.575;  -53.000;  -44.000
385.724;  592.850; -868.000; -838.000
385.853;  163.525; -296.000; -270.000
385.982; 1704.500; -743.000; -787.000
386.112; 2747.500;-1052.000; -871.000
386.241;  220.350; -307.000; -312.000
386.371;   25.100; -174.000;  -87.000
386.500;   18.925; -825.000; -789.000
386.629;   37.775; -874.000; -817.000
386.759;   75.700;  -43.000;   68.000
386.888;   -2.450; -170.000; -250.000
387.017;  -58.525; -648.000; -620.000
387.147;  -93.100; -771.000; -798.000
387.276;   11.375; -410.000; -397.000
387.405;   32.425; -398.000; -342.000
387.535;  -27.675; -452.000; -361.000
387.664;  -58.650; -692.000; -620.000
387.793;   90.375; -198.000; -113.000
387.922;  658.275;  255.000;  200.000
388.052;   48.400; -576.000; -423.000
388.181;   43.100; -342.000; -472.000
388.310;   45.875; -889.000; -710.000
388.439;  -17.850; -749.000; -742.000
388.568;  243.875;  365.000;  244.000
388.697; 1363.150; -756.000; -653.000
388.826;  307.350; -768.000; -666.000
388.956;   98.950; -285.000; -307.000
389.085;  -35.100; -347.000; -287.000
389.214; -107.300; -842.000; -872.000
389.343;  -55.750; -645.000; -413.000
389.472;  373.475;  126.000;  149.000
389.601;  537.575;   91.000;    0.000
389.730;   43.425; -568.000; -687.000
389.859;   87.875;  226.000;   46.000
389.988;  251.000; -423.000; -408.000
390.117;  185.450; -168.000; -146.000
390.246;    0.400; -331.000; -320.000
390.375;  179.900; -673.000; -626.000
390.504;  -42.575; -703.000; -621.000
390.633;  -92.925; -672.000; -726.000
390.761;  -58.850; -732.000; -645.000
390.890;   24.975;   -4.000; -130.000
391.019;  -17.625; -421.000; -441.000
391.148; -119.375; -826.000; -855.000
391.277;  -61.450; -576.000; -493.000
391.406;  -60.400; -821.000; -805.000
391.534;   26.225;  574.000; -301.000
391.663;  -55.675; -583.000; -645.000
391.792;  -79.375; -673.000; -701.000
391.921;  127.175;   -3.000;   15.000
392.050;  264.600; -287.000; -228.000
392.178;    3.825;-1206.000;-1061.000
392.307;  218.425; -758.000; -712.000
392.436;  141.750; -427.000; -641.000
392.564;   23.925;  166.000;   -6.000
392.693;  -75.925; -860.000; -682.000
392.822;  279.225; -529.000; -534.000
392.950;  144.600; -880.000; -714.000
393.079;  419.725; -188.000; -328.000
393.208;   50.925; -488.000; -511.000
393.336;  -25.775; -170.000; -145.000
393.465;  -41.550; -317.000; -199.000
393.593;   -0.450;   62.000;   79.000
393.722; -138.775;-1121.000; -916.000
393.850;  -41.600; -188.000;  -61.000
393.979; -154.300; -926.000; -805.000
394.107;  -80.975; -517.000; -537.000
394.236;   -5.900; -570.000; -507.000
394.364;  223.800;  383.000;  206.000
394.493;  435.300; -911.000; -767.000
394.621;   -1.775; -955.000; -916.000
394.750;  640.575; -873.000; -923.000
394.878; 2671.375; -247.000; -149.000
395.007; 3698.875; -721.000; -807.000
395.135;  276.100; -790.000; -721.000
395.263;  -75.975;-1038.000;-1040.000
395.392;  -15.600;  -25.000; -107.000
395.520; -133.525; -818.000; -679.000
395.648;  -67.675; -865.000; -915.000
395.777;   17.950; -366.000; -405.000
395.905;  -32.050; -449.000; -564.000
396.033;   22.175;  217.000;  172.000
396.162;  697.625; -399.000; -453.000
396.290;  640.950;  -17.000;   -2.000
396.418;  150.925; -555.000; -514.000
396.546;  -61.175; -571.000; -466.000
396.674;  -84.050; -850.000; -878.000
396.803;   22.675;  -72.000;  -23.000
396.931;  133.900; -179.000; -199.000
397.059;  122.675;-1026.000; -989.000
397.187;  -94.800;-1026.000; -975.000
397.315; -129.700; -884.000; -649.000
397.443;  -93.325; -592.000; -443.000
397.572;  -84.850; -578.000; -424.000
397.700;    7.075; -607.000; -614.000
397.828;   19.775;  120.000;  -90.000
397.956;  -48.825; -508.000; -478.000
398.084;  -66.125; -767.000; -626.000
398.212;   33.025;  137.000;  124.000
398.340;   25.500;  -56.000;  159.000
398.468;   49.700; -390.000; -169.000
398.596; -121.225; -993.000; -953.000
398.724; -112.425; -762.000; -767.000
398.852; -168.475;-1024.000; -976.000
398.980;  -51.525; -560.000; -560.000
399.108;  -40.775; -982.000; -735.000
399.236;   47.150;   13.000;    8.000
399.363;   10.225;  222.000;  196.000
399.491;  -76.600; -404.000; -398.000
399.619; -129.475; -829.000; -800.000
399.747;  -97.725; -859.000; -771.000
399.875;   95.650;  220.000;  234.000
400.003;  -57.175; -359.000; -284.000
400.130; -102.725; -421.000; -341.000
400.258;  -34.950;  -83.000;   38.000
400.386;  -66.875; -352.000; -168.000
400.514;  -48.375; -526.000; -587.000
400.641;  -67.725; -928.000; -802.000
400.769; -133.025; -979.000; -888.000
400.897; -101.275; -838.000; -793.000
401.025;  -13.450; -166.000; -152.000
401.152;    0.950;  220.000;   38.000
401.280;  -75.725; -430.000; -429.000
401.408; -109.625; -712.000; -576.000
401.535; -110.825; -735.000; -758.000
401.663; -193.700;-1134.000;-1054.000
401.790;  -74.400; -514.000; -525.000
401.918;   46.175;  436.000;  405.000
402.046;  -29.225;  134.000;  122.000
402.173;  -37.725;  -18.000;    7.000
402.301;  -66.925; -519.000; -397.000
402.428;   26.500;  528.000;  383.000
402.556; -128.000;-1188.000; -913.000
402.683;  -26.975;  -20.000;   -1.000
402.811;  -22.200;  -37.000; -206.000
402.938;  -16.975;   20.000;   27.000
403.066;  255.500; -574.000; -558.000
403.193;  423.425;  299.000;  239.000
403.321;  331.200; -396.000; -574.000
403.448;  403.450;   83.000;   27.000
403.575;  192.750;  -90.000;  -46.000
403.703;  -94.475; -732.000; -557.000
403.830;  -69.325; -531.000; -496.000
403.957; -143.800;-1117.000;-1023.000
404.085;   14.400;  -61.000; -172.000
404.212;  115.050;  -50.000;   63.000
404.339;  228.125; -566.000; -306.000
404.467; 5266.200; -612.000; -524.000
404.594; 3815.975; -287.000; -227.000
404.721; 1027.575; -869.000; -764.000
404.848;   90.475; -113.000; -202.000
404.976;  -99.400; -856.000; -783.000
405.103;  -20.850;  -14.000;  -82.000
405.230;    5.050;  190.000;  226.000
405.357;   26.025;  117.000;   44.000
405.484;  224.325;  -49.000;    5.000
405.612;   49.400; -548.000; -563.000
405.739;  -61.650; -488.000; -243.000
405.866;   75.575;  669.000;  385.000
405.993;  -43.300; -398.000; -102.000
406.120; -129.275; -801.000; -887.000
406.247;  -58.375; -323.000; -342.000
406.374;  544.725;  540.000;  629.000
406.501;  179.050; -632.000; -702.000
406.628;  -70.325; -621.000; -589.000
406.755;  -87.925; -803.000; -620.000
406.882;  -38.875; -228.000; -277.000
407.009;  -89.300; -719.000; -628.000
407.136;   87.975; -480.000; -401.000
407.263;  210.425; -939.000; -829.000
407.390;  -73.825; -692.000; -614.000
407.517; -149.725;-1139.000;-1187.000
407.644;  -58.025; -332.000; -256.000
407.771; -128.900; -249.000; -287.000
407.898;    4.125;  168.000;  328.000
408.025;  -56.900; -421.000; -313.000
408.151;  -15.725;   82.000;  153.000
408.278;  -56.900; -267.000; -216.000
408.405; -112.400; -931.000; -899.000
408.532;  -54.700; -549.000; -542.000
408.659; -121.600; -677.000; -648.000
408.785; -197.275;-1298.000;-1170.000
408.912;  -69.825; -412.000; -296.000
409.039; -111.025; -610.000; -686.000
409.166; -113.375; -591.000; -555.000
409.292; -105.650; -571.000; -534.000
409.419; -123.950; -665.000; -649.000
409.546;  -93.025; -431.000; -192.000
409.672; -106.725; -713.000; -545.000
409.799;  -18.500;  -36.000;   34.000
409.926;  -40.150; -180.000; -179.000
410.052; -171.925;-1127.000;-1091.000
410.179;  -62.075; -368.000; -392.000
410.305;  -78.725; -375.000; -493.000
410.432;  -45.300; -220.000; -333.000
410.558;  -84.100; -305.000; -380.000
410.685; -104.150; -688.000; -431.000
410.812;  -88.300; -409.000; -588.000
410.938; -131.125; -964.000; -808.000
411.065;  -86.750; -671.000; -645.000
411.191;  -21.000; -189.000; -174.000
411.317; -110.900; -823.000; -742.000
411.444;  -69.150; -317.000; -246.000
411.570;  -74.850; -339.000; -294.000
411.697; -135.875; -758.000; -752.000
411.823; -159.450; -989.000; -999.000
411.949;  -29.850;  -56.000;   17.000
412.076; -107.350; -539.000; -519.000
412.202; -115.625; -758.000; -757.000
412.329; -126.575; -798.000; -752.000
412.455; -118.875; -821.000; -657.000
412.581;   -9.575;  -15.000;  172.000
412.707;  -58.575; -540.000; -457.000
412.834;   -0.775;  156.000;  219.000
412.960;  -81.875; -785.000; -784.000
413.086;  -98.300; -743.000; -701.000
413.212;  167.275;  604.000;  578.000
413.339;  -50.800; -685.000; -701.000
413.465;   30.575; -364.000; -310.000
413.591;  -78.825; -757.000; -474.000
413.717;  -59.775; -358.000; -366.000
413.843; -132.825; -839.000; -861.000
413.969;  -64.750;  -47.000; -292.000
414.096; -105.750; -679.000; -679.000
414.222;  -19.250;  -33.000;   85.000
414.348;  -10.425; -652.000; -385.000
414.474;  125.575;   38.000;  -52.000
414.600;    0.825; -126.000; -144.000
414.726;   -8.350;  -96.000;  -55.000
414.852;  -60.300; -365.000; -342.000
414.978;   22.025;  104.000;  -18.000
415.104;   38.750;   38.000;   80.000
415.230;   32.375; -329.000; -330.000
415.356;   28.075; -409.000; -514.000
415.482;  193.650;   13.000;  -35.000
415.608;  260.175; -247.000; -323.000
415.734;  913.100;   67.000;   38.000
415.860;18666.750; -875.000; -767.000
415.986;14151.150; -685.000; -607.000
416.111; 1209.900; -798.000; -652.000
416.237;  218.375; -424.000; -571.000
416.363;  995.125; -765.000; -733.000
416.489; 3870.325; -324.000; -251.000
416.615;  416.925; -707.000; -742.000
416.741;  -41.225; -677.000; -784.000
416.866;  -99.800; -673.000; -736.000
416.992; -130.875; -801.000; -818.000
417.118;  -24.100;  -41.000;  -80.000
417.244;  -71.325; -798.000; -531.000
417.369;  -82.100; -801.000; -612.000
417.495;   10.075; -325.000; -254.000
417.621;  -73.050;-1015.000; -803.000
417.746;    3.900; -579.000; -572.000
417.872;   33.975; -254.000; -144.000
417.998;   45.775; -515.000; -530.000
418.123;  942.075;-1073.000; -845.000
418.249; 5025.450; -512.000; -601.000
418.374;  721.375; -916.000; -824.000
418.500;   92.325; -383.000; -482.000
418.626;   97.975;   70.000;  -59.000
418.751;  111.875; -549.000; -448.000
418.877;  185.575; -637.000; -643.000
419.002; 1593.725; -688.000; -560.000
419.128;11563.350; -930.000; -721.000
419.253; 2972.375; -967.000; -837.000
419.379;  375.975; -391.000; -338.000
419.504;  354.400;  325.000;  415.000
419.629;  464.950; -393.000; -212.000
419.755; 3083.200; -317.000; -254.000
419.880;18952.850;  -98.000;   67.000
420.006;10463.275; -280.000; -221.000
420.131;27667.500; -662.000; -775.000
420.256; 4156.975; -315.000; -316.000
420.382;  546.750; -665.000; -687.000
420.507;   75.200; -649.000; -778.000
420.632;  167.775; -337.000; -339.000
420.758;  346.875; -251.000; -425.000
420.883;  -63.250; -876.000; -672.000
421.008;  -96.075; -775.000; -619.000
421.133;  -73.275; -509.000; -467.000
421.259;  -46.750; -325.000; -259.000
421.384; -115.150; -834.000; -693.000
421.509;  -15.250;-1052.000; -862.000
421.634; 1552.225; -936.000; -820.000
421.759;  719.250; -359.000; -327.000
421.885;  -35.450; -717.000; -656.000
422.010;  -81.300; -673.000; -542.000
422.135; -141.775; -695.000; -727.000
422.260;   31.800;  340.000;  280.000
422.385;  -37.200;   12.000;  -98.000
422.510;   13.025;  151.000;  -26.000
422.635;   29.575;  -87.000;  -43.000
422.760;  117.775; -766.000; -791.000
422.885;   67.775;  -57.000;  -80.000
423.010;  -49.125; -112.000; -169.000
423.135; -102.750; -481.000; -561.000
423.260;    8.050; -150.000; -245.000
423.385;   66.775;  476.000;  222.000
423.510;   23.125;   71.000;  -22.000
423.635;   99.125;  133.000;   45.000
423.760;   69.200;  383.000;  328.000
423.885;   50.325;  336.000;  391.000
424.010;   14.800;  -68.000;  -13.000
424.135;  -24.500;    5.000;  -33.000
424.259;  -99.075; -654.000; -457.000
424.384;  -54.350; -279.000; -272.000
424.509;  -36.000; -260.000; -186.000
424.634;  -94.375; -761.000; -623.000
424.759;  -15.025; -688.000; -544.000
424.883;  -20.900; -506.000; -527.000
425.008;  154.750; -502.000; -410.000
425.133; 1846.975; -679.000; -653.000
425.258;  915.850; -517.000; -381.000
425.382; 1193.350; -867.000; -774.000
425.507; 3232.025; -487.000; -543.000
425.632;  520.075; -802.000; -663.000
425.756;  415.200; -256.000; -146.000
425.881; 5593.550; -831.000; -857.000
426.006;15684.775; -604.000; -355.000
426.130; 2635.225; -696.000; -508.000
426.255;  337.375; -611.000; -491.000
426.379;  153.900; -189.000; -577.000
426.504;  339.425;  660.000;  544.000
426.629; 3786.575; -519.000; -466.000
426.753; 2696.475;   64.000;  -46.000
426.878;  319.075; -252.000; -288.000
427.002;  129.050; -651.000; -668.000
427.127; 1484.725;  -35.000; -158.000
427.251;10500.100;  372.000;  401.000
427.375; 3176.325; -191.000; -173.000
427.500; 2758.125; -616.000; -610.000
427.624;  994.375; -234.000; -400.000
427.749;  108.775; -216.000; -225.000
427.873;  -30.975; -499.000; -412.000
427.997;  -44.200; -222.000; -230.000
428.122;   67.125;  795.000;  703.000
428.246;   78.500;  433.000;  434.000
428.371; -127.100; -869.000; -773.000
428.495;  -88.150; -624.000; -646.000
428.619;  -24.150; -186.000; -117.000
428.743;   34.000;   65.000;  132.000
428.868;   44.350; -732.000; -643.000
428.992; 1719.825; -219.000; -326.000
429.116;  757.300; -329.000; -357.000
429.240;  351.750;  419.000;  426.000
429.365;  -21.475; -454.000; -574.000
429.489;  -24.425; -638.000; -647.000
429.613;   33.075; -236.000; -177.000
429.737;   28.175; -563.000; -432.000
429.861;  246.825; -247.000; -133.000
429.985; 5065.625; -425.000; -305.000
430.109; 5854.350; -770.000; -908.000
430.234;  688.650;   76.000;  -50.000
430.358;   56.650; -250.000; -160.000
430.482;  -68.750; -672.000; -564.000
430.606;  -60.575; -655.000; -375.000
430.730;   40.325; -437.000; -388.000
430.854;  199.975; -909.000; -835.000
430.978;  -44.775; -795.000; -764.000
431.102;  -75.875; -499.000; -422.000
431.226; -115.125; -874.000; -815.000
431.350;   26.225;  345.000;  422.000
431.474;  -76.850; -661.000; -373.000
431.597; -142.975;-1060.000; -848.000
431.721;  -84.875; -276.000; -267.000
431.845; -129.775; -704.000; -472.000
431.969;  -80.000; -304.000; -349.000
432.093;  -88.825; -395.000; -317.000
432.217;  -16.825;   32.000;   82.000
432.341;  -87.350; -523.000; -518.000
432.464;   15.700;   96.000;   40.000
432.588;  284.325; -401.000; -329.000
432.712;  137.250;  -52.000;  -52.000
432.836;   53.150;  213.000;  263.000
432.959;  -28.025; -372.000; -311.000
433.083;   79.400;   11.000;    2.000
433.207;  340.500;  285.000;  930.000
433.330; 4559.400; -391.000; -200.000
433.454; 5852.725; -654.000; -638.000
433.578; 3362.300;  583.000;  278.000
433.701;  672.900; -623.000; -675.000
433.825;  189.425; -292.000; -299.000
433.949;  256.700;   28.000;  -72.000
434.072;  115.625; -410.000; -323.000
434.196;  -11.325; -309.000; -117.000
434.319; 3628.625;25482.000;25124.000
434.443;  730.100; -656.000; -603.000
434.566; 2497.450;  281.000;   62.000
434.690;  428.625; -637.000; -383.000
434.813;   59.325; -251.000; -173.000
434.937;  -74.700; -569.000; -696.000
435.060;  -22.125; -423.000; -332.000
435.184;  438.925; -492.000; -217.000
435.307;  262.075;  159.000;  102.000
435.431;   -8.600;  -40.000;   24.000
435.554;  -82.675; -399.000; -240.000
435.677;  -76.600; -350.000; -258.000
435.801;  -43.975;  -25.000;   49.000
435.924;   -3.250;    1.000;  -67.000
436.048;  -88.150;-1019.000; -732.000
436.171;  -86.475; -240.000;  -66.000
436.294;  -34.525; -248.000; -229.000
436.417;   65.300; -963.000; -849.000
436.541;  -86.375; -814.000; -840.000
436.664;  -51.100; -242.000; -316.000
436.787;  -14.200;   13.000;  113.000
436.910; -113.200; -792.000; -422.000
437.034;   14.900;  142.000;  143.000
437.157;   82.375;  -11.000;    0.000
437.280;  -33.850; -392.000; -292.000
437.403;  -62.150; -982.000; -869.000
437.526;  849.950; -903.000; -865.000
437.649; 3146.400; -505.000; -332.000
437.772;  524.525; -692.000; -540.000
437.896;  147.250;  700.000;  544.000
438.019;  -94.700; -758.000; -503.000
438.142;  -95.625; -596.000; -506.000
438.265;   21.875; -639.000; -670.000
438.388;  750.575; -520.000; -410.000
438.511;  169.000; -597.000; -394.000
438.634;  -29.025; -247.000; -125.000
438.757; -131.975; -693.000; -619.000
438.880;  -27.900;  -34.000;  -57.000
439.003;  -79.900; -417.000; -437.000
439.126;  -57.600; -287.000; -167.000
439.248;  -61.325;  -98.000; -139.000
439.371;  -46.875;    9.000;  -53.000
439.494;    8.725;  510.000;  439.000
439.617;  -70.925;   65.000;  -88.000
439.740; -177.125; -968.000; -816.000
439.863; -145.625; -755.000; -595.000
439.986; -130.975; -476.000; -431.000
440.108;  -57.000; -161.000; -112.000
440.231; -155.150; -950.000; -836.000
440.354;  -47.050;  -64.000; -150.000
440.477;   62.050; -566.000; -542.000
440.599;   31.200; -200.000; -225.000
440.722; -115.175; -709.000; -586.000
440.845;   60.000;  751.000;  928.000
440.968; -111.100; -415.000; -311.000
441.090;  -84.425; -199.000;  -33.000
441.213; -164.850;-1021.000; -825.000
441.336;  -68.350; -159.000;   -5.000
441.458;  -74.225; -549.000; -396.000
441.581;  -83.650; -628.000; -629.000
441.703;  -82.150; -152.000;   13.000
441.826; -111.175; -557.000; -400.000
441.948;  -57.700;   56.000;   51.000
442.071;   29.775;  555.000;  424.000
442.193; -116.850; -531.000; -485.000
442.316;   10.750;  152.000;   97.000
442.438;   46.375; -233.000;  -10.000
442.561;   90.650;  272.000;  262.000
442.683;  721.725; -809.000; -522.000
442.806; 1584.725;   -8.000;   74.000
442.928;  113.450; -859.000; -604.000
443.051;  -64.075; -577.000; -373.000
443.173;  -92.625; -341.000; -339.000
443.295;  -90.650; -263.000; -371.000
443.418;  -77.350; -321.000;  -29.000
443.540;    2.650; -106.000;   -4.000
443.662; -106.825; -563.000; -465.000
443.785;  -24.100;  335.000;  199.000
443.907;  -92.175; -362.000; -208.000
444.029; -132.850; -767.000; -494.000
444.152; -142.275; -644.000; -554.000
444.274;  -45.200;  -18.000;  -24.000
444.396; -111.275; -461.000; -221.000
444.518; -126.050; -691.000; -454.000
444.640; -105.725; -268.000; -111.000
444.763;  -12.175;  388.000;  249.000
444.885; -113.750; -432.000; -392.000
445.007;  -43.600;   35.000;   86.000
445.129; -112.025; -610.000; -515.000
445.251; -100.650; -372.000; -439.000
445.373; -135.300; -537.000; -386.000
445.495;   -4.850;  242.000;  350.000
445.617;   50.075;  853.000;  753.000
445.739;  -57.450; -215.000;  -97.000
445.861;  -29.575; -245.000; -112.000
445.984;  -36.000; -267.000; -101.000
446.105;  266.500; -418.000; -251.000
446.227;  804.575; -176.000;  -19.000
446.349;   60.200; -358.000; -249.000
446.471;  -93.850; -615.000; -448.000
446.593;  -47.250; -316.000;   19.000
446.715;   -1.875;  -67.000;   41.000
446.837;   57.600;  697.000;  832.000
446.959; -104.925; -457.000; -478.000
447.081; -144.250; -628.000; -518.000
447.203;   41.275;  862.000;  834.000
447.325;  -91.550; -270.000;   42.000
447.446;  -13.550;  286.000;  530.000
447.568; -152.975; -921.000; -803.000
447.690;  -69.025; -236.000; -245.000
447.812; -148.825; -798.000; -519.000
447.933;  -29.900;  155.000;  127.000
448.055;  -63.525; -306.000; -261.000
448.177;  184.575;   31.000;   79.000
448.299;  157.650; -935.000; -727.000
448.420;   31.850;  -25.000;  159.000
448.542;  -41.800;   -3.000;   33.000
448.664;  -18.975;  109.000;  322.000
448.785;  -41.925;  265.000;   83.000
448.907;  -82.550; -614.000; -353.000
449.028;   -1.275; -771.000; -471.000
449.150;   61.750;  492.000;  589.000
449.272; -173.750;-1044.000; -913.000
449.393;   15.225;  612.000;  694.000
449.515; -144.275; -634.000; -581.000
449.636;  -54.825; -264.000; -155.000
449.758;   80.950;  763.000;  622.000
449.879;  -92.475; -498.000; -396.000
450.001;  -80.550; -149.000;  -49.000
450.122;  -33.800;  -95.000;  162.000
450.244;  -27.475;   37.000;  364.000
450.365;  -95.725; -495.000; -301.000
450.486;  -35.600;   80.000;  268.000
450.608;   12.625;  393.000;  326.000
450.729;   45.925;  578.000;  645.000
450.850;  -21.700; -574.000; -466.000
450.972;  636.925; -552.000; -389.000
451.093; 4390.025;  190.000;  588.000
451.214; 1986.300; -516.000; -337.000
451.336;  378.175;  773.000;  579.000
451.457;   68.200;  264.000;  393.000
451.578;  -35.100; -118.000;  -74.000
451.699; -122.525; -546.000; -540.000
451.821;  -67.625; -284.000;  -50.000
451.942;   -8.325;  278.000;  285.000
452.063;   15.850;  228.000;  419.000
452.184;  489.250;  -54.000;  -49.000
452.305; 1031.075;  103.000;  170.000
452.427;  115.600; -549.000; -301.000
452.548;  -10.400;   23.000;   79.000
452.669;  -42.250; -257.000;  -89.000
452.790;  -54.250;    3.000;  -18.000
452.911;   -8.125;  195.000;  259.000
453.032;  -53.225; -289.000;  -60.000
453.153;  -38.325;  -29.000;   81.000
453.274;   61.950;  737.000;  868.000
453.395;  -58.625;  -51.000;  175.000
453.516;  129.450; 1317.000; 1388.000
453.637;  -58.275; -205.000; -150.000
453.758;  -60.750;   15.000;   69.000
453.879; -117.725; -462.000; -250.000
454.000;   70.050; 1086.000;  948.000
454.121; -104.600; -554.000; -326.000
454.242; -118.350; -599.000; -383.000
454.362;  -60.975;  -99.000;  114.000
454.483;  -41.075; -309.000; -229.000
454.604;   67.050;  512.000;  580.000
454.725; -124.475; -627.000; -555.000
454.846; -126.550; -474.000; -406.000
454.967;  -36.800;  230.000;  539.000
455.087;  -62.375;  179.000;  153.000
455.208;    5.100;  554.000;  856.000
455.329;  -69.950;  -22.000;   82.000
455.450;   27.850;  473.000;  633.000
455.570;  -93.250; -234.000; -211.000
455.691;  -35.525;  201.000;  407.000
455.812; -107.950; -270.000;  -92.000
455.932;  -67.375;  107.000;  -97.000
456.053;  -90.125;   36.000;   24.000
456.173; -126.225; -433.000; -355.000
456.294; -136.950; -476.000; -303.000
456.415;  -70.125;  -73.000;   70.000
456.535;  -31.300;  297.000;  273.000
456.656;  -52.525;  132.000;  240.000
456.776;  -81.475;    3.000;  298.000
456.897;    7.475;  308.000;  513.000
457.017;  -71.700; -153.000;   -3.000
457.138; -111.975; -402.000; -249.000
457.258;  -16.825;  263.000;  224.000
457.379;  -25.400;  509.000;  521.000
457.499;  -40.200;  443.000;  432.000
457.620; -131.000; -407.000; -231.000
457.740;  -99.425; -132.000;  -11.000
457.860;  -55.300;   87.000;   44.000
457.981;  -51.425;  132.000;  124.000
458.101;  -81.025;  -89.000;   40.000
458.221;  -31.975;  336.000;  402.000
458.342;  -64.725;   -4.000;  -37.000
458.462;   14.675;  617.000;  352.000
458.582;  -52.575; -302.000; -294.000
458.703;   -4.575;  303.000;  154.000
458.823;  -31.325;   22.000;  163.000
458.943;   26.050;  341.000;  467.000
459.063;   -8.900; 1124.000;  192.000
459.183;  -13.350;  328.000;  313.000
459.304;    7.125;  315.000;  517.000
459.424;  -71.975; -246.000;  -89.000
459.544;  283.925;  388.000;  764.000
459.664;  739.250;  499.000;  506.000
459.784;  300.250; 1004.000; 1175.000
459.904;   72.925;  867.000;  744.000
460.024;   73.200;  867.000;  684.000
460.144;   20.950;  449.000;  554.000
460.264;   -0.425;  515.000;  327.000
460.385;  -93.400; -145.000; -119.000
460.505;   14.400;  905.000;  858.000
460.625; -103.800;  -17.000;  -68.000
460.745;  -24.500;  396.000;  541.000
460.864;  -46.300;  153.000;  469.000
460.984;   -2.000;  499.000;  573.000
461.104;  123.975; 1656.000; 1775.000
461.224;   22.500;  657.000;  650.000
461.344;  -28.375;  431.000;  360.000
461.464;  -31.400;  258.000;  513.000
461.584;  -13.900;  283.000;  466.000
461.704;  -43.925;   58.000;  108.000
461.824;  -64.950;  238.000;  259.000
461.943;  -35.025;  191.000;  130.000
462.063;  -69.600;    2.000;  324.000
462.183;   34.325;  639.000;  717.000
462.303;  111.200; 1678.000; 1230.000
462.422;   31.375;  781.000;  840.000
462.542;  -38.825;  271.000;  391.000
462.662;   40.200;  353.000;  380.000
462.782;  215.125;  833.000;  572.000
462.901;  455.850;  545.000;  717.000
463.021;  275.475; 1702.000; 1638.000
463.141;    4.300;  337.000;  770.000
463.260;  -16.000;  614.000;  474.000
463.380;    0.250;  902.000;  884.000
463.499;  -45.525;  342.000;  332.000
463.619;  -45.700;  581.000;  559.000
463.738;  105.600; 1644.000;  903.000
463.858;   24.350;  657.000;  811.000
463.978;  -30.750;  542.000;  396.000
464.097;   39.775;  921.000; 1114.000
464.217;   95.225; 1196.000; 1143.000
464.336;   96.950; 1068.000; 1130.000
464.455;  -19.125;  328.000;  659.000
464.575;   41.625;  597.000;  602.000
464.694;  165.200; 1204.000; 1179.000
464.814;  124.075; 1190.000; 1138.000
464.933;   87.950; 1095.000; 1027.000
465.052;   91.825; 1412.000; 1054.000
465.172;   73.025;  922.000;  799.000
465.291;  152.650; 1376.000; 1320.000
465.410;   18.125;  462.000;  735.000
465.530;   81.425; 1355.000; 1310.000
465.649;   66.750; 1209.000; 1273.000
465.768;  126.375; 1673.000; 1508.000
465.888;   45.125;  941.000; 1174.000
466.007;   79.725; 1335.000; 1440.000
466.126;   -0.150;  721.000;  641.000
466.245;   33.450; 1176.000; 1187.000
466.364;   19.775;  950.000; 1060.000
466.484;   59.475; 1024.000; 1213.000
466.603;   41.825; 1101.000; 1222.000
466.722;  117.025; 1490.000; 1769.000
466.841;   86.950; 1151.000; 1401.000
466.960;   41.600; 1069.000;  972.000
467.079;  117.425; 1971.000; 1786.000
467.198;   47.700; 1238.000; 1181.000
467.317;   91.975; 1768.000; 1162.000
467.436;   67.200; 1709.000; 1261.000
467.555;  121.200; 1796.000; 1746.000
467.674;   53.375; 1227.000; 1329.000
467.793;   41.325; 1376.000; 1374.000
467.912;   89.350; 1658.000; 1539.000
468.031;  133.975; 2038.000; 1930.000
468.150;  135.300; 1842.000; 1837.000
468.269;  173.125; 2313.000; 2090.000
468.388;  178.400; 2168.000; 2339.000
468.507;  257.375; 2884.000; 2903.000
468.626;  270.375; 2555.000; 2541.000
468.744;  152.750; 2018.000; 2174.000
468.863;  184.125; 2312.000; 2523.000
468.982;   80.125; 1503.000; 1555.000
469.101;  219.175; 2788.000; 2692.000
469.220;  157.700; 2333.000; 2176.000
469.338;  243.000; 2935.000; 3051.000
469.457;  186.500; 2719.000; 2545.000
469.576;  332.775; 3953.000; 3784.000
469.695;  234.275; 2877.000; 3066.000
469.813;  417.650; 4148.000; 4192.000
469.932;  393.900; 4255.000; 4485.000
470.051;  421.275; 4075.000; 4161.000
470.169;  816.575; 4470.000; 4338.000
470.288; 1414.100; 4700.000; 4809.000
470.406;  857.950; 5059.000; 5194.000
470.525;  627.850; 6101.000; 5787.000
470.644;  644.125; 6847.000; 6794.000
470.762;  803.775; 8397.000; 7873.000
470.881;  891.850; 8651.000; 8464.000
470.999; 1005.525; 9685.000; 9151.000
471.118; 1091.700;11174.000;10711.000

