
Integration time [ms]: 100.000
Averaging Nr. [scans]: 40
Smoothing Nr. [pixels]: 0
Data measured with spectrometer [name]: 2101012U2
Wave   ;Sample   ;Dark     ;Reference
[nm]   ;[counts] ;[counts] ;[counts] 

197.733;   64.425;  516.000;  404.000
197.879;  -72.975; -610.000; -634.000
198.025;  -38.925; -475.000; -420.000
198.171;  -62.900; -602.000; -612.000
198.317;  -28.925; -401.000; -316.000
198.463;  -60.375; -655.000; -404.000
198.609;   34.600;  181.000; -137.000
198.755;  -89.675; -644.000; -410.000
198.901;  -65.850; -505.000; -424.000
199.047;  -69.150; -615.000; -488.000
199.193;  -38.325; -230.000; -468.000
199.339;  -41.675; -222.000; -369.000
199.485;   29.725;  330.000;  271.000
199.631;   30.225;  227.000;  310.000
199.777;  -49.075; -466.000; -398.000
199.923;  -40.150; -610.000; -424.000
200.069;   -5.050; -141.000;  -58.000
200.215;   44.675;  128.000;  453.000
200.361;   43.425;  243.000;  477.000
200.507;  -66.650; -600.000; -373.000
200.653;  -19.700; -371.000; -194.000
200.798;  -34.375; -215.000; -125.000
200.944;  -12.625; -146.000;  -41.000
201.090;   25.450;   61.000;  222.000
201.236;    1.950; -116.000; -158.000
201.382;  119.350;  874.000;  903.000
201.528;    2.775;  -58.000;  -48.000
201.674;  -38.325; -386.000; -293.000
201.819;  -55.225; -540.000; -439.000
201.965;  -81.875; -699.000; -447.000
202.111;  -21.650; -273.000; -226.000
202.257;  -28.175; -250.000; -238.000
202.402;   16.625;   13.000;  -36.000
202.548;  -23.700; -169.000; -116.000
202.694;   72.550;  410.000; -183.000
202.840;  -87.475; -603.000; -531.000
202.985;  -64.575; -681.000; -639.000
203.131;  -99.600; -832.000; -666.000
203.277;   -5.350; -199.000; -262.000
203.423;  -54.075; -434.000; -520.000
203.568;  -39.450; -462.000; -237.000
203.714;  -54.175; -535.000; -542.000
203.860;  -80.550; -682.000; -641.000
204.005;   19.575;  112.000;  167.000
204.151;   92.650;  561.000;  556.000
204.296;  -47.775; -354.000; -221.000
204.442;  -78.600; -600.000; -547.000
204.588;  -80.300; -592.000; -579.000
204.733;   19.500;  178.000;  168.000
204.879; -133.650;-1018.000; -822.000
205.025;   22.950;  -99.000;  126.000
205.170;  -12.325;  -17.000;   94.000
205.316;   82.700;  438.000;  661.000
205.461;  -81.925; -698.000; -554.000
205.607;   89.225;  609.000;  665.000
205.752;  -83.725; -626.000; -551.000
205.898;  -45.500; -501.000; -391.000
206.043;  -70.325; -578.000; -506.000
206.189;  -36.650; -243.000; -285.000
206.334;   75.775;  554.000;  606.000
206.480;   83.200;  409.000;  239.000
206.625;  -74.825; -529.000; -552.000
206.771;  -35.725; -451.000; -373.000
206.916;  -31.800; -210.000; -537.000
207.062;  -76.650; -545.000; -591.000
207.207;  -58.450; -546.000; -443.000
207.353;   35.050;  185.000;  460.000
207.498;   11.900;  196.000;   85.000
207.643;  -32.400; -501.000; -370.000
207.789; -137.625;-1069.000; -910.000
207.934;  -86.400; -665.000; -713.000
208.080;  -21.775; -154.000;   66.000
208.225;    6.875;  -22.000;  -57.000
208.370;  -71.450; -727.000; -619.000
208.516;  -83.375; -741.000; -487.000
208.661;  -32.250; -127.000;  -69.000
208.806;  -20.725; -165.000; -171.000
208.952; -126.300;-1044.000; -731.000
209.097;   79.300;  378.000;  349.000
209.242;  -49.825; -307.000; -382.000
209.387;   66.500;  392.000;  350.000
209.533;  -46.100; -321.000; -350.000
209.678;   84.450;  472.000;  543.000
209.823;  -58.400; -408.000; -310.000
209.969;  -92.125; -860.000; -757.000
210.114; -100.175; -907.000; -719.000
210.259; -103.200; -939.000; -889.000
210.404;  -14.050; -171.000;  103.000
210.549;    7.225;  108.000;    3.000
210.695;  -24.375;   -3.000;  -95.000
210.840;   34.275;   94.000;   67.000
210.985;  -59.150; -484.000; -303.000
211.130;   62.375;  268.000;  406.000
211.275;   12.100;  207.000;  199.000
211.420;  -49.225; -300.000; -289.000
211.566;  -69.675; -536.000; -489.000
211.711;   37.825;  218.000;  157.000
211.856;  -61.100; -545.000; -519.000
212.001;    9.400;  151.000;   44.000
212.146;   21.400;  153.000;   49.000
212.291;  -32.875; -210.000; -186.000
212.436;  -25.525; -280.000;   -6.000
212.581;  -80.975; -685.000; -653.000
212.726;  -73.075; -487.000; -538.000
212.871;  -49.400; -552.000; -217.000
213.016; -157.175;-1172.000;-1029.000
213.161;   64.900;  406.000;  291.000
213.306;  -70.050; -435.000; -577.000
213.451;  -92.125; -778.000; -689.000
213.596;  -45.600; -455.000; -347.000
213.741;  -56.625; -448.000; -538.000
213.886;  -77.750; -498.000; -517.000
214.031;  -29.100; -294.000; -124.000
214.176;  -38.950; -408.000; -341.000
214.321;  -19.725; -296.000; -157.000
214.466;  -26.100; -163.000;  -43.000
214.611;   -0.350;  -61.000;  -10.000
214.756; -126.575; -948.000; -858.000
214.901;  -19.050; -388.000; -226.000
215.046; -114.400; -797.000; -825.000
215.191;   10.800;  128.000;   35.000
215.336;  -20.350; -157.000;  -19.000
215.480;  -60.400; -684.000; -505.000
215.625;  -17.650; -175.000;  -19.000
215.770;  -85.100; -757.000; -662.000
215.915;    3.075;   -5.000;  -97.000
216.060;   -0.800; -113.000;  -21.000
216.205; -100.325; -731.000; -779.000
216.349;  -63.700; -470.000; -533.000
216.494; -134.225; -939.000; -867.000
216.639; -107.925; -823.000; -888.000
216.784;  -90.275; -577.000; -525.000
216.929;   53.400;  392.000;  281.000
217.073;   -9.700; -244.000;  -31.000
217.218;    6.875;   78.000;  -47.000
217.363;  -87.200; -656.000; -618.000
217.507;  -75.150; -623.000; -588.000
217.652; -129.925; -845.000; -874.000
217.797;  -85.675; -708.000; -659.000
217.942; -108.425; -856.000; -720.000
218.086;   58.575;  608.000;  539.000
218.231;  -44.925; -174.000;  -26.000
218.376;  -30.750; -337.000; -229.000
218.520;    1.875;  -41.000;   96.000
218.665;  -24.775; -338.000; -204.000
218.810;  -51.575; -275.000; -233.000
218.954;   19.025;  201.000;   35.000
219.099; -105.650; -713.000; -963.000
219.243;  -73.125; -589.000; -554.000
219.388;  -25.500; -264.000; -136.000
219.532;  -10.400; -116.000; -116.000
219.677;  -69.050; -564.000; -521.000
219.822;   17.225;   33.000;   89.000
219.966;   -5.150;   17.000;  -99.000
220.111;  -29.450; -328.000;  -40.000
220.255; -108.950; -797.000; -750.000
220.400;  -24.325; -180.000; -146.000
220.544;  -72.225; -516.000; -450.000
220.689;  -66.575; -422.000; -451.000
220.833;  -26.675; -123.000;  -58.000
220.978;  -50.600; -393.000; -563.000
221.122;   27.850;  319.000;  307.000
221.267; -114.175; -906.000; -837.000
221.411;  -74.325; -478.000; -394.000
221.555;   -8.000; -104.000;  -23.000
221.700;  -55.675; -329.000; -222.000
221.844;   37.375;  255.000;  272.000
221.989;  -52.400; -328.000; -311.000
222.133;  -41.275; -289.000; -307.000
222.277;  -20.300;    5.000;   78.000
222.422;    9.975;  227.000;  113.000
222.566;  -39.950; -381.000; -214.000
222.711;  -55.325; -414.000; -479.000
222.855;  -79.050; -643.000; -586.000
222.999;  -80.650; -642.000; -717.000
223.144;  -30.175; -195.000; -194.000
223.288;   47.125;  423.000;  251.000
223.432;   34.250;  184.000;  230.000
223.576;   13.950;  152.000;  -21.000
223.721;   35.950;  364.000;  273.000
223.865;  -53.850; -472.000; -475.000
224.009;  237.425; 1673.000; 1631.000
224.153;  -82.850; -660.000; -671.000
224.298;  -76.950; -531.000; -489.000
224.442;  -24.275;  -74.000;  -33.000
224.586;  -16.850; -169.000; -106.000
224.730;  -90.925; -858.000; -670.000
224.875;  -98.225; -739.000; -688.000
225.019;    4.225;  102.000;  188.000
225.163;   39.125;  208.000;  341.000
225.307;   16.125;   97.000;  -91.000
225.451;   47.950;  360.000;  481.000
225.595;   35.100;  264.000;  176.000
225.739;  -19.350; -170.000;  -94.000
225.884;   15.500;   86.000;    5.000
226.028;  -98.950; -760.000; -626.000
226.172;  -48.025; -260.000; -273.000
226.316; -117.625; -941.000; -902.000
226.460;  -66.750; -645.000; -493.000
226.604;  -51.525; -406.000; -400.000
226.748; -106.250; -836.000; -733.000
226.892;  -37.750; -227.000; -181.000
227.036;  -40.675; -537.000; -447.000
227.180;  -64.100; -551.000; -375.000
227.324;  -67.125; -561.000; -580.000
227.468; -125.125; -819.000; -717.000
227.612;   15.775;  242.000;  -28.000
227.756; -108.825; -845.000; -698.000
227.900;   46.850;  342.000;  441.000
228.044;  -61.225; -509.000; -290.000
228.188;   56.400;  448.000;  568.000
228.332;  -89.775; -546.000; -472.000
228.476;  -34.975; -223.000; -149.000
228.620;  -49.200; -210.000; -150.000
228.764;   51.150;  431.000;  349.000
228.908;  -23.900; -155.000;   30.000
229.052;  -68.875; -615.000; -528.000
229.195;  -19.475; -172.000;   13.000
229.339;  -34.300; -235.000; -305.000
229.483;  -21.700;    5.000; -162.000
229.627;   11.825; -156.000;  139.000
229.771;  -41.825; -218.000; -294.000
229.915;   15.100;  230.000;   79.000
230.059;  -99.625; -648.000; -663.000
230.202;  -42.525; -370.000; -317.000
230.346;  -23.825; -107.000;  107.000
230.490;  -70.350; -489.000; -521.000
230.634; -108.725; -736.000; -553.000
230.777;   78.200;  478.000;  509.000
230.921;  -47.275; -450.000; -359.000
231.065;  -44.100; -246.000; -286.000
231.209;   17.825;  261.000;  265.000
231.352;   19.450;   54.000;   40.000
231.496;    7.100;  568.000;  188.000
231.640;  -79.875; -693.000; -621.000
231.783;   72.675;  546.000;  525.000
231.927;  -45.900; -294.000; -365.000
232.071; -114.700; -962.000; -736.000
232.214; -115.600; -980.000; -764.000
232.358; -100.850; -683.000; -599.000
232.502;   14.225;  -19.000;    7.000
232.645; -138.700;-1090.000; -927.000
232.789;  -25.575; -257.000; -218.000
232.933;  -47.300; -407.000; -224.000
233.076; -121.925;-1038.000; -897.000
233.220; -107.225; -752.000; -777.000
233.363;  -71.575; -669.000; -477.000
233.507;   47.800;  371.000;  129.000
233.650;  -86.550; -764.000; -834.000
233.794;   44.275;  438.000;  461.000
233.938;  -63.100; -530.000; -362.000
234.081;  -13.950;  -93.000;   31.000
234.225;  -74.200; -631.000; -539.000
234.368; -108.950; -773.000; -723.000
234.512;  -41.650; -385.000; -299.000
234.655;  -78.075; -582.000; -555.000
234.798;  -65.025; -493.000; -466.000
234.942; -125.850; -884.000;-1002.000
235.085;  -85.625; -651.000; -443.000
235.229;  -90.600; -405.000; -410.000
235.372;  -46.850; -247.000; -191.000
235.516;  -60.475; -397.000; -321.000
235.659;   16.900;   92.000;  121.000
235.802;  -14.875;  -38.000;  -22.000
235.946;   26.500;  335.000;  215.000
236.089;   27.000;  126.000;  250.000
236.233;   53.500;  275.000;  298.000
236.376;  -59.275; -235.000; -378.000
236.519;  -44.500; -297.000; -319.000
236.663;  -24.200; -215.000; -117.000
236.806; -141.150;-1029.000; -999.000
236.949;   55.825;  543.000;  431.000
237.092;   65.225;  412.000;  391.000
237.236;  -95.425; -589.000; -502.000
237.379;   69.350;  352.000;  428.000
237.522; -128.275; -879.000; -768.000
237.666;  -20.375; -271.000;   18.000
237.809; -120.900; -851.000; -823.000
237.952;   34.750;  469.000;  271.000
238.095;  -73.125; -447.000; -442.000
238.238;   83.825;  688.000;  700.000
238.382;  -21.100;  166.000;  103.000
238.525;  -64.525; -598.000; -511.000
238.668; -145.575;-1060.000; -985.000
238.811;  -86.175; -638.000; -643.000
238.954;  -56.950; -483.000; -334.000
239.097;   93.150;  617.000;  664.000
239.241;   16.675;  394.000;  326.000
239.384;  -34.100; -254.000; -214.000
239.527;  -64.000; -424.000; -224.000
239.670; -147.575; -994.000;-1091.000
239.813; -110.375; -696.000; -658.000
239.956;   83.450;  579.000;  473.000
240.099; -113.350; -778.000; -725.000
240.242;   53.100;  428.000;  432.000
240.385;   45.000;  466.000;  450.000
240.528;  -66.850; -706.000; -473.000
240.671;   18.925;  189.000;  134.000
240.814;  -39.375; -441.000; -158.000
240.957; -101.775; -767.000; -578.000
241.100;  -99.750; -779.000; -755.000
241.243; -144.875;-1234.000; -893.000
241.386;  -65.300; -508.000; -379.000
241.529;  -90.525; -735.000; -547.000
241.672;  -66.875; -566.000; -495.000
241.815; -126.075; -832.000; -808.000
241.958;  -27.050; -125.000; -182.000
242.101;  -71.150; -545.000; -390.000
242.244;  -43.800; -270.000; -325.000
242.387;  -53.875; -304.000; -246.000
242.530;   54.575;  470.000;  134.000
242.673;  -57.025; -381.000; -309.000
242.815; -113.225; -925.000; -899.000
242.958;  -65.700; -482.000; -381.000
243.101;   20.325;  132.000;  187.000
243.244;  -84.300; -564.000; -521.000
243.387;  -41.900; -313.000; -316.000
243.530; -118.875; -657.000; -674.000
243.672;   -5.875;   43.000;  -92.000
243.815;  -60.700; -355.000; -283.000
243.958;   -0.050;   98.000;  -26.000
244.101;   -8.100;   59.000;  -16.000
244.243;   -4.200;  -47.000;  101.000
244.386; -110.625; -761.000; -630.000
244.529;  -28.500; -132.000; -139.000
244.672; -171.200;-1154.000; -951.000
244.814;  -98.725; -621.000; -794.000
244.957;  -73.950; -380.000; -304.000
245.100;  -73.450; -489.000; -489.000
245.242;  -73.600; -387.000; -374.000
245.385;   -5.800;  -59.000;  -39.000
245.528; -124.800; -871.000; -705.000
245.670;   87.700;  612.000;  634.000
245.813;  -98.350; -599.000; -547.000
245.956;  -30.125; -324.000; -275.000
246.098;  -69.450; -508.000; -650.000
246.241;   18.525;  194.000;   48.000
246.383;  -10.450; -119.000;  -73.000
246.526;  -70.775; -454.000; -525.000
246.669; -117.425; -889.000; -780.000
246.811;   12.050;  172.000;   -1.000
246.954;  -65.625; -512.000; -426.000
247.096;  -32.400;  -84.000;   -6.000
247.239;  -78.150; -482.000; -445.000
247.381;  -69.925; -647.000; -488.000
247.524;   72.850;  645.000;  679.000
247.666;  -12.675;   58.000;   11.000
247.809; -117.525; -887.000; -691.000
247.951;  -13.075;  -75.000;  138.000
248.094;   45.625;  432.000;  308.000
248.236; -156.475;-1262.000;-1238.000
248.378;    0.650; -356.000;  -81.000
248.521;  -19.925; -334.000; -337.000
248.663;  -38.575; -236.000; -267.000
248.806;  -22.325; -300.000; -266.000
248.948;  -84.325; -886.000; -763.000
249.090;  -54.350; -428.000; -398.000
249.233;  -51.725; -344.000; -381.000
249.375;  -71.950; -474.000; -451.000
249.518;  -33.000;  -83.000; -133.000
249.660;    4.450; -103.000;    3.000
249.802; -168.275;-1303.000;-1189.000
249.945;  -71.375; -612.000; -540.000
250.087; -117.875; -834.000; -768.000
250.229;  -41.000; -362.000; -480.000
250.371;  -78.025; -494.000; -439.000
250.514;  -38.775; -310.000; -244.000
250.656;  -70.875;   69.000;  102.000
250.798; -114.300; -849.000; -800.000
250.940;  -69.525; -322.000; -322.000
251.083;  -28.800; -335.000; -111.000
251.225;   50.275;  338.000;  310.000
251.367;  -40.325; -274.000; -373.000
251.509;  -33.200; -265.000; -210.000
251.651; -104.625; -731.000; -671.000
251.794;   68.675;  538.000;  632.000
251.936; -109.600; -821.000; -747.000
252.078;  -71.725; -540.000; -461.000
252.220;  -72.500; -645.000; -477.000
252.362;   86.125;  344.000;  462.000
252.504;  -65.350; -677.000; -584.000
252.646; -120.625; -875.000; -722.000
252.788;   -3.450;   14.000; -128.000
252.931;  -39.300; -257.000; -253.000
253.073;  -44.950; -376.000; -317.000
253.215;  -14.700;  141.000;  122.000
253.357;  -10.550;   82.000; -153.000
253.499;  -57.975; -374.000; -234.000
253.641;  -90.225; -749.000; -594.000
253.783; -100.350; -609.000; -527.000
253.925;  -90.550; -586.000; -591.000
254.067; -101.775; -744.000; -667.000
254.209;  -30.400; -391.000; -259.000
254.351; -147.350; -865.000; -883.000
254.493;  -68.225; -441.000; -417.000
254.635; -131.575; -936.000; -818.000
254.777;  -79.375; -752.000; -687.000
254.918;  -80.925; -512.000; -430.000
255.060;  -59.125; -551.000; -395.000
255.202;  -53.675; -473.000; -261.000
255.344;  -76.750; -658.000; -455.000
255.486;  -75.350; -471.000; -406.000
255.628; -106.500; -780.000; -781.000
255.770;  -90.200; -676.000; -536.000
255.912;  -65.200; -559.000; -468.000
256.053;  -94.675; -730.000; -508.000
256.195;  149.150; 1008.000;  903.000
256.337; -109.425; -861.000; -595.000
256.479;   72.325;  532.000;  416.000
256.621;  -50.350; -394.000; -212.000
256.762;  -91.600; -789.000; -742.000
256.904;   42.675;  485.000;  487.000
257.046;  -34.900; -381.000; -271.000
257.188;  -51.075; -351.000; -264.000
257.329;  -78.675; -525.000; -464.000
257.471; -106.425; -939.000; -807.000
257.613;  -58.075; -584.000; -498.000
257.755; -152.500;-1073.000; -982.000
257.896;   30.600;  286.000;  392.000
258.038;  -72.925; -403.000; -352.000
258.180;  -45.375; -354.000; -279.000
258.321;  -86.375; -581.000; -457.000
258.463;  -20.500;  -71.000;  133.000
258.605;  -83.100; -562.000; -570.000
258.746; -110.750; -886.000; -772.000
258.888; -155.325;-1026.000;-1020.000
259.029;   12.975;  121.000;   -8.000
259.171;  -89.800; -614.000; -550.000
259.313;  -14.825;  -49.000;  -47.000
259.454;  -87.250; -536.000; -414.000
259.596;  -58.625; -483.000; -390.000
259.737;  -74.125; -590.000; -474.000
259.879;   23.650;  217.000;  311.000
260.020;   80.275;  901.000;  636.000
260.162;  -32.725; -146.000; -253.000
260.303; -127.300; -768.000; -687.000
260.445;  -82.425; -609.000; -613.000
260.586;   25.050;  392.000;  157.000
260.728;  -52.575; -360.000; -248.000
260.869; -115.350; -350.000; -343.000
261.011;   76.300;  706.000;  537.000
261.152;  -76.825; -479.000; -319.000
261.293;  -82.000; -576.000; -595.000
261.435;  -34.200; -219.000; -184.000
261.576;  -45.850; -455.000; -325.000
261.718;   62.600;  420.000;  470.000
261.859; -117.150; -940.000; -949.000
262.000; -122.000; -951.000;-1016.000
262.142;  -30.400;  -52.000;  -60.000
262.283; -124.025; -808.000; -691.000
262.424;  -97.425; -666.000; -625.000
262.566; -154.500;-1161.000; -983.000
262.707; -117.950; -840.000; -830.000
262.848; -123.925; -769.000; -726.000
262.990;  -30.125; -362.000; -345.000
263.131;   67.475;  650.000;  681.000
263.272;   -6.175;  -61.000;  -41.000
263.413;  -96.975; -589.000; -561.000
263.555;  -71.925; -669.000; -143.000
263.696;  -81.550; -550.000; -641.000
263.837;  -68.100; -449.000; -551.000
263.978;  -10.150;   -5.000;  -77.000
264.119;  -42.675; -283.000; -264.000
264.261; -112.925; -847.000; -630.000
264.402;    1.375;   33.000;   40.000
264.543;  -85.025; -509.000; -524.000
264.684;    0.850;   61.000;  -50.000
264.825;  -73.925; -816.000; -538.000
264.966;   -4.925;  -84.000;  -67.000
265.107; -118.425; -646.000; -670.000
265.248; -109.675; -825.000; -812.000
265.390;  -11.450;  152.000;   -9.000
265.531;  -34.300; -238.000; -107.000
265.672;  -98.625; -557.000; -630.000
265.813;   69.500;  563.000;  439.000
265.954; -128.125; -959.000; -940.000
266.095;  -24.400; -372.000; -322.000
266.236;  -95.750; -686.000; -548.000
266.377;  -43.575; -243.000; -297.000
266.518;  -85.925; -619.000; -547.000
266.659;   22.125;  170.000;  268.000
266.800;   -6.400;   83.000;   85.000
266.941;  -72.350; -487.000; -478.000
267.082;   -3.150;  354.000;   99.000
267.223;  -37.550; -344.000; -273.000
267.364; -130.800; -892.000; -686.000
267.504;  -23.100;    3.000;  135.000
267.645;  -10.875;  160.000;   67.000
267.786;  -34.350; -147.000;  -86.000
267.927;  -85.675; -473.000; -379.000
268.068;  -14.625; -186.000;  -61.000
268.209;  -52.600; -175.000; -413.000
268.350;  -46.075; -388.000; -532.000
268.490;  -85.300; -648.000; -521.000
268.631;   14.500;  127.000;  225.000
268.772; -123.375; -874.000; -647.000
268.913;  -47.175; -328.000; -476.000
269.054;  -15.300; -117.000;   12.000
269.194;  -48.650; -418.000; -402.000
269.335; -150.375;-1137.000;-1074.000
269.476;  -21.425;   33.000;  -35.000
269.617;  -49.450; -347.000; -392.000
269.757;  -93.000; -713.000; -646.000
269.898; -103.850; -856.000; -613.000
270.039;  -60.900; -415.000; -405.000
270.180; -143.900; -952.000; -816.000
270.320;  -25.225; -190.000; -250.000
270.461;  -39.375; -277.000; -249.000
270.602;    0.375; -186.000; -156.000
270.742; -111.850; -868.000; -943.000
270.883;  -66.375; -442.000; -390.000
271.023;  -62.150; -358.000; -357.000
271.164;  -74.375; -607.000; -528.000
271.305; -116.975; -666.000; -654.000
271.445;  -99.025; -722.000; -683.000
271.586;  -75.400; -462.000; -283.000
271.726;  -47.925; -397.000; -322.000
271.867;  -55.875; -594.000; -534.000
272.008;  177.800; -473.000; -285.000
272.148;  138.025;  462.000;  468.000
272.289;   16.450; -113.000; -181.000
272.429;   11.725;   19.000;  185.000
272.570; -102.400; -633.000; -737.000
272.710; -109.125; -825.000; -775.000
272.851;  -15.900;  113.000; -130.000
272.991; -171.000;-1173.000;-1077.000
273.131;  -65.125; -419.000; -459.000
273.272;  -93.375; -683.000; -723.000
273.412;    7.050; -143.000;  -31.000
273.553;  -58.950; -488.000; -507.000
273.693;  144.150;  913.000;  858.000
273.834;  -91.900; -894.000; -692.000
273.974;  -71.175; -664.000; -615.000
274.114;  -81.150; -772.000; -560.000
274.255;   77.950;  414.000;  373.000
274.395;    2.775; -180.000; -125.000
274.535;   31.400;  199.000;  350.000
274.676;   23.700;  225.000;   94.000
274.816;    8.225;  110.000;   34.000
274.956;  -89.575; -624.000; -690.000
275.097;  -62.425;-1014.000; -922.000
275.237; -105.625; -913.000; -803.000
275.377;  -93.200; -778.000; -689.000
275.517; -158.000; -878.000; -937.000
275.658;  -63.900; -590.000; -555.000
275.798;  -72.300; -606.000; -413.000
275.938;    9.450;  215.000;  323.000
276.078;  -97.175; -626.000; -395.000
276.218;    6.525;   99.000;  104.000
276.359; -126.200;-1026.000;-1024.000
276.499;  -83.175; -605.000; -446.000
276.639;  -27.900; -305.000; -151.000
276.779;  -52.350; -475.000; -357.000
276.919; -103.025; -783.000; -624.000
277.059;  -13.300; -261.000; -212.000
277.199;  -40.825; -357.000; -259.000
277.340;   37.475;  287.000;  175.000
277.480; -129.125; -840.000; -693.000
277.620;   16.175;  192.000;   16.000
277.760; -195.625;-1533.000;-1294.000
277.900;    6.875;  113.000;   33.000
278.040;    8.600;  137.000;  159.000
278.180;   39.550;  270.000;  170.000
278.320;  -11.025;   21.000;   56.000
278.460;  -77.100; -443.000; -469.000
278.600;  -98.600; -708.000; -598.000
278.740;   50.950;  448.000;  224.000
278.880;  -52.675; -768.000; -791.000
279.020;  -16.175; -194.000; -144.000
279.160; -100.900; -672.000; -595.000
279.300; -112.800; -926.000; -873.000
279.440;  -91.075; -709.000; -622.000
279.579;  -14.775;-1014.000; -929.000
279.719;  -58.800; -410.000; -394.000
279.859;   74.425;   -4.000;   41.000
279.999;   30.225; -208.000;  101.000
280.139;  -18.825; -435.000; -387.000
280.279;  -85.500; -708.000; -745.000
280.419;  -18.825; -229.000; -147.000
280.559;  -38.500; -259.000; -180.000
280.698;  -80.825; -790.000; -639.000
280.838;  -91.425; -778.000; -800.000
280.978;  -98.175; -846.000; -790.000
281.118; -124.250; -811.000; -704.000
281.257;    2.900;   24.000;    6.000
281.397; -118.675;-1094.000; -960.000
281.537;  -86.075; -599.000; -712.000
281.677;  -24.575; -150.000; -101.000
281.816;  -90.300; -700.000; -630.000
281.956;  -34.650; -193.000; -257.000
282.096;  -64.200; -539.000; -396.000
282.235; -117.275; -672.000; -638.000
282.375;  -27.800; -243.000;  -98.000
282.515; -106.275; -715.000; -707.000
282.654;   16.350;   29.000;  106.000
282.794;   30.725;  388.000;  244.000
282.934;  -47.225; -530.000; -491.000
283.073; -137.325;-1030.000; -857.000
283.213;  -67.950; -460.000; -467.000
283.353;  -37.550; -408.000; -349.000
283.492;  -21.325; -264.000; -296.000
283.632;  -44.600; -254.000; -168.000
283.771; -106.250; -859.000; -730.000
283.911;  -52.575; -369.000; -260.000
284.050; -100.750; -794.000; -748.000
284.190; -150.050;-1229.000;-1096.000
284.329; -132.800;-1055.000; -964.000
284.469;  -65.275; -516.000; -591.000
284.608;  -56.500; -559.000; -598.000
284.748;  -81.900; -614.000; -570.000
284.887;   -9.300;  -87.000;  -20.000
285.027; -124.500; -844.000; -892.000
285.166;  -23.250; -192.000; -249.000
285.306;    9.300; -116.000;  -33.000
285.445;  -44.025; -229.000; -343.000
285.584;  -87.950; -630.000; -494.000
285.724;  -55.200; -282.000; -322.000
285.863; -122.600; -857.000; -507.000
286.002;  -57.325; -366.000; -276.000
286.142; -112.800; -715.000; -622.000
286.281;  -73.550; -525.000; -493.000
286.420;  -79.400; -554.000; -417.000
286.560;   96.025;  653.000;  623.000
286.699; -139.075; -958.000; -912.000
286.838;  -87.575; -590.000; -591.000
286.978;  -99.475; -533.000; -537.000
287.117; -126.825;-1085.000; -950.000
287.256;  -45.075; -228.000; -211.000
287.395;  -41.500; -197.000; -378.000
287.535;  -58.000; -370.000; -298.000
287.674;  -82.375; -509.000; -484.000
287.813;   45.675;  661.000;  533.000
287.952; -123.100;-1010.000; -871.000
288.091; -150.475;-1049.000; -915.000
288.231;   28.075;   13.000;   15.000
288.370; -182.875;-1217.000;-1200.000
288.509;  -91.100; -728.000; -645.000
288.648; -108.575; -770.000; -548.000
288.787;  -18.225; -243.000;  -87.000
288.926;  -63.650; -454.000; -475.000
289.065;  111.850;  859.000;  672.000
289.204;  -49.775; -377.000; -217.000
289.344; -104.975; -791.000; -690.000
289.483;   13.750;  416.000;  304.000
289.622;  -24.150; -291.000; -149.000
289.761;  -25.200; -309.000; -166.000
289.900; -106.850; -785.000; -626.000
290.039;  -15.725;  -12.000;  -95.000
290.178;  -48.875; -274.000; -180.000
290.317;  -89.325; -618.000; -479.000
290.456;  -59.850; -463.000; -451.000
290.595; -141.100; -961.000; -833.000
290.734; -135.025; -904.000; -891.000
290.873;  -74.200; -456.000; -420.000
291.011; -101.025; -833.000; -843.000
291.150; -105.775; -770.000; -682.000
291.289;  -17.875; -343.000; -110.000
291.428;  -93.700; -599.000; -480.000
291.567;  -59.200; -370.000; -442.000
291.706;    1.175;  109.000;  154.000
291.845;  -88.675; -597.000; -505.000
291.984; -173.575;-1234.000;-1061.000
292.122;   75.450;  602.000;  582.000
292.261;   33.575;  620.000;  463.000
292.400;   18.200; -144.000;  211.000
292.539; -114.875; -959.000; -813.000
292.678;  -23.400; -325.000; -300.000
292.816; -157.000;-1136.000; -965.000
292.955;  -88.875; -844.000; -684.000
293.094;  -34.450; -173.000; -337.000
293.233;  -45.850; -556.000; -400.000
293.371;  -19.700; -225.000;  -84.000
293.510; -103.650; -866.000; -780.000
293.649; -132.600; -959.000; -924.000
293.787;  -53.975;-1083.000;-1012.000
293.926;   -2.775; -113.000;  -32.000
294.065;  -37.950; -379.000; -290.000
294.203;   49.725;  298.000;  406.000
294.342;   17.700;   74.000;  156.000
294.481; 5801.750;51180.000; -836.000
294.619;  -22.100; -425.000; -582.000
294.758; -159.975;-1230.000;-1137.000
294.896;   73.550; -125.000;    5.000
295.035; -130.750;-1040.000;-1006.000
295.174; -129.100;-1082.000; -954.000
295.312;  -52.925; -323.000; -203.000
295.451;   -7.150; -307.000; -428.000
295.589;  -46.600; -389.000; -518.000
295.728;   29.000; -292.000; -165.000
295.866;    6.975;  -36.000;  -51.000
296.005;  -55.975; -584.000; -341.000
296.143;  -83.125; -558.000; -596.000
296.282; -100.925; -957.000; -881.000
296.420;  -90.700; -657.000; -557.000
296.559;  -78.525; -892.000; -633.000
296.697;   26.125; -847.000; -665.000
296.835;   75.300;-1141.000;-1002.000
296.974;   40.200;  -23.000;   39.000
297.112;   12.675; -443.000; -504.000
297.251;  -84.175; -815.000; -755.000
297.389;   94.400; -576.000; -438.000
297.527;   28.425; -145.000;  -83.000
297.666;  -48.850; -486.000; -438.000
297.804;  -65.950; -404.000; -264.000
297.942;  -10.475; -136.000; -161.000
298.081;    1.725; -183.000;   63.000
298.219;   73.000;  -17.000;  -19.000
298.357;   61.400; -144.000;  -71.000
298.495;   31.325; -810.000; -812.000
298.634;   78.125;  245.000;  219.000
298.772;   61.400; -220.000; -338.000
298.910;  -38.400; -309.000; -182.000
299.048;   -5.250; -130.000; -153.000
299.187;  -35.500; -350.000; -250.000
299.325;   11.375;   52.000;  122.000
299.463;   62.050; -389.000; -299.000
299.601;  115.725; -327.000; -271.000
299.739; -113.075; -908.000; -883.000
299.877;  -89.725; -791.000; -703.000
300.016;  -40.800;-1095.000; -935.000
300.154;  169.825;  -19.000; -161.000
300.292;   57.900; -428.000; -348.000
300.430;   30.225; -408.000; -291.000
300.568; -104.325; -940.000; -874.000
300.706;  -49.700; -366.000; -469.000
300.844;  -75.825;-1108.000; -979.000
300.982;  116.325;  246.000;  282.000
301.120; -109.050; -965.000; -866.000
301.258;  -66.625; -812.000; -705.000
301.396;   41.000;  104.000;  -41.000
301.534;   91.025; -218.000; -293.000
301.672;  -12.450; -664.000; -521.000
301.810;   37.425; -613.000; -545.000
301.948;  123.800;   53.000;  149.000
302.086;  664.050; -250.000;  -32.000
302.224; 1025.125; -610.000; -585.000
302.362;   40.700; -558.000; -622.000
302.500;   -9.325; -923.000; -893.000
302.638;  116.800;  128.000;  245.000
302.776;   -5.575; -352.000; -408.000
302.913;   45.850;  447.000;  236.000
303.051;  -17.350;  -86.000;  -23.000
303.189;   50.575;   90.000;  118.000
303.327;  -43.300; -341.000; -256.000
303.465;  -91.600; -832.000; -588.000
303.603;  -84.025; -805.000; -604.000
303.740;  104.375;  417.000;  241.000
303.878;   38.025; -800.000; -759.000
304.016;  -92.075; -915.000; -790.000
304.154; -120.825;-1123.000;-1152.000
304.291;  -39.825; -505.000; -554.000
304.429;   11.550;  102.000;   74.000
304.567; -125.100; -908.000; -893.000
304.705;  -50.750; -408.000; -515.000
304.842;  112.350; -616.000; -540.000
304.980;   51.500;  215.000;   35.000
305.118;   50.875; -367.000; -365.000
305.255;  -71.375; -945.000; -927.000
305.393;   60.875;  178.000;  239.000
305.531;  -90.700;-1173.000; -956.000
305.668;  -65.850; -663.000; -582.000
305.806;  109.600; -358.000; -439.000
305.943;  101.950; -629.000; -637.000
306.081;   58.425; -378.000; -267.000
306.219; -113.325; -863.000; -748.000
306.356;   -1.275;  158.000;   27.000
306.494;  109.275;  981.000;  761.000
306.631;  -18.925;  -11.000;  -55.000
306.769;   17.950; -613.000; -485.000
306.906;  -26.400; -284.000; -258.000
307.044;  -66.075; -473.000; -488.000
307.181;  -68.075; -410.000; -332.000
307.319;    1.475;  112.000;   87.000
307.456; -176.650;-1191.000;-1153.000
307.594;  -93.650; -980.000; -727.000
307.731;  -10.200; -371.000; -164.000
307.868;    5.375;  -15.000;   20.000
308.006; -142.875; -961.000; -847.000
308.143;  -68.400; -618.000; -330.000
308.281;  185.600;  -37.000; -254.000
308.418;   -9.400; -748.000; -640.000
308.555;  -52.750; -400.000; -250.000
308.693;  -78.750; -577.000; -573.000
308.830;  -97.100; -712.000; -657.000
308.967;  -21.075; -215.000;  -95.000
309.105;  -48.100; -507.000; -396.000
309.242;   53.550; -468.000; -367.000
309.379;  334.300; -577.000; -655.000
309.517;  -59.175; -936.000; -948.000
309.654; -111.375; -910.000; -734.000
309.791;  -84.250; -662.000; -580.000
309.928; -107.350; -977.000; -914.000
310.065;  173.875;  819.000;  697.000
310.203;    0.350; -825.000; -850.000
310.340;   -3.750; -465.000; -321.000
310.477;  -83.350; -412.000; -516.000
310.614;  -67.300; -383.000; -473.000
310.751;  -82.400; -427.000; -518.000
310.889;  -24.450;    1.000;   11.000
311.026; -152.750;-1161.000; -939.000
311.163;  -50.375; -386.000; -380.000
311.300;  -83.450; -512.000; -479.000
311.437;  -76.700; -658.000; -619.000
311.574; -147.175;-1226.000; -985.000
311.711;  -59.725; -595.000; -433.000
311.848;  -40.775; -380.000; -388.000
311.985;    1.000;  270.000;   93.000
312.122; -124.925; -932.000; -762.000
312.259; -120.075; -941.000; -994.000
312.396;  -75.200; -508.000; -551.000
312.533;  -85.200; -812.000; -790.000
312.670; -128.750;-1070.000; -898.000
312.807;  -41.125; -352.000; -367.000
312.944;  -79.250; -513.000; -611.000
313.081;  -32.075; -150.000; -415.000
313.218;  -99.775;-1111.000; -867.000
313.355;   20.825; -531.000; -449.000
313.492;    9.400; -455.000; -292.000
313.629;  130.325;  815.000;  735.000
313.766; -154.675;-1176.000;-1008.000
313.902;   -8.625; -186.000;   21.000
314.039;  -57.125; -372.000; -289.000
314.176;   21.900;  286.000;  192.000
314.313;  -78.025; -569.000; -473.000
314.450;  -67.375; -788.000; -684.000
314.587;  -53.525; -468.000; -480.000
314.723;   -8.900;  -78.000;  130.000
314.860;   20.800;  318.000;  332.000
314.997;   28.850;  223.000;  142.000
315.134;  -53.875; -385.000; -368.000
315.270;  -11.975; -480.000; -496.000
315.407; -131.975;-1094.000; -967.000
315.544;  -47.750; -657.000; -538.000
315.681;  -60.400; -681.000; -565.000
315.817;   30.400; -133.000; -176.000
315.954;   28.875; -613.000; -392.000
316.091; -134.150;-1045.000;-1023.000
316.227;  -37.375;  -71.000; -179.000
316.364;    5.100;   23.000;    6.000
316.500;  -55.350; -113.000; -300.000
316.637;  -38.575; -181.000; -302.000
316.774;  -89.775; -625.000; -358.000
316.910;  -96.300; -598.000; -629.000
317.047;  -74.125; -487.000; -351.000
317.183;  -42.550; -435.000; -566.000
317.320;  -19.775; -367.000; -321.000
317.456;  -76.225; -733.000; -805.000
317.593; -101.750; -598.000; -641.000
317.729;   -4.250;  168.000;  -67.000
317.866; -198.150;-1434.000;-1285.000
318.002;  -82.400; -708.000; -948.000
318.139;  -91.350; -883.000; -867.000
318.275; -114.650;-1003.000; -738.000
318.412;  -78.150; -517.000; -336.000
318.548;  -17.950; -751.000; -720.000
318.685;  -87.650; -985.000; -888.000
318.821; -105.600; -762.000; -735.000
318.957;  -19.400;   34.000;  -23.000
319.094;   36.225;  297.000;  154.000
319.230;  -67.700; -756.000; -742.000
319.367;  143.100; -471.000; -520.000
319.503;   58.025; -538.000; -436.000
319.639; -103.325; -877.000; -793.000
319.775;  -60.850; -750.000; -685.000
319.912;  -50.875; -424.000; -519.000
320.048;  -93.525;-1184.000;-1184.000
320.184;   60.450;   59.000;   70.000
320.321;  -66.050; -497.000; -467.000
320.457;   57.925;  475.000;  662.000
320.593;  -73.975; -375.000; -382.000
320.729; -110.750; -732.000; -734.000
320.866;  -78.500; -577.000; -635.000
321.002;  -77.175; -759.000; -809.000
321.138;  -23.975; -135.000; -211.000
321.274;   79.375; -148.000; -115.000
321.410;   -5.175; -585.000; -353.000
321.546;  -21.575;-1011.000; -911.000
321.683;   36.175;  400.000;  185.000
321.819;   11.975;  -48.000; -117.000
321.955;  -99.375; -743.000; -722.000
322.091;  -28.650; -585.000; -540.000
322.227;   -1.475; -382.000; -202.000
322.363;  -29.475; -320.000; -215.000
322.499;  -49.775; -343.000; -331.000
322.635;  152.500;  636.000;  443.000
322.771;   16.075; -139.000;   12.000
322.907;   78.475;  129.000;  327.000
323.043;  -26.775; -115.000; -206.000
323.179;  -30.025; -394.000; -363.000
323.315;   24.100; -401.000; -371.000
323.451;  109.225; -328.000; -236.000
323.587;   56.900;  -60.000;  -77.000
323.723;   25.775; -682.000; -601.000
323.859;  -16.550; -258.000;  -76.000
323.995;  -27.875; -467.000; -409.000
324.131; -114.100; -967.000; -892.000
324.267;  -53.900; -254.000; -276.000
324.402; -129.325; -960.000; -983.000
324.538;  -21.725; -279.000; -104.000
324.674;   16.775;  164.000;   77.000
324.810;  135.425;  226.000;  308.000
324.946;    7.675; -810.000; -658.000
325.082;  -84.650; -568.000; -475.000
325.217;  -19.075;  -62.000;   16.000
325.353;  -86.725; -764.000; -659.000
325.489;  -82.750; -540.000; -506.000
325.625;  -75.500; -579.000; -525.000
325.760;   55.075;  517.000;  376.000
325.896;  -32.775; -515.000; -702.000
326.032;  -61.100; -403.000; -352.000
326.168;  -73.625; -462.000; -369.000
326.303;  -62.950; -352.000; -461.000
326.439;  -29.325; -336.000; -276.000
326.575;   -7.800; -190.000;  -29.000
326.710;   -6.050; -156.000;  -30.000
326.846;  -16.450;  146.000;  103.000
326.982;  -89.850; -530.000; -548.000
327.117;  -76.250; -481.000; -442.000
327.253;  -86.975; -745.000; -742.000
327.388; -145.875;-1137.000;-1153.000
327.524;  -54.200; -811.000; -578.000
327.659;  -30.900;  -58.000;  -22.000
327.795;   -5.825;   69.000;   45.000
327.931;  -96.975; -723.000; -499.000
328.066;  -31.700; -417.000; -276.000
328.202;  -18.225;   12.000; -129.000
328.337;   96.275;  957.000;  713.000
328.473;   36.825;  -12.000;  -74.000
328.608;  -22.100; -256.000; -267.000
328.743;  -80.925; -799.000; -664.000
328.879;    9.900;  214.000;  114.000
329.014;  -42.175; -102.000; -122.000
329.150;  -86.025; -358.000; -483.000
329.285;  -83.550; -465.000; -466.000
329.421;  -50.150; -548.000; -246.000
329.556;  -32.200;  -36.000;   85.000
329.691;  -97.475; -633.000; -615.000
329.827;  -95.300; -626.000; -480.000
329.962;  -36.825;  131.000; -301.000
330.097;  -92.625; -673.000; -585.000
330.233;  -52.350; -410.000; -223.000
330.368; -142.100; -839.000; -628.000
330.503;   -6.825;    3.000;   98.000
330.638;    2.200;  -93.000; -125.000
330.774;  -54.125; -609.000; -530.000
330.909;  -56.950; -434.000; -244.000
331.044;  -92.275; -714.000; -708.000
331.179; -173.375;-1217.000;-1109.000
331.315;   -2.975;   77.000;   20.000
331.450;    0.100;  157.000;  285.000
331.585;  -82.100; -805.000; -706.000
331.720;  -93.475; -510.000; -460.000
331.855;   -8.050;  -35.000; -102.000
331.990;  232.200;   62.000;  138.000
332.126;  113.675; -110.000;   71.000
332.261;  -33.975; -379.000; -265.000
332.396;  -10.850; -135.000; -242.000
332.531; -102.700;-1074.000;-1031.000
332.666;   34.400; -519.000; -363.000
332.801; -110.125; -726.000; -807.000
332.936;  -12.850; -192.000; -122.000
333.071; -155.225; -870.000; -817.000
333.206;   14.425;  307.000;  379.000
333.341;   23.650;  344.000;  418.000
333.476;  -90.225; -627.000; -623.000
333.611;  -49.175; -251.000; -173.000
333.746;  -40.850; -381.000; -464.000
333.881; -114.200; -973.000; -935.000
334.016; -126.250; -936.000; -917.000
334.151; -117.325; -746.000; -702.000
334.286;   29.850;  152.000;  186.000
334.421;  -27.550; -125.000; -178.000
334.556;  -86.600; -611.000; -567.000
334.690;  -81.675; -631.000; -577.000
334.825;   49.425;  381.000;   83.000
334.960;  -45.675; -285.000; -413.000
335.095;    6.075;  135.000;  -91.000
335.230; -102.950; -722.000; -738.000
335.365; -122.325;-1084.000; -990.000
335.499; -121.800;-1108.000;-1037.000
335.634;   30.650;    9.000;  534.000
335.769;  -93.600; -755.000; -720.000
335.904;  -53.425; -603.000; -561.000
336.038;  -48.450; -735.000; -657.000
336.173; -113.425;-1206.000;-1194.000
336.308;    9.725; -116.000; -189.000
336.443;   11.925; -544.000; -634.000
336.577;  -65.375; -936.000; -787.000
336.712;   60.775;   -4.000;  -12.000
336.847;  -24.250; -724.000; -607.000
336.981;   77.650; -272.000; -208.000
337.116;  291.750;  615.000;  501.000
337.250;  163.575; -434.000; -421.000
337.385;  227.675; -297.000; -208.000
337.520;   78.500; -632.000; -603.000
337.654;  -60.700; -215.000; -126.000
337.789; -128.250; -989.000; -933.000
337.923;  -44.550; -104.000; -205.000
338.058;  -85.875; -673.000; -738.000
338.192;  -32.000; -611.000; -488.000
338.327;   -1.625;  -18.000; -155.000
338.461;  -63.100; -299.000; -469.000
338.596;  -94.325; -780.000; -638.000
338.730; -110.900; -767.000; -803.000
338.865;   79.650;  -46.000; -140.000
338.999;  -46.575; -846.000; -702.000
339.134;  -29.300; -634.000; -536.000
339.268;    4.925; -741.000; -603.000
339.403;  356.350; -740.000; -775.000
339.537;  102.025; -894.000; -820.000
339.671; -121.075; -829.000; -813.000
339.806;  -54.900; -556.000; -512.000
339.940;   13.200; -261.000; -235.000
340.074; -107.600; -685.000; -510.000
340.209;  -48.550; -351.000; -230.000
340.343;  -88.350; -517.000; -573.000
340.477;  152.175;  998.000; 1036.000
340.612;  -67.850;-1033.000; -900.000
340.746;  136.450; -199.000; -243.000
340.880;  -75.225; -924.000; -785.000
341.014;  -22.150;  -45.000; -154.000
341.149; -112.675; -756.000; -718.000
341.283; -105.250; -839.000; -754.000
341.417;  -93.450;-1124.000; -938.000
341.551;  144.850; -768.000; -708.000
341.685;  -30.600; -633.000; -611.000
341.820;  -55.425; -562.000; -493.000
341.954;  -44.175; -218.000; -349.000
342.088; -137.575;-1102.000;-1019.000
342.222;   37.150;  565.000;  618.000
342.356;  -71.100; -395.000; -335.000
342.490;  -98.750; -880.000; -841.000
342.624;  -36.475; -339.000; -242.000
342.758;   -0.625; -364.000; -312.000
342.892;  -62.850; -710.000; -585.000
343.026;  -31.100;  -58.000; -116.000
343.160;  -62.175; -426.000; -376.000
343.294;  -86.825; -474.000; -337.000
343.428;  -15.300; -488.000; -448.000
343.562;  -11.325; -172.000;  -23.000
343.696;  -31.325; -385.000; -314.000
343.830;  -21.775; -362.000; -356.000
343.964;   13.675; -231.000; -168.000
344.098;  969.550;  199.000;   70.000
344.232;  803.800; -266.000; -127.000
344.366;   92.075; -567.000; -453.000
344.500;   78.350; -665.000; -744.000
344.634;   36.275; -324.000; -164.000
344.768;  -12.800; -531.000; -341.000
344.902;   12.250;  278.000;  256.000
345.035;  -77.700; -556.000; -496.000
345.169; -134.700; -933.000; -656.000
345.303;  -28.950; -308.000; -482.000
345.437;  -77.650; -826.000; -717.000
345.571;  -73.100; -675.000; -594.000
345.704;  -69.100; -309.000; -532.000
345.838;  -22.325; -331.000; -284.000
345.972;  -49.500; -543.000; -495.000
346.106;  160.575; -179.000; -190.000
346.239;  418.000; -312.000; -243.000
346.373;   16.475; -343.000; -302.000
346.507; -156.825; -950.000; -962.000
346.640;  170.075;  -30.000;   13.000
346.774;  -32.950; -650.000; -797.000
346.908;  -10.825; -138.000;  -11.000
347.041; -102.600; -646.000; -593.000
347.175;    9.900;  259.000;   27.000
347.309;  -62.375; -698.000; -628.000
347.442;  -97.175; -883.000; -732.000
347.576;  284.700;  670.000;  668.000
347.709;  215.450; -123.000;  -52.000
347.843;  -87.125; -933.000; -825.000
347.976;   36.550;  235.000;  294.000
348.110; -179.225;-1268.000;-1186.000
348.243; -102.975; -679.000; -772.000
348.377;   -1.675;  -26.000;   60.000
348.510;   47.175;  403.000;  540.000
348.644;  -38.625;  -37.000; -159.000
348.777;    5.000;  180.000;  191.000
348.911;  -54.525; -142.000; -112.000
349.044;  174.050;  471.000;  448.000
349.178;  174.800;-1069.000;-1006.000
349.311;  126.350;  141.000;  255.000
349.444;  -29.625; -927.000; -813.000
349.578;  -19.750; -347.000; -200.000
349.711;  -97.650; -959.000; -862.000
349.845;    5.625; -661.000; -591.000
349.978; -153.600;-1224.000;-1137.000
350.111;  -77.175; -546.000; -612.000
350.244;  -70.625; -596.000; -700.000
350.378;    0.700; -392.000; -393.000
350.511;  -56.175; -393.000; -426.000
350.644; -111.800; -808.000; -806.000
350.778;   -8.325;  168.000;  104.000
350.911;  -10.675;  134.000;  140.000
351.044;  -91.600; -685.000; -615.000
351.177;  -14.025; -321.000; -281.000
351.310;  -23.750;    3.000; -131.000
351.444;  -65.725; -888.000; -788.000
351.577;   99.075;  140.000;   90.000
351.710;   97.400;  593.000;  417.000
351.843;  -31.975; -165.000;  -77.000
351.976;   -3.400;  149.000;  -79.000
352.109;  -89.225; -621.000; -612.000
352.242;  -24.400; -464.000; -419.000
352.376;  -58.300; -580.000; -636.000
352.509;  188.725; -437.000; -356.000
352.642;   36.675; -654.000; -604.000
352.775;   66.025; -141.000;  -98.000
352.908; -120.775; -933.000; -904.000
353.041;  -99.350; -814.000; -824.000
353.174;  -62.275; -551.000; -424.000
353.307;  -85.075; -753.000; -764.000
353.440;   61.875;  541.000;  453.000
353.573; -108.800; -957.000;-1008.000
353.706;  -67.750; -384.000; -558.000
353.839;  -11.875; -264.000; -220.000
353.971;  -84.925; -657.000; -512.000
354.104;  -77.125; -896.000; -835.000
354.237;  -36.600; -627.000; -662.000
354.370;  -69.100; -846.000; -879.000
354.503; -188.075;-1231.000;-1308.000
354.636;  -42.575; -529.000; -348.000
354.769; -118.425; -937.000; -860.000
354.902;  -13.300; -230.000; -139.000
355.034;  -26.150; -164.000; -220.000
355.167;  -18.250; -262.000; -162.000
355.300;  -87.125;-1061.000; -880.000
355.433;  970.375;  -71.000;  -14.000
355.565; 1504.950; -402.000; -384.000
355.698;  367.950; -356.000; -296.000
355.831;   -5.525; -882.000; -801.000
355.964;   90.750; -285.000; -170.000
356.096;  -76.475; -856.000; -843.000
356.229;    5.375; -523.000; -530.000
356.362;  309.350; -373.000; -266.000
356.494;  575.000; -229.000; -162.000
356.627;  501.850;  269.000;  377.000
356.760;  649.775;  120.000;   53.000
356.892;  948.300; -286.000; -601.000
357.025;  697.750;  403.000;  389.000
357.157;  631.400; -167.000; -179.000
357.290;  646.000; -856.000; -713.000
357.423;  188.425; -667.000; -556.000
357.555;  125.250; -217.000; -228.000
357.688;  132.150; -483.000; -364.000
357.820;  503.400; -870.000; -877.000
357.953; 3962.850; -563.000; -589.000
358.085;  885.850; -632.000; -612.000
358.218; 1227.750;-1131.000; -932.000
358.350;  204.500;  -58.000;  312.000
358.483; -119.725;-1300.000;-1187.000
358.615;  -20.400;-1182.000;-1078.000
358.747;  -40.625;-1187.000;-1058.000
358.880;   33.425; -810.000; -744.000
359.012;   -4.550; -376.000; -202.000
359.145;  -41.025; -480.000; -511.000
359.277;   76.425; -962.000; -913.000
359.409; 3282.700;  536.000;  231.000
359.542;  886.300; -738.000; -688.000
359.674;   68.800;   46.000;   13.000
359.806;  -69.975; -565.000; -438.000
359.939;  -35.725; -617.000; -516.000
360.071;  -15.550; -583.000; -579.000
360.203;  -20.875; -411.000; -364.000
360.335;   52.450;  164.000;  -16.000
360.468;  196.225; -249.000; -307.000
360.600; 2587.725; -547.000; -454.000
360.732; 2811.100; -546.000; -423.000
360.864;  391.625;-1216.000;-1044.000
360.996;  290.225; -516.000; -554.000
361.129;   39.375; -389.000; -598.000
361.261;   19.175;  110.000; -113.000
361.393;  -39.200; -252.000; -214.000
361.525;   21.125;   94.000;  244.000
361.657;  -47.200; -821.000; -703.000
361.789;   22.075; -139.000; -155.000
361.921;  237.275; -642.000; -593.000
362.053;  279.075;  524.000;  541.000
362.185;   41.575;  288.000;   72.000
362.318;  -76.575; -709.000; -705.000
362.450;  124.400;  294.000;  444.000
362.582;  126.400; -913.000; -870.000
362.714;  -34.700; -353.000; -332.000
362.846;  -90.450; -606.000; -490.000
362.978; -152.725; -941.000; -811.000
363.109;   58.975; -161.000; -260.000
363.241;  465.650; -739.000; -749.000
363.373;  421.450; -649.000; -564.000
363.505;  630.475; -186.000;  -91.000
363.637;  165.825; -787.000; -601.000
363.769; -123.375;-1067.000;-1080.000
363.901;  -65.375; -596.000; -654.000
364.033; -116.650;-1103.000;-1062.000
364.165;    0.475; -283.000; -283.000
364.296;   59.500; -316.000; -177.000
364.428;   66.725;-1344.000;-1220.000
364.560;  -68.150; -679.000; -661.000
364.692;  -56.300; -738.000; -835.000
364.824;  282.975; -588.000; -456.000
364.955;  438.000; -402.000; -564.000
365.087;  886.375;-1097.000; -852.000
365.219;   25.075; -686.000; -816.000
365.351;  -77.750; -526.000; -572.000
365.482;   45.450;  300.000;  240.000
365.614;  -38.500; -402.000; -314.000
365.746;  -97.125; -729.000; -752.000
365.877; -106.700; -706.000; -672.000
366.009;  237.700;  -35.000;  -62.000
366.141; -105.425;-1249.000;-1134.000
366.272; -110.000; -803.000; -719.000
366.404; -108.425;-1005.000; -874.000
366.535;  -13.500; -139.000;  -12.000
366.667; -104.000; -644.000; -649.000
366.799;   40.075;  353.000;  203.000
366.930; -114.600; -862.000; -996.000
367.062;  127.375; -639.000; -613.000
367.193;  142.050; -872.000; -842.000
367.325;  -53.700; -580.000; -684.000
367.456;   61.600; -246.000;   31.000
367.588;  177.925; -371.000; -318.000
367.719;   18.825;  -44.000;  -45.000
367.851;  -21.975; -222.000; -241.000
367.982;  -43.350; -875.000; -732.000
368.113;  115.025; -475.000; -358.000
368.245; -113.425; -960.000; -841.000
368.376;  -19.300; -254.000; -302.000
368.508;  -43.800; -188.000; -263.000
368.639; -131.600;-1166.000;-1034.000
368.770;   -4.675; -670.000; -589.000
368.902;  -55.075; -836.000; -926.000
369.033; -101.025; -906.000; -855.000
369.164;  -51.175; -720.000; -653.000
369.296; -111.100; -452.000; -601.000
369.427;   -7.250; -209.000; -144.000
369.558;  -38.375; -593.000; -377.000
369.689;  -88.875; -721.000; -569.000
369.821; -130.425; -951.000; -845.000
369.952;  -22.150;   42.000; -108.000
370.083;  -58.400; -229.000; -108.000
370.214;  -88.725; -735.000; -650.000
370.345;  -17.850;   65.000;   81.000
370.477;  -83.350; -810.000; -790.000
370.608;  246.900; -328.000; -264.000
370.739;  -36.200;-1233.000;-1292.000
370.870;  -32.200;-1102.000; -923.000
371.001;  104.425; -378.000; -467.000
371.132;  -75.475; -754.000; -735.000
371.263;  -17.125;  -42.000; -148.000
371.394; -142.450; -841.000; -748.000
371.525;   17.900;  345.000;  225.000
371.657;  -94.500; -808.000; -670.000
371.788;   70.650;  103.000;  199.000
371.919;  195.000; -384.000; -304.000
372.050; 3848.475;  -91.000; -156.000
372.181; 1195.650; -188.000; -294.000
372.311;  389.950;   42.000; -127.000
372.442;   38.325; -457.000; -451.000
372.573;  -15.350; -444.000; -340.000
372.704; -124.950;-1008.000; -980.000
372.835;   85.550; -228.000; -289.000
372.966;  -60.800; -646.000; -554.000
373.097;  -74.525; -575.000; -711.000
373.228;  -29.275; -717.000; -542.000
373.359;  151.775; -824.000; -536.000
373.490; 1000.800; -881.000; -727.000
373.620; 1282.525;-1001.000; -803.000
373.751; 1915.425; -332.000; -396.000
373.882;  891.100; -663.000; -733.000
374.013;   65.400; -449.000; -262.000
374.143;  -37.650; -581.000; -659.000
374.274;  -99.900; -987.000; -908.000
374.405;  194.800; -388.000; -276.000
374.536;  497.900; -526.000; -387.000
374.666; 1217.575; -759.000; -807.000
374.797;  249.375; -817.000; -868.000
374.928;  942.800; -710.000; -560.000
375.058;  974.775; -535.000; -500.000
375.189;   93.625;  -59.000;  -93.000
375.320; -113.425; -928.000;-1034.000
375.450;  -36.875; -625.000; -616.000
375.581;  -51.375; -526.000; -436.000
375.712;  -44.800; -574.000; -250.000
375.842;  323.825; -438.000; -415.000
375.973;  231.100; -554.000; -513.000
376.103;  -37.300; -665.000; -648.000
376.234;  -83.700; -531.000; -552.000
376.364;  -38.000; -944.000; -867.000
376.495;  340.925;  925.000;  529.000
376.625;  -13.975; -472.000; -485.000
376.756;   61.425; -709.000; -678.000
376.886;  -64.600;-1178.000;-1026.000
377.017;   43.100;-1048.000;-1061.000
377.147;  330.875; -786.000; -782.000
377.278;   52.525;  174.000;  228.000
377.408; -125.725; -801.000; -815.000
377.538; -109.900; -707.000; -693.000
377.669;  -85.100; -537.000; -613.000
377.799;  -77.975; -645.000; -635.000
377.929;  -63.475; -610.000; -428.000
378.060; -126.675; -781.000; -847.000
378.190;  -73.700; -726.000; -531.000
378.320;  -55.825; -401.000; -406.000
378.451;  -18.775; -131.000;  -22.000
378.581;   -9.250;  -67.000; -110.000
378.711;  161.225; 1035.000;  866.000
378.841;  -24.350; -533.000; -675.000
378.972;  -62.775; -871.000; -751.000
379.102;    6.950; -652.000; -579.000
379.232;   -7.925; -126.000;  -73.000
379.362; -114.100;-1001.000; -885.000
379.492;   10.650; -373.000; -424.000
379.623;  114.650;    0.000;  111.000
379.753; -104.600;-1107.000; -974.000
379.883;  198.350;   59.000;  156.000
380.013;    6.575;-1081.000;-1017.000
380.143;  -96.900;-1097.000;-1056.000
380.273; -112.850; -985.000; -861.000
380.403;    8.250; -344.000; -257.000
380.533;  -29.300; -651.000; -664.000
380.663;   63.475;  173.000;  128.000
380.793;  -90.200;-1027.000;-1074.000
380.923;  -30.800; -103.000;  -34.000
381.053;  -91.450; -613.000; -623.000
381.183;  -27.125; -106.000; -248.000
381.313;   39.675; -656.000; -470.000
381.443;   59.325; -692.000; -473.000
381.573;  204.375; -402.000; -409.000
381.703;  334.600;-1249.000;-1095.000
381.833; -111.700;-1454.000;-1336.000
381.963;  135.700; -134.000;  -87.000
382.093; 1495.250; -925.000; -909.000
382.223;  485.400; -713.000; -602.000
382.353;  -17.425; -801.000; -608.000
382.482;  414.250;-1091.000; -964.000
382.612;  840.975; -872.000; -644.000
382.742;  486.775; -695.000; -622.000
382.872;  279.800; -565.000; -551.000
383.002;   61.475;  347.000; -132.000
383.131;  -16.975; -226.000; -160.000
383.261;  -45.850; -706.000; -768.000
383.391;  282.325; -552.000; -377.000
383.521; 3114.250;  451.000;  263.000
383.650;  730.575; -947.000; -904.000
383.780;   -2.775; -783.000; -656.000
383.910;  110.550;  880.000;  802.000
384.039;   19.450; -794.000; -656.000
384.169;  206.350;-1205.000;-1017.000
384.299;  -24.050; -650.000; -662.000
384.428;  -91.225; -764.000; -680.000
384.558;  -47.350; -308.000; -275.000
384.687;  -55.450; -414.000; -334.000
384.817;   -3.950;   75.000;   -2.000
384.947;   12.875; -234.000; -141.000
385.076;  299.825;  982.000;  912.000
385.206;   97.100;  369.000;  480.000
385.335;  -32.975; -549.000; -417.000
385.465;  -88.250; -655.000; -663.000
385.594;  125.725;  -53.000;  -44.000
385.724;  463.025; -868.000; -838.000
385.853;  126.775; -296.000; -270.000
385.982; 1449.925; -743.000; -787.000
386.112; 2378.425;-1052.000; -871.000
386.241;  156.825; -307.000; -312.000
386.371;   31.900; -174.000;  -87.000
386.500;   -3.150; -825.000; -789.000
386.629;   29.075; -874.000; -817.000
386.759;   37.875;  -43.000;   68.000
386.888;    1.400; -170.000; -250.000
387.017;  -83.950; -648.000; -620.000
387.147;  -86.325; -771.000; -798.000
387.276;   -0.150; -410.000; -397.000
387.405;   16.475; -398.000; -342.000
387.535;  -42.725; -452.000; -361.000
387.664;  -67.550; -692.000; -620.000
387.793;   39.050; -198.000; -113.000
387.922;  538.250;  255.000;  200.000
388.052;   28.375; -576.000; -423.000
388.181;   19.575; -342.000; -472.000
388.310;  -11.600; -889.000; -710.000
388.439;  -38.850; -749.000; -742.000
388.568;  189.275;  365.000;  244.000
388.697; 1136.400; -756.000; -653.000
388.826;  226.975; -768.000; -666.000
388.956;   59.275; -285.000; -307.000
389.085;  -41.175; -347.000; -287.000
389.214; -113.450; -842.000; -872.000
389.343;  -69.900; -645.000; -413.000
389.472;  382.875;  126.000;  149.000
389.601;  515.850;   91.000;    0.000
389.730;   32.825; -568.000; -687.000
389.859;   57.050;  226.000;   46.000
389.988;  185.925; -423.000; -408.000
390.117;  135.275; -168.000; -146.000
390.246;  -10.000; -331.000; -320.000
390.375;  122.425; -673.000; -626.000
390.504;  -57.075; -703.000; -621.000
390.633;  -94.600; -672.000; -726.000
390.761;  -71.750; -732.000; -645.000
390.890;   22.150;   -4.000; -130.000
391.019;  -28.650; -421.000; -441.000
391.148; -130.925; -826.000; -855.000
391.277;  -66.100; -576.000; -493.000
391.406;  -79.025; -821.000; -805.000
391.534;   10.725;  574.000; -301.000
391.663;  -59.100; -583.000; -645.000
391.792;  -77.175; -673.000; -701.000
391.921;  100.800;   -3.000;   15.000
392.050;  203.400; -287.000; -228.000
392.178;  -40.100;-1206.000;-1061.000
392.307;  160.975; -758.000; -712.000
392.436;   84.775; -427.000; -641.000
392.564;   10.900;  166.000;   -6.000
392.693;  -88.950; -860.000; -682.000
392.822;  210.750; -529.000; -534.000
392.950;   98.575; -880.000; -714.000
393.079;  351.125; -188.000; -328.000
393.208;   29.125; -488.000; -511.000
393.336;  -14.825; -170.000; -145.000
393.465;  -55.725; -317.000; -199.000
393.593;  -20.900;   62.000;   79.000
393.722; -162.650;-1121.000; -916.000
393.850;  -28.025; -188.000;  -61.000
393.979; -161.950; -926.000; -805.000
394.107;  -61.525; -517.000; -537.000
394.236;  -25.900; -570.000; -507.000
394.364;  231.325;  383.000;  206.000
394.493;  373.175; -911.000; -767.000
394.621;  -18.875; -955.000; -916.000
394.750;  675.950; -873.000; -923.000
394.878; 2855.325; -247.000; -149.000
395.007; 3954.750; -721.000; -807.000
395.135;  310.000; -790.000; -721.000
395.263;  -75.600;-1038.000;-1040.000
395.392;   -8.525;  -25.000; -107.000
395.520; -137.300; -818.000; -679.000
395.648;  -80.950; -865.000; -915.000
395.777;  -20.950; -366.000; -405.000
395.905;  -42.500; -449.000; -564.000
396.033;    1.650;  217.000;  172.000
396.162;  597.275; -399.000; -453.000
396.290;  556.275;  -17.000;   -2.000
396.418;  119.750; -555.000; -514.000
396.546;  -76.550; -571.000; -466.000
396.674; -100.825; -850.000; -878.000
396.803;    4.025;  -72.000;  -23.000
396.931;  108.200; -179.000; -199.000
397.059;   66.700;-1026.000; -989.000
397.187; -124.850;-1026.000; -975.000
397.315; -130.775; -884.000; -649.000
397.443;  -94.950; -592.000; -443.000
397.572;  -90.300; -578.000; -424.000
397.700;    0.125; -607.000; -614.000
397.828;   13.100;  120.000;  -90.000
397.956;  -61.175; -508.000; -478.000
398.084;  -76.450; -767.000; -626.000
398.212;   34.600;  137.000;  124.000
398.340;    5.075;  -56.000;  159.000
398.468;   34.275; -390.000; -169.000
398.596; -133.800; -993.000; -953.000
398.724; -122.375; -762.000; -767.000
398.852; -174.825;-1024.000; -976.000
398.980;  -66.800; -560.000; -560.000
399.108;  -48.850; -982.000; -735.000
399.236;   42.825;   13.000;    8.000
399.363;    1.750;  222.000;  196.000
399.491;  -70.575; -404.000; -398.000
399.619; -134.800; -829.000; -800.000
399.747;  -93.775; -859.000; -771.000
399.875;   83.950;  220.000;  234.000
400.003;  -50.300; -359.000; -284.000
400.130; -104.900; -421.000; -341.000
400.258;  -19.975;  -83.000;   38.000
400.386;  -68.775; -352.000; -168.000
400.514;  -35.425; -526.000; -587.000
400.641;  -83.125; -928.000; -802.000
400.769; -136.700; -979.000; -888.000
400.897; -110.700; -838.000; -793.000
401.025;   -9.775; -166.000; -152.000
401.152;   -3.925;  220.000;   38.000
401.280;  -86.200; -430.000; -429.000
401.408; -116.225; -712.000; -576.000
401.535; -103.625; -735.000; -758.000
401.663; -183.675;-1134.000;-1054.000
401.790;  -80.325; -514.000; -525.000
401.918;   37.300;  436.000;  405.000
402.046;  -22.175;  134.000;  122.000
402.173;  -44.675;  -18.000;    7.000
402.301;  -85.450; -519.000; -397.000
402.428;   21.000;  528.000;  383.000
402.556; -136.600;-1188.000; -913.000
402.683;  -47.450;  -20.000;   -1.000
402.811;  -30.275;  -37.000; -206.000
402.938;  -11.150;   20.000;   27.000
403.066;  197.800; -574.000; -558.000
403.193;  366.550;  299.000;  239.000
403.321;  279.250; -396.000; -574.000
403.448;  339.375;   83.000;   27.000
403.575;  160.600;  -90.000;  -46.000
403.703;  -99.400; -732.000; -557.000
403.830;  -73.925; -531.000; -496.000
403.957; -146.100;-1117.000;-1023.000
404.085;   -5.825;  -61.000; -172.000
404.212;   74.325;  -50.000;   63.000
404.339;  262.775; -566.000; -306.000
404.467; 5662.900; -612.000; -524.000
404.594; 3900.375; -287.000; -227.000
404.721;  938.550; -869.000; -764.000
404.848;   71.325; -113.000; -202.000
404.976; -119.925; -856.000; -783.000
405.103;  -18.675;  -14.000;  -82.000
405.230;    3.950;  190.000;  226.000
405.357;   12.050;  117.000;   44.000
405.484;  252.375;  -49.000;    5.000
405.612;   53.700; -548.000; -563.000
405.739;  -65.775; -488.000; -243.000
405.866;   80.125;  669.000;  385.000
405.993;  -48.600; -398.000; -102.000
406.120; -127.425; -801.000; -887.000
406.247;  -52.700; -323.000; -342.000
406.374;  455.625;  540.000;  629.000
406.501;  122.875; -632.000; -702.000
406.628;  -70.825; -621.000; -589.000
406.755; -102.425; -803.000; -620.000
406.882;  -47.050; -228.000; -277.000
407.009; -111.625; -719.000; -628.000
407.136;   55.250; -480.000; -401.000
407.263;  148.000; -939.000; -829.000
407.390;  -74.225; -692.000; -614.000
407.517; -165.800;-1139.000;-1187.000
407.644;  -50.900; -332.000; -256.000
407.771; -139.825; -249.000; -287.000
407.898;    2.850;  168.000;  328.000
408.025;  -71.550; -421.000; -313.000
408.151;  -12.400;   82.000;  153.000
408.278;  -78.175; -267.000; -216.000
408.405; -131.675; -931.000; -899.000
408.532;  -71.400; -549.000; -542.000
408.659; -106.975; -677.000; -648.000
408.785; -213.575;-1298.000;-1170.000
408.912;  -80.675; -412.000; -296.000
409.039; -104.650; -610.000; -686.000
409.166; -118.450; -591.000; -555.000
409.292; -113.525; -571.000; -534.000
409.419; -119.700; -665.000; -649.000
409.546;  -86.375; -431.000; -192.000
409.672; -123.300; -713.000; -545.000
409.799;  -26.225;  -36.000;   34.000
409.926;  -42.000; -180.000; -179.000
410.052; -189.825;-1127.000;-1091.000
410.179;  -55.425; -368.000; -392.000
410.305;  -92.775; -375.000; -493.000
410.432;  -43.775; -220.000; -333.000
410.558;  -92.925; -305.000; -380.000
410.685; -120.825; -688.000; -431.000
410.812;  -93.375; -409.000; -588.000
410.938; -134.850; -964.000; -808.000
411.065; -100.400; -671.000; -645.000
411.191;  -27.600; -189.000; -174.000
411.317; -115.925; -823.000; -742.000
411.444;  -68.375; -317.000; -246.000
411.570;  -82.175; -339.000; -294.000
411.697; -136.550; -758.000; -752.000
411.823; -177.900; -989.000; -999.000
411.949;  -40.900;  -56.000;   17.000
412.076; -122.175; -539.000; -519.000
412.202; -120.325; -758.000; -757.000
412.329; -126.150; -798.000; -752.000
412.455; -117.500; -821.000; -657.000
412.581;  -26.100;  -15.000;  172.000
412.707;  -71.600; -540.000; -457.000
412.834;   11.500;  156.000;  219.000
412.960;  -86.975; -785.000; -784.000
413.086; -111.250; -743.000; -701.000
413.212;  153.225;  604.000;  578.000
413.339;  -66.725; -685.000; -701.000
413.465;    7.775; -364.000; -310.000
413.591;  -88.975; -757.000; -474.000
413.717;  -66.550; -358.000; -366.000
413.843; -156.300; -839.000; -861.000
413.969;  -63.800;  -47.000; -292.000
414.096; -110.800; -679.000; -679.000
414.222;   -3.250;  -33.000;   85.000
414.348;  -26.150; -652.000; -385.000
414.474;   97.650;   38.000;  -52.000
414.600;  -32.300; -126.000; -144.000
414.726;  -18.350;  -96.000;  -55.000
414.852;  -64.000; -365.000; -342.000
414.978;   28.800;  104.000;  -18.000
415.104;   47.475;   38.000;   80.000
415.230;   28.000; -329.000; -330.000
415.356;   35.950; -409.000; -514.000
415.482;  216.475;   13.000;  -35.000
415.608;  267.525; -247.000; -323.000
415.734;  937.100;   67.000;   38.000
415.860;19461.425; -875.000; -767.000
415.986;14716.100; -685.000; -607.000
416.111; 1274.075; -798.000; -652.000
416.237;  252.400; -424.000; -571.000
416.363; 1080.825; -765.000; -733.000
416.489; 4145.700; -324.000; -251.000
416.615;  457.250; -707.000; -742.000
416.741;  -34.000; -677.000; -784.000
416.866; -102.775; -673.000; -736.000
416.992; -127.325; -801.000; -818.000
417.118;  -38.725;  -41.000;  -80.000
417.244;  -64.675; -798.000; -531.000
417.369;  -85.025; -801.000; -612.000
417.495;   -1.125; -325.000; -254.000
417.621;  -82.025;-1015.000; -803.000
417.746;  -10.225; -579.000; -572.000
417.872;   53.600; -254.000; -144.000
417.998;   53.725; -515.000; -530.000
418.123;  989.525;-1073.000; -845.000
418.249; 5329.425; -512.000; -601.000
418.374;  772.900; -916.000; -824.000
418.500;  127.125; -383.000; -482.000
418.626;  112.125;   70.000;  -59.000
418.751;  122.850; -549.000; -448.000
418.877;  194.150; -637.000; -643.000
419.002; 1704.350; -688.000; -560.000
419.128;12355.900; -930.000; -721.000
419.253; 3136.550; -967.000; -837.000
419.379;  399.225; -391.000; -338.000
419.504;  381.800;  325.000;  415.000
419.629;  482.850; -393.000; -212.000
419.755; 3381.600; -317.000; -254.000
419.880;20698.950;  -98.000;   67.000
420.006;11146.925; -280.000; -221.000
420.131;29240.475; -662.000; -775.000
420.256; 4363.025; -315.000; -316.000
420.382;  561.875; -665.000; -687.000
420.507;   72.375; -649.000; -778.000
420.632;  149.250; -337.000; -339.000
420.758;  277.375; -251.000; -425.000
420.883;  -73.225; -876.000; -672.000
421.008; -106.950; -775.000; -619.000
421.133;  -95.300; -509.000; -467.000
421.259;  -52.925; -325.000; -259.000
421.384; -128.675; -834.000; -693.000
421.509;  -38.725;-1052.000; -862.000
421.634; 1241.750; -936.000; -820.000
421.759;  584.250; -359.000; -327.000
421.885;  -50.825; -717.000; -656.000
422.010;  -72.775; -673.000; -542.000
422.135; -157.700; -695.000; -727.000
422.260;   38.575;  340.000;  280.000
422.385;  -51.125;   12.000;  -98.000
422.510;   -1.600;  151.000;  -26.000
422.635;    5.825;  -87.000;  -43.000
422.760;  109.450; -766.000; -791.000
422.885;   50.600;  -57.000;  -80.000
423.010;  -44.500; -112.000; -169.000
423.135; -102.525; -481.000; -561.000
423.260;  -26.475; -150.000; -245.000
423.385;   45.850;  476.000;  222.000
423.510;   26.575;   71.000;  -22.000
423.635;   78.175;  133.000;   45.000
423.760;   49.975;  383.000;  328.000
423.885;   47.100;  336.000;  391.000
424.010;    8.825;  -68.000;  -13.000
424.135;  -27.600;    5.000;  -33.000
424.259;  -91.650; -654.000; -457.000
424.384;  -73.150; -279.000; -272.000
424.509;  -28.800; -260.000; -186.000
424.634; -104.075; -761.000; -623.000
424.759;  -22.900; -688.000; -544.000
424.883;  -26.975; -506.000; -527.000
425.008;  155.225; -502.000; -410.000
425.133; 1926.425; -679.000; -653.000
425.258;  942.925; -517.000; -381.000
425.382; 1065.425; -867.000; -774.000
425.507; 2868.000; -487.000; -543.000
425.632;  449.725; -802.000; -663.000
425.756;  463.250; -256.000; -146.000
425.881; 6209.300; -831.000; -857.000
426.006;17434.800; -604.000; -355.000
426.130; 2864.725; -696.000; -508.000
426.255;  374.975; -611.000; -491.000
426.379;  159.075; -189.000; -577.000
426.504;  373.150;  660.000;  544.000
426.629; 3919.200; -519.000; -466.000
426.753; 2817.175;   64.000;  -46.000
426.878;  330.400; -252.000; -288.000
427.002;  146.925; -651.000; -668.000
427.127; 1542.400;  -35.000; -158.000
427.251;11214.875;  372.000;  401.000
427.375; 3368.950; -191.000; -173.000
427.500; 2446.525; -616.000; -610.000
427.624;  854.500; -234.000; -400.000
427.749;  110.475; -216.000; -225.000
427.873;  -46.900; -499.000; -412.000
427.997;  -44.175; -222.000; -230.000
428.122;   78.075;  795.000;  703.000
428.246;   61.150;  433.000;  434.000
428.371; -123.525; -869.000; -773.000
428.495; -103.950; -624.000; -646.000
428.619;  -30.775; -186.000; -117.000
428.743;   11.600;   65.000;  132.000
428.868;   21.350; -732.000; -643.000
428.992; 1514.300; -219.000; -326.000
429.116;  635.450; -329.000; -357.000
429.240;  282.900;  419.000;  426.000
429.365;  -25.100; -454.000; -574.000
429.489;  -39.625; -638.000; -647.000
429.613;   19.725; -236.000; -177.000
429.737;   38.550; -563.000; -432.000
429.861;  252.450; -247.000; -133.000
429.985; 5378.250; -425.000; -305.000
430.109; 6105.650; -770.000; -908.000
430.234;  721.950;   76.000;  -50.000
430.358;   64.050; -250.000; -160.000
430.482;  -70.500; -672.000; -564.000
430.606;  -69.250; -655.000; -375.000
430.730;   21.900; -437.000; -388.000
430.854;  130.375; -909.000; -835.000
430.978;  -71.875; -795.000; -764.000
431.102;  -92.475; -499.000; -422.000
431.226; -130.950; -874.000; -815.000
431.350;   21.000;  345.000;  422.000
431.474;  -66.550; -661.000; -373.000
431.597; -149.575;-1060.000; -848.000
431.721;  -81.250; -276.000; -267.000
431.845; -142.775; -704.000; -472.000
431.969;  -79.825; -304.000; -349.000
432.093;  -98.475; -395.000; -317.000
432.217;  -22.200;   32.000;   82.000
432.341; -108.500; -523.000; -518.000
432.464;    5.525;   96.000;   40.000
432.588;  213.200; -401.000; -329.000
432.712;  114.050;  -52.000;  -52.000
432.836;   40.075;  213.000;  263.000
432.959;  -18.625; -372.000; -311.000
433.083;   69.075;   11.000;    2.000
433.207;  363.375;  285.000;  930.000
433.330; 4885.675; -391.000; -200.000
433.454; 6248.425; -654.000; -638.000
433.578; 3545.600;  583.000;  278.000
433.701;  683.550; -623.000; -675.000
433.825;  165.000; -292.000; -299.000
433.949;  175.950;   28.000;  -72.000
434.072;   58.700; -410.000; -323.000
434.196;   -3.150; -309.000; -117.000
434.319; 3687.400;25482.000;25124.000
434.443;  725.175; -656.000; -603.000
434.566; 2620.150;  281.000;   62.000
434.690;  483.025; -637.000; -383.000
434.813;   44.400; -251.000; -173.000
434.937;  -80.900; -569.000; -696.000
435.060;  -43.600; -423.000; -332.000
435.184;  320.125; -492.000; -217.000
435.307;  183.475;  159.000;  102.000
435.431;  -13.675;  -40.000;   24.000
435.554;  -83.125; -399.000; -240.000
435.677;  -93.450; -350.000; -258.000
435.801;  -53.450;  -25.000;   49.000
435.924;   -1.875;    1.000;  -67.000
436.048; -114.525;-1019.000; -732.000
436.171;  -65.375; -240.000;  -66.000
436.294;  -36.900; -248.000; -229.000
436.417;   79.650; -963.000; -849.000
436.541;  -72.750; -814.000; -840.000
436.664;  -48.775; -242.000; -316.000
436.787;  -28.875;   13.000;  113.000
436.910; -100.775; -792.000; -422.000
437.034;    7.975;  142.000;  143.000
437.157;   45.300;  -11.000;    0.000
437.280;  -46.975; -392.000; -292.000
437.403;  -84.450; -982.000; -869.000
437.526;  647.200; -903.000; -865.000
437.649; 2489.025; -505.000; -332.000
437.772;  406.150; -692.000; -540.000
437.896;  137.300;  700.000;  544.000
438.019; -107.200; -758.000; -503.000
438.142;  -79.600; -596.000; -506.000
438.265;  -13.825; -639.000; -670.000
438.388;  623.650; -520.000; -410.000
438.511;  111.650; -597.000; -394.000
438.634;  -50.675; -247.000; -125.000
438.757; -141.250; -693.000; -619.000
438.880;  -39.100;  -34.000;  -57.000
439.003;  -79.700; -417.000; -437.000
439.126;  -76.000; -287.000; -167.000
439.248;  -80.100;  -98.000; -139.000
439.371;  -49.100;    9.000;  -53.000
439.494;   18.250;  510.000;  439.000
439.617;  -55.800;   65.000;  -88.000
439.740; -185.525; -968.000; -816.000
439.863; -137.300; -755.000; -595.000
439.986; -121.875; -476.000; -431.000
440.108;  -54.250; -161.000; -112.000
440.231; -168.775; -950.000; -836.000
440.354;  -45.825;  -64.000; -150.000
440.477;   46.125; -566.000; -542.000
440.599;   13.975; -200.000; -225.000
440.722; -123.100; -709.000; -586.000
440.845;   50.875;  751.000;  928.000
440.968; -130.150; -415.000; -311.000
441.090;  -67.375; -199.000;  -33.000
441.213; -160.725;-1021.000; -825.000
441.336;  -62.525; -159.000;   -5.000
441.458;  -81.175; -549.000; -396.000
441.581;  -76.475; -628.000; -629.000
441.703;  -77.700; -152.000;   13.000
441.826; -120.325; -557.000; -400.000
441.948;  -58.675;   56.000;   51.000
442.071;   22.525;  555.000;  424.000
442.193; -110.725; -531.000; -485.000
442.316;   18.275;  152.000;   97.000
442.438;   37.000; -233.000;  -10.000
442.561;   72.475;  272.000;  262.000
442.683;  558.250; -809.000; -522.000
442.806; 1285.000;   -8.000;   74.000
442.928;   48.900; -859.000; -604.000
443.051;  -63.225; -577.000; -373.000
443.173;  -93.200; -341.000; -339.000
443.295;  -85.475; -263.000; -371.000
443.418;  -85.750; -321.000;  -29.000
443.540;    0.175; -106.000;   -4.000
443.662; -118.300; -563.000; -465.000
443.785;   -8.000;  335.000;  199.000
443.907; -102.775; -362.000; -208.000
444.029; -135.900; -767.000; -494.000
444.152; -150.325; -644.000; -554.000
444.274;  -35.475;  -18.000;  -24.000
444.396; -113.600; -461.000; -221.000
444.518; -138.825; -691.000; -454.000
444.640; -118.525; -268.000; -111.000
444.763;  -28.050;  388.000;  249.000
444.885; -131.075; -432.000; -392.000
445.007;  -53.425;   35.000;   86.000
445.129; -117.550; -610.000; -515.000
445.251;  -97.725; -372.000; -439.000
445.373; -140.950; -537.000; -386.000
445.495;   -5.825;  242.000;  350.000
445.617;   42.150;  853.000;  753.000
445.739;  -69.400; -215.000;  -97.000
445.861;  -45.075; -245.000; -112.000
445.984;  -34.200; -267.000; -101.000
446.105;  207.550; -418.000; -251.000
446.227;  678.900; -176.000;  -19.000
446.349;   22.250; -358.000; -249.000
446.471;  -96.725; -615.000; -448.000
446.593;  -60.075; -316.000;   19.000
446.715;  -11.875;  -67.000;   41.000
446.837;   56.400;  697.000;  832.000
446.959; -101.375; -457.000; -478.000
447.081; -141.025; -628.000; -518.000
447.203;   55.075;  862.000;  834.000
447.325;  -95.125; -270.000;   42.000
447.446;   -2.575;  286.000;  530.000
447.568; -169.525; -921.000; -803.000
447.690;  -82.775; -236.000; -245.000
447.812; -157.375; -798.000; -519.000
447.933;  -40.825;  155.000;  127.000
448.055;  -72.750; -306.000; -261.000
448.177;  143.200;   31.000;   79.000
448.299;  106.450; -935.000; -727.000
448.420;   32.225;  -25.000;  159.000
448.542;  -51.975;   -3.000;   33.000
448.664;  -28.825;  109.000;  322.000
448.785;  -50.025;  265.000;   83.000
448.907;  -73.750; -614.000; -353.000
449.028;  -30.025; -771.000; -471.000
449.150;   66.350;  492.000;  589.000
449.272; -178.250;-1044.000; -913.000
449.393;   14.900;  612.000;  694.000
449.515; -152.850; -634.000; -581.000
449.636;  -66.575; -264.000; -155.000
449.758;   62.975;  763.000;  622.000
449.879;  -94.050; -498.000; -396.000
450.001;  -97.925; -149.000;  -49.000
450.122;  -51.525;  -95.000;  162.000
450.244;  -34.675;   37.000;  364.000
450.365;  -97.575; -495.000; -301.000
450.486;  -42.975;   80.000;  268.000
450.608;   22.825;  393.000;  326.000
450.729;   50.350;  578.000;  645.000
450.850;   -7.250; -574.000; -466.000
450.972;  704.450; -552.000; -389.000
451.093; 4824.450;  190.000;  588.000
451.214; 2182.450; -516.000; -337.000
451.336;  387.200;  773.000;  579.000
451.457;   47.725;  264.000;  393.000
451.578;  -31.600; -118.000;  -74.000
451.699; -126.075; -546.000; -540.000
451.821;  -77.850; -284.000;  -50.000
451.942;  -22.125;  278.000;  285.000
452.063;   24.700;  228.000;  419.000
452.184;  506.525;  -54.000;  -49.000
452.305; 1090.550;  103.000;  170.000
452.427;  134.850; -549.000; -301.000
452.548;  -27.375;   23.000;   79.000
452.669;  -49.775; -257.000;  -89.000
452.790;  -44.525;    3.000;  -18.000
452.911;   -2.300;  195.000;  259.000
453.032;  -56.525; -289.000;  -60.000
453.153;  -55.625;  -29.000;   81.000
453.274;   47.925;  737.000;  868.000
453.395;  -43.300;  -51.000;  175.000
453.516;  132.450; 1317.000; 1388.000
453.637;  -61.200; -205.000; -150.000
453.758;  -55.875;   15.000;   69.000
453.879; -130.375; -462.000; -250.000
454.000;   66.025; 1086.000;  948.000
454.121; -114.350; -554.000; -326.000
454.242; -117.475; -599.000; -383.000
454.362;  -51.250;  -99.000;  114.000
454.483;  -37.500; -309.000; -229.000
454.604;   48.050;  512.000;  580.000
454.725; -121.400; -627.000; -555.000
454.846; -127.750; -474.000; -406.000
454.967;  -30.300;  230.000;  539.000
455.087;  -60.825;  179.000;  153.000
455.208;   17.075;  554.000;  856.000
455.329;  -83.600;  -22.000;   82.000
455.450;   36.400;  473.000;  633.000
455.570;  -82.300; -234.000; -211.000
455.691;  -47.525;  201.000;  407.000
455.812; -107.875; -270.000;  -92.000
455.932;  -60.150;  107.000;  -97.000
456.053;  -78.100;   36.000;   24.000
456.173; -117.650; -433.000; -355.000
456.294; -132.750; -476.000; -303.000
456.415;  -63.600;  -73.000;   70.000
456.535;  -40.300;  297.000;  273.000
456.656;  -51.950;  132.000;  240.000
456.776;  -85.850;    3.000;  298.000
456.897;   -8.925;  308.000;  513.000
457.017;  -71.900; -153.000;   -3.000
457.138; -111.025; -402.000; -249.000
457.258;  -33.900;  263.000;  224.000
457.379;  -30.275;  509.000;  521.000
457.499;  -41.275;  443.000;  432.000
457.620; -126.025; -407.000; -231.000
457.740; -102.650; -132.000;  -11.000
457.860;  -73.050;   87.000;   44.000
457.981;  -50.625;  132.000;  124.000
458.101;  -65.550;  -89.000;   40.000
458.221;  -21.600;  336.000;  402.000
458.342;  -68.700;   -4.000;  -37.000
458.462;   24.450;  617.000;  352.000
458.582;  -41.125; -302.000; -294.000
458.703;    1.100;  303.000;  154.000
458.823;  -34.150;   22.000;  163.000
458.943;   17.775;  341.000;  467.000
459.063;   -7.925; 1124.000;  192.000
459.183;  -19.275;  328.000;  313.000
459.304;    6.375;  315.000;  517.000
459.424;  -55.375; -246.000;  -89.000
459.544;  308.650;  388.000;  764.000
459.664;  805.025;  499.000;  506.000
459.784;  322.000; 1004.000; 1175.000
459.904;   55.750;  867.000;  744.000
460.024;   57.550;  867.000;  684.000
460.144;    9.775;  449.000;  554.000
460.264;  -14.550;  515.000;  327.000
460.385;  -83.250; -145.000; -119.000
460.505;   38.050;  905.000;  858.000
460.625; -103.675;  -17.000;  -68.000
460.745;  -22.875;  396.000;  541.000
460.864;  -55.575;  153.000;  469.000
460.984;    7.300;  499.000;  573.000
461.104;  121.475; 1656.000; 1775.000
461.224;   19.000;  657.000;  650.000
461.344;  -38.675;  431.000;  360.000
461.464;  -41.075;  258.000;  513.000
461.584;  -15.025;  283.000;  466.000
461.704;  -44.050;   58.000;  108.000
461.824;  -67.650;  238.000;  259.000
461.943;  -43.075;  191.000;  130.000
462.063;  -82.575;    2.000;  324.000
462.183;   34.550;  639.000;  717.000
462.303;   95.625; 1678.000; 1230.000
462.422;   33.400;  781.000;  840.000
462.542;  -49.675;  271.000;  391.000
462.662;   37.350;  353.000;  380.000
462.782;  228.850;  833.000;  572.000
462.901;  487.375;  545.000;  717.000
463.021;  284.025; 1702.000; 1638.000
463.141;   -9.350;  337.000;  770.000
463.260;  -12.750;  614.000;  474.000
463.380;   21.000;  902.000;  884.000
463.499;  -48.650;  342.000;  332.000
463.619;  -35.800;  581.000;  559.000
463.738;  102.625; 1644.000;  903.000
463.858;   -6.050;  657.000;  811.000
463.978;  -31.450;  542.000;  396.000
464.097;   44.325;  921.000; 1114.000
464.217;  117.750; 1196.000; 1143.000
464.336;  119.500; 1068.000; 1130.000
464.455;  -35.200;  328.000;  659.000
464.575;   20.675;  597.000;  602.000
464.694;  156.700; 1204.000; 1179.000
464.814;  139.125; 1190.000; 1138.000
464.933;   71.075; 1095.000; 1027.000
465.052;   99.800; 1412.000; 1054.000
465.172;   77.800;  922.000;  799.000
465.291;  133.750; 1376.000; 1320.000
465.410;   20.625;  462.000;  735.000
465.530;   80.825; 1355.000; 1310.000
465.649;   61.050; 1209.000; 1273.000
465.768;  149.425; 1673.000; 1508.000
465.888;   51.950;  941.000; 1174.000
466.007;   91.300; 1335.000; 1440.000
466.126;  -12.425;  721.000;  641.000
466.245;   38.875; 1176.000; 1187.000
466.364;   -0.350;  950.000; 1060.000
466.484;   57.125; 1024.000; 1213.000
466.603;   25.075; 1101.000; 1222.000
466.722;  115.075; 1490.000; 1769.000
466.841;   70.075; 1151.000; 1401.000
466.960;   44.225; 1069.000;  972.000
467.079;  114.600; 1971.000; 1786.000
467.198;   47.500; 1238.000; 1181.000
467.317;   83.725; 1768.000; 1162.000
467.436;   61.700; 1709.000; 1261.000
467.555;  118.725; 1796.000; 1746.000
467.674;   65.875; 1227.000; 1329.000
467.793;   27.900; 1376.000; 1374.000
467.912;   76.850; 1658.000; 1539.000
468.031;  147.900; 2038.000; 1930.000
468.150;  150.300; 1842.000; 1837.000
468.269;  196.175; 2313.000; 2090.000
468.388;  198.075; 2168.000; 2339.000
468.507;  252.500; 2884.000; 2903.000
468.626;  264.725; 2555.000; 2541.000
468.744;  136.675; 2018.000; 2174.000
468.863;  205.750; 2312.000; 2523.000
468.982;   98.625; 1503.000; 1555.000
469.101;  228.675; 2788.000; 2692.000
469.220;  147.875; 2333.000; 2176.000
469.338;  255.800; 2935.000; 3051.000
469.457;  206.375; 2719.000; 2545.000
469.576;  352.675; 3953.000; 3784.000
469.695;  255.900; 2877.000; 3066.000
469.813;  418.400; 4148.000; 4192.000
469.932;  398.025; 4255.000; 4485.000
470.051;  421.125; 4075.000; 4161.000
470.169;  825.350; 4470.000; 4338.000
470.288; 1465.025; 4700.000; 4809.000
470.406;  885.825; 5059.000; 5194.000
470.525;  642.250; 6101.000; 5787.000
470.644;  645.400; 6847.000; 6794.000
470.762;  805.375; 8397.000; 7873.000
470.881;  883.400; 8651.000; 8464.000
470.999; 1016.900; 9685.000; 9151.000
471.118; 1089.875;11174.000;10711.000

