
Integration time [ms]: 100.000
Averaging Nr. [scans]: 40
Smoothing Nr. [pixels]: 0
Data measured with spectrometer [name]: 2101012U2
Wave   ;Sample   ;Dark     ;Reference
[nm]   ;[counts] ;[counts] ;[counts] 

197.733;   53.150;  516.000;  404.000
197.879;  -87.275; -610.000; -634.000
198.025;  -51.950; -475.000; -420.000
198.171;  -92.325; -602.000; -612.000
198.317;  -30.275; -401.000; -316.000
198.463;  -53.500; -655.000; -404.000
198.609;   20.050;  181.000; -137.000
198.755;  -86.450; -644.000; -410.000
198.901;  -58.275; -505.000; -424.000
199.047;  -68.500; -615.000; -488.000
199.193;  -42.275; -230.000; -468.000
199.339;  -54.400; -222.000; -369.000
199.485;   28.350;  330.000;  271.000
199.631;   -0.900;  227.000;  310.000
199.777;  -43.075; -466.000; -398.000
199.923;  -74.225; -610.000; -424.000
200.069;    3.175; -141.000;  -58.000
200.215;   60.100;  128.000;  453.000
200.361;   37.850;  243.000;  477.000
200.507;  -65.550; -600.000; -373.000
200.653;  -32.925; -371.000; -194.000
200.798;  -35.975; -215.000; -125.000
200.944;   -5.125; -146.000;  -41.000
201.090;   22.775;   61.000;  222.000
201.236;   -9.875; -116.000; -158.000
201.382;  109.000;  874.000;  903.000
201.528;   -4.550;  -58.000;  -48.000
201.674;  -50.225; -386.000; -293.000
201.819;  -59.125; -540.000; -439.000
201.965;  -79.550; -699.000; -447.000
202.111;  -23.775; -273.000; -226.000
202.257;  -35.025; -250.000; -238.000
202.402;   -7.825;   13.000;  -36.000
202.548;  -32.800; -169.000; -116.000
202.694;   78.050;  410.000; -183.000
202.840;  -81.600; -603.000; -531.000
202.985;  -75.675; -681.000; -639.000
203.131; -120.100; -832.000; -666.000
203.277;  -18.875; -199.000; -262.000
203.423;  -45.200; -434.000; -520.000
203.568;  -34.475; -462.000; -237.000
203.714;  -58.700; -535.000; -542.000
203.860;  -81.525; -682.000; -641.000
204.005;   19.200;  112.000;  167.000
204.151;   77.075;  561.000;  556.000
204.296;  -53.625; -354.000; -221.000
204.442;  -77.450; -600.000; -547.000
204.588;  -76.900; -592.000; -579.000
204.733;   17.075;  178.000;  168.000
204.879; -124.775;-1018.000; -822.000
205.025;    6.675;  -99.000;  126.000
205.170;  -11.425;  -17.000;   94.000
205.316;   75.950;  438.000;  661.000
205.461;  -83.275; -698.000; -554.000
205.607;   88.375;  609.000;  665.000
205.752;  -80.000; -626.000; -551.000
205.898;  -49.475; -501.000; -391.000
206.043;  -73.050; -578.000; -506.000
206.189;  -27.775; -243.000; -285.000
206.334;   56.875;  554.000;  606.000
206.480;   86.875;  409.000;  239.000
206.625;  -90.600; -529.000; -552.000
206.771;  -22.675; -451.000; -373.000
206.916;  -43.500; -210.000; -537.000
207.062;  -57.975; -545.000; -591.000
207.207;  -58.350; -546.000; -443.000
207.353;   53.875;  185.000;  460.000
207.498;   -9.475;  196.000;   85.000
207.643;  -46.500; -501.000; -370.000
207.789; -130.750;-1069.000; -910.000
207.934;  -97.200; -665.000; -713.000
208.080;  -41.100; -154.000;   66.000
208.225;  -12.475;  -22.000;  -57.000
208.370;  -71.075; -727.000; -619.000
208.516;  -71.275; -741.000; -487.000
208.661;  -30.425; -127.000;  -69.000
208.806;  -17.450; -165.000; -171.000
208.952; -124.325;-1044.000; -731.000
209.097;   60.550;  378.000;  349.000
209.242;  -61.450; -307.000; -382.000
209.387;   80.725;  392.000;  350.000
209.533;  -55.925; -321.000; -350.000
209.678;   73.725;  472.000;  543.000
209.823;  -61.200; -408.000; -310.000
209.969;  -98.650; -860.000; -757.000
210.114; -115.150; -907.000; -719.000
210.259; -111.425; -939.000; -889.000
210.404;   -6.100; -171.000;  103.000
210.549;    5.175;  108.000;    3.000
210.695;  -26.925;   -3.000;  -95.000
210.840;   23.300;   94.000;   67.000
210.985;  -59.050; -484.000; -303.000
211.130;   55.725;  268.000;  406.000
211.275;    6.875;  207.000;  199.000
211.420;  -45.425; -300.000; -289.000
211.566;  -81.850; -536.000; -489.000
211.711;   17.975;  218.000;  157.000
211.856;  -77.825; -545.000; -519.000
212.001;  -16.225;  151.000;   44.000
212.146;   22.475;  153.000;   49.000
212.291;  -17.925; -210.000; -186.000
212.436;  -30.225; -280.000;   -6.000
212.581;  -79.300; -685.000; -653.000
212.726;  -84.600; -487.000; -538.000
212.871;  -47.575; -552.000; -217.000
213.016; -148.950;-1172.000;-1029.000
213.161;   49.125;  406.000;  291.000
213.306;  -79.400; -435.000; -577.000
213.451;  -88.275; -778.000; -689.000
213.596;  -51.125; -455.000; -347.000
213.741;  -54.025; -448.000; -538.000
213.886;  -76.675; -498.000; -517.000
214.031;  -16.050; -294.000; -124.000
214.176;  -60.300; -408.000; -341.000
214.321;  -16.800; -296.000; -157.000
214.466;  -30.500; -163.000;  -43.000
214.611;   -2.925;  -61.000;  -10.000
214.756; -116.800; -948.000; -858.000
214.901;  -32.750; -388.000; -226.000
215.046; -117.775; -797.000; -825.000
215.191;   18.525;  128.000;   35.000
215.336;  -25.275; -157.000;  -19.000
215.480;  -61.600; -684.000; -505.000
215.625;  -18.975; -175.000;  -19.000
215.770;  -88.825; -757.000; -662.000
215.915;  -15.650;   -5.000;  -97.000
216.060;   -2.800; -113.000;  -21.000
216.205; -111.875; -731.000; -779.000
216.349;  -68.475; -470.000; -533.000
216.494; -121.800; -939.000; -867.000
216.639; -120.425; -823.000; -888.000
216.784;  -94.625; -577.000; -525.000
216.929;   41.775;  392.000;  281.000
217.073;  -32.175; -244.000;  -31.000
217.218;   10.775;   78.000;  -47.000
217.363;  -83.500; -656.000; -618.000
217.507;  -64.525; -623.000; -588.000
217.652; -123.475; -845.000; -874.000
217.797;  -84.925; -708.000; -659.000
217.942; -106.225; -856.000; -720.000
218.086;   65.550;  608.000;  539.000
218.231;  -38.625; -174.000;  -26.000
218.376;  -39.225; -337.000; -229.000
218.520;    1.500;  -41.000;   96.000
218.665;  -34.825; -338.000; -204.000
218.810;  -42.325; -275.000; -233.000
218.954;   16.500;  201.000;   35.000
219.099; -117.325; -713.000; -963.000
219.243;  -65.975; -589.000; -554.000
219.388;  -39.975; -264.000; -136.000
219.532;    4.725; -116.000; -116.000
219.677;  -84.175; -564.000; -521.000
219.822;  -11.850;   33.000;   89.000
219.966;  -10.975;   17.000;  -99.000
220.111;  -27.125; -328.000;  -40.000
220.255; -102.125; -797.000; -750.000
220.400;  -13.250; -180.000; -146.000
220.544;  -75.350; -516.000; -450.000
220.689;  -50.050; -422.000; -451.000
220.833;  -40.025; -123.000;  -58.000
220.978;  -40.525; -393.000; -563.000
221.122;   11.075;  319.000;  307.000
221.267; -116.225; -906.000; -837.000
221.411;  -67.825; -478.000; -394.000
221.555;    0.750; -104.000;  -23.000
221.700;  -60.825; -329.000; -222.000
221.844;   43.350;  255.000;  272.000
221.989;  -40.475; -328.000; -311.000
222.133;  -43.300; -289.000; -307.000
222.277;   -8.625;    5.000;   78.000
222.422;   21.400;  227.000;  113.000
222.566;  -43.600; -381.000; -214.000
222.711;  -51.100; -414.000; -479.000
222.855;  -69.625; -643.000; -586.000
222.999;  -78.025; -642.000; -717.000
223.144;  -32.775; -195.000; -194.000
223.288;   45.800;  423.000;  251.000
223.432;   13.550;  184.000;  230.000
223.576;   16.975;  152.000;  -21.000
223.721;   15.800;  364.000;  273.000
223.865;  -52.075; -472.000; -475.000
224.009;  212.900; 1673.000; 1631.000
224.153;  -84.525; -660.000; -671.000
224.298;  -82.850; -531.000; -489.000
224.442;   -9.250;  -74.000;  -33.000
224.586;  -11.275; -169.000; -106.000
224.730;  -98.225; -858.000; -670.000
224.875; -109.475; -739.000; -688.000
225.019;   -4.275;  102.000;  188.000
225.163;   37.800;  208.000;  341.000
225.307;   14.325;   97.000;  -91.000
225.451;   26.350;  360.000;  481.000
225.595;   26.825;  264.000;  176.000
225.739;  -23.625; -170.000;  -94.000
225.884;   -6.725;   86.000;    5.000
226.028; -111.000; -760.000; -626.000
226.172;  -27.125; -260.000; -273.000
226.316; -117.700; -941.000; -902.000
226.460;  -68.775; -645.000; -493.000
226.604;  -59.550; -406.000; -400.000
226.748; -100.400; -836.000; -733.000
226.892;  -30.425; -227.000; -181.000
227.036;  -39.925; -537.000; -447.000
227.180;  -52.900; -551.000; -375.000
227.324;  -68.175; -561.000; -580.000
227.468; -135.000; -819.000; -717.000
227.612;    7.950;  242.000;  -28.000
227.756; -104.225; -845.000; -698.000
227.900;   46.725;  342.000;  441.000
228.044;  -71.750; -509.000; -290.000
228.188;   69.650;  448.000;  568.000
228.332;  -87.650; -546.000; -472.000
228.476;  -14.400; -223.000; -149.000
228.620;  -34.200; -210.000; -150.000
228.764;   50.025;  431.000;  349.000
228.908;  -27.725; -155.000;   30.000
229.052;  -61.375; -615.000; -528.000
229.195;  -20.400; -172.000;   13.000
229.339;  -14.750; -235.000; -305.000
229.483;  -40.450;    5.000; -162.000
229.627;  -10.725; -156.000;  139.000
229.771;  -59.600; -218.000; -294.000
229.915;    9.650;  230.000;   79.000
230.059;  -92.275; -648.000; -663.000
230.202;  -37.575; -370.000; -317.000
230.346;   -7.175; -107.000;  107.000
230.490;  -79.100; -489.000; -521.000
230.634; -108.850; -736.000; -553.000
230.777;   79.700;  478.000;  509.000
230.921;  -60.775; -450.000; -359.000
231.065;  -53.675; -246.000; -286.000
231.209;   26.425;  261.000;  265.000
231.352;   20.525;   54.000;   40.000
231.496;    5.400;  568.000;  188.000
231.640;  -71.200; -693.000; -621.000
231.783;   60.725;  546.000;  525.000
231.927;  -33.675; -294.000; -365.000
232.071; -116.300; -962.000; -736.000
232.214;  -97.775; -980.000; -764.000
232.358; -104.800; -683.000; -599.000
232.502;    6.025;  -19.000;    7.000
232.645; -136.250;-1090.000; -927.000
232.789;  -25.425; -257.000; -218.000
232.933;  -41.825; -407.000; -224.000
233.076; -134.000;-1038.000; -897.000
233.220; -101.025; -752.000; -777.000
233.363;  -84.225; -669.000; -477.000
233.507;   40.600;  371.000;  129.000
233.650;  -94.475; -764.000; -834.000
233.794;   36.350;  438.000;  461.000
233.938;  -55.875; -530.000; -362.000
234.081;  -26.950;  -93.000;   31.000
234.225;  -61.675; -631.000; -539.000
234.368; -122.200; -773.000; -723.000
234.512;  -32.750; -385.000; -299.000
234.655;  -81.500; -582.000; -555.000
234.798;  -65.275; -493.000; -466.000
234.942; -126.075; -884.000;-1002.000
235.085;  -69.525; -651.000; -443.000
235.229;  -69.025; -405.000; -410.000
235.372;  -45.300; -247.000; -191.000
235.516;  -71.450; -397.000; -321.000
235.659;   24.725;   92.000;  121.000
235.802;  -14.250;  -38.000;  -22.000
235.946;   18.025;  335.000;  215.000
236.089;    3.975;  126.000;  250.000
236.233;   32.500;  275.000;  298.000
236.376;  -58.775; -235.000; -378.000
236.519;  -39.250; -297.000; -319.000
236.663;  -33.675; -215.000; -117.000
236.806; -135.600;-1029.000; -999.000
236.949;   34.050;  543.000;  431.000
237.092;   49.875;  412.000;  391.000
237.236;  -95.300; -589.000; -502.000
237.379;   64.775;  352.000;  428.000
237.522; -132.900; -879.000; -768.000
237.666;  -19.400; -271.000;   18.000
237.809; -129.900; -851.000; -823.000
237.952;   28.125;  469.000;  271.000
238.095;  -68.850; -447.000; -442.000
238.238;   72.175;  688.000;  700.000
238.382;  -10.425;  166.000;  103.000
238.525;  -77.125; -598.000; -511.000
238.668; -145.550;-1060.000; -985.000
238.811;  -85.550; -638.000; -643.000
238.954;  -83.325; -483.000; -334.000
239.097;   91.575;  617.000;  664.000
239.241;   21.325;  394.000;  326.000
239.384;  -40.900; -254.000; -214.000
239.527;  -65.225; -424.000; -224.000
239.670; -143.575; -994.000;-1091.000
239.813; -110.750; -696.000; -658.000
239.956;   78.575;  579.000;  473.000
240.099; -115.325; -778.000; -725.000
240.242;   69.800;  428.000;  432.000
240.385;   39.825;  466.000;  450.000
240.528;  -64.575; -706.000; -473.000
240.671;   16.000;  189.000;  134.000
240.814;  -53.950; -441.000; -158.000
240.957; -102.250; -767.000; -578.000
241.100;  -93.975; -779.000; -755.000
241.243; -141.625;-1234.000; -893.000
241.386;  -58.025; -508.000; -379.000
241.529;  -89.875; -735.000; -547.000
241.672;  -63.525; -566.000; -495.000
241.815; -121.250; -832.000; -808.000
241.958;  -23.525; -125.000; -182.000
242.101;  -74.825; -545.000; -390.000
242.244;  -43.575; -270.000; -325.000
242.387;  -49.700; -304.000; -246.000
242.530;   46.225;  470.000;  134.000
242.673;  -50.025; -381.000; -309.000
242.815; -118.000; -925.000; -899.000
242.958;  -81.525; -482.000; -381.000
243.101;    6.750;  132.000;  187.000
243.244;  -90.625; -564.000; -521.000
243.387;  -45.850; -313.000; -316.000
243.530; -107.275; -657.000; -674.000
243.672;    0.100;   43.000;  -92.000
243.815;  -65.675; -355.000; -283.000
243.958;    0.275;   98.000;  -26.000
244.101;  -14.400;   59.000;  -16.000
244.243;  -15.125;  -47.000;  101.000
244.386; -105.450; -761.000; -630.000
244.529;  -25.375; -132.000; -139.000
244.672; -148.625;-1154.000; -951.000
244.814;  -83.350; -621.000; -794.000
244.957;  -77.900; -380.000; -304.000
245.100;  -73.750; -489.000; -489.000
245.242;  -68.425; -387.000; -374.000
245.385;  -18.925;  -59.000;  -39.000
245.528; -127.100; -871.000; -705.000
245.670;   71.350;  612.000;  634.000
245.813;  -90.775; -599.000; -547.000
245.956;  -43.300; -324.000; -275.000
246.098;  -81.125; -508.000; -650.000
246.241;   13.025;  194.000;   48.000
246.383;  -31.600; -119.000;  -73.000
246.526;  -65.675; -454.000; -525.000
246.669; -114.100; -889.000; -780.000
246.811;   18.775;  172.000;   -1.000
246.954;  -74.250; -512.000; -426.000
247.096;  -28.350;  -84.000;   -6.000
247.239;  -68.675; -482.000; -445.000
247.381;  -66.700; -647.000; -488.000
247.524;   59.400;  645.000;  679.000
247.666;   -3.925;   58.000;   11.000
247.809; -116.975; -887.000; -691.000
247.951;  -12.650;  -75.000;  138.000
248.094;   24.000;  432.000;  308.000
248.236; -144.725;-1262.000;-1238.000
248.378;  -45.800; -356.000;  -81.000
248.521;  -45.775; -334.000; -337.000
248.663;  -48.575; -236.000; -267.000
248.806;  -26.875; -300.000; -266.000
248.948; -110.975; -886.000; -763.000
249.090;  -56.350; -428.000; -398.000
249.233;  -73.850; -344.000; -381.000
249.375;  -75.800; -474.000; -451.000
249.518;  -36.325;  -83.000; -133.000
249.660;  -15.800; -103.000;    3.000
249.802; -181.350;-1303.000;-1189.000
249.945;  -84.675; -612.000; -540.000
250.087; -122.500; -834.000; -768.000
250.229;  -60.000; -362.000; -480.000
250.371;  -83.175; -494.000; -439.000
250.514;  -47.250; -310.000; -244.000
250.656;  -22.925;   69.000;  102.000
250.798; -108.500; -849.000; -800.000
250.940;  -74.150; -322.000; -322.000
251.083;  -35.400; -335.000; -111.000
251.225;   51.400;  338.000;  310.000
251.367;  -45.000; -274.000; -373.000
251.509;  -50.275; -265.000; -210.000
251.651; -108.875; -731.000; -671.000
251.794;   49.875;  538.000;  632.000
251.936; -108.825; -821.000; -747.000
252.078;  -91.625; -540.000; -461.000
252.220;  -75.575; -645.000; -477.000
252.362;   47.300;  344.000;  462.000
252.504;  -81.925; -677.000; -584.000
252.646; -126.750; -875.000; -722.000
252.788;   -7.950;   14.000; -128.000
252.931;  -64.925; -257.000; -253.000
253.073;  -42.850; -376.000; -317.000
253.215;  -19.775;  141.000;  122.000
253.357;  -15.600;   82.000; -153.000
253.499;  -72.625; -374.000; -234.000
253.641;  -75.350; -749.000; -594.000
253.783;  -97.000; -609.000; -527.000
253.925;  -79.425; -586.000; -591.000
254.067; -113.675; -744.000; -667.000
254.209;  -34.425; -391.000; -259.000
254.351; -141.875; -865.000; -883.000
254.493;  -72.650; -441.000; -417.000
254.635; -133.400; -936.000; -818.000
254.777;  -91.625; -752.000; -687.000
254.918;  -75.150; -512.000; -430.000
255.060;  -62.300; -551.000; -395.000
255.202;  -66.975; -473.000; -261.000
255.344;  -72.150; -658.000; -455.000
255.486;  -71.800; -471.000; -406.000
255.628; -103.950; -780.000; -781.000
255.770; -102.000; -676.000; -536.000
255.912;  -63.950; -559.000; -468.000
256.053;  -90.225; -730.000; -508.000
256.195;  144.350; 1008.000;  903.000
256.337; -115.000; -861.000; -595.000
256.479;   59.775;  532.000;  416.000
256.621;  -43.750; -394.000; -212.000
256.762;  -88.125; -789.000; -742.000
256.904;   26.775;  485.000;  487.000
257.046;  -37.050; -381.000; -271.000
257.188;  -49.600; -351.000; -264.000
257.329;  -66.175; -525.000; -464.000
257.471; -126.725; -939.000; -807.000
257.613;  -67.575; -584.000; -498.000
257.755; -158.250;-1073.000; -982.000
257.896;   20.850;  286.000;  392.000
258.038;  -74.975; -403.000; -352.000
258.180;  -42.650; -354.000; -279.000
258.321;  -89.725; -581.000; -457.000
258.463;  -20.750;  -71.000;  133.000
258.605; -111.175; -562.000; -570.000
258.746;  -93.775; -886.000; -772.000
258.888; -150.625;-1026.000;-1020.000
259.029;   12.050;  121.000;   -8.000
259.171; -104.750; -614.000; -550.000
259.313;    8.800;  -49.000;  -47.000
259.454;  -82.825; -536.000; -414.000
259.596;  -53.600; -483.000; -390.000
259.737;  -92.275; -590.000; -474.000
259.879;   36.125;  217.000;  311.000
260.020;   71.225;  901.000;  636.000
260.162;  -36.200; -146.000; -253.000
260.303; -118.500; -768.000; -687.000
260.445;  -80.250; -609.000; -613.000
260.586;   20.950;  392.000;  157.000
260.728;  -45.525; -360.000; -248.000
260.869;  -76.750; -350.000; -343.000
261.011;   72.175;  706.000;  537.000
261.152;  -63.175; -479.000; -319.000
261.293;  -88.150; -576.000; -595.000
261.435;  -54.800; -219.000; -184.000
261.576;  -62.575; -455.000; -325.000
261.718;   44.450;  420.000;  470.000
261.859; -123.250; -940.000; -949.000
262.000; -135.550; -951.000;-1016.000
262.142;  -23.675;  -52.000;  -60.000
262.283; -118.850; -808.000; -691.000
262.424;  -86.075; -666.000; -625.000
262.566; -152.100;-1161.000; -983.000
262.707; -110.250; -840.000; -830.000
262.848; -121.650; -769.000; -726.000
262.990;  -41.400; -362.000; -345.000
263.131;   76.900;  650.000;  681.000
263.272;  -10.975;  -61.000;  -41.000
263.413;  -92.900; -589.000; -561.000
263.555;  -62.725; -669.000; -143.000
263.696;  -92.375; -550.000; -641.000
263.837;  -68.675; -449.000; -551.000
263.978;  -17.975;   -5.000;  -77.000
264.119;  -43.225; -283.000; -264.000
264.261; -111.025; -847.000; -630.000
264.402;   -6.800;   33.000;   40.000
264.543;  -93.650; -509.000; -524.000
264.684;   -5.650;   61.000;  -50.000
264.825;  -71.175; -816.000; -538.000
264.966;  -11.350;  -84.000;  -67.000
265.107; -114.500; -646.000; -670.000
265.248; -120.425; -825.000; -812.000
265.390;  -23.225;  152.000;   -9.000
265.531;  -37.925; -238.000; -107.000
265.672;  -91.500; -557.000; -630.000
265.813;   62.000;  563.000;  439.000
265.954; -144.900; -959.000; -940.000
266.095;   -8.750; -372.000; -322.000
266.236;  -93.525; -686.000; -548.000
266.377;  -40.825; -243.000; -297.000
266.518;  -87.225; -619.000; -547.000
266.659;   17.875;  170.000;  268.000
266.800;   -2.475;   83.000;   85.000
266.941;  -82.175; -487.000; -478.000
267.082;    7.025;  354.000;   99.000
267.223;  -50.600; -344.000; -273.000
267.364; -132.625; -892.000; -686.000
267.504;  -25.625;    3.000;  135.000
267.645;  -11.400;  160.000;   67.000
267.786;  -33.775; -147.000;  -86.000
267.927;  -77.700; -473.000; -379.000
268.068;  -22.500; -186.000;  -61.000
268.209;  -50.875; -175.000; -413.000
268.350;  -56.450; -388.000; -532.000
268.490;  -96.150; -648.000; -521.000
268.631;   22.775;  127.000;  225.000
268.772; -125.000; -874.000; -647.000
268.913;  -65.625; -328.000; -476.000
269.054;  -26.650; -117.000;   12.000
269.194;  -48.900; -418.000; -402.000
269.335; -153.300;-1137.000;-1074.000
269.476;  -24.175;   33.000;  -35.000
269.617;  -53.200; -347.000; -392.000
269.757;  -86.700; -713.000; -646.000
269.898; -103.575; -856.000; -613.000
270.039;  -70.300; -415.000; -405.000
270.180; -145.275; -952.000; -816.000
270.320;  -36.625; -190.000; -250.000
270.461;  -51.775; -277.000; -249.000
270.602;  -16.700; -186.000; -156.000
270.742; -132.025; -868.000; -943.000
270.883;  -56.350; -442.000; -390.000
271.023;  -65.150; -358.000; -357.000
271.164;  -80.050; -607.000; -528.000
271.305; -108.875; -666.000; -654.000
271.445;  -95.050; -722.000; -683.000
271.586;  -72.125; -462.000; -283.000
271.726;  -46.400; -397.000; -322.000
271.867;  -82.475; -594.000; -534.000
272.008;   55.475; -473.000; -285.000
272.148;   61.250;  462.000;  468.000
272.289;  -10.600; -113.000; -181.000
272.429;   -1.750;   19.000;  185.000
272.570; -100.825; -633.000; -737.000
272.710; -114.325; -825.000; -775.000
272.851;  -37.200;  113.000; -130.000
272.991; -175.625;-1173.000;-1077.000
273.131;  -70.150; -419.000; -459.000
273.272;  -98.750; -683.000; -723.000
273.412;  -13.050; -143.000;  -31.000
273.553;  -69.750; -488.000; -507.000
273.693;  111.925;  913.000;  858.000
273.834; -124.825; -894.000; -692.000
273.974;  -82.425; -664.000; -615.000
274.114; -118.075; -772.000; -560.000
274.255;   41.475;  414.000;  373.000
274.395;  -36.050; -180.000; -125.000
274.535;   29.250;  199.000;  350.000
274.676;    8.900;  225.000;   94.000
274.816;   -0.075;  110.000;   34.000
274.956;  -97.900; -624.000; -690.000
275.097;  -93.850;-1014.000; -922.000
275.237; -114.125; -913.000; -803.000
275.377; -106.375; -778.000; -689.000
275.517; -156.250; -878.000; -937.000
275.658;  -73.775; -590.000; -555.000
275.798;  -90.450; -606.000; -413.000
275.938;   19.400;  215.000;  323.000
276.078;  -92.825; -626.000; -395.000
276.218;  -12.125;   99.000;  104.000
276.359; -154.975;-1026.000;-1024.000
276.499;  -72.725; -605.000; -446.000
276.639;  -37.175; -305.000; -151.000
276.779;  -50.625; -475.000; -357.000
276.919; -112.850; -783.000; -624.000
277.059;  -25.175; -261.000; -212.000
277.199;  -51.925; -357.000; -259.000
277.340;   39.450;  287.000;  175.000
277.480; -136.000; -840.000; -693.000
277.620;   19.475;  192.000;   16.000
277.760; -203.300;-1533.000;-1294.000
277.900;    2.775;  113.000;   33.000
278.040;   -9.475;  137.000;  159.000
278.180;    8.600;  270.000;  170.000
278.320;  -10.325;   21.000;   56.000
278.460;  -69.125; -443.000; -469.000
278.600; -106.175; -708.000; -598.000
278.740;   45.700;  448.000;  224.000
278.880; -116.300; -768.000; -791.000
279.020;  -34.250; -194.000; -144.000
279.160;  -99.825; -672.000; -595.000
279.300; -121.825; -926.000; -873.000
279.440; -106.150; -709.000; -622.000
279.579;  -78.300;-1014.000; -929.000
279.719;  -74.025; -410.000; -394.000
279.859;   21.650;   -4.000;   41.000
279.999;  -10.600; -208.000;  101.000
280.139;  -57.750; -435.000; -387.000
280.279; -107.225; -708.000; -745.000
280.419;  -24.500; -229.000; -147.000
280.559;  -59.300; -259.000; -180.000
280.698;  -87.050; -790.000; -639.000
280.838; -112.625; -778.000; -800.000
280.978;  -95.175; -846.000; -790.000
281.118; -105.975; -811.000; -704.000
281.257;  -13.100;   24.000;    6.000
281.397; -144.575;-1094.000; -960.000
281.537;  -99.700; -599.000; -712.000
281.677;  -39.700; -150.000; -101.000
281.816;  -88.625; -700.000; -630.000
281.956;  -34.650; -193.000; -257.000
282.096;  -60.925; -539.000; -396.000
282.235;  -99.950; -672.000; -638.000
282.375;  -22.875; -243.000;  -98.000
282.515; -108.425; -715.000; -707.000
282.654;    5.975;   29.000;  106.000
282.794;   10.275;  388.000;  244.000
282.934;  -59.200; -530.000; -491.000
283.073; -137.075;-1030.000; -857.000
283.213;  -54.375; -460.000; -467.000
283.353;  -63.050; -408.000; -349.000
283.492;  -34.400; -264.000; -296.000
283.632;  -54.775; -254.000; -168.000
283.771;  -93.475; -859.000; -730.000
283.911;  -70.050; -369.000; -260.000
284.050; -116.175; -794.000; -748.000
284.190; -156.000;-1229.000;-1096.000
284.329; -143.925;-1055.000; -964.000
284.469;  -96.825; -516.000; -591.000
284.608;  -67.675; -559.000; -598.000
284.748;  -91.475; -614.000; -570.000
284.887;   -6.600;  -87.000;  -20.000
285.027; -134.825; -844.000; -892.000
285.166;  -44.875; -192.000; -249.000
285.306;  -29.650; -116.000;  -33.000
285.445;  -44.175; -229.000; -343.000
285.584;  -90.125; -630.000; -494.000
285.724;  -60.275; -282.000; -322.000
285.863; -120.625; -857.000; -507.000
286.002;  -51.375; -366.000; -276.000
286.142; -116.425; -715.000; -622.000
286.281;  -85.400; -525.000; -493.000
286.420;  -78.825; -554.000; -417.000
286.560;   76.675;  653.000;  623.000
286.699; -155.425; -958.000; -912.000
286.838;  -86.075; -590.000; -591.000
286.978; -103.125; -533.000; -537.000
287.117; -134.700;-1085.000; -950.000
287.256;  -49.850; -228.000; -211.000
287.395;  -60.425; -197.000; -378.000
287.535;  -68.825; -370.000; -298.000
287.674;  -88.125; -509.000; -484.000
287.813;   52.675;  661.000;  533.000
287.952; -124.025;-1010.000; -871.000
288.091; -149.075;-1049.000; -915.000
288.231;    6.750;   13.000;   15.000
288.370; -180.975;-1217.000;-1200.000
288.509;  -89.450; -728.000; -645.000
288.648; -101.225; -770.000; -548.000
288.787;  -48.875; -243.000;  -87.000
288.926;  -76.475; -454.000; -475.000
289.065;   94.050;  859.000;  672.000
289.204;  -57.725; -377.000; -217.000
289.344;  -99.875; -791.000; -690.000
289.483;   -5.425;  416.000;  304.000
289.622;  -52.850; -291.000; -149.000
289.761;  -41.000; -309.000; -166.000
289.900; -107.400; -785.000; -626.000
290.039;  -34.925;  -12.000;  -95.000
290.178;  -51.275; -274.000; -180.000
290.317; -102.250; -618.000; -479.000
290.456;  -69.950; -463.000; -451.000
290.595; -137.000; -961.000; -833.000
290.734; -138.125; -904.000; -891.000
290.873;  -82.525; -456.000; -420.000
291.011; -110.700; -833.000; -843.000
291.150; -109.175; -770.000; -682.000
291.289;  -42.175; -343.000; -110.000
291.428; -109.825; -599.000; -480.000
291.567;  -53.575; -370.000; -442.000
291.706;  -19.550;  109.000;  154.000
291.845;  -88.550; -597.000; -505.000
291.984; -164.800;-1234.000;-1061.000
292.122;   54.825;  602.000;  582.000
292.261;   23.025;  620.000;  463.000
292.400;  -11.600; -144.000;  211.000
292.539; -132.100; -959.000; -813.000
292.678;  -48.375; -325.000; -300.000
292.816; -162.850;-1136.000; -965.000
292.955; -100.425; -844.000; -684.000
293.094;  -34.850; -173.000; -337.000
293.233;  -57.175; -556.000; -400.000
293.371;  -62.075; -225.000;  -84.000
293.510; -112.625; -866.000; -780.000
293.649; -147.100; -959.000; -924.000
293.787; -117.575;-1083.000;-1012.000
293.926;  -29.050; -113.000;  -32.000
294.065;  -53.250; -379.000; -290.000
294.203;   37.275;  298.000;  406.000
294.342;   24.700;   74.000;  156.000
294.481; 5799.000;51180.000; -836.000
294.619;  -33.250; -425.000; -582.000
294.758; -157.400;-1230.000;-1137.000
294.896;   11.625; -125.000;    5.000
295.035; -146.500;-1040.000;-1006.000
295.174; -137.925;-1082.000; -954.000
295.312;  -61.850; -323.000; -203.000
295.451;  -41.750; -307.000; -428.000
295.589;  -76.050; -389.000; -518.000
295.728;  -11.300; -292.000; -165.000
295.866;  -29.025;  -36.000;  -51.000
296.005;  -70.225; -584.000; -341.000
296.143;  -85.350; -558.000; -596.000
296.282; -113.125; -957.000; -881.000
296.420;  -97.625; -657.000; -557.000
296.559;  -91.275; -892.000; -633.000
296.697;  -79.000; -847.000; -665.000
296.835;  -99.150;-1141.000;-1002.000
296.974;   -2.150;  -23.000;   39.000
297.112;  -34.650; -443.000; -504.000
297.251; -113.025; -815.000; -755.000
297.389;  -40.750; -576.000; -438.000
297.527;  -20.975; -145.000;  -83.000
297.666;  -58.975; -486.000; -438.000
297.804;  -59.675; -404.000; -264.000
297.942;   -9.075; -136.000; -161.000
298.081;  -21.425; -183.000;   63.000
298.219;   -1.025;  -17.000;  -19.000
298.357;  -16.950; -144.000;  -71.000
298.495;  -74.150; -810.000; -812.000
298.634;  -14.550;  245.000;  219.000
298.772;  -30.750; -220.000; -338.000
298.910;  -67.250; -309.000; -182.000
299.048;  -15.675; -130.000; -153.000
299.187;  -41.775; -350.000; -250.000
299.325;  -24.350;   52.000;  122.000
299.463;  -56.325; -389.000; -299.000
299.601;  -13.325; -327.000; -271.000
299.739; -135.150; -908.000; -883.000
299.877; -101.125; -791.000; -703.000
300.016; -111.500;-1095.000; -935.000
300.154;   30.700;  -19.000; -161.000
300.292;  -51.000; -428.000; -348.000
300.430;  -36.700; -408.000; -291.000
300.568; -134.000; -940.000; -874.000
300.706;  -69.850; -366.000; -469.000
300.844; -133.350;-1108.000; -979.000
300.982;   60.800;  246.000;  282.000
301.120; -136.875; -965.000; -866.000
301.258;  -92.450; -812.000; -705.000
301.396;   -8.800;  104.000;  -41.000
301.534;  -27.925; -218.000; -293.000
301.672;  -90.050; -664.000; -521.000
301.810;  -77.700; -613.000; -545.000
301.948;    5.875;   53.000;  149.000
302.086;  201.375; -250.000;  -32.000
302.224;  218.700; -610.000; -585.000
302.362;  -63.500; -558.000; -622.000
302.500; -112.925; -923.000; -893.000
302.638;   28.300;  128.000;  245.000
302.776;  -41.725; -352.000; -408.000
302.913;   33.850;  447.000;  236.000
303.051;  -30.650;  -86.000;  -23.000
303.189;   12.800;   90.000;  118.000
303.327;  -61.650; -341.000; -256.000
303.465;  -87.750; -832.000; -588.000
303.603; -105.225; -805.000; -604.000
303.740;   30.600;  417.000;  241.000
303.878;  -83.275; -800.000; -759.000
304.016; -111.550; -915.000; -790.000
304.154; -156.000;-1123.000;-1152.000
304.291;  -71.600; -505.000; -554.000
304.429;   -8.975;  102.000;   74.000
304.567; -136.600; -908.000; -893.000
304.705;  -71.125; -408.000; -515.000
304.842;  -32.450; -616.000; -540.000
304.980;    4.225;  215.000;   35.000
305.118;  -33.075; -367.000; -365.000
305.255; -120.225; -945.000; -927.000
305.393;   14.425;  178.000;  239.000
305.531; -140.625;-1173.000; -956.000
305.668;  -81.950; -663.000; -582.000
305.806;   -7.650; -358.000; -439.000
305.943;  -28.375; -629.000; -637.000
306.081;  -21.025; -378.000; -267.000
306.219;  -93.225; -863.000; -748.000
306.356;  -11.375;  158.000;   27.000
306.494;  112.850;  981.000;  761.000
306.631;   -4.550;  -11.000;  -55.000
306.769;  -34.150; -613.000; -485.000
306.906;  -50.450; -284.000; -258.000
307.044;  -65.575; -473.000; -488.000
307.181;  -67.975; -410.000; -332.000
307.319;   10.775;  112.000;   87.000
307.456; -186.400;-1191.000;-1153.000
307.594; -106.450; -980.000; -727.000
307.731;  -22.350; -371.000; -164.000
307.868;  -14.225;  -15.000;   20.000
308.006; -134.450; -961.000; -847.000
308.143;  -76.050; -618.000; -330.000
308.281;   20.700;  -37.000; -254.000
308.418;  -65.000; -748.000; -640.000
308.555;  -80.225; -400.000; -250.000
308.693;  -77.075; -577.000; -573.000
308.830; -109.350; -712.000; -657.000
308.967;  -24.400; -215.000;  -95.000
309.105;  -51.800; -507.000; -396.000
309.242;  -35.225; -468.000; -367.000
309.379;   28.475; -577.000; -655.000
309.517; -109.025; -936.000; -948.000
309.654; -121.500; -910.000; -734.000
309.791;  -74.575; -662.000; -580.000
309.928; -134.725; -977.000; -914.000
310.065;  120.625;  819.000;  697.000
310.203;  -80.000; -825.000; -850.000
310.340;  -28.325; -465.000; -321.000
310.477;  -91.550; -412.000; -516.000
310.614;  -64.775; -383.000; -473.000
310.751;  -84.150; -427.000; -518.000
310.889;  -25.775;    1.000;   11.000
311.026; -158.525;-1161.000; -939.000
311.163;  -53.200; -386.000; -380.000
311.300;  -84.500; -512.000; -479.000
311.437;  -73.800; -658.000; -619.000
311.574; -168.500;-1226.000; -985.000
311.711;  -75.225; -595.000; -433.000
311.848;  -55.525; -380.000; -388.000
311.985;    8.425;  270.000;   93.000
312.122; -125.150; -932.000; -762.000
312.259; -124.875; -941.000; -994.000
312.396;  -86.300; -508.000; -551.000
312.533;  -90.675; -812.000; -790.000
312.670; -142.400;-1070.000; -898.000
312.807;  -44.750; -352.000; -367.000
312.944;  -90.475; -513.000; -611.000
313.081;  -20.775; -150.000; -415.000
313.218; -102.800;-1111.000; -867.000
313.355;  -15.500; -531.000; -449.000
313.492;  -27.650; -455.000; -292.000
313.629;  115.275;  815.000;  735.000
313.766; -158.150;-1176.000;-1008.000
313.902;  -10.225; -186.000;   21.000
314.039;  -57.175; -372.000; -289.000
314.176;   23.600;  286.000;  192.000
314.313;  -78.750; -569.000; -473.000
314.450;  -95.175; -788.000; -684.000
314.587;  -53.525; -468.000; -480.000
314.723;    0.275;  -78.000;  130.000
314.860;   29.200;  318.000;  332.000
314.997;   26.775;  223.000;  142.000
315.134;  -45.150; -385.000; -368.000
315.270;  -31.600; -480.000; -496.000
315.407; -136.850;-1094.000; -967.000
315.544;  -48.525; -657.000; -538.000
315.681;  -65.100; -681.000; -565.000
315.817;   14.300; -133.000; -176.000
315.954;   22.075; -613.000; -392.000
316.091; -124.275;-1045.000;-1023.000
316.227;  -36.475;  -71.000; -179.000
316.364;  -13.625;   23.000;    6.000
316.500;  -54.450; -113.000; -300.000
316.637;  -53.575; -181.000; -302.000
316.774;  -96.925; -625.000; -358.000
316.910; -100.975; -598.000; -629.000
317.047;  -86.025; -487.000; -351.000
317.183;  -57.900; -435.000; -566.000
317.320;   16.500; -367.000; -321.000
317.456;  -25.650; -733.000; -805.000
317.593; -102.350; -598.000; -641.000
317.729;   -0.975;  168.000;  -67.000
317.866; -208.950;-1434.000;-1285.000
318.002;  -96.400; -708.000; -948.000
318.139; -129.400; -883.000; -867.000
318.275; -112.950;-1003.000; -738.000
318.412;  -81.400; -517.000; -336.000
318.548;  -80.425; -751.000; -720.000
318.685; -109.725; -985.000; -888.000
318.821;  -95.150; -762.000; -735.000
318.957;  -26.725;   34.000;  -23.000
319.094;   23.675;  297.000;  154.000
319.230; -100.850; -756.000; -742.000
319.367;   -2.550; -471.000; -520.000
319.503;  -38.050; -538.000; -436.000
319.639; -113.900; -877.000; -793.000
319.775; -106.525; -750.000; -685.000
319.912;  -64.075; -424.000; -519.000
320.048; -120.375;-1184.000;-1184.000
320.184;   77.675;   59.000;   70.000
320.321;  -65.900; -497.000; -467.000
320.457;   62.825;  475.000;  662.000
320.593;  -75.975; -375.000; -382.000
320.729; -113.325; -732.000; -734.000
320.866;  -77.875; -577.000; -635.000
321.002; -105.950; -759.000; -809.000
321.138;  -38.550; -135.000; -211.000
321.274;    7.550; -148.000; -115.000
321.410;  -75.475; -585.000; -353.000
321.546; -113.425;-1011.000; -911.000
321.683;   12.100;  400.000;  185.000
321.819;  -11.250;  -48.000; -117.000
321.955; -129.775; -743.000; -722.000
322.091;  -74.350; -585.000; -540.000
322.227;  -48.125; -382.000; -202.000
322.363;  -60.075; -320.000; -215.000
322.499;  -75.000; -343.000; -331.000
322.635;   98.650;  636.000;  443.000
322.771;  -17.500; -139.000;   12.000
322.907;   40.725;  129.000;  327.000
323.043;  -56.450; -115.000; -206.000
323.179;  -70.400; -394.000; -363.000
323.315;  -56.450; -401.000; -371.000
323.451;   13.200; -328.000; -236.000
323.587;   46.175;  -60.000;  -77.000
323.723;  -56.175; -682.000; -601.000
323.859;  -40.925; -258.000;  -76.000
323.995;  -66.675; -467.000; -409.000
324.131; -139.100; -967.000; -892.000
324.267;  -56.875; -254.000; -276.000
324.402; -145.850; -960.000; -983.000
324.538;  -41.575; -279.000; -104.000
324.674;   -7.025;  164.000;   77.000
324.810;   34.025;  226.000;  308.000
324.946;  -61.825; -810.000; -658.000
325.082;  -84.050; -568.000; -475.000
325.217;  -30.600;  -62.000;   16.000
325.353; -118.100; -764.000; -659.000
325.489; -109.525; -540.000; -506.000
325.625;  -68.425; -579.000; -525.000
325.760;   74.900;  517.000;  376.000
325.896;    9.475; -515.000; -702.000
326.032;  -70.525; -403.000; -352.000
326.168;  -65.550; -462.000; -369.000
326.303;  -79.050; -352.000; -461.000
326.439;  -18.050; -336.000; -276.000
326.575;  -21.400; -190.000;  -29.000
326.710;  -26.425; -156.000;  -30.000
326.846;  -23.100;  146.000;  103.000
326.982;  -87.700; -530.000; -548.000
327.117;  -82.300; -481.000; -442.000
327.253;  -80.800; -745.000; -742.000
327.388; -151.500;-1137.000;-1153.000
327.524;  -97.775; -811.000; -578.000
327.659;  -36.775;  -58.000;  -22.000
327.795;  -23.425;   69.000;   45.000
327.931;  -81.025; -723.000; -499.000
328.066;  -18.525; -417.000; -276.000
328.202;  -49.750;   12.000; -129.000
328.337;   72.525;  957.000;  713.000
328.473;   10.450;  -12.000;  -74.000
328.608;  -28.175; -256.000; -267.000
328.743; -124.125; -799.000; -664.000
328.879;   -6.350;  214.000;  114.000
329.014;  -47.025; -102.000; -122.000
329.150;  -79.450; -358.000; -483.000
329.285;  -87.350; -465.000; -466.000
329.421;  -58.875; -548.000; -246.000
329.556;  -25.525;  -36.000;   85.000
329.691; -113.075; -633.000; -615.000
329.827;  -89.725; -626.000; -480.000
329.962;  -49.200;  131.000; -301.000
330.097; -100.400; -673.000; -585.000
330.233;  -46.650; -410.000; -223.000
330.368; -118.375; -839.000; -628.000
330.503;  -27.425;    3.000;   98.000
330.638;  -41.600;  -93.000; -125.000
330.774;  -94.775; -609.000; -530.000
330.909;  -63.775; -434.000; -244.000
331.044; -107.500; -714.000; -708.000
331.179; -177.400;-1217.000;-1109.000
331.315;   -7.300;   77.000;   20.000
331.450;    7.750;  157.000;  285.000
331.585;  -88.025; -805.000; -706.000
331.720; -102.875; -510.000; -460.000
331.855;    4.100;  -35.000; -102.000
331.990;  411.825;   62.000;  138.000
332.126;  214.575; -110.000;   71.000
332.261;    0.425; -379.000; -265.000
332.396;   20.700; -135.000; -242.000
332.531;  -80.650;-1074.000;-1031.000
332.666;  108.175; -519.000; -363.000
332.801; -113.125; -726.000; -807.000
332.936;  -32.675; -192.000; -122.000
333.071; -146.250; -870.000; -817.000
333.206;   12.275;  307.000;  379.000
333.341;   13.000;  344.000;  418.000
333.476;  -91.425; -627.000; -623.000
333.611;  -53.125; -251.000; -173.000
333.746;  -57.550; -381.000; -464.000
333.881; -125.625; -973.000; -935.000
334.016; -131.900; -936.000; -917.000
334.151; -135.800; -746.000; -702.000
334.286;    3.275;  152.000;  186.000
334.421;  -38.875; -125.000; -178.000
334.556;  -95.175; -611.000; -567.000
334.690; -104.550; -631.000; -577.000
334.825;   45.200;  381.000;   83.000
334.960;  -76.725; -285.000; -413.000
335.095;    3.100;  135.000;  -91.000
335.230; -105.350; -722.000; -738.000
335.365; -149.125;-1084.000; -990.000
335.499; -142.600;-1108.000;-1037.000
335.634;    9.000;    9.000;  534.000
335.769; -106.500; -755.000; -720.000
335.904;  -76.975; -603.000; -561.000
336.038;  -56.000; -735.000; -657.000
336.173; -120.800;-1206.000;-1194.000
336.308;    1.950; -116.000; -189.000
336.443;   58.875; -544.000; -634.000
336.577;  -47.125; -936.000; -787.000
336.712;   50.400;   -4.000;  -12.000
336.847;  -33.825; -724.000; -607.000
336.981;   38.975; -272.000; -208.000
337.116;  284.975;  615.000;  501.000
337.250;  118.800; -434.000; -421.000
337.385;  453.500; -297.000; -208.000
337.520;  227.675; -632.000; -603.000
337.654;  -26.250; -215.000; -126.000
337.789; -128.725; -989.000; -933.000
337.923;  -52.325; -104.000; -205.000
338.058; -125.800; -673.000; -738.000
338.192;  -71.775; -611.000; -488.000
338.327;  -19.550;  -18.000; -155.000
338.461;  -88.175; -299.000; -469.000
338.596;  -93.950; -780.000; -638.000
338.730; -104.100; -767.000; -803.000
338.865;  147.025;  -46.000; -140.000
338.999;    0.175; -846.000; -702.000
339.134;   -4.050; -634.000; -536.000
339.268;   30.050; -741.000; -603.000
339.403;  553.925; -740.000; -775.000
339.537;  238.750; -894.000; -820.000
339.671; -112.500; -829.000; -813.000
339.806;  -39.325; -556.000; -512.000
339.940;   40.300; -261.000; -235.000
340.074; -111.200; -685.000; -510.000
340.209;  -61.325; -351.000; -230.000
340.343; -102.900; -517.000; -573.000
340.477;  126.550;  998.000; 1036.000
340.612;   -4.425;-1033.000; -900.000
340.746;  237.225; -199.000; -243.000
340.880; -116.675; -924.000; -785.000
341.014;  -33.650;  -45.000; -154.000
341.149; -136.425; -756.000; -718.000
341.283; -115.225; -839.000; -754.000
341.417; -150.000;-1124.000; -938.000
341.551;  -36.075; -768.000; -708.000
341.685;  -73.725; -633.000; -611.000
341.820;  -57.350; -562.000; -493.000
341.954;  -74.250; -218.000; -349.000
342.088; -152.950;-1102.000;-1019.000
342.222;   30.500;  565.000;  618.000
342.356;  -84.000; -395.000; -335.000
342.490; -124.125; -880.000; -841.000
342.624;  -63.900; -339.000; -242.000
342.758;  -56.325; -364.000; -312.000
342.892; -102.900; -710.000; -585.000
343.026;  -58.725;  -58.000; -116.000
343.160;  -64.150; -426.000; -376.000
343.294; -106.725; -474.000; -337.000
343.428;  -81.150; -488.000; -448.000
343.562;  -47.575; -172.000;  -23.000
343.696;  -49.425; -385.000; -314.000
343.830;  -66.200; -362.000; -356.000
343.964;  -14.575; -231.000; -168.000
344.098;  282.875;  199.000;   70.000
344.232;  227.300; -266.000; -127.000
344.366;   63.275; -567.000; -453.000
344.500;  -44.400; -665.000; -744.000
344.634;  -38.775; -324.000; -164.000
344.768;  -76.400; -531.000; -341.000
344.902;   -5.250;  278.000;  256.000
345.035;  -85.575; -556.000; -496.000
345.169; -154.375; -933.000; -656.000
345.303;  -43.700; -308.000; -482.000
345.437; -113.000; -826.000; -717.000
345.571;  -69.050; -675.000; -594.000
345.704;  -70.250; -309.000; -532.000
345.838;  -25.725; -331.000; -284.000
345.972;  -90.300; -543.000; -495.000
346.106;  236.825; -179.000; -190.000
346.239;  463.400; -312.000; -243.000
346.373;  -15.025; -343.000; -302.000
346.507; -145.650; -950.000; -962.000
346.640;   17.700;  -30.000;   13.000
346.774;  -92.275; -650.000; -797.000
346.908;  -42.550; -138.000;  -11.000
347.041; -117.675; -646.000; -593.000
347.175;  -13.700;  259.000;   27.000
347.309; -115.075; -698.000; -628.000
347.442; -128.975; -883.000; -732.000
347.576;  110.000;  670.000;  668.000
347.709;   35.225; -123.000;  -52.000
347.843; -134.975; -933.000; -825.000
347.976;   19.200;  235.000;  294.000
348.110; -188.300;-1268.000;-1186.000
348.243; -124.150; -679.000; -772.000
348.377;    0.000;  -26.000;   60.000
348.510;   58.675;  403.000;  540.000
348.644;  -63.525;  -37.000; -159.000
348.777;   -8.025;  180.000;  191.000
348.911;  -51.525; -142.000; -112.000
349.044;   79.325;  471.000;  448.000
349.178;  -49.900;-1069.000;-1006.000
349.311;  102.225;  141.000;  255.000
349.444;   10.500; -927.000; -813.000
349.578;  -40.250; -347.000; -200.000
349.711; -160.725; -959.000; -862.000
349.845;  -58.700; -661.000; -591.000
349.978; -166.800;-1224.000;-1137.000
350.111;  -88.425; -546.000; -612.000
350.244; -123.050; -596.000; -700.000
350.378;  -47.200; -392.000; -393.000
350.511;  -87.825; -393.000; -426.000
350.644; -106.550; -808.000; -806.000
350.778;   -5.725;  168.000;  104.000
350.911;   -5.050;  134.000;  140.000
351.044; -122.900; -685.000; -615.000
351.177;  -40.025; -321.000; -281.000
351.310;  -34.975;    3.000; -131.000
351.444; -106.225; -888.000; -788.000
351.577;   19.500;  140.000;   90.000
351.710;   71.025;  593.000;  417.000
351.843;  -55.425; -165.000;  -77.000
351.976;  -21.400;  149.000;  -79.000
352.109; -110.050; -621.000; -612.000
352.242;  -62.750; -464.000; -419.000
352.376;  -93.300; -580.000; -636.000
352.509;    5.500; -437.000; -356.000
352.642; -106.275; -654.000; -604.000
352.775;   -5.400; -141.000;  -98.000
352.908; -136.175; -933.000; -904.000
353.041; -108.450; -814.000; -824.000
353.174;  -79.425; -551.000; -424.000
353.307;  -99.950; -753.000; -764.000
353.440;   24.375;  541.000;  453.000
353.573; -113.250; -957.000;-1008.000
353.706;  -52.350; -384.000; -558.000
353.839;  -37.325; -264.000; -220.000
353.971; -111.125; -657.000; -512.000
354.104; -105.750; -896.000; -835.000
354.237;  -98.900; -627.000; -662.000
354.370;  -99.125; -846.000; -879.000
354.503; -180.750;-1231.000;-1308.000
354.636;  -38.750; -529.000; -348.000
354.769; -131.425; -937.000; -860.000
354.902;  -40.350; -230.000; -139.000
355.034;  -24.250; -164.000; -220.000
355.167;  -15.175; -262.000; -162.000
355.300;  -92.175;-1061.000; -880.000
355.433; 1435.200;  -71.000;  -14.000
355.565; 2193.550; -402.000; -384.000
355.698;  582.250; -356.000; -296.000
355.831;  -14.200; -882.000; -801.000
355.964;   20.725; -285.000; -170.000
356.096;  -96.950; -856.000; -843.000
356.229;   -5.275; -523.000; -530.000
356.362;  513.900; -373.000; -266.000
356.494;  907.175; -229.000; -162.000
356.627;  313.575;  269.000;  377.000
356.760;  876.500;  120.000;   53.000
356.892; 1485.250; -286.000; -601.000
357.025;  341.150;  403.000;  389.000
357.157;  208.350; -167.000; -179.000
357.290; 1238.850; -856.000; -713.000
357.423;  363.775; -667.000; -556.000
357.555;   95.250; -217.000; -228.000
357.688;  132.225; -483.000; -364.000
357.820;  174.000; -870.000; -877.000
357.953; 1452.325; -563.000; -589.000
358.085;  214.800; -632.000; -612.000
358.218;   92.050;-1131.000; -932.000
358.350;   29.600;  -58.000;  312.000
358.483; -183.900;-1300.000;-1187.000
358.615; -130.525;-1182.000;-1078.000
358.747; -160.725;-1187.000;-1058.000
358.880;  -53.775; -810.000; -744.000
359.012;  -50.075; -376.000; -202.000
359.145;  -67.725; -480.000; -511.000
359.277;  -77.200; -962.000; -913.000
359.409; 1242.175;  536.000;  231.000
359.542;  238.625; -738.000; -688.000
359.674;    1.500;   46.000;   13.000
359.806; -102.050; -565.000; -438.000
359.939;  -50.725; -617.000; -516.000
360.071;   12.225; -583.000; -579.000
360.203;  -39.450; -411.000; -364.000
360.335;    7.650;  164.000;  -16.000
360.468;   83.900; -249.000; -307.000
360.600; 1325.050; -547.000; -454.000
360.732; 4283.875; -546.000; -423.000
360.864;  640.700;-1216.000;-1044.000
360.996;   49.825; -516.000; -554.000
361.129;  -51.975; -389.000; -598.000
361.261;   -9.175;  110.000; -113.000
361.393;  -68.375; -252.000; -214.000
361.525;  -12.125;   94.000;  244.000
361.657; -114.500; -821.000; -703.000
361.789;  -24.275; -139.000; -155.000
361.921;  -58.475; -642.000; -593.000
362.053;   86.600;  524.000;  541.000
362.185;  -10.450;  288.000;   72.000
362.318; -113.300; -709.000; -705.000
362.450;   16.025;  294.000;  444.000
362.582;  -84.650; -913.000; -870.000
362.714;  -75.300; -353.000; -332.000
362.846;  -89.600; -606.000; -490.000
362.978; -159.750; -941.000; -811.000
363.109;  -36.700; -161.000; -260.000
363.241;  119.450; -739.000; -749.000
363.373;  605.525; -649.000; -564.000
363.505; 1054.925; -186.000;  -91.000
363.637;  233.575; -787.000; -601.000
363.769; -150.525;-1067.000;-1080.000
363.901;  -85.025; -596.000; -654.000
364.033; -160.375;-1103.000;-1062.000
364.165;  -29.125; -283.000; -283.000
364.296;   82.175; -316.000; -177.000
364.428;  202.000;-1344.000;-1220.000
364.560;  -68.700; -679.000; -661.000
364.692;  -88.600; -738.000; -835.000
364.824;  -31.775; -588.000; -456.000
364.955;  508.700; -402.000; -564.000
365.087; 1723.700;-1097.000; -852.000
365.219;  111.475; -686.000; -816.000
365.351;  -89.750; -526.000; -572.000
365.482;   17.550;  300.000;  240.000
365.614;  -71.625; -402.000; -314.000
365.746; -108.675; -729.000; -752.000
365.877;  -91.775; -706.000; -672.000
366.009;  414.400;  -35.000;  -62.000
366.141;  -38.225;-1249.000;-1134.000
366.272;  -98.075; -803.000; -719.000
366.404; -133.450;-1005.000; -874.000
366.535;  -10.325; -139.000;  -12.000
366.667; -118.225; -644.000; -649.000
366.799;   25.950;  353.000;  203.000
366.930; -150.925; -862.000; -996.000
367.062;  185.650; -639.000; -613.000
367.193;  345.675; -872.000; -842.000
367.325;  -56.475; -580.000; -684.000
367.456;  -16.100; -246.000;   31.000
367.588;  254.725; -371.000; -318.000
367.719;   15.300;  -44.000;  -45.000
367.851;  -48.850; -222.000; -241.000
367.982; -128.525; -875.000; -732.000
368.113;  -26.000; -475.000; -358.000
368.245; -156.725; -960.000; -841.000
368.376;  -55.950; -254.000; -302.000
368.508;  -69.575; -188.000; -263.000
368.639; -162.775;-1166.000;-1034.000
368.770; -109.800; -670.000; -589.000
368.902; -118.675; -836.000; -926.000
369.033; -149.025; -906.000; -855.000
369.164;  -47.400; -720.000; -653.000
369.296; -107.625; -452.000; -601.000
369.427;  -42.800; -209.000; -144.000
369.558;  -89.675; -593.000; -377.000
369.689;  -93.450; -721.000; -569.000
369.821; -143.925; -951.000; -845.000
369.952;  -35.075;   42.000; -108.000
370.083;  -59.700; -229.000; -108.000
370.214;  -93.100; -735.000; -650.000
370.345;  -24.375;   65.000;   81.000
370.477; -109.900; -810.000; -790.000
370.608;    7.500; -328.000; -264.000
370.739; -135.500;-1233.000;-1292.000
370.870; -135.175;-1102.000; -923.000
371.001;  -23.750; -378.000; -467.000
371.132; -123.150; -754.000; -735.000
371.263;  -38.025;  -42.000; -148.000
371.394; -141.150; -841.000; -748.000
371.525;    8.200;  345.000;  225.000
371.657; -122.725; -808.000; -670.000
371.788;   29.750;  103.000;  199.000
371.919;   13.325; -384.000; -304.000
372.050; 1232.600;  -91.000; -156.000
372.181;  353.325; -188.000; -294.000
372.311;   93.975;   42.000; -127.000
372.442;  -68.550; -457.000; -451.000
372.573;  -66.025; -444.000; -340.000
372.704; -158.900;-1008.000; -980.000
372.835;  -35.950; -228.000; -289.000
372.966; -102.775; -646.000; -554.000
373.097;  -98.125; -575.000; -711.000
373.228; -103.375; -717.000; -542.000
373.359;  -60.150; -824.000; -536.000
373.490;  161.775; -881.000; -727.000
373.620;  236.925;-1001.000; -803.000
373.751;  477.350; -332.000; -396.000
373.882;  201.700; -663.000; -733.000
374.013;  -41.275; -449.000; -262.000
374.143;  -81.800; -581.000; -659.000
374.274; -141.375; -987.000; -908.000
374.405;   45.750; -388.000; -276.000
374.536;   79.675; -526.000; -387.000
374.666;  265.150; -759.000; -807.000
374.797;  -29.000; -817.000; -868.000
374.928;  154.575; -710.000; -560.000
375.058;  172.150; -535.000; -500.000
375.189;    0.350;  -59.000;  -93.000
375.320; -137.475; -928.000;-1034.000
375.450;  -43.150; -625.000; -616.000
375.581;  -55.850; -526.000; -436.000
375.712;  -61.400; -574.000; -250.000
375.842;  -17.775; -438.000; -415.000
375.973;  -30.875; -554.000; -513.000
376.103; -117.350; -665.000; -648.000
376.234;  -96.975; -531.000; -552.000
376.364; -127.475; -944.000; -867.000
376.495;  140.050;  925.000;  529.000
376.625;  -71.975; -472.000; -485.000
376.756;  -69.975; -709.000; -678.000
376.886; -145.775;-1178.000;-1026.000
377.017;  141.300;-1048.000;-1061.000
377.147;  631.900; -786.000; -782.000
377.278;   84.425;  174.000;  228.000
377.408; -142.050; -801.000; -815.000
377.538; -120.625; -707.000; -693.000
377.669;  -91.775; -537.000; -613.000
377.799; -106.400; -645.000; -635.000
377.929;  -96.975; -610.000; -428.000
378.060; -128.400; -781.000; -847.000
378.190;  -49.925; -726.000; -531.000
378.320;  -53.550; -401.000; -406.000
378.451;  -24.125; -131.000;  -22.000
378.581;  -33.925;  -67.000; -110.000
378.711;   67.400; 1035.000;  866.000
378.841;  -71.575; -533.000; -675.000
378.972; -131.225; -871.000; -751.000
379.102;  -82.400; -652.000; -579.000
379.232;  -54.075; -126.000;  -73.000
379.362; -119.800;-1001.000; -885.000
379.492;  -71.025; -373.000; -424.000
379.623;   28.450;    0.000;  111.000
379.753; -136.650;-1107.000; -974.000
379.883;   67.725;   59.000;  156.000
380.013; -111.950;-1081.000;-1017.000
380.143; -138.850;-1097.000;-1056.000
380.273; -127.625; -985.000; -861.000
380.403;  -16.525; -344.000; -257.000
380.533;  -60.875; -651.000; -664.000
380.663;    5.100;  173.000;  128.000
380.793; -168.375;-1027.000;-1074.000
380.923;  -50.675; -103.000;  -34.000
381.053; -127.700; -613.000; -623.000
381.183;  -47.875; -106.000; -248.000
381.313;  -77.000; -656.000; -470.000
381.443;  -59.850; -692.000; -473.000
381.573;  -44.825; -402.000; -409.000
381.703;  -97.800;-1249.000;-1095.000
381.833; -202.175;-1454.000;-1336.000
381.963;    9.250; -134.000;  -87.000
382.093;  370.875; -925.000; -909.000
382.223;   89.775; -713.000; -602.000
382.353;  -99.700; -801.000; -608.000
382.482;   -8.825;-1091.000; -964.000
382.612;  158.775; -872.000; -644.000
382.742;   69.800; -695.000; -622.000
382.872;  -26.025; -565.000; -551.000
383.002;    0.200;  347.000; -132.000
383.131;  -49.925; -226.000; -160.000
383.261;  -40.575; -706.000; -768.000
383.391;  336.850; -552.000; -377.000
383.521; 5080.825;  451.000;  263.000
383.650; 1552.475; -947.000; -904.000
383.780;   31.700; -783.000; -656.000
383.910;   83.125;  880.000;  802.000
384.039;  -84.450; -794.000; -656.000
384.169;  -97.450;-1205.000;-1017.000
384.299;  -92.750; -650.000; -662.000
384.428; -121.725; -764.000; -680.000
384.558;  -67.900; -308.000; -275.000
384.687;  -81.500; -414.000; -334.000
384.817;  -19.875;   75.000;   -2.000
384.947;  -54.700; -234.000; -141.000
385.076;  141.250;  982.000;  912.000
385.206;   31.125;  369.000;  480.000
385.335;  -79.100; -549.000; -417.000
385.465; -127.725; -655.000; -663.000
385.594;    4.150;  -53.000;  -44.000
385.724;    9.975; -868.000; -838.000
385.853;  -17.525; -296.000; -270.000
385.982;  329.950; -743.000; -787.000
386.112;  630.150;-1052.000; -871.000
386.241;  -19.575; -307.000; -312.000
386.371;  -44.900; -174.000;  -87.000
386.500;  -81.675; -825.000; -789.000
386.629;  -23.850; -874.000; -817.000
386.759;   61.675;  -43.000;   68.000
386.888;  -42.875; -170.000; -250.000
387.017; -111.225; -648.000; -620.000
387.147; -125.075; -771.000; -798.000
387.276;  -69.000; -410.000; -397.000
387.405;  -49.100; -398.000; -342.000
387.535;  -90.375; -452.000; -361.000
387.664;  -82.900; -692.000; -620.000
387.793;  -20.425; -198.000; -113.000
387.922;  146.850;  255.000;  200.000
388.052;  -76.725; -576.000; -423.000
388.181;  -66.750; -342.000; -472.000
388.310; -114.300; -889.000; -710.000
388.439; -123.425; -749.000; -742.000
388.568;   26.550;  365.000;  244.000
388.697;  231.100; -756.000; -653.000
388.826;  -15.275; -768.000; -666.000
388.956;  -48.975; -285.000; -307.000
389.085;  -72.375; -347.000; -287.000
389.214; -123.500; -842.000; -872.000
389.343;  -92.050; -645.000; -413.000
389.472;  548.575;  126.000;  149.000
389.601;  605.750;   91.000;    0.000
389.730;  -34.550; -568.000; -687.000
389.859;    2.650;  226.000;   46.000
389.988;   15.350; -423.000; -408.000
390.117;   29.050; -168.000; -146.000
390.246;  -51.675; -331.000; -320.000
390.375;  -58.325; -673.000; -626.000
390.504;  -99.700; -703.000; -621.000
390.633; -141.100; -672.000; -726.000
390.761; -107.275; -732.000; -645.000
390.890;  -37.200;   -4.000; -130.000
391.019;  -75.675; -421.000; -441.000
391.148; -143.875; -826.000; -855.000
391.277;  -86.950; -576.000; -493.000
391.406; -128.325; -821.000; -805.000
391.534;   -5.000;  574.000; -301.000
391.663; -108.425; -583.000; -645.000
391.792; -118.675; -673.000; -701.000
391.921;  -19.200;   -3.000;   15.000
392.050;  -24.175; -287.000; -228.000
392.178; -156.800;-1206.000;-1061.000
392.307;  -49.850; -758.000; -712.000
392.436;  -79.625; -427.000; -641.000
392.564;  -11.400;  166.000;   -6.000
392.693; -124.850; -860.000; -682.000
392.822;  -21.550; -529.000; -534.000
392.950;  -67.225; -880.000; -714.000
393.079;   41.775; -188.000; -328.000
393.208;  -67.700; -488.000; -511.000
393.336;  -24.900; -170.000; -145.000
393.465;  -67.050; -317.000; -199.000
393.593;  -16.400;   62.000;   79.000
393.722; -169.725;-1121.000; -916.000
393.850;  -34.275; -188.000;  -61.000
393.979; -155.075; -926.000; -805.000
394.107;  -72.500; -517.000; -537.000
394.236;  -61.575; -570.000; -507.000
394.364;   98.525;  383.000;  206.000
394.493;   48.250; -911.000; -767.000
394.621;   -8.800; -955.000; -916.000
394.750; 1106.825; -873.000; -923.000
394.878; 4375.700; -247.000; -149.000
395.007; 6368.650; -721.000; -807.000
395.135;  562.000; -790.000; -721.000
395.263;  -62.475;-1038.000;-1040.000
395.392;    0.000;  -25.000; -107.000
395.520; -130.625; -818.000; -679.000
395.648; -124.575; -865.000; -915.000
395.777;  -85.100; -366.000; -405.000
395.905;  -87.125; -449.000; -564.000
396.033;  -26.525;  217.000;  172.000
396.162;  113.675; -399.000; -453.000
396.290;  100.700;  -17.000;   -2.000
396.418;  -65.350; -555.000; -514.000
396.546; -111.550; -571.000; -466.000
396.674; -129.225; -850.000; -878.000
396.803;  -45.550;  -72.000;  -23.000
396.931;  -20.775; -179.000; -199.000
397.059; -135.175;-1026.000; -989.000
397.187; -127.850;-1026.000; -975.000
397.315; -150.725; -884.000; -649.000
397.443;  -98.825; -592.000; -443.000
397.572; -101.325; -578.000; -424.000
397.700; -101.050; -607.000; -614.000
397.828;  -50.175;  120.000;  -90.000
397.956;  -29.925; -508.000; -478.000
398.084;  -34.850; -767.000; -626.000
398.212;   -4.000;  137.000;  124.000
398.340;  -38.750;  -56.000;  159.000
398.468;  -56.800; -390.000; -169.000
398.596; -157.975; -993.000; -953.000
398.724; -129.550; -762.000; -767.000
398.852; -172.375;-1024.000; -976.000
398.980;  -95.175; -560.000; -560.000
399.108; -117.700; -982.000; -735.000
399.236;  -24.375;   13.000;    8.000
399.363;  -26.950;  222.000;  196.000
399.491;  -77.575; -404.000; -398.000
399.619; -137.775; -829.000; -800.000
399.747; -116.825; -859.000; -771.000
399.875;   15.425;  220.000;  234.000
400.003;  -80.200; -359.000; -284.000
400.130; -121.475; -421.000; -341.000
400.258;  -49.400;  -83.000;   38.000
400.386;  -77.050; -352.000; -168.000
400.514;  -97.075; -526.000; -587.000
400.641; -148.875; -928.000; -802.000
400.769; -160.200; -979.000; -888.000
400.897; -143.075; -838.000; -793.000
401.025;  -55.525; -166.000; -152.000
401.152;  -26.250;  220.000;   38.000
401.280;  -89.000; -430.000; -429.000
401.408; -138.250; -712.000; -576.000
401.535; -111.150; -735.000; -758.000
401.663; -203.450;-1134.000;-1054.000
401.790;  -86.900; -514.000; -525.000
401.918;   13.575;  436.000;  405.000
402.046;  -39.900;  134.000;  122.000
402.173;  -57.150;  -18.000;    7.000
402.301;  -83.625; -519.000; -397.000
402.428;   10.675;  528.000;  383.000
402.556; -159.575;-1188.000; -913.000
402.683;  -49.525;  -20.000;   -1.000
402.811;  -25.625;  -37.000; -206.000
402.938;  -36.575;   20.000;   27.000
403.066;   -8.125; -574.000; -558.000
403.193;   83.225;  299.000;  239.000
403.321;   49.250; -396.000; -574.000
403.448;   95.300;   83.000;   27.000
403.575;   27.800;  -90.000;  -46.000
403.703; -128.475; -732.000; -557.000
403.830;  -68.550; -531.000; -496.000
403.957; -135.625;-1117.000;-1023.000
404.085;   14.825;  -61.000; -172.000
404.212;  105.650;  -50.000;   63.000
404.339;  415.300; -566.000; -306.000
404.467; 8857.625; -612.000; -524.000
404.594; 5407.150; -287.000; -227.000
404.721;  925.050; -869.000; -764.000
404.848;   97.300; -113.000; -202.000
404.976; -118.775; -856.000; -783.000
405.103;  -13.350;  -14.000;  -82.000
405.230;  -20.950;  190.000;  226.000
405.357;   46.075;  117.000;   44.000
405.484;  410.375;  -49.000;    5.000
405.612;  108.000; -548.000; -563.000
405.739;  -73.075; -488.000; -243.000
405.866;   72.300;  669.000;  385.000
405.993;  -69.375; -398.000; -102.000
406.120; -140.575; -801.000; -887.000
406.247;  -99.350; -323.000; -342.000
406.374;   98.475;  540.000;  629.000
406.501;  -92.950; -632.000; -702.000
406.628;  -97.850; -621.000; -589.000
406.755; -126.000; -803.000; -620.000
406.882;  -70.000; -228.000; -277.000
407.009; -123.775; -719.000; -628.000
407.136;  -50.225; -480.000; -401.000
407.263;  -83.275; -939.000; -829.000
407.390; -104.550; -692.000; -614.000
407.517; -189.775;-1139.000;-1187.000
407.644;  -93.575; -332.000; -256.000
407.771; -106.000; -249.000; -287.000
407.898;  -19.450;  168.000;  328.000
408.025;  -95.975; -421.000; -313.000
408.151;  -32.150;   82.000;  153.000
408.278;  -88.000; -267.000; -216.000
408.405; -128.800; -931.000; -899.000
408.532; -111.025; -549.000; -542.000
408.659; -116.475; -677.000; -648.000
408.785; -192.600;-1298.000;-1170.000
408.912;  -75.050; -412.000; -296.000
409.039; -125.925; -610.000; -686.000
409.166; -119.550; -591.000; -555.000
409.292; -126.150; -571.000; -534.000
409.419; -125.850; -665.000; -649.000
409.546; -103.650; -431.000; -192.000
409.672; -108.900; -713.000; -545.000
409.799;  -48.600;  -36.000;   34.000
409.926;  -47.375; -180.000; -179.000
410.052; -194.900;-1127.000;-1091.000
410.179;  -80.125; -368.000; -392.000
410.305;  -91.975; -375.000; -493.000
410.432;  -31.400; -220.000; -333.000
410.558;  -91.475; -305.000; -380.000
410.685; -113.725; -688.000; -431.000
410.812; -128.225; -409.000; -588.000
410.938; -150.050; -964.000; -808.000
411.065; -120.225; -671.000; -645.000
411.191;  -42.825; -189.000; -174.000
411.317; -150.150; -823.000; -742.000
411.444;  -70.225; -317.000; -246.000
411.570;  -81.275; -339.000; -294.000
411.697; -135.025; -758.000; -752.000
411.823; -173.175; -989.000; -999.000
411.949;  -64.450;  -56.000;   17.000
412.076; -138.775; -539.000; -519.000
412.202; -132.825; -758.000; -757.000
412.329; -156.425; -798.000; -752.000
412.455; -139.700; -821.000; -657.000
412.581;  -39.475;  -15.000;  172.000
412.707;  -94.625; -540.000; -457.000
412.834;  -19.975;  156.000;  219.000
412.960; -111.875; -785.000; -784.000
413.086; -121.325; -743.000; -701.000
413.212;  100.550;  604.000;  578.000
413.339; -121.225; -685.000; -701.000
413.465;  -64.150; -364.000; -310.000
413.591; -118.700; -757.000; -474.000
413.717;  -63.525; -358.000; -366.000
413.843; -137.325; -839.000; -861.000
413.969;  -68.800;  -47.000; -292.000
414.096; -105.025; -679.000; -679.000
414.222;  -15.950;  -33.000;   85.000
414.348;  -96.025; -652.000; -385.000
414.474;    9.675;   38.000;  -52.000
414.600;  -37.675; -126.000; -144.000
414.726;  -19.525;  -96.000;  -55.000
414.852;  -30.025; -365.000; -342.000
414.978;   28.400;  104.000;  -18.000
415.104;   45.900;   38.000;   80.000
415.230;   34.075; -329.000; -330.000
415.356;   41.175; -409.000; -514.000
415.482;  217.600;   13.000;  -35.000
415.608;  374.750; -247.000; -323.000
415.734; 1268.650;   67.000;   38.000
415.860;26980.875; -875.000; -767.000
415.986;22106.575; -685.000; -607.000
416.111; 2061.675; -798.000; -652.000
416.237;  449.425; -424.000; -571.000
416.363; 1652.525; -765.000; -733.000
416.489; 6660.300; -324.000; -251.000
416.615;  899.100; -707.000; -742.000
416.741;   48.650; -677.000; -784.000
416.866;  -87.375; -673.000; -736.000
416.992; -105.575; -801.000; -818.000
417.118;  -30.350;  -41.000;  -80.000
417.244;  -87.150; -798.000; -531.000
417.369;  -86.050; -801.000; -612.000
417.495;  -38.550; -325.000; -254.000
417.621; -100.675;-1015.000; -803.000
417.746;    9.325; -579.000; -572.000
417.872;   61.450; -254.000; -144.000
417.998;   90.200; -515.000; -530.000
418.123; 1515.700;-1073.000; -845.000
418.249; 8427.250; -512.000; -601.000
418.374; 1410.150; -916.000; -824.000
418.500;  234.575; -383.000; -482.000
418.626;  146.200;   70.000;  -59.000
418.751;  154.675; -549.000; -448.000
418.877;  298.950; -637.000; -643.000
419.002; 2506.900; -688.000; -560.000
419.128;19216.625; -930.000; -721.000
419.253; 5424.975; -967.000; -837.000
419.379;  735.900; -391.000; -338.000
419.504;  558.225;  325.000;  415.000
419.629;  815.600; -393.000; -212.000
419.755; 5324.175; -317.000; -254.000
419.880;34521.925;  -98.000;   67.000
420.006;17348.775; -280.000; -221.000
420.131;42989.550; -662.000; -775.000
420.256; 6903.200; -315.000; -316.000
420.382;  932.250; -665.000; -687.000
420.507;  156.425; -649.000; -778.000
420.632;   30.725; -337.000; -339.000
420.758;   42.975; -251.000; -425.000
420.883; -121.400; -876.000; -672.000
421.008; -110.300; -775.000; -619.000
421.133;  -98.575; -509.000; -467.000
421.259;  -72.125; -325.000; -259.000
421.384; -135.225; -834.000; -693.000
421.509; -120.475;-1052.000; -862.000
421.634;  125.100; -936.000; -820.000
421.759;   64.150; -359.000; -327.000
421.885; -116.525; -717.000; -656.000
422.010;  -91.575; -673.000; -542.000
422.135; -158.225; -695.000; -727.000
422.260;    9.200;  340.000;  280.000
422.385;  -69.600;   12.000;  -98.000
422.510;  -15.225;  151.000;  -26.000
422.635;  -26.575;  -87.000;  -43.000
422.760;  -20.875; -766.000; -791.000
422.885;   18.300;  -57.000;  -80.000
423.010;  -35.175; -112.000; -169.000
423.135; -109.600; -481.000; -561.000
423.260;  -43.525; -150.000; -245.000
423.385;    8.700;  476.000;  222.000
423.510;   -6.925;   71.000;  -22.000
423.635;    4.450;  133.000;   45.000
423.760;   49.675;  383.000;  328.000
423.885;   19.025;  336.000;  391.000
424.010;   -3.225;  -68.000;  -13.000
424.135;  -29.450;    5.000;  -33.000
424.259;  -78.750; -654.000; -457.000
424.384;  -71.250; -279.000; -272.000
424.509;  -35.775; -260.000; -186.000
424.634; -101.075; -761.000; -623.000
424.759;  -46.575; -688.000; -544.000
424.883;   -9.100; -506.000; -527.000
425.008;  183.075; -502.000; -410.000
425.133; 2822.250; -679.000; -653.000
425.258; 1516.200; -517.000; -381.000
425.382;  471.600; -867.000; -774.000
425.507; 1103.775; -487.000; -543.000
425.632;  375.400; -802.000; -663.000
425.756;  692.350; -256.000; -146.000
425.881;10106.550; -831.000; -857.000
426.006;31093.425; -604.000; -355.000
426.130; 5029.750; -696.000; -508.000
426.255;  697.275; -611.000; -491.000
426.379;  268.300; -189.000; -577.000
426.504;  478.475;  660.000;  544.000
426.629; 5514.025; -519.000; -466.000
426.753; 4307.675;   64.000;  -46.000
426.878;  534.100; -252.000; -288.000
427.002;  316.525; -651.000; -668.000
427.127; 2065.700;  -35.000; -158.000
427.251;17124.775;  372.000;  401.000
427.375; 5527.750; -191.000; -173.000
427.500; 1280.375; -616.000; -610.000
427.624;  389.500; -234.000; -400.000
427.749;   69.800; -216.000; -225.000
427.873;  -28.350; -499.000; -412.000
427.997;  -49.600; -222.000; -230.000
428.122;   43.850;  795.000;  703.000
428.246;   33.325;  433.000;  434.000
428.371; -151.475; -869.000; -773.000
428.495; -122.050; -624.000; -646.000
428.619;  -46.400; -186.000; -117.000
428.743;   -4.825;   65.000;  132.000
428.868;  -86.925; -732.000; -643.000
428.992;  471.475; -219.000; -326.000
429.116;  149.650; -329.000; -357.000
429.240;  105.225;  419.000;  426.000
429.365;  -65.825; -454.000; -574.000
429.489;  -74.075; -638.000; -647.000
429.613;   13.950; -236.000; -177.000
429.737;   71.500; -563.000; -432.000
429.861;  352.000; -247.000; -133.000
429.985; 7854.375; -425.000; -305.000
430.109; 9923.450; -770.000; -908.000
430.234; 1207.825;   76.000;  -50.000
430.358;  124.050; -250.000; -160.000
430.482;  -48.200; -672.000; -564.000
430.606;  -73.500; -655.000; -375.000
430.730;  -76.300; -437.000; -388.000
430.854; -109.075; -909.000; -835.000
430.978; -109.825; -795.000; -764.000
431.102; -103.550; -499.000; -422.000
431.226; -119.500; -874.000; -815.000
431.350;    6.100;  345.000;  422.000
431.474;  -98.100; -661.000; -373.000
431.597; -170.350;-1060.000; -848.000
431.721;  -88.125; -276.000; -267.000
431.845; -127.950; -704.000; -472.000
431.969;  -84.650; -304.000; -349.000
432.093; -105.825; -395.000; -317.000
432.217;  -18.425;   32.000;   82.000
432.341;  -93.750; -523.000; -518.000
432.464;  -10.875;   96.000;   40.000
432.588;  -36.500; -401.000; -329.000
432.712;    9.875;  -52.000;  -52.000
432.836;   51.475;  213.000;  263.000
432.959;   10.425; -372.000; -311.000
433.083;  153.750;   11.000;    2.000
433.207;  546.000;  285.000;  930.000
433.330; 7549.450; -391.000; -200.000
433.454;10397.900; -654.000; -638.000
433.578; 5724.750;  583.000;  278.000
433.701; 1238.425; -623.000; -675.000
433.825;  126.075; -292.000; -299.000
433.949;   45.225;   28.000;  -72.000
434.072;  -40.550; -410.000; -323.000
434.196;  -31.050; -309.000; -117.000
434.319; 3508.925;25482.000;25124.000
434.443;  856.875; -656.000; -603.000
434.566; 4047.175;  281.000;   62.000
434.690;  852.550; -637.000; -383.000
434.813;  118.425; -251.000; -173.000
434.937;  -51.675; -569.000; -696.000
435.060;  -91.125; -423.000; -332.000
435.184;  -40.400; -492.000; -217.000
435.307;   -4.000;  159.000;  102.000
435.431;  -42.425;  -40.000;   24.000
435.554;  -97.675; -399.000; -240.000
435.677;  -89.425; -350.000; -258.000
435.801;  -58.600;  -25.000;   49.000
435.924;  -57.075;    1.000;  -67.000
436.048; -169.050;-1019.000; -732.000
436.171;  -90.750; -240.000;  -66.000
436.294;  -36.625; -248.000; -229.000
436.417;  219.075; -963.000; -849.000
436.541;  -52.200; -814.000; -840.000
436.664;  -60.875; -242.000; -316.000
436.787;  -57.950;   13.000;  113.000
436.910; -126.875; -792.000; -422.000
437.034;  -39.775;  142.000;  143.000
437.157;   -2.175;  -11.000;    0.000
437.280;  -97.050; -392.000; -292.000
437.403; -161.275; -982.000; -869.000
437.526;  -27.175; -903.000; -865.000
437.649;  393.900; -505.000; -332.000
437.772;  -38.000; -692.000; -540.000
437.896;   51.625;  700.000;  544.000
438.019; -118.750; -758.000; -503.000
438.142; -100.300; -596.000; -506.000
438.265; -128.000; -639.000; -670.000
438.388;   -5.375; -520.000; -410.000
438.511;  -87.150; -597.000; -394.000
438.634;  -97.150; -247.000; -125.000
438.757; -156.750; -693.000; -619.000
438.880;  -55.550;  -34.000;  -57.000
439.003; -117.225; -417.000; -437.000
439.126;  -78.025; -287.000; -167.000
439.248;  -80.275;  -98.000; -139.000
439.371;  -45.450;    9.000;  -53.000
439.494;    8.600;  510.000;  439.000
439.617;  -48.575;   65.000;  -88.000
439.740; -182.175; -968.000; -816.000
439.863; -140.525; -755.000; -595.000
439.986; -133.300; -476.000; -431.000
440.108;  -55.900; -161.000; -112.000
440.231; -186.225; -950.000; -836.000
440.354;  -70.400;  -64.000; -150.000
440.477; -136.300; -566.000; -542.000
440.599;  -91.850; -200.000; -225.000
440.722; -152.025; -709.000; -586.000
440.845;   47.150;  751.000;  928.000
440.968; -106.850; -415.000; -311.000
441.090;  -76.975; -199.000;  -33.000
441.213; -166.825;-1021.000; -825.000
441.336;  -63.050; -159.000;   -5.000
441.458; -112.350; -549.000; -396.000
441.581; -127.850; -628.000; -629.000
441.703;  -90.200; -152.000;   13.000
441.826; -120.175; -557.000; -400.000
441.948;  -56.850;   56.000;   51.000
442.071;   27.975;  555.000;  424.000
442.193; -139.250; -531.000; -485.000
442.316;   -1.000;  152.000;   97.000
442.438;   63.600; -233.000;  -10.000
442.561;   50.375;  272.000;  262.000
442.683;   18.400; -809.000; -522.000
442.806;  220.175;   -8.000;   74.000
442.928; -133.475; -859.000; -604.000
443.051; -102.100; -577.000; -373.000
443.173; -103.075; -341.000; -339.000
443.295; -101.525; -263.000; -371.000
443.418;  -90.300; -321.000;  -29.000
443.540;  -58.500; -106.000;   -4.000
443.662; -131.475; -563.000; -465.000
443.785;  -30.250;  335.000;  199.000
443.907; -104.100; -362.000; -208.000
444.029; -137.000; -767.000; -494.000
444.152; -148.750; -644.000; -554.000
444.274;  -51.575;  -18.000;  -24.000
444.396; -132.525; -461.000; -221.000
444.518; -142.425; -691.000; -454.000
444.640; -103.375; -268.000; -111.000
444.763;  -39.425;  388.000;  249.000
444.885; -136.150; -432.000; -392.000
445.007;  -39.900;   35.000;   86.000
445.129; -139.450; -610.000; -515.000
445.251; -114.325; -372.000; -439.000
445.373; -160.375; -537.000; -386.000
445.495;  -24.625;  242.000;  350.000
445.617;   21.425;  853.000;  753.000
445.739;  -80.750; -215.000;  -97.000
445.861;  -78.225; -245.000; -112.000
445.984;  -69.550; -267.000; -101.000
446.105;  -43.375; -418.000; -251.000
446.227;   87.225; -176.000;  -19.000
446.349;  -88.025; -358.000; -249.000
446.471; -121.450; -615.000; -448.000
446.593; -107.075; -316.000;   19.000
446.715;  -54.725;  -67.000;   41.000
446.837;   33.825;  697.000;  832.000
446.959; -129.525; -457.000; -478.000
447.081; -134.100; -628.000; -518.000
447.203;   42.025;  862.000;  834.000
447.325; -109.175; -270.000;   42.000
447.446;   -0.450;  286.000;  530.000
447.568; -163.300; -921.000; -803.000
447.690;  -87.725; -236.000; -245.000
447.812; -148.250; -798.000; -519.000
447.933;  -29.325;  155.000;  127.000
448.055;  -80.800; -306.000; -261.000
448.177;   10.375;   31.000;   79.000
448.299; -120.975; -935.000; -727.000
448.420;  -11.625;  -25.000;  159.000
448.542;  -83.625;   -3.000;   33.000
448.664;  -32.125;  109.000;  322.000
448.785;  -52.650;  265.000;   83.000
448.907; -111.250; -614.000; -353.000
449.028; -132.150; -771.000; -471.000
449.150;   45.675;  492.000;  589.000
449.272; -192.625;-1044.000; -913.000
449.393;   39.250;  612.000;  694.000
449.515; -156.150; -634.000; -581.000
449.636;  -71.950; -264.000; -155.000
449.758;   26.750;  763.000;  622.000
449.879;  -99.850; -498.000; -396.000
450.001;  -90.625; -149.000;  -49.000
450.122;  -40.000;  -95.000;  162.000
450.244;  -26.800;   37.000;  364.000
450.365;  -75.800; -495.000; -301.000
450.486;  -24.625;   80.000;  268.000
450.608;   31.425;  393.000;  326.000
450.729;   93.150;  578.000;  645.000
450.850;   85.375; -574.000; -466.000
450.972; 1182.025; -552.000; -389.000
451.093; 7876.175;  190.000;  588.000
451.214; 4040.225; -516.000; -337.000
451.336;  695.800;  773.000;  579.000
451.457;  101.650;  264.000;  393.000
451.578;  -29.725; -118.000;  -74.000
451.699; -122.550; -546.000; -540.000
451.821;  -68.825; -284.000;  -50.000
451.942;  -17.800;  278.000;  285.000
452.063;   53.000;  228.000;  419.000
452.184;  799.100;  -54.000;  -49.000
452.305; 1730.525;  103.000;  170.000
452.427;  319.425; -549.000; -301.000
452.548;    3.700;   23.000;   79.000
452.669;  -90.750; -257.000;  -89.000
452.790;  -52.900;    3.000;  -18.000
452.911;  -25.675;  195.000;  259.000
453.032;  -69.675; -289.000;  -60.000
453.153;  -76.650;  -29.000;   81.000
453.274;   51.075;  737.000;  868.000
453.395;  -79.875;  -51.000;  175.000
453.516;   78.950; 1317.000; 1388.000
453.637;  -98.975; -205.000; -150.000
453.758;  -62.425;   15.000;   69.000
453.879; -121.775; -462.000; -250.000
454.000;   49.025; 1086.000;  948.000
454.121; -131.650; -554.000; -326.000
454.242; -111.250; -599.000; -383.000
454.362;  -65.975;  -99.000;  114.000
454.483;  -36.525; -309.000; -229.000
454.604;   62.600;  512.000;  580.000
454.725; -115.900; -627.000; -555.000
454.846; -138.000; -474.000; -406.000
454.967;  -33.375;  230.000;  539.000
455.087;  -48.800;  179.000;  153.000
455.208;    0.300;  554.000;  856.000
455.329;  -60.400;  -22.000;   82.000
455.450;   55.675;  473.000;  633.000
455.570;  -81.350; -234.000; -211.000
455.691;  -41.825;  201.000;  407.000
455.812; -117.425; -270.000;  -92.000
455.932;  -65.350;  107.000;  -97.000
456.053;  -90.875;   36.000;   24.000
456.173; -106.550; -433.000; -355.000
456.294; -151.025; -476.000; -303.000
456.415;  -68.950;  -73.000;   70.000
456.535;  -53.200;  297.000;  273.000
456.656;  -47.750;  132.000;  240.000
456.776;  -85.300;    3.000;  298.000
456.897;   -3.475;  308.000;  513.000
457.017;  -66.575; -153.000;   -3.000
457.138; -110.175; -402.000; -249.000
457.258;  -31.425;  263.000;  224.000
457.379;  -14.525;  509.000;  521.000
457.499;  -42.050;  443.000;  432.000
457.620; -123.225; -407.000; -231.000
457.740; -104.625; -132.000;  -11.000
457.860;  -46.100;   87.000;   44.000
457.981;  -53.600;  132.000;  124.000
458.101;  -81.475;  -89.000;   40.000
458.221;  -17.375;  336.000;  402.000
458.342;  -54.625;   -4.000;  -37.000
458.462;   41.275;  617.000;  352.000
458.582;   34.050; -302.000; -294.000
458.703;   47.475;  303.000;  154.000
458.823;    4.675;   22.000;  163.000
458.943;   42.450;  341.000;  467.000
459.063;    1.925; 1124.000;  192.000
459.183;  -27.075;  328.000;  313.000
459.304;    8.175;  315.000;  517.000
459.424;  -54.275; -246.000;  -89.000
459.544;  459.925;  388.000;  764.000
459.664; 1289.500;  499.000;  506.000
459.784;  495.425; 1004.000; 1175.000
459.904;   77.325;  867.000;  744.000
460.024;   48.600;  867.000;  684.000
460.144;  -20.100;  449.000;  554.000
460.264;   -8.800;  515.000;  327.000
460.385;  -95.225; -145.000; -119.000
460.505;   20.400;  905.000;  858.000
460.625; -103.450;  -17.000;  -68.000
460.745;  -27.600;  396.000;  541.000
460.864;  -55.800;  153.000;  469.000
460.984;   29.775;  499.000;  573.000
461.104;  129.925; 1656.000; 1775.000
461.224;   22.325;  657.000;  650.000
461.344;  -45.675;  431.000;  360.000
461.464;  -43.250;  258.000;  513.000
461.584;  -50.175;  283.000;  466.000
461.704;  -71.000;   58.000;  108.000
461.824;  -75.125;  238.000;  259.000
461.943;  -42.325;  191.000;  130.000
462.063;  -81.825;    2.000;  324.000
462.183;   21.750;  639.000;  717.000
462.303;   63.600; 1678.000; 1230.000
462.422;   33.100;  781.000;  840.000
462.542;  -43.575;  271.000;  391.000
462.662;   37.000;  353.000;  380.000
462.782;  324.800;  833.000;  572.000
462.901;  717.925;  545.000;  717.000
463.021;  396.950; 1702.000; 1638.000
463.141;    9.700;  337.000;  770.000
463.260;  -44.275;  614.000;  474.000
463.380;   -0.075;  902.000;  884.000
463.499;  -47.325;  342.000;  332.000
463.619;  -38.325;  581.000;  559.000
463.738;   88.650; 1644.000;  903.000
463.858;   11.175;  657.000;  811.000
463.978;  -30.275;  542.000;  396.000
464.097;   42.475;  921.000; 1114.000
464.217;  142.825; 1196.000; 1143.000
464.336;  144.675; 1068.000; 1130.000
464.455;  -26.350;  328.000;  659.000
464.575;    5.800;  597.000;  602.000
464.694;  114.300; 1204.000; 1179.000
464.814;  148.775; 1190.000; 1138.000
464.933;   76.200; 1095.000; 1027.000
465.052;   93.575; 1412.000; 1054.000
465.172;   58.350;  922.000;  799.000
465.291;  111.950; 1376.000; 1320.000
465.410;  -21.625;  462.000;  735.000
465.530;   71.550; 1355.000; 1310.000
465.649;   45.775; 1209.000; 1273.000
465.768;  119.850; 1673.000; 1508.000
465.888;   47.075;  941.000; 1174.000
466.007;   75.875; 1335.000; 1440.000
466.126;  -17.300;  721.000;  641.000
466.245;   48.200; 1176.000; 1187.000
466.364;    1.950;  950.000; 1060.000
466.484;   43.000; 1024.000; 1213.000
466.603;   12.625; 1101.000; 1222.000
466.722;   96.475; 1490.000; 1769.000
466.841;   54.725; 1151.000; 1401.000
466.960;   37.500; 1069.000;  972.000
467.079;  103.050; 1971.000; 1786.000
467.198;   41.175; 1238.000; 1181.000
467.317;   84.650; 1768.000; 1162.000
467.436;   66.575; 1709.000; 1261.000
467.555;  120.125; 1796.000; 1746.000
467.674;   59.975; 1227.000; 1329.000
467.793;   36.750; 1376.000; 1374.000
467.912;   72.200; 1658.000; 1539.000
468.031;  124.825; 2038.000; 1930.000
468.150;  119.500; 1842.000; 1837.000
468.269;  164.500; 2313.000; 2090.000
468.388;  172.575; 2168.000; 2339.000
468.507;  238.000; 2884.000; 2903.000
468.626;  276.500; 2555.000; 2541.000
468.744;  137.925; 2018.000; 2174.000
468.863;  183.625; 2312.000; 2523.000
468.982;   94.800; 1503.000; 1555.000
469.101;  214.500; 2788.000; 2692.000
469.220;  153.350; 2333.000; 2176.000
469.338;  238.125; 2935.000; 3051.000
469.457;  198.300; 2719.000; 2545.000
469.576;  340.425; 3953.000; 3784.000
469.695;  234.900; 2877.000; 3066.000
469.813;  404.850; 4148.000; 4192.000
469.932;  396.675; 4255.000; 4485.000
470.051;  441.325; 4075.000; 4161.000
470.169; 1030.475; 4470.000; 4338.000
470.288; 1974.025; 4700.000; 4809.000
470.406; 1161.000; 5059.000; 5194.000
470.525;  664.125; 6101.000; 5787.000
470.644;  662.775; 6847.000; 6794.000
470.762;  811.700; 8397.000; 7873.000
470.881;  925.125; 8651.000; 8464.000
470.999; 1083.400; 9685.000; 9151.000
471.118; 1097.675;11174.000;10711.000

