
Integration time [ms]: 100.000
Averaging Nr. [scans]: 40
Smoothing Nr. [pixels]: 0
Data measured with spectrometer [name]: 2101012U2
Wave   ;Sample   ;Dark     ;Reference
[nm]   ;[counts] ;[counts] ;[counts] 

197.733;   59.300;  516.000;  404.000
197.879;  -83.725; -610.000; -634.000
198.025;  -52.300; -475.000; -420.000
198.171;  -73.925; -602.000; -612.000
198.317;  -27.475; -401.000; -316.000
198.463;  -76.150; -655.000; -404.000
198.609;   15.900;  181.000; -137.000
198.755;  -72.450; -644.000; -410.000
198.901;  -75.550; -505.000; -424.000
199.047;  -56.500; -615.000; -488.000
199.193;  -40.925; -230.000; -468.000
199.339;  -43.475; -222.000; -369.000
199.485;   31.875;  330.000;  271.000
199.631;   11.825;  227.000;  310.000
199.777;  -49.150; -466.000; -398.000
199.923;  -57.100; -610.000; -424.000
200.069;   -0.325; -141.000;  -58.000
200.215;   53.300;  128.000;  453.000
200.361;   37.875;  243.000;  477.000
200.507;  -59.750; -600.000; -373.000
200.653;  -35.725; -371.000; -194.000
200.798;  -41.400; -215.000; -125.000
200.944;    5.225; -146.000;  -41.000
201.090;   31.375;   61.000;  222.000
201.236;  -10.775; -116.000; -158.000
201.382;  127.300;  874.000;  903.000
201.528;  -12.675;  -58.000;  -48.000
201.674;  -58.475; -386.000; -293.000
201.819;  -69.900; -540.000; -439.000
201.965;  -82.300; -699.000; -447.000
202.111;  -25.625; -273.000; -226.000
202.257;  -39.475; -250.000; -238.000
202.402;    6.300;   13.000;  -36.000
202.548;  -22.250; -169.000; -116.000
202.694;   77.950;  410.000; -183.000
202.840;  -75.475; -603.000; -531.000
202.985;  -86.100; -681.000; -639.000
203.131; -107.400; -832.000; -666.000
203.277;  -18.125; -199.000; -262.000
203.423;  -57.875; -434.000; -520.000
203.568;  -41.850; -462.000; -237.000
203.714;  -59.250; -535.000; -542.000
203.860;  -78.550; -682.000; -641.000
204.005;    6.900;  112.000;  167.000
204.151;   79.900;  561.000;  556.000
204.296;  -50.875; -354.000; -221.000
204.442;  -69.400; -600.000; -547.000
204.588;  -73.200; -592.000; -579.000
204.733;    9.975;  178.000;  168.000
204.879; -126.375;-1018.000; -822.000
205.025;   -0.625;  -99.000;  126.000
205.170;  -13.550;  -17.000;   94.000
205.316;   78.575;  438.000;  661.000
205.461;  -81.500; -698.000; -554.000
205.607;   85.525;  609.000;  665.000
205.752;  -75.300; -626.000; -551.000
205.898;  -59.150; -501.000; -391.000
206.043;  -76.400; -578.000; -506.000
206.189;  -44.325; -243.000; -285.000
206.334;   69.425;  554.000;  606.000
206.480;   75.925;  409.000;  239.000
206.625;  -78.950; -529.000; -552.000
206.771;  -36.325; -451.000; -373.000
206.916;  -28.350; -210.000; -537.000
207.062;  -82.100; -545.000; -591.000
207.207;  -59.725; -546.000; -443.000
207.353;   48.575;  185.000;  460.000
207.498;   15.550;  196.000;   85.000
207.643;  -56.075; -501.000; -370.000
207.789; -132.325;-1069.000; -910.000
207.934; -109.275; -665.000; -713.000
208.080;  -20.950; -154.000;   66.000
208.225;   -2.100;  -22.000;  -57.000
208.370;  -76.100; -727.000; -619.000
208.516;  -86.775; -741.000; -487.000
208.661;  -25.750; -127.000;  -69.000
208.806;  -27.200; -165.000; -171.000
208.952; -111.350;-1044.000; -731.000
209.097;   72.075;  378.000;  349.000
209.242;  -62.800; -307.000; -382.000
209.387;   57.400;  392.000;  350.000
209.533;  -45.450; -321.000; -350.000
209.678;   77.000;  472.000;  543.000
209.823;  -49.050; -408.000; -310.000
209.969; -101.275; -860.000; -757.000
210.114; -114.750; -907.000; -719.000
210.259; -124.225; -939.000; -889.000
210.404;   -8.075; -171.000;  103.000
210.549;   10.950;  108.000;    3.000
210.695;  -10.825;   -3.000;  -95.000
210.840;   29.675;   94.000;   67.000
210.985;  -81.625; -484.000; -303.000
211.130;   58.650;  268.000;  406.000
211.275;   13.350;  207.000;  199.000
211.420;  -58.700; -300.000; -289.000
211.566;  -71.850; -536.000; -489.000
211.711;    8.150;  218.000;  157.000
211.856;  -54.075; -545.000; -519.000
212.001;   14.175;  151.000;   44.000
212.146;   18.850;  153.000;   49.000
212.291;  -25.700; -210.000; -186.000
212.436;  -28.625; -280.000;   -6.000
212.581;  -85.325; -685.000; -653.000
212.726;  -71.650; -487.000; -538.000
212.871;  -50.675; -552.000; -217.000
213.016; -150.175;-1172.000;-1029.000
213.161;   59.300;  406.000;  291.000
213.306;  -72.525; -435.000; -577.000
213.451; -103.600; -778.000; -689.000
213.596;  -51.525; -455.000; -347.000
213.741;  -60.875; -448.000; -538.000
213.886;  -68.875; -498.000; -517.000
214.031;  -38.075; -294.000; -124.000
214.176;  -59.400; -408.000; -341.000
214.321;  -15.750; -296.000; -157.000
214.466;  -35.750; -163.000;  -43.000
214.611;    9.700;  -61.000;  -10.000
214.756; -125.525; -948.000; -858.000
214.901;  -29.775; -388.000; -226.000
215.046; -123.300; -797.000; -825.000
215.191;   10.800;  128.000;   35.000
215.336;  -17.875; -157.000;  -19.000
215.480;  -64.050; -684.000; -505.000
215.625;   -8.525; -175.000;  -19.000
215.770;  -80.300; -757.000; -662.000
215.915;   -2.475;   -5.000;  -97.000
216.060;   -4.275; -113.000;  -21.000
216.205; -115.475; -731.000; -779.000
216.349;  -63.775; -470.000; -533.000
216.494; -136.825; -939.000; -867.000
216.639; -106.900; -823.000; -888.000
216.784;  -83.000; -577.000; -525.000
216.929;   54.175;  392.000;  281.000
217.073;  -16.650; -244.000;  -31.000
217.218;  -10.975;   78.000;  -47.000
217.363;  -97.200; -656.000; -618.000
217.507;  -94.900; -623.000; -588.000
217.652; -137.650; -845.000; -874.000
217.797;  -87.375; -708.000; -659.000
217.942; -112.350; -856.000; -720.000
218.086;   72.200;  608.000;  539.000
218.231;  -28.525; -174.000;  -26.000
218.376;  -44.400; -337.000; -229.000
218.520;  -21.475;  -41.000;   96.000
218.665;  -34.425; -338.000; -204.000
218.810;  -36.000; -275.000; -233.000
218.954;   13.600;  201.000;   35.000
219.099; -111.300; -713.000; -963.000
219.243;  -67.125; -589.000; -554.000
219.388;  -17.750; -264.000; -136.000
219.532;  -20.725; -116.000; -116.000
219.677;  -75.125; -564.000; -521.000
219.822;    2.050;   33.000;   89.000
219.966;   15.800;   17.000;  -99.000
220.111;  -55.375; -328.000;  -40.000
220.255;  -90.675; -797.000; -750.000
220.400;  -15.500; -180.000; -146.000
220.544;  -79.250; -516.000; -450.000
220.689;  -55.025; -422.000; -451.000
220.833;  -17.700; -123.000;  -58.000
220.978;  -41.300; -393.000; -563.000
221.122;    8.225;  319.000;  307.000
221.267; -113.275; -906.000; -837.000
221.411;  -70.825; -478.000; -394.000
221.555;   -9.875; -104.000;  -23.000
221.700;  -67.000; -329.000; -222.000
221.844;   26.075;  255.000;  272.000
221.989;  -59.525; -328.000; -311.000
222.133;  -33.300; -289.000; -307.000
222.277;  -18.600;    5.000;   78.000
222.422;   19.500;  227.000;  113.000
222.566;  -34.525; -381.000; -214.000
222.711;  -58.500; -414.000; -479.000
222.855;  -84.925; -643.000; -586.000
222.999;  -79.375; -642.000; -717.000
223.144;  -20.650; -195.000; -194.000
223.288;   43.375;  423.000;  251.000
223.432;   27.650;  184.000;  230.000
223.576;   19.875;  152.000;  -21.000
223.721;   37.350;  364.000;  273.000
223.865;  -62.725; -472.000; -475.000
224.009;  221.425; 1673.000; 1631.000
224.153;  -95.225; -660.000; -671.000
224.298;  -68.875; -531.000; -489.000
224.442;  -19.700;  -74.000;  -33.000
224.586;  -12.600; -169.000; -106.000
224.730;  -91.575; -858.000; -670.000
224.875; -107.800; -739.000; -688.000
225.019;   12.125;  102.000;  188.000
225.163;   41.825;  208.000;  341.000
225.307;   15.925;   97.000;  -91.000
225.451;   27.100;  360.000;  481.000
225.595;   36.000;  264.000;  176.000
225.739;  -30.900; -170.000;  -94.000
225.884;    7.375;   86.000;    5.000
226.028; -102.450; -760.000; -626.000
226.172;  -36.025; -260.000; -273.000
226.316; -118.175; -941.000; -902.000
226.460;  -80.025; -645.000; -493.000
226.604;  -61.900; -406.000; -400.000
226.748;  -96.500; -836.000; -733.000
226.892;  -43.750; -227.000; -181.000
227.036;  -51.100; -537.000; -447.000
227.180;  -44.975; -551.000; -375.000
227.324;  -70.500; -561.000; -580.000
227.468; -122.125; -819.000; -717.000
227.612;   10.500;  242.000;  -28.000
227.756;  -97.200; -845.000; -698.000
227.900;   61.025;  342.000;  441.000
228.044;  -71.825; -509.000; -290.000
228.188;   66.400;  448.000;  568.000
228.332;  -91.625; -546.000; -472.000
228.476;  -31.400; -223.000; -149.000
228.620;  -41.250; -210.000; -150.000
228.764;   79.950;  431.000;  349.000
228.908;  -20.400; -155.000;   30.000
229.052;  -63.900; -615.000; -528.000
229.195;  -21.725; -172.000;   13.000
229.339;  -33.450; -235.000; -305.000
229.483;  -33.475;    5.000; -162.000
229.627;  -14.200; -156.000;  139.000
229.771;  -51.300; -218.000; -294.000
229.915;    8.700;  230.000;   79.000
230.059; -104.900; -648.000; -663.000
230.202;  -39.525; -370.000; -317.000
230.346;  -29.300; -107.000;  107.000
230.490;  -67.575; -489.000; -521.000
230.634; -113.750; -736.000; -553.000
230.777;   75.100;  478.000;  509.000
230.921;  -69.225; -450.000; -359.000
231.065;  -41.725; -246.000; -286.000
231.209;   30.200;  261.000;  265.000
231.352;   10.325;   54.000;   40.000
231.496;   18.125;  568.000;  188.000
231.640;  -79.400; -693.000; -621.000
231.783;   73.625;  546.000;  525.000
231.927;  -40.850; -294.000; -365.000
232.071; -121.275; -962.000; -736.000
232.214; -115.025; -980.000; -764.000
232.358; -106.200; -683.000; -599.000
232.502;   -0.375;  -19.000;    7.000
232.645; -136.350;-1090.000; -927.000
232.789;  -28.900; -257.000; -218.000
232.933;  -45.175; -407.000; -224.000
233.076; -121.450;-1038.000; -897.000
233.220; -105.225; -752.000; -777.000
233.363;  -79.750; -669.000; -477.000
233.507;   61.225;  371.000;  129.000
233.650; -101.050; -764.000; -834.000
233.794;   47.400;  438.000;  461.000
233.938;  -59.925; -530.000; -362.000
234.081;  -29.775;  -93.000;   31.000
234.225;  -71.450; -631.000; -539.000
234.368; -119.425; -773.000; -723.000
234.512;  -50.625; -385.000; -299.000
234.655;  -95.125; -582.000; -555.000
234.798;  -80.625; -493.000; -466.000
234.942; -125.025; -884.000;-1002.000
235.085;  -71.850; -651.000; -443.000
235.229;  -74.050; -405.000; -410.000
235.372;  -56.175; -247.000; -191.000
235.516;  -64.475; -397.000; -321.000
235.659;   18.225;   92.000;  121.000
235.802;  -14.050;  -38.000;  -22.000
235.946;   17.625;  335.000;  215.000
236.089;    4.925;  126.000;  250.000
236.233;   40.025;  275.000;  298.000
236.376;  -41.150; -235.000; -378.000
236.519;  -39.650; -297.000; -319.000
236.663;  -15.450; -215.000; -117.000
236.806; -140.950;-1029.000; -999.000
236.949;   56.675;  543.000;  431.000
237.092;   50.525;  412.000;  391.000
237.236;  -88.650; -589.000; -502.000
237.379;   66.175;  352.000;  428.000
237.522; -116.175; -879.000; -768.000
237.666;  -29.775; -271.000;   18.000
237.809; -120.100; -851.000; -823.000
237.952;   44.075;  469.000;  271.000
238.095;  -65.225; -447.000; -442.000
238.238;   86.800;  688.000;  700.000
238.382;   -3.350;  166.000;  103.000
238.525;  -81.925; -598.000; -511.000
238.668; -149.150;-1060.000; -985.000
238.811;  -85.300; -638.000; -643.000
238.954;  -63.950; -483.000; -334.000
239.097;   91.725;  617.000;  664.000
239.241;   23.275;  394.000;  326.000
239.384;  -50.050; -254.000; -214.000
239.527;  -65.300; -424.000; -224.000
239.670; -145.300; -994.000;-1091.000
239.813; -107.150; -696.000; -658.000
239.956;   62.825;  579.000;  473.000
240.099; -119.400; -778.000; -725.000
240.242;   63.200;  428.000;  432.000
240.385;   47.275;  466.000;  450.000
240.528;  -79.825; -706.000; -473.000
240.671;   14.025;  189.000;  134.000
240.814;  -39.850; -441.000; -158.000
240.957; -104.850; -767.000; -578.000
241.100;  -96.275; -779.000; -755.000
241.243; -150.775;-1234.000; -893.000
241.386;  -69.925; -508.000; -379.000
241.529;  -88.150; -735.000; -547.000
241.672;  -65.625; -566.000; -495.000
241.815; -133.275; -832.000; -808.000
241.958;  -41.975; -125.000; -182.000
242.101;  -85.950; -545.000; -390.000
242.244;  -34.650; -270.000; -325.000
242.387;  -49.050; -304.000; -246.000
242.530;   58.675;  470.000;  134.000
242.673;  -54.350; -381.000; -309.000
242.815; -115.350; -925.000; -899.000
242.958;  -66.425; -482.000; -381.000
243.101;    5.600;  132.000;  187.000
243.244;  -89.025; -564.000; -521.000
243.387;  -55.825; -313.000; -316.000
243.530;  -97.925; -657.000; -674.000
243.672;   -2.450;   43.000;  -92.000
243.815;  -63.250; -355.000; -283.000
243.958;   -3.700;   98.000;  -26.000
244.101;   -6.250;   59.000;  -16.000
244.243;   -2.375;  -47.000;  101.000
244.386; -108.600; -761.000; -630.000
244.529;  -29.800; -132.000; -139.000
244.672; -151.300;-1154.000; -951.000
244.814; -104.175; -621.000; -794.000
244.957;  -66.325; -380.000; -304.000
245.100;  -61.750; -489.000; -489.000
245.242;  -56.550; -387.000; -374.000
245.385;  -14.850;  -59.000;  -39.000
245.528; -121.450; -871.000; -705.000
245.670;   92.850;  612.000;  634.000
245.813; -102.675; -599.000; -547.000
245.956;  -29.525; -324.000; -275.000
246.098;  -66.625; -508.000; -650.000
246.241;   13.825;  194.000;   48.000
246.383;  -15.650; -119.000;  -73.000
246.526;  -80.225; -454.000; -525.000
246.669; -123.600; -889.000; -780.000
246.811;    4.700;  172.000;   -1.000
246.954;  -74.350; -512.000; -426.000
247.096;  -31.350;  -84.000;   -6.000
247.239;  -75.975; -482.000; -445.000
247.381;  -65.050; -647.000; -488.000
247.524;   78.975;  645.000;  679.000
247.666;   -5.725;   58.000;   11.000
247.809; -115.550; -887.000; -691.000
247.951;  -12.900;  -75.000;  138.000
248.094;   22.650;  432.000;  308.000
248.236; -175.875;-1262.000;-1238.000
248.378;    8.650; -356.000;  -81.000
248.521;  -40.050; -334.000; -337.000
248.663;  -40.225; -236.000; -267.000
248.806;  -15.375; -300.000; -266.000
248.948;  -99.050; -886.000; -763.000
249.090;  -40.450; -428.000; -398.000
249.233;  -43.050; -344.000; -381.000
249.375;  -69.575; -474.000; -451.000
249.518;  -23.600;  -83.000; -133.000
249.660;  -15.475; -103.000;    3.000
249.802; -170.250;-1303.000;-1189.000
249.945;  -68.725; -612.000; -540.000
250.087; -128.050; -834.000; -768.000
250.229;  -44.375; -362.000; -480.000
250.371;  -89.050; -494.000; -439.000
250.514;  -44.875; -310.000; -244.000
250.656;  -50.900;   69.000;  102.000
250.798; -123.075; -849.000; -800.000
250.940;  -81.775; -322.000; -322.000
251.083;  -42.300; -335.000; -111.000
251.225;   53.500;  338.000;  310.000
251.367;  -34.650; -274.000; -373.000
251.509;  -35.625; -265.000; -210.000
251.651;  -98.825; -731.000; -671.000
251.794;   48.925;  538.000;  632.000
251.936; -118.350; -821.000; -747.000
252.078;  -81.025; -540.000; -461.000
252.220;  -73.850; -645.000; -477.000
252.362;   86.300;  344.000;  462.000
252.504;  -66.000; -677.000; -584.000
252.646; -125.125; -875.000; -722.000
252.788;  -10.600;   14.000; -128.000
252.931;  -47.200; -257.000; -253.000
253.073;  -41.150; -376.000; -317.000
253.215;  -22.350;  141.000;  122.000
253.357;  -11.600;   82.000; -153.000
253.499;  -62.650; -374.000; -234.000
253.641;  -83.600; -749.000; -594.000
253.783;  -98.600; -609.000; -527.000
253.925; -100.300; -586.000; -591.000
254.067; -116.375; -744.000; -667.000
254.209;  -26.275; -391.000; -259.000
254.351; -128.500; -865.000; -883.000
254.493;  -59.000; -441.000; -417.000
254.635; -135.050; -936.000; -818.000
254.777;  -98.250; -752.000; -687.000
254.918;  -71.600; -512.000; -430.000
255.060;  -65.300; -551.000; -395.000
255.202;  -57.475; -473.000; -261.000
255.344;  -81.750; -658.000; -455.000
255.486;  -77.075; -471.000; -406.000
255.628; -110.100; -780.000; -781.000
255.770; -100.050; -676.000; -536.000
255.912;  -77.275; -559.000; -468.000
256.053;  -84.725; -730.000; -508.000
256.195;  155.950; 1008.000;  903.000
256.337;  -94.575; -861.000; -595.000
256.479;   59.425;  532.000;  416.000
256.621;  -47.375; -394.000; -212.000
256.762; -108.725; -789.000; -742.000
256.904;   29.625;  485.000;  487.000
257.046;  -46.375; -381.000; -271.000
257.188;  -42.400; -351.000; -264.000
257.329;  -82.100; -525.000; -464.000
257.471; -120.775; -939.000; -807.000
257.613;  -68.050; -584.000; -498.000
257.755; -143.250;-1073.000; -982.000
257.896;   12.325;  286.000;  392.000
258.038;  -79.475; -403.000; -352.000
258.180;  -52.025; -354.000; -279.000
258.321;  -95.800; -581.000; -457.000
258.463;  -19.025;  -71.000;  133.000
258.605;  -94.550; -562.000; -570.000
258.746; -104.350; -886.000; -772.000
258.888; -147.675;-1026.000;-1020.000
259.029;    5.225;  121.000;   -8.000
259.171;  -82.600; -614.000; -550.000
259.313;    0.875;  -49.000;  -47.000
259.454;  -81.925; -536.000; -414.000
259.596;  -63.975; -483.000; -390.000
259.737;  -76.650; -590.000; -474.000
259.879;   32.325;  217.000;  311.000
260.020;   84.125;  901.000;  636.000
260.162;  -37.625; -146.000; -253.000
260.303; -126.950; -768.000; -687.000
260.445;  -81.500; -609.000; -613.000
260.586;   18.975;  392.000;  157.000
260.728;  -47.875; -360.000; -248.000
260.869; -117.025; -350.000; -343.000
261.011;   77.125;  706.000;  537.000
261.152;  -58.000; -479.000; -319.000
261.293;  -95.100; -576.000; -595.000
261.435;  -40.600; -219.000; -184.000
261.576;  -59.275; -455.000; -325.000
261.718;   51.200;  420.000;  470.000
261.859; -125.175; -940.000; -949.000
262.000; -144.025; -951.000;-1016.000
262.142;  -30.300;  -52.000;  -60.000
262.283; -114.075; -808.000; -691.000
262.424;  -91.375; -666.000; -625.000
262.566; -163.275;-1161.000; -983.000
262.707; -122.550; -840.000; -830.000
262.848; -122.450; -769.000; -726.000
262.990;  -51.325; -362.000; -345.000
263.131;   76.725;  650.000;  681.000
263.272;  -15.850;  -61.000;  -41.000
263.413;  -93.600; -589.000; -561.000
263.555;  -80.300; -669.000; -143.000
263.696;  -90.925; -550.000; -641.000
263.837;  -66.450; -449.000; -551.000
263.978;    0.050;   -5.000;  -77.000
264.119;  -46.525; -283.000; -264.000
264.261; -124.650; -847.000; -630.000
264.402;  -12.350;   33.000;   40.000
264.543;  -75.750; -509.000; -524.000
264.684;  -13.900;   61.000;  -50.000
264.825;  -82.775; -816.000; -538.000
264.966;   -2.200;  -84.000;  -67.000
265.107; -115.575; -646.000; -670.000
265.248; -124.025; -825.000; -812.000
265.390;   -9.775;  152.000;   -9.000
265.531;  -30.175; -238.000; -107.000
265.672;  -86.550; -557.000; -630.000
265.813;   51.750;  563.000;  439.000
265.954; -146.800; -959.000; -940.000
266.095;  -15.225; -372.000; -322.000
266.236;  -97.100; -686.000; -548.000
266.377;  -50.475; -243.000; -297.000
266.518;  -71.500; -619.000; -547.000
266.659;   19.600;  170.000;  268.000
266.800;    3.700;   83.000;   85.000
266.941;  -72.025; -487.000; -478.000
267.082;   -2.725;  354.000;   99.000
267.223;  -54.625; -344.000; -273.000
267.364; -132.975; -892.000; -686.000
267.504;  -16.025;    3.000;  135.000
267.645;   -3.650;  160.000;   67.000
267.786;  -43.975; -147.000;  -86.000
267.927;  -74.900; -473.000; -379.000
268.068;  -12.575; -186.000;  -61.000
268.209;  -47.550; -175.000; -413.000
268.350;  -60.875; -388.000; -532.000
268.490;  -84.500; -648.000; -521.000
268.631;   28.325;  127.000;  225.000
268.772; -118.500; -874.000; -647.000
268.913;  -41.650; -328.000; -476.000
269.054;  -12.200; -117.000;   12.000
269.194;  -64.750; -418.000; -402.000
269.335; -161.775;-1137.000;-1074.000
269.476;  -32.450;   33.000;  -35.000
269.617;  -51.000; -347.000; -392.000
269.757; -101.125; -713.000; -646.000
269.898; -112.050; -856.000; -613.000
270.039;  -67.700; -415.000; -405.000
270.180; -134.200; -952.000; -816.000
270.320;  -27.250; -190.000; -250.000
270.461;  -37.025; -277.000; -249.000
270.602;  -26.575; -186.000; -156.000
270.742; -125.200; -868.000; -943.000
270.883;  -52.375; -442.000; -390.000
271.023;  -59.250; -358.000; -357.000
271.164;  -69.650; -607.000; -528.000
271.305;  -97.500; -666.000; -654.000
271.445;  -90.200; -722.000; -683.000
271.586;  -65.100; -462.000; -283.000
271.726;  -42.550; -397.000; -322.000
271.867;  -53.100; -594.000; -534.000
272.008;  205.125; -473.000; -285.000
272.148;  145.700;  462.000;  468.000
272.289;    0.125; -113.000; -181.000
272.429;   16.200;   19.000;  185.000
272.570; -103.225; -633.000; -737.000
272.710; -106.875; -825.000; -775.000
272.851;  -26.975;  113.000; -130.000
272.991; -164.125;-1173.000;-1077.000
273.131;  -79.125; -419.000; -459.000
273.272; -102.100; -683.000; -723.000
273.412;   12.975; -143.000;  -31.000
273.553;  -62.150; -488.000; -507.000
273.693;  141.250;  913.000;  858.000
273.834;  -87.675; -894.000; -692.000
273.974;  -63.725; -664.000; -615.000
274.114; -114.450; -772.000; -560.000
274.255;   87.375;  414.000;  373.000
274.395;    9.350; -180.000; -125.000
274.535;   44.825;  199.000;  350.000
274.676;   13.375;  225.000;   94.000
274.816;   -3.775;  110.000;   34.000
274.956;  -80.975; -624.000; -690.000
275.097;  -66.150;-1014.000; -922.000
275.237; -119.375; -913.000; -803.000
275.377;  -93.800; -778.000; -689.000
275.517; -153.000; -878.000; -937.000
275.658;  -58.750; -590.000; -555.000
275.798;  -62.775; -606.000; -413.000
275.938;   20.150;  215.000;  323.000
276.078; -105.775; -626.000; -395.000
276.218;    4.125;   99.000;  104.000
276.359; -121.400;-1026.000;-1024.000
276.499;  -78.975; -605.000; -446.000
276.639;  -44.400; -305.000; -151.000
276.779;  -74.025; -475.000; -357.000
276.919;  -92.925; -783.000; -624.000
277.059;  -27.750; -261.000; -212.000
277.199;  -42.275; -357.000; -259.000
277.340;   50.975;  287.000;  175.000
277.480; -116.400; -840.000; -693.000
277.620;   22.400;  192.000;   16.000
277.760; -202.125;-1533.000;-1294.000
277.900;   18.950;  113.000;   33.000
278.040;   13.425;  137.000;  159.000
278.180;   29.900;  270.000;  170.000
278.320;   -4.325;   21.000;   56.000
278.460;  -71.700; -443.000; -469.000
278.600;  -88.125; -708.000; -598.000
278.740;   58.750;  448.000;  224.000
278.880;  -30.400; -768.000; -791.000
279.020;    3.625; -194.000; -144.000
279.160;  -92.900; -672.000; -595.000
279.300; -114.725; -926.000; -873.000
279.440;  -96.275; -709.000; -622.000
279.579;  -11.275;-1014.000; -929.000
279.719;  -29.050; -410.000; -394.000
279.859;   76.750;   -4.000;   41.000
279.999;   37.975; -208.000;  101.000
280.139;  -10.575; -435.000; -387.000
280.279;  -83.575; -708.000; -745.000
280.419;   -5.675; -229.000; -147.000
280.559;  -31.075; -259.000; -180.000
280.698;  -83.100; -790.000; -639.000
280.838;  -82.225; -778.000; -800.000
280.978; -113.575; -846.000; -790.000
281.118; -114.650; -811.000; -704.000
281.257;    7.350;   24.000;    6.000
281.397; -106.950;-1094.000; -960.000
281.537;  -88.000; -599.000; -712.000
281.677;  -22.300; -150.000; -101.000
281.816;  -94.100; -700.000; -630.000
281.956;  -36.275; -193.000; -257.000
282.096;  -58.925; -539.000; -396.000
282.235; -106.675; -672.000; -638.000
282.375;  -25.200; -243.000;  -98.000
282.515; -110.325; -715.000; -707.000
282.654;   30.600;   29.000;  106.000
282.794;   15.000;  388.000;  244.000
282.934;  -68.000; -530.000; -491.000
283.073; -130.725;-1030.000; -857.000
283.213;  -57.250; -460.000; -467.000
283.353;  -29.650; -408.000; -349.000
283.492;  -40.925; -264.000; -296.000
283.632;  -32.675; -254.000; -168.000
283.771;  -91.150; -859.000; -730.000
283.911;  -54.225; -369.000; -260.000
284.050;  -99.125; -794.000; -748.000
284.190; -168.875;-1229.000;-1096.000
284.329; -131.750;-1055.000; -964.000
284.469;  -54.950; -516.000; -591.000
284.608;  -60.175; -559.000; -598.000
284.748;  -90.325; -614.000; -570.000
284.887;  -20.325;  -87.000;  -20.000
285.027; -125.500; -844.000; -892.000
285.166;  -32.100; -192.000; -249.000
285.306;   -6.500; -116.000;  -33.000
285.445;  -45.600; -229.000; -343.000
285.584;  -99.375; -630.000; -494.000
285.724;  -45.900; -282.000; -322.000
285.863; -111.525; -857.000; -507.000
286.002;  -54.150; -366.000; -276.000
286.142; -105.450; -715.000; -622.000
286.281;  -73.075; -525.000; -493.000
286.420;  -75.525; -554.000; -417.000
286.560;   96.825;  653.000;  623.000
286.699; -141.700; -958.000; -912.000
286.838;  -82.425; -590.000; -591.000
286.978;  -92.625; -533.000; -537.000
287.117; -134.975;-1085.000; -950.000
287.256;  -28.000; -228.000; -211.000
287.395;  -58.000; -197.000; -378.000
287.535;  -56.400; -370.000; -298.000
287.674;  -86.325; -509.000; -484.000
287.813;   56.750;  661.000;  533.000
287.952; -123.350;-1010.000; -871.000
288.091; -155.050;-1049.000; -915.000
288.231;    9.150;   13.000;   15.000
288.370; -165.000;-1217.000;-1200.000
288.509;  -77.725; -728.000; -645.000
288.648;  -97.050; -770.000; -548.000
288.787;  -46.925; -243.000;  -87.000
288.926;  -69.250; -454.000; -475.000
289.065;  120.150;  859.000;  672.000
289.204;  -55.175; -377.000; -217.000
289.344;  -97.375; -791.000; -690.000
289.483;   28.500;  416.000;  304.000
289.622;  -27.800; -291.000; -149.000
289.761;   -9.900; -309.000; -166.000
289.900; -115.575; -785.000; -626.000
290.039;  -27.325;  -12.000;  -95.000
290.178;  -46.100; -274.000; -180.000
290.317;  -80.150; -618.000; -479.000
290.456;  -67.650; -463.000; -451.000
290.595; -136.000; -961.000; -833.000
290.734; -145.200; -904.000; -891.000
290.873;  -75.425; -456.000; -420.000
291.011; -119.825; -833.000; -843.000
291.150; -106.950; -770.000; -682.000
291.289;  -13.575; -343.000; -110.000
291.428;  -93.925; -599.000; -480.000
291.567;  -52.150; -370.000; -442.000
291.706;  -17.075;  109.000;  154.000
291.845;  -95.850; -597.000; -505.000
291.984; -168.800;-1234.000;-1061.000
292.122;   69.325;  602.000;  582.000
292.261;   45.375;  620.000;  463.000
292.400;    2.400; -144.000;  211.000
292.539; -135.625; -959.000; -813.000
292.678;  -33.300; -325.000; -300.000
292.816; -157.800;-1136.000; -965.000
292.955;  -78.300; -844.000; -684.000
293.094;  -45.800; -173.000; -337.000
293.233;  -52.075; -556.000; -400.000
293.371;  -31.100; -225.000;  -84.000
293.510;  -94.650; -866.000; -780.000
293.649; -121.375; -959.000; -924.000
293.787;  -35.775;-1083.000;-1012.000
293.926;   -8.550; -113.000;  -32.000
294.065;  -39.150; -379.000; -290.000
294.203;   47.525;  298.000;  406.000
294.342;   32.575;   74.000;  156.000
294.481; 5436.725;51180.000; -836.000
294.619;  -41.625; -425.000; -582.000
294.758; -125.075;-1230.000;-1137.000
294.896;   75.400; -125.000;    5.000
295.035; -124.075;-1040.000;-1006.000
295.174; -115.775;-1082.000; -954.000
295.312;  -43.500; -323.000; -203.000
295.451;   -7.925; -307.000; -428.000
295.589;  -47.525; -389.000; -518.000
295.728;   26.850; -292.000; -165.000
295.866;    4.875;  -36.000;  -51.000
296.005;  -70.400; -584.000; -341.000
296.143;  -75.075; -558.000; -596.000
296.282;  -99.550; -957.000; -881.000
296.420;  -93.475; -657.000; -557.000
296.559;  -77.625; -892.000; -633.000
296.697;   56.775; -847.000; -665.000
296.835;  114.800;-1141.000;-1002.000
296.974;   63.125;  -23.000;   39.000
297.112;   33.600; -443.000; -504.000
297.251;  -68.775; -815.000; -755.000
297.389;  134.000; -576.000; -438.000
297.527;   52.450; -145.000;  -83.000
297.666;  -51.125; -486.000; -438.000
297.804;  -44.475; -404.000; -264.000
297.942;   -1.100; -136.000; -161.000
298.081;    4.275; -183.000;   63.000
298.219;   82.125;  -17.000;  -19.000
298.357;   66.625; -144.000;  -71.000
298.495;   62.825; -810.000; -812.000
298.634;  112.425;  245.000;  219.000
298.772;   88.325; -220.000; -338.000
298.910;  -25.225; -309.000; -182.000
299.048;   -2.150; -130.000; -153.000
299.187;  -29.150; -350.000; -250.000
299.325;   25.300;   52.000;  122.000
299.463;   91.850; -389.000; -299.000
299.601;  153.825; -327.000; -271.000
299.739;  -93.150; -908.000; -883.000
299.877;  -70.450; -791.000; -703.000
300.016;  -11.775;-1095.000; -935.000
300.154;  197.900;  -19.000; -161.000
300.292;   75.050; -428.000; -348.000
300.430;   52.550; -408.000; -291.000
300.568;  -99.425; -940.000; -874.000
300.706;  -35.225; -366.000; -469.000
300.844;  -49.600;-1108.000; -979.000
300.982;  126.775;  246.000;  282.000
301.120; -114.475; -965.000; -866.000
301.258;  -66.125; -812.000; -705.000
301.396;   36.050;  104.000;  -41.000
301.534;  116.675; -218.000; -293.000
301.672;   15.975; -664.000; -521.000
301.810;   60.275; -613.000; -545.000
301.948;  157.925;   53.000;  149.000
302.086;  776.550; -250.000;  -32.000
302.224; 1159.800; -610.000; -585.000
302.362;   74.450; -558.000; -622.000
302.500;   11.575; -923.000; -893.000
302.638;  118.350;  128.000;  245.000
302.776;   14.025; -352.000; -408.000
302.913;   49.625;  447.000;  236.000
303.051;   -5.425;  -86.000;  -23.000
303.189;   56.225;   90.000;  118.000
303.327;  -40.225; -341.000; -256.000
303.465;  -84.700; -832.000; -588.000
303.603;  -95.300; -805.000; -604.000
303.740;  114.100;  417.000;  241.000
303.878;   48.125; -800.000; -759.000
304.016;  -92.125; -915.000; -790.000
304.154; -115.525;-1123.000;-1152.000
304.291;  -14.950; -505.000; -554.000
304.429;   20.750;  102.000;   74.000
304.567; -129.175; -908.000; -893.000
304.705;  -51.075; -408.000; -515.000
304.842;  133.600; -616.000; -540.000
304.980;   62.125;  215.000;   35.000
305.118;   75.550; -367.000; -365.000
305.255;  -56.500; -945.000; -927.000
305.393;   61.850;  178.000;  239.000
305.531;  -87.150;-1173.000; -956.000
305.668;  -62.125; -663.000; -582.000
305.806;  134.000; -358.000; -439.000
305.943;  146.725; -629.000; -637.000
306.081;   78.050; -378.000; -267.000
306.219; -108.025; -863.000; -748.000
306.356;   -5.025;  158.000;   27.000
306.494;  106.300;  981.000;  761.000
306.631;   -4.600;  -11.000;  -55.000
306.769;   12.450; -613.000; -485.000
306.906;  -13.500; -284.000; -258.000
307.044;  -66.050; -473.000; -488.000
307.181;  -71.750; -410.000; -332.000
307.319;   15.650;  112.000;   87.000
307.456; -178.900;-1191.000;-1153.000
307.594;  -91.775; -980.000; -727.000
307.731;    3.100; -371.000; -164.000
307.868;   -3.075;  -15.000;   20.000
308.006; -128.525; -961.000; -847.000
308.143;  -67.600; -618.000; -330.000
308.281;  204.125;  -37.000; -254.000
308.418;    3.200; -748.000; -640.000
308.555;  -80.475; -400.000; -250.000
308.693;  -69.700; -577.000; -573.000
308.830; -102.675; -712.000; -657.000
308.967;   -6.100; -215.000;  -95.000
309.105;  -52.950; -507.000; -396.000
309.242;   41.300; -468.000; -367.000
309.379;  380.625; -577.000; -655.000
309.517;  -51.925; -936.000; -948.000
309.654; -105.600; -910.000; -734.000
309.791;  -79.600; -662.000; -580.000
309.928; -115.125; -977.000; -914.000
310.065;  185.775;  819.000;  697.000
310.203;   13.675; -825.000; -850.000
310.340;    4.125; -465.000; -321.000
310.477;  -81.725; -412.000; -516.000
310.614;  -71.850; -383.000; -473.000
310.751;  -74.675; -427.000; -518.000
310.889;  -25.200;    1.000;   11.000
311.026; -154.025;-1161.000; -939.000
311.163;  -50.425; -386.000; -380.000
311.300;  -68.525; -512.000; -479.000
311.437;  -77.500; -658.000; -619.000
311.574; -149.600;-1226.000; -985.000
311.711;  -58.100; -595.000; -433.000
311.848;  -36.750; -380.000; -388.000
311.985;    9.250;  270.000;   93.000
312.122; -118.925; -932.000; -762.000
312.259; -126.750; -941.000; -994.000
312.396;  -86.900; -508.000; -551.000
312.533;  -86.500; -812.000; -790.000
312.670; -137.975;-1070.000; -898.000
312.807;  -38.900; -352.000; -367.000
312.944;  -84.975; -513.000; -611.000
313.081;  -24.850; -150.000; -415.000
313.218; -100.250;-1111.000; -867.000
313.355;   28.675; -531.000; -449.000
313.492;   16.675; -455.000; -292.000
313.629;  131.750;  815.000;  735.000
313.766; -140.825;-1176.000;-1008.000
313.902;  -22.500; -186.000;   21.000
314.039;  -47.600; -372.000; -289.000
314.176;   26.375;  286.000;  192.000
314.313;  -69.700; -569.000; -473.000
314.450;  -75.950; -788.000; -684.000
314.587;  -54.500; -468.000; -480.000
314.723;    1.650;  -78.000;  130.000
314.860;   39.725;  318.000;  332.000
314.997;   34.525;  223.000;  142.000
315.134;  -43.150; -385.000; -368.000
315.270;  -32.975; -480.000; -496.000
315.407; -120.225;-1094.000; -967.000
315.544;  -40.300; -657.000; -538.000
315.681;  -61.250; -681.000; -565.000
315.817;   34.125; -133.000; -176.000
315.954;   26.600; -613.000; -392.000
316.091; -120.600;-1045.000;-1023.000
316.227;  -31.175;  -71.000; -179.000
316.364;  -13.475;   23.000;    6.000
316.500;  -30.000; -113.000; -300.000
316.637;  -31.775; -181.000; -302.000
316.774;  -93.625; -625.000; -358.000
316.910;  -99.150; -598.000; -629.000
317.047;  -65.675; -487.000; -351.000
317.183;  -53.575; -435.000; -566.000
317.320;  -31.125; -367.000; -321.000
317.456;  -73.675; -733.000; -805.000
317.593;  -93.950; -598.000; -641.000
317.729;    1.075;  168.000;  -67.000
317.866; -192.550;-1434.000;-1285.000
318.002;  -97.350; -708.000; -948.000
318.139;  -96.125; -883.000; -867.000
318.275;  -99.975;-1003.000; -738.000
318.412;  -67.825; -517.000; -336.000
318.548;  -10.425; -751.000; -720.000
318.685;  -92.850; -985.000; -888.000
318.821;  -91.725; -762.000; -735.000
318.957;  -24.125;   34.000;  -23.000
319.094;   37.075;  297.000;  154.000
319.230;  -49.925; -756.000; -742.000
319.367;  165.150; -471.000; -520.000
319.503;   83.075; -538.000; -436.000
319.639;  -96.875; -877.000; -793.000
319.775;  -56.075; -750.000; -685.000
319.912;  -60.325; -424.000; -519.000
320.048;  -77.075;-1184.000;-1184.000
320.184;   63.525;   59.000;   70.000
320.321;  -58.700; -497.000; -467.000
320.457;   65.175;  475.000;  662.000
320.593;  -55.650; -375.000; -382.000
320.729; -113.175; -732.000; -734.000
320.866;  -75.650; -577.000; -635.000
321.002;  -78.725; -759.000; -809.000
321.138;   -7.975; -135.000; -211.000
321.274;   78.850; -148.000; -115.000
321.410;  -22.100; -585.000; -353.000
321.546;   -0.425;-1011.000; -911.000
321.683;   55.500;  400.000;  185.000
321.819;    3.675;  -48.000; -117.000
321.955; -100.775; -743.000; -722.000
322.091;  -36.200; -585.000; -540.000
322.227;   -0.225; -382.000; -202.000
322.363;  -21.350; -320.000; -215.000
322.499;  -37.575; -343.000; -331.000
322.635;  191.175;  636.000;  443.000
322.771;   35.500; -139.000;   12.000
322.907;  109.025;  129.000;  327.000
323.043;   -8.575; -115.000; -206.000
323.179;  -34.475; -394.000; -363.000
323.315;   55.500; -401.000; -371.000
323.451;  133.375; -328.000; -236.000
323.587;   68.650;  -60.000;  -77.000
323.723;   27.150; -682.000; -601.000
323.859;  -12.700; -258.000;  -76.000
323.995;  -38.300; -467.000; -409.000
324.131; -129.075; -967.000; -892.000
324.267;  -45.125; -254.000; -276.000
324.402; -117.800; -960.000; -983.000
324.538;  -15.075; -279.000; -104.000
324.674;   20.075;  164.000;   77.000
324.810;  169.300;  226.000;  308.000
324.946;   19.375; -810.000; -658.000
325.082;  -68.425; -568.000; -475.000
325.217;   10.825;  -62.000;   16.000
325.353;  -89.250; -764.000; -659.000
325.489;  -84.250; -540.000; -506.000
325.625;  -63.325; -579.000; -525.000
325.760;   51.925;  517.000;  376.000
325.896;  -30.425; -515.000; -702.000
326.032;  -44.675; -403.000; -352.000
326.168;  -54.450; -462.000; -369.000
326.303;  -65.050; -352.000; -461.000
326.439;  -23.725; -336.000; -276.000
326.575;   -2.500; -190.000;  -29.000
326.710;    0.175; -156.000;  -30.000
326.846;   -9.000;  146.000;  103.000
326.982; -107.175; -530.000; -548.000
327.117;  -68.900; -481.000; -442.000
327.253;  -95.300; -745.000; -742.000
327.388; -125.775;-1137.000;-1153.000
327.524;  -42.575; -811.000; -578.000
327.659;  -25.375;  -58.000;  -22.000
327.795;  -15.625;   69.000;   45.000
327.931; -106.925; -723.000; -499.000
328.066;   -7.525; -417.000; -276.000
328.202;   -6.900;   12.000; -129.000
328.337;   95.700;  957.000;  713.000
328.473;   42.200;  -12.000;  -74.000
328.608;  -15.075; -256.000; -267.000
328.743;  -73.800; -799.000; -664.000
328.879;   10.400;  214.000;  114.000
329.014;  -40.775; -102.000; -122.000
329.150;  -89.300; -358.000; -483.000
329.285;  -72.250; -465.000; -466.000
329.421;  -63.975; -548.000; -246.000
329.556;  -17.625;  -36.000;   85.000
329.691;  -97.400; -633.000; -615.000
329.827;  -84.000; -626.000; -480.000
329.962;  -34.600;  131.000; -301.000
330.097;  -97.050; -673.000; -585.000
330.233;  -62.775; -410.000; -223.000
330.368; -128.825; -839.000; -628.000
330.503;  -14.850;    3.000;   98.000
330.638;    5.100;  -93.000; -125.000
330.774;  -45.925; -609.000; -530.000
330.909;  -45.325; -434.000; -244.000
331.044;  -93.275; -714.000; -708.000
331.179; -175.700;-1217.000;-1109.000
331.315;    9.100;   77.000;   20.000
331.450;   14.350;  157.000;  285.000
331.585;  -88.450; -805.000; -706.000
331.720;  -76.725; -510.000; -460.000
331.855;  -10.325;  -35.000; -102.000
331.990;  207.375;   62.000;  138.000
332.126;  106.175; -110.000;   71.000
332.261;  -27.225; -379.000; -265.000
332.396;  -10.825; -135.000; -242.000
332.531; -105.350;-1074.000;-1031.000
332.666;   19.125; -519.000; -363.000
332.801;  -95.100; -726.000; -807.000
332.936;  -26.950; -192.000; -122.000
333.071; -126.925; -870.000; -817.000
333.206;   11.150;  307.000;  379.000
333.341;   32.900;  344.000;  418.000
333.476;  -86.925; -627.000; -623.000
333.611;  -29.150; -251.000; -173.000
333.746;  -51.125; -381.000; -464.000
333.881; -111.800; -973.000; -935.000
334.016; -123.000; -936.000; -917.000
334.151; -116.000; -746.000; -702.000
334.286;   18.450;  152.000;  186.000
334.421;   -6.200; -125.000; -178.000
334.556;  -90.275; -611.000; -567.000
334.690;  -72.800; -631.000; -577.000
334.825;   63.150;  381.000;   83.000
334.960;  -52.400; -285.000; -413.000
335.095;   13.225;  135.000;  -91.000
335.230;  -91.175; -722.000; -738.000
335.365; -125.375;-1084.000; -990.000
335.499; -125.700;-1108.000;-1037.000
335.634;   37.325;    9.000;  534.000
335.769;  -96.750; -755.000; -720.000
335.904;  -57.425; -603.000; -561.000
336.038;  -63.125; -735.000; -657.000
336.173; -108.275;-1206.000;-1194.000
336.308;   13.225; -116.000; -189.000
336.443;   43.525; -544.000; -634.000
336.577;  -50.925; -936.000; -787.000
336.712;   75.450;   -4.000;  -12.000
336.847;  -14.900; -724.000; -607.000
336.981;  103.625; -272.000; -208.000
337.116;  328.450;  615.000;  501.000
337.250;  188.525; -434.000; -421.000
337.385;  208.925; -297.000; -208.000
337.520;   47.500; -632.000; -603.000
337.654;  -41.925; -215.000; -126.000
337.789; -131.125; -989.000; -933.000
337.923;  -29.400; -104.000; -205.000
338.058;  -80.200; -673.000; -738.000
338.192;  -32.400; -611.000; -488.000
338.327;  -14.750;  -18.000; -155.000
338.461;  -54.550; -299.000; -469.000
338.596;  -84.925; -780.000; -638.000
338.730; -102.350; -767.000; -803.000
338.865;   79.150;  -46.000; -140.000
338.999;  -56.125; -846.000; -702.000
339.134;  -38.600; -634.000; -536.000
339.268;   12.575; -741.000; -603.000
339.403;  327.375; -740.000; -775.000
339.537;  100.325; -894.000; -820.000
339.671; -124.350; -829.000; -813.000
339.806;  -73.450; -556.000; -512.000
339.940;   20.925; -261.000; -235.000
340.074;  -93.025; -685.000; -510.000
340.209;  -42.350; -351.000; -230.000
340.343;  -86.475; -517.000; -573.000
340.477;  158.375;  998.000; 1036.000
340.612;  -49.425;-1033.000; -900.000
340.746;  115.025; -199.000; -243.000
340.880;  -54.425; -924.000; -785.000
341.014;  -12.450;  -45.000; -154.000
341.149; -122.750; -756.000; -718.000
341.283; -110.325; -839.000; -754.000
341.417;  -82.225;-1124.000; -938.000
341.551;  206.200; -768.000; -708.000
341.685;  -28.825; -633.000; -611.000
341.820;  -50.025; -562.000; -493.000
341.954;  -67.375; -218.000; -349.000
342.088; -154.625;-1102.000;-1019.000
342.222;   59.750;  565.000;  618.000
342.356;  -63.175; -395.000; -335.000
342.490;  -86.400; -880.000; -841.000
342.624;  -39.750; -339.000; -242.000
342.758;   19.800; -364.000; -312.000
342.892;  -59.925; -710.000; -585.000
343.026;  -34.750;  -58.000; -116.000
343.160;  -71.475; -426.000; -376.000
343.294;  -90.975; -474.000; -337.000
343.428;   -2.725; -488.000; -448.000
343.562;   -4.000; -172.000;  -23.000
343.696;  -12.725; -385.000; -314.000
343.830;    0.125; -362.000; -356.000
343.964;   44.350; -231.000; -168.000
344.098; 1157.950;  199.000;   70.000
344.232;  947.725; -266.000; -127.000
344.366;  104.450; -567.000; -453.000
344.500;   94.675; -665.000; -744.000
344.634;   51.875; -324.000; -164.000
344.768;   -7.125; -531.000; -341.000
344.902;   31.700;  278.000;  256.000
345.035;  -73.875; -556.000; -496.000
345.169; -136.850; -933.000; -656.000
345.303;  -17.175; -308.000; -482.000
345.437;  -66.050; -826.000; -717.000
345.571;  -80.375; -675.000; -594.000
345.704;  -64.000; -309.000; -532.000
345.838;  -10.750; -331.000; -284.000
345.972;  -25.475; -543.000; -495.000
346.106;  148.050; -179.000; -190.000
346.239;  440.075; -312.000; -243.000
346.373;   19.000; -343.000; -302.000
346.507; -134.900; -950.000; -962.000
346.640;  189.975;  -30.000;   13.000
346.774;  -23.925; -650.000; -797.000
346.908;  -17.175; -138.000;  -11.000
347.041;  -86.100; -646.000; -593.000
347.175;   -2.775;  259.000;   27.000
347.309;  -63.825; -698.000; -628.000
347.442;  -80.700; -883.000; -732.000
347.576;  328.175;  670.000;  668.000
347.709;  237.700; -123.000;  -52.000
347.843;  -62.600; -933.000; -825.000
347.976;   34.175;  235.000;  294.000
348.110; -181.100;-1268.000;-1186.000
348.243; -106.600; -679.000; -772.000
348.377;   -3.750;  -26.000;   60.000
348.510;   61.050;  403.000;  540.000
348.644;  -24.050;  -37.000; -159.000
348.777;    4.375;  180.000;  191.000
348.911;  -49.325; -142.000; -112.000
349.044;  196.725;  471.000;  448.000
349.178;  242.350;-1069.000;-1006.000
349.311;  128.700;  141.000;  255.000
349.444;   -6.325; -927.000; -813.000
349.578;   -8.625; -347.000; -200.000
349.711;  -75.400; -959.000; -862.000
349.845;   17.050; -661.000; -591.000
349.978; -136.450;-1224.000;-1137.000
350.111;  -80.275; -546.000; -612.000
350.244;  -83.225; -596.000; -700.000
350.378;   34.375; -392.000; -393.000
350.511;  -63.375; -393.000; -426.000
350.644; -101.450; -808.000; -806.000
350.778;    3.725;  168.000;  104.000
350.911;   -1.325;  134.000;  140.000
351.044;  -85.925; -685.000; -615.000
351.177;  -26.925; -321.000; -281.000
351.310;  -20.900;    3.000; -131.000
351.444;  -72.325; -888.000; -788.000
351.577;  145.275;  140.000;   90.000
351.710;   99.750;  593.000;  417.000
351.843;  -34.950; -165.000;  -77.000
351.976;   -1.500;  149.000;  -79.000
352.109;  -89.350; -621.000; -612.000
352.242;   -8.000; -464.000; -419.000
352.376;  -46.675; -580.000; -636.000
352.509;  235.900; -437.000; -356.000
352.642;   52.975; -654.000; -604.000
352.775;   85.500; -141.000;  -98.000
352.908; -107.000; -933.000; -904.000
353.041; -102.500; -814.000; -824.000
353.174;  -73.100; -551.000; -424.000
353.307;  -77.650; -753.000; -764.000
353.440;   76.025;  541.000;  453.000
353.573;  -98.950; -957.000;-1008.000
353.706;  -45.825; -384.000; -558.000
353.839;  -24.725; -264.000; -220.000
353.971;  -88.400; -657.000; -512.000
354.104;  -82.675; -896.000; -835.000
354.237;  -17.750; -627.000; -662.000
354.370;  -83.075; -846.000; -879.000
354.503; -177.475;-1231.000;-1308.000
354.636;  -41.275; -529.000; -348.000
354.769; -118.100; -937.000; -860.000
354.902;    8.450; -230.000; -139.000
355.034;  -20.275; -164.000; -220.000
355.167;  -13.675; -262.000; -162.000
355.300;  -97.300;-1061.000; -880.000
355.433;  905.225;  -71.000;  -14.000
355.565; 1387.050; -402.000; -384.000
355.698;  370.050; -356.000; -296.000
355.831;   17.175; -882.000; -801.000
355.964;  133.250; -285.000; -170.000
356.096;  -62.775; -856.000; -843.000
356.229;   23.225; -523.000; -530.000
356.362;  302.300; -373.000; -266.000
356.494;  552.325; -229.000; -162.000
356.627;  570.750;  269.000;  377.000
356.760;  649.975;  120.000;   53.000
356.892;  850.525; -286.000; -601.000
357.025;  787.975;  403.000;  389.000
357.157;  761.250; -167.000; -179.000
357.290;  578.100; -856.000; -713.000
357.423;  183.525; -667.000; -556.000
357.555;  148.000; -217.000; -228.000
357.688;  165.900; -483.000; -364.000
357.820;  542.500; -870.000; -877.000
357.953; 4375.525; -563.000; -589.000
358.085;  988.350; -632.000; -612.000
358.218; 1548.575;-1131.000; -932.000
358.350;  277.075;  -58.000;  312.000
358.483; -103.650;-1300.000;-1187.000
358.615;   26.375;-1182.000;-1078.000
358.747;  -11.875;-1187.000;-1058.000
358.880;   47.575; -810.000; -744.000
359.012;   -4.900; -376.000; -202.000
359.145;  -27.675; -480.000; -511.000
359.277;   96.275; -962.000; -913.000
359.409; 3640.675;  536.000;  231.000
359.542;  972.650; -738.000; -688.000
359.674;   76.400;   46.000;   13.000
359.806;  -72.675; -565.000; -438.000
359.939;  -44.850; -617.000; -516.000
360.071;  -18.850; -583.000; -579.000
360.203;  -26.600; -411.000; -364.000
360.335;   63.525;  164.000;  -16.000
360.468;  231.225; -249.000; -307.000
360.600; 2847.775; -547.000; -454.000
360.732; 2617.850; -546.000; -423.000
360.864;  366.850;-1216.000;-1044.000
360.996;  363.225; -516.000; -554.000
361.129;   75.950; -389.000; -598.000
361.261;   24.475;  110.000; -113.000
361.393;  -38.175; -252.000; -214.000
361.525;   32.325;   94.000;  244.000
361.657;  -16.175; -821.000; -703.000
361.789;   30.450; -139.000; -155.000
361.921;  338.700; -642.000; -593.000
362.053;  332.125;  524.000;  541.000
362.185;   61.975;  288.000;   72.000
362.318;  -61.400; -709.000; -705.000
362.450;  161.250;  294.000;  444.000
362.582;  207.850; -913.000; -870.000
362.714;  -33.675; -353.000; -332.000
362.846;  -78.025; -606.000; -490.000
362.978; -134.025; -941.000; -811.000
363.109;   62.200; -161.000; -260.000
363.241;  562.350; -739.000; -749.000
363.373;  395.400; -649.000; -564.000
363.505;  590.700; -186.000;  -91.000
363.637;  162.700; -787.000; -601.000
363.769; -101.050;-1067.000;-1080.000
363.901;  -56.325; -596.000; -654.000
364.033; -116.975;-1103.000;-1062.000
364.165;   -1.950; -283.000; -283.000
364.296;   61.825; -316.000; -177.000
364.428;   35.100;-1344.000;-1220.000
364.560;  -67.175; -679.000; -661.000
364.692;  -53.250; -738.000; -835.000
364.824;  373.750; -588.000; -456.000
364.955;  436.225; -402.000; -564.000
365.087;  780.250;-1097.000; -852.000
365.219;   22.025; -686.000; -816.000
365.351;  -77.700; -526.000; -572.000
365.482;   64.900;  300.000;  240.000
365.614;  -41.800; -402.000; -314.000
365.746;  -97.500; -729.000; -752.000
365.877; -111.600; -706.000; -672.000
366.009;  226.700;  -35.000;  -62.000
366.141;  -94.150;-1249.000;-1134.000
366.272; -102.300; -803.000; -719.000
366.404; -102.075;-1005.000; -874.000
366.535;  -20.525; -139.000;  -12.000
366.667;  -95.175; -644.000; -649.000
366.799;   27.450;  353.000;  203.000
366.930; -119.550; -862.000; -996.000
367.062;  113.375; -639.000; -613.000
367.193;  126.075; -872.000; -842.000
367.325;  -68.200; -580.000; -684.000
367.456;   95.300; -246.000;   31.000
367.588;  148.300; -371.000; -318.000
367.719;   24.925;  -44.000;  -45.000
367.851;  -18.075; -222.000; -241.000
367.982;  -21.925; -875.000; -732.000
368.113;  159.350; -475.000; -358.000
368.245; -103.900; -960.000; -841.000
368.376;   -3.875; -254.000; -302.000
368.508;  -44.900; -188.000; -263.000
368.639; -142.575;-1166.000;-1034.000
368.770;   13.875; -670.000; -589.000
368.902;  -36.625; -836.000; -926.000
369.033; -104.925; -906.000; -855.000
369.164;  -52.575; -720.000; -653.000
369.296; -106.550; -452.000; -601.000
369.427;    2.950; -209.000; -144.000
369.558;  -42.450; -593.000; -377.000
369.689;  -86.400; -721.000; -569.000
369.821; -136.700; -951.000; -845.000
369.952;  -16.925;   42.000; -108.000
370.083;  -47.700; -229.000; -108.000
370.214;  -87.525; -735.000; -650.000
370.345;   -2.950;   65.000;   81.000
370.477;  -63.350; -810.000; -790.000
370.608;  295.650; -328.000; -264.000
370.739;  -19.850;-1233.000;-1292.000
370.870;  -27.100;-1102.000; -923.000
371.001;  140.350; -378.000; -467.000
371.132;  -51.200; -754.000; -735.000
371.263;  -13.475;  -42.000; -148.000
371.394; -130.825; -841.000; -748.000
371.525;   32.250;  345.000;  225.000
371.657;  -72.225; -808.000; -670.000
371.788;   87.350;  103.000;  199.000
371.919;  220.075; -384.000; -304.000
372.050; 4457.925;  -91.000; -156.000
372.181; 1340.550; -188.000; -294.000
372.311;  464.000;   42.000; -127.000
372.442;   79.400; -457.000; -451.000
372.573;  -13.525; -444.000; -340.000
372.704; -126.625;-1008.000; -980.000
372.835;  121.150; -228.000; -289.000
372.966;  -66.875; -646.000; -554.000
373.097;  -35.550; -575.000; -711.000
373.228;  -18.400; -717.000; -542.000
373.359;  201.475; -824.000; -536.000
373.490; 1204.400; -881.000; -727.000
373.620; 1519.075;-1001.000; -803.000
373.751; 2291.975; -332.000; -396.000
373.882; 1041.275; -663.000; -733.000
374.013;  101.625; -449.000; -262.000
374.143;  -35.400; -581.000; -659.000
374.274;  -98.600; -987.000; -908.000
374.405;  220.025; -388.000; -276.000
374.536;  583.175; -526.000; -387.000
374.666; 1461.050; -759.000; -807.000
374.797;  315.600; -817.000; -868.000
374.928; 1133.775; -710.000; -560.000
375.058; 1165.925; -535.000; -500.000
375.189;   99.300;  -59.000;  -93.000
375.320;  -87.400; -928.000;-1034.000
375.450;  -33.250; -625.000; -616.000
375.581;  -41.200; -526.000; -436.000
375.712;  -26.775; -574.000; -250.000
375.842;  402.325; -438.000; -415.000
375.973;  288.500; -554.000; -513.000
376.103;  -16.775; -665.000; -648.000
376.234;  -64.225; -531.000; -552.000
376.364;   -3.275; -944.000; -867.000
376.495;  399.700;  925.000;  529.000
376.625;   14.275; -472.000; -485.000
376.756;  103.850; -709.000; -678.000
376.886;  -52.375;-1178.000;-1026.000
377.017;   31.450;-1048.000;-1061.000
377.147;  292.250; -786.000; -782.000
377.278;   52.825;  174.000;  228.000
377.408; -131.450; -801.000; -815.000
377.538; -106.225; -707.000; -693.000
377.669;  -79.350; -537.000; -613.000
377.799;  -82.425; -645.000; -635.000
377.929;  -39.150; -610.000; -428.000
378.060; -132.475; -781.000; -847.000
378.190;  -61.900; -726.000; -531.000
378.320;  -66.300; -401.000; -406.000
378.451;   -9.825; -131.000;  -22.000
378.581;  -14.050;  -67.000; -110.000
378.711;  162.350; 1035.000;  866.000
378.841;    6.975; -533.000; -675.000
378.972;  -42.875; -871.000; -751.000
379.102;   12.875; -652.000; -579.000
379.232;  -20.050; -126.000;  -73.000
379.362; -107.100;-1001.000; -885.000
379.492;   32.625; -373.000; -424.000
379.623;  123.750;    0.000;  111.000
379.753;  -82.550;-1107.000; -974.000
379.883;  242.100;   59.000;  156.000
380.013;   52.875;-1081.000;-1017.000
380.143;  -89.275;-1097.000;-1056.000
380.273;  -96.275; -985.000; -861.000
380.403;    5.250; -344.000; -257.000
380.533;    1.400; -651.000; -664.000
380.663;   85.400;  173.000;  128.000
380.793;  -78.000;-1027.000;-1074.000
380.923;  -27.200; -103.000;  -34.000
381.053;  -83.950; -613.000; -623.000
381.183;  -32.225; -106.000; -248.000
381.313;   68.225; -656.000; -470.000
381.443;   68.525; -692.000; -473.000
381.573;  303.375; -402.000; -409.000
381.703;  427.725;-1249.000;-1095.000
381.833; -116.100;-1454.000;-1336.000
381.963;  137.100; -134.000;  -87.000
382.093; 1720.800; -925.000; -909.000
382.223;  553.700; -713.000; -602.000
382.353;    1.325; -801.000; -608.000
382.482;  528.475;-1091.000; -964.000
382.612;  983.575; -872.000; -644.000
382.742;  553.350; -695.000; -622.000
382.872;  375.350; -565.000; -551.000
383.002;   84.250;  347.000; -132.000
383.131;   -8.650; -226.000; -160.000
383.261;  -32.400; -706.000; -768.000
383.391;  303.700; -552.000; -377.000
383.521; 2896.400;  451.000;  263.000
383.650;  648.875; -947.000; -904.000
383.780;  -25.125; -783.000; -656.000
383.910;  115.675;  880.000;  802.000
384.039;   55.550; -794.000; -656.000
384.169;  305.250;-1205.000;-1017.000
384.299;  -13.950; -650.000; -662.000
384.428;  -84.575; -764.000; -680.000
384.558;  -45.825; -308.000; -275.000
384.687;  -37.100; -414.000; -334.000
384.817;   31.900;   75.000;   -2.000
384.947;   27.550; -234.000; -141.000
385.076;  342.525;  982.000;  912.000
385.206;  106.600;  369.000;  480.000
385.335;  -23.600; -549.000; -417.000
385.465;  -62.350; -655.000; -663.000
385.594;  174.050;  -53.000;  -44.000
385.724;  575.700; -868.000; -838.000
385.853;  158.150; -296.000; -270.000
385.982; 1738.075; -743.000; -787.000
386.112; 2745.625;-1052.000; -871.000
386.241;  190.175; -307.000; -312.000
386.371;   33.825; -174.000;  -87.000
386.500;   30.150; -825.000; -789.000
386.629;   48.950; -874.000; -817.000
386.759;   64.650;  -43.000;   68.000
386.888;   -2.750; -170.000; -250.000
387.017;  -69.400; -648.000; -620.000
387.147;  -84.250; -771.000; -798.000
387.276;   13.450; -410.000; -397.000
387.405;   37.600; -398.000; -342.000
387.535;  -35.175; -452.000; -361.000
387.664;  -63.000; -692.000; -620.000
387.793;   83.050; -198.000; -113.000
387.922;  643.850;  255.000;  200.000
388.052;   44.375; -576.000; -423.000
388.181;   50.825; -342.000; -472.000
388.310;   36.100; -889.000; -710.000
388.439;  -26.575; -749.000; -742.000
388.568;  244.975;  365.000;  244.000
388.697; 1374.925; -756.000; -653.000
388.826;  310.600; -768.000; -666.000
388.956;   84.850; -285.000; -307.000
389.085;  -29.600; -347.000; -287.000
389.214; -100.025; -842.000; -872.000
389.343;  -60.700; -645.000; -413.000
389.472;  374.250;  126.000;  149.000
389.601;  535.650;   91.000;    0.000
389.730;   43.325; -568.000; -687.000
389.859;   74.725;  226.000;   46.000
389.988;  249.375; -423.000; -408.000
390.117;  196.825; -168.000; -146.000
390.246;   -2.675; -331.000; -320.000
390.375;  167.750; -673.000; -626.000
390.504;  -59.875; -703.000; -621.000
390.633;  -92.525; -672.000; -726.000
390.761;  -58.800; -732.000; -645.000
390.890;   47.950;   -4.000; -130.000
391.019;  -13.850; -421.000; -441.000
391.148; -125.875; -826.000; -855.000
391.277;  -58.925; -576.000; -493.000
391.406;  -54.425; -821.000; -805.000
391.534;   21.800;  574.000; -301.000
391.663;  -53.800; -583.000; -645.000
391.792;  -79.700; -673.000; -701.000
391.921;  156.500;   -3.000;   15.000
392.050;  271.550; -287.000; -228.000
392.178;    5.875;-1206.000;-1061.000
392.307;  217.425; -758.000; -712.000
392.436;  123.250; -427.000; -641.000
392.564;   33.800;  166.000;   -6.000
392.693;  -78.950; -860.000; -682.000
392.822;  268.850; -529.000; -534.000
392.950;  147.075; -880.000; -714.000
393.079;  430.275; -188.000; -328.000
393.208;   53.450; -488.000; -511.000
393.336;    2.625; -170.000; -145.000
393.465;  -46.225; -317.000; -199.000
393.593;    0.875;   62.000;   79.000
393.722; -150.300;-1121.000; -916.000
393.850;  -34.200; -188.000;  -61.000
393.979; -163.750; -926.000; -805.000
394.107;  -65.500; -517.000; -537.000
394.236;   -8.300; -570.000; -507.000
394.364;  240.600;  383.000;  206.000
394.493;  395.450; -911.000; -767.000
394.621;   -2.350; -955.000; -916.000
394.750;  644.275; -873.000; -923.000
394.878; 2696.775; -247.000; -149.000
395.007; 3683.900; -721.000; -807.000
395.135;  262.450; -790.000; -721.000
395.263;  -85.925;-1038.000;-1040.000
395.392;   -6.050;  -25.000; -107.000
395.520; -149.000; -818.000; -679.000
395.648;  -71.525; -865.000; -915.000
395.777;    8.650; -366.000; -405.000
395.905;  -34.800; -449.000; -564.000
396.033;   14.975;  217.000;  172.000
396.162;  637.475; -399.000; -453.000
396.290;  594.825;  -17.000;   -2.000
396.418;  143.550; -555.000; -514.000
396.546;  -50.100; -571.000; -466.000
396.674;  -87.450; -850.000; -878.000
396.803;   18.450;  -72.000;  -23.000
396.931;  140.075; -179.000; -199.000
397.059;  114.625;-1026.000; -989.000
397.187; -100.075;-1026.000; -975.000
397.315; -133.675; -884.000; -649.000
397.443;  -97.675; -592.000; -443.000
397.572;  -96.800; -578.000; -424.000
397.700;   20.600; -607.000; -614.000
397.828;   19.125;  120.000;  -90.000
397.956;  -57.400; -508.000; -478.000
398.084;  -72.775; -767.000; -626.000
398.212;   67.975;  137.000;  124.000
398.340;   13.825;  -56.000;  159.000
398.468;   46.225; -390.000; -169.000
398.596; -129.025; -993.000; -953.000
398.724; -117.925; -762.000; -767.000
398.852; -166.775;-1024.000; -976.000
398.980;  -57.000; -560.000; -560.000
399.108;  -40.450; -982.000; -735.000
399.236;   42.200;   13.000;    8.000
399.363;   12.150;  222.000;  196.000
399.491;  -88.250; -404.000; -398.000
399.619; -125.375; -829.000; -800.000
399.747;  -89.050; -859.000; -771.000
399.875;   91.650;  220.000;  234.000
400.003;  -41.100; -359.000; -284.000
400.130;  -92.375; -421.000; -341.000
400.258;  -34.925;  -83.000;   38.000
400.386;  -62.550; -352.000; -168.000
400.514;  -34.950; -526.000; -587.000
400.641;  -56.675; -928.000; -802.000
400.769; -144.375; -979.000; -888.000
400.897; -106.500; -838.000; -793.000
401.025;   -7.075; -166.000; -152.000
401.152;  -23.000;  220.000;   38.000
401.280; -100.325; -430.000; -429.000
401.408; -110.525; -712.000; -576.000
401.535;  -96.975; -735.000; -758.000
401.663; -196.525;-1134.000;-1054.000
401.790;  -87.350; -514.000; -525.000
401.918;   37.300;  436.000;  405.000
402.046;  -20.850;  134.000;  122.000
402.173;  -28.975;  -18.000;    7.000
402.301;  -72.825; -519.000; -397.000
402.428;   49.350;  528.000;  383.000
402.556; -133.325;-1188.000; -913.000
402.683;  -21.625;  -20.000;   -1.000
402.811;  -25.950;  -37.000; -206.000
402.938;  -11.800;   20.000;   27.000
403.066;  259.850; -574.000; -558.000
403.193;  416.625;  299.000;  239.000
403.321;  343.900; -396.000; -574.000
403.448;  407.025;   83.000;   27.000
403.575;  170.800;  -90.000;  -46.000
403.703; -100.575; -732.000; -557.000
403.830;  -83.925; -531.000; -496.000
403.957; -139.850;-1117.000;-1023.000
404.085;   11.150;  -61.000; -172.000
404.212;  114.625;  -50.000;   63.000
404.339;  236.050; -566.000; -306.000
404.467; 5254.625; -612.000; -524.000
404.594; 3842.150; -287.000; -227.000
404.721; 1000.550; -869.000; -764.000
404.848;   83.300; -113.000; -202.000
404.976; -105.050; -856.000; -783.000
405.103;   -9.750;  -14.000;  -82.000
405.230;   -6.525;  190.000;  226.000
405.357;   19.325;  117.000;   44.000
405.484;  208.775;  -49.000;    5.000
405.612;   49.375; -548.000; -563.000
405.739;  -57.550; -488.000; -243.000
405.866;   86.300;  669.000;  385.000
405.993;  -45.450; -398.000; -102.000
406.120; -138.675; -801.000; -887.000
406.247;  -56.250; -323.000; -342.000
406.374;  554.300;  540.000;  629.000
406.501;  176.850; -632.000; -702.000
406.628;  -67.475; -621.000; -589.000
406.755;  -93.525; -803.000; -620.000
406.882;  -33.900; -228.000; -277.000
407.009; -107.425; -719.000; -628.000
407.136;   77.825; -480.000; -401.000
407.263;  213.100; -939.000; -829.000
407.390;  -68.350; -692.000; -614.000
407.517; -163.675;-1139.000;-1187.000
407.644;  -61.800; -332.000; -256.000
407.771; -133.475; -249.000; -287.000
407.898;   18.825;  168.000;  328.000
408.025;  -66.950; -421.000; -313.000
408.151;   -4.850;   82.000;  153.000
408.278;  -64.100; -267.000; -216.000
408.405; -113.075; -931.000; -899.000
408.532;  -75.600; -549.000; -542.000
408.659; -108.350; -677.000; -648.000
408.785; -207.450;-1298.000;-1170.000
408.912;  -56.350; -412.000; -296.000
409.039; -117.675; -610.000; -686.000
409.166; -115.525; -591.000; -555.000
409.292; -103.200; -571.000; -534.000
409.419; -121.900; -665.000; -649.000
409.546;  -83.250; -431.000; -192.000
409.672; -124.675; -713.000; -545.000
409.799;  -34.925;  -36.000;   34.000
409.926;  -35.375; -180.000; -179.000
410.052; -171.625;-1127.000;-1091.000
410.179;  -65.350; -368.000; -392.000
410.305;  -86.925; -375.000; -493.000
410.432;  -55.225; -220.000; -333.000
410.558;  -91.550; -305.000; -380.000
410.685; -106.975; -688.000; -431.000
410.812;  -92.375; -409.000; -588.000
410.938; -144.500; -964.000; -808.000
411.065;  -95.050; -671.000; -645.000
411.191;  -24.400; -189.000; -174.000
411.317; -114.425; -823.000; -742.000
411.444;  -61.375; -317.000; -246.000
411.570;  -79.100; -339.000; -294.000
411.697; -121.825; -758.000; -752.000
411.823; -171.000; -989.000; -999.000
411.949;  -28.650;  -56.000;   17.000
412.076; -113.775; -539.000; -519.000
412.202; -121.900; -758.000; -757.000
412.329; -135.850; -798.000; -752.000
412.455; -122.800; -821.000; -657.000
412.581;  -28.350;  -15.000;  172.000
412.707;  -74.550; -540.000; -457.000
412.834;   13.475;  156.000;  219.000
412.960;  -69.300; -785.000; -784.000
413.086;  -94.025; -743.000; -701.000
413.212;  180.175;  604.000;  578.000
413.339;  -56.775; -685.000; -701.000
413.465;   20.525; -364.000; -310.000
413.591;  -79.125; -757.000; -474.000
413.717;  -61.225; -358.000; -366.000
413.843; -140.650; -839.000; -861.000
413.969;  -74.450;  -47.000; -292.000
414.096; -107.600; -679.000; -679.000
414.222;   -3.100;  -33.000;   85.000
414.348;   -3.125; -652.000; -385.000
414.474;  142.975;   38.000;  -52.000
414.600;  -22.400; -126.000; -144.000
414.726;  -14.175;  -96.000;  -55.000
414.852;  -72.175; -365.000; -342.000
414.978;   47.225;  104.000;  -18.000
415.104;   31.775;   38.000;   80.000
415.230;   12.450; -329.000; -330.000
415.356;   31.675; -409.000; -514.000
415.482;  195.675;   13.000;  -35.000
415.608;  261.850; -247.000; -323.000
415.734;  914.025;   67.000;   38.000
415.860;18797.400; -875.000; -767.000
415.986;13861.375; -685.000; -607.000
416.111; 1213.750; -798.000; -652.000
416.237;  248.925; -424.000; -571.000
416.363; 1011.825; -765.000; -733.000
416.489; 3831.325; -324.000; -251.000
416.615;  394.950; -707.000; -742.000
416.741;  -36.300; -677.000; -784.000
416.866; -102.900; -673.000; -736.000
416.992; -126.075; -801.000; -818.000
417.118;  -36.050;  -41.000;  -80.000
417.244;  -70.900; -798.000; -531.000
417.369;  -79.975; -801.000; -612.000
417.495;   -3.775; -325.000; -254.000
417.621;  -71.225;-1015.000; -803.000
417.746;    9.500; -579.000; -572.000
417.872;   55.075; -254.000; -144.000
417.998;   45.500; -515.000; -530.000
418.123;  934.925;-1073.000; -845.000
418.249; 4991.725; -512.000; -601.000
418.374;  682.325; -916.000; -824.000
418.500;  125.675; -383.000; -482.000
418.626;  109.450;   70.000;  -59.000
418.751;  124.150; -549.000; -448.000
418.877;  177.250; -637.000; -643.000
419.002; 1642.300; -688.000; -560.000
419.128;11608.975; -930.000; -721.000
419.253; 2861.300; -967.000; -837.000
419.379;  373.500; -391.000; -338.000
419.504;  372.600;  325.000;  415.000
419.629;  452.000; -393.000; -212.000
419.755; 3149.250; -317.000; -254.000
419.880;18969.625;  -98.000;   67.000
420.006;10506.825; -280.000; -221.000
420.131;27559.475; -662.000; -775.000
420.256; 4053.500; -315.000; -316.000
420.382;  499.400; -665.000; -687.000
420.507;   75.200; -649.000; -778.000
420.632;  164.725; -337.000; -339.000
420.758;  344.050; -251.000; -425.000
420.883;  -93.900; -876.000; -672.000
421.008;  -98.275; -775.000; -619.000
421.133;  -75.450; -509.000; -467.000
421.259;  -44.125; -325.000; -259.000
421.384; -105.850; -834.000; -693.000
421.509;  -20.900;-1052.000; -862.000
421.634; 1551.300; -936.000; -820.000
421.759;  703.325; -359.000; -327.000
421.885;  -49.350; -717.000; -656.000
422.010;  -78.225; -673.000; -542.000
422.135; -147.575; -695.000; -727.000
422.260;   32.500;  340.000;  280.000
422.385;  -41.025;   12.000;  -98.000
422.510;    8.175;  151.000;  -26.000
422.635;   23.400;  -87.000;  -43.000
422.760;  127.500; -766.000; -791.000
422.885;   71.350;  -57.000;  -80.000
423.010;  -41.750; -112.000; -169.000
423.135;  -95.700; -481.000; -561.000
423.260;    2.750; -150.000; -245.000
423.385;   67.900;  476.000;  222.000
423.510;   42.775;   71.000;  -22.000
423.635;  110.025;  133.000;   45.000
423.760;   60.625;  383.000;  328.000
423.885;   62.725;  336.000;  391.000
424.010;   12.700;  -68.000;  -13.000
424.135;  -27.650;    5.000;  -33.000
424.259;  -92.725; -654.000; -457.000
424.384;  -66.700; -279.000; -272.000
424.509;  -35.850; -260.000; -186.000
424.634;  -89.525; -761.000; -623.000
424.759;  -22.050; -688.000; -544.000
424.883;  -20.625; -506.000; -527.000
425.008;  177.725; -502.000; -410.000
425.133; 1855.075; -679.000; -653.000
425.258;  891.425; -517.000; -381.000
425.382; 1228.475; -867.000; -774.000
425.507; 3258.000; -487.000; -543.000
425.632;  509.150; -802.000; -663.000
425.756;  429.975; -256.000; -146.000
425.881; 5736.325; -831.000; -857.000
426.006;15624.575; -604.000; -355.000
426.130; 2531.425; -696.000; -508.000
426.255;  333.550; -611.000; -491.000
426.379;  138.600; -189.000; -577.000
426.504;  341.450;  660.000;  544.000
426.629; 3802.275; -519.000; -466.000
426.753; 2672.500;   64.000;  -46.000
426.878;  319.000; -252.000; -288.000
427.002;  133.375; -651.000; -668.000
427.127; 1494.025;  -35.000; -158.000
427.251;10574.625;  372.000;  401.000
427.375; 3088.575; -191.000; -173.000
427.500; 2740.175; -616.000; -610.000
427.624;  966.550; -234.000; -400.000
427.749;  110.925; -216.000; -225.000
427.873;  -25.000; -499.000; -412.000
427.997;  -43.575; -222.000; -230.000
428.122;   74.325;  795.000;  703.000
428.246;   77.550;  433.000;  434.000
428.371; -119.350; -869.000; -773.000
428.495;  -96.875; -624.000; -646.000
428.619;  -37.600; -186.000; -117.000
428.743;   17.950;   65.000;  132.000
428.868;   49.825; -732.000; -643.000
428.992; 1755.000; -219.000; -326.000
429.116;  725.750; -329.000; -357.000
429.240;  354.850;  419.000;  426.000
429.365;    1.850; -454.000; -574.000
429.489;  -33.975; -638.000; -647.000
429.613;   11.975; -236.000; -177.000
429.737;   36.575; -563.000; -432.000
429.861;  249.150; -247.000; -133.000
429.985; 5152.500; -425.000; -305.000
430.109; 5766.275; -770.000; -908.000
430.234;  669.825;   76.000;  -50.000
430.358;   59.050; -250.000; -160.000
430.482;  -71.425; -672.000; -564.000
430.606;  -73.750; -655.000; -375.000
430.730;   36.550; -437.000; -388.000
430.854;  198.475; -909.000; -835.000
430.978;  -47.975; -795.000; -764.000
431.102;  -93.400; -499.000; -422.000
431.226; -135.925; -874.000; -815.000
431.350;   32.675;  345.000;  422.000
431.474;  -90.325; -661.000; -373.000
431.597; -155.625;-1060.000; -848.000
431.721;  -79.025; -276.000; -267.000
431.845; -143.625; -704.000; -472.000
431.969;  -86.800; -304.000; -349.000
432.093;  -85.575; -395.000; -317.000
432.217;  -30.100;   32.000;   82.000
432.341;  -85.400; -523.000; -518.000
432.464;    7.550;   96.000;   40.000
432.588;  293.500; -401.000; -329.000
432.712;  132.050;  -52.000;  -52.000
432.836;   43.825;  213.000;  263.000
432.959;  -34.750; -372.000; -311.000
433.083;   65.825;   11.000;    2.000
433.207;  355.725;  285.000;  930.000
433.330; 4556.850; -391.000; -200.000
433.454; 5729.725; -654.000; -638.000
433.578; 3342.375;  583.000;  278.000
433.701;  631.300; -623.000; -675.000
433.825;  167.575; -292.000; -299.000
433.949;  245.725;   28.000;  -72.000
434.072;  102.775; -410.000; -323.000
434.196;    0.200; -309.000; -117.000
434.319; 3742.175;25482.000;25124.000
434.443;  741.925; -656.000; -603.000
434.566; 2492.775;  281.000;   62.000
434.690;  399.950; -637.000; -383.000
434.813;   37.525; -251.000; -173.000
434.937;  -78.600; -569.000; -696.000
435.060;  -34.475; -423.000; -332.000
435.184;  476.000; -492.000; -217.000
435.307;  250.175;  159.000;  102.000
435.431;  -12.875;  -40.000;   24.000
435.554;  -69.600; -399.000; -240.000
435.677;  -93.175; -350.000; -258.000
435.801;  -38.500;  -25.000;   49.000
435.924;  -10.775;    1.000;  -67.000
436.048; -105.375;-1019.000; -732.000
436.171;  -82.075; -240.000;  -66.000
436.294;  -39.825; -248.000; -229.000
436.417;   51.225; -963.000; -849.000
436.541;  -87.925; -814.000; -840.000
436.664;  -59.575; -242.000; -316.000
436.787;  -20.050;   13.000;  113.000
436.910;  -92.100; -792.000; -422.000
437.034;    7.275;  142.000;  143.000
437.157;   86.375;  -11.000;    0.000
437.280;  -30.900; -392.000; -292.000
437.403;  -61.700; -982.000; -869.000
437.526;  905.875; -903.000; -865.000
437.649; 3128.600; -505.000; -332.000
437.772;  503.100; -692.000; -540.000
437.896;  136.750;  700.000;  544.000
438.019;  -91.650; -758.000; -503.000
438.142;  -74.125; -596.000; -506.000
438.265;   19.075; -639.000; -670.000
438.388;  786.425; -520.000; -410.000
438.511;  161.150; -597.000; -394.000
438.634;  -36.050; -247.000; -125.000
438.757; -131.225; -693.000; -619.000
438.880;  -37.900;  -34.000;  -57.000
439.003;  -74.725; -417.000; -437.000
439.126;  -61.925; -287.000; -167.000
439.248;  -66.925;  -98.000; -139.000
439.371;  -62.775;    9.000;  -53.000
439.494;   14.300;  510.000;  439.000
439.617;  -62.600;   65.000;  -88.000
439.740; -180.575; -968.000; -816.000
439.863; -143.850; -755.000; -595.000
439.986; -128.775; -476.000; -431.000
440.108;  -49.150; -161.000; -112.000
440.231; -162.975; -950.000; -836.000
440.354;  -52.775;  -64.000; -150.000
440.477;   63.225; -566.000; -542.000
440.599;   21.700; -200.000; -225.000
440.722; -117.075; -709.000; -586.000
440.845;   50.300;  751.000;  928.000
440.968; -130.550; -415.000; -311.000
441.090;  -71.050; -199.000;  -33.000
441.213; -166.500;-1021.000; -825.000
441.336;  -64.100; -159.000;   -5.000
441.458;  -77.425; -549.000; -396.000
441.581;  -91.775; -628.000; -629.000
441.703;  -70.700; -152.000;   13.000
441.826;  -97.775; -557.000; -400.000
441.948;  -55.150;   56.000;   51.000
442.071;   24.025;  555.000;  424.000
442.193; -118.850; -531.000; -485.000
442.316;   15.300;  152.000;   97.000
442.438;   28.425; -233.000;  -10.000
442.561;   84.875;  272.000;  262.000
442.683;  745.800; -809.000; -522.000
442.806; 1597.500;   -8.000;   74.000
442.928;   99.700; -859.000; -604.000
443.051;  -72.525; -577.000; -373.000
443.173;  -97.800; -341.000; -339.000
443.295;  -95.500; -263.000; -371.000
443.418;  -82.475; -321.000;  -29.000
443.540;  -14.350; -106.000;   -4.000
443.662; -126.775; -563.000; -465.000
443.785;  -17.100;  335.000;  199.000
443.907; -109.425; -362.000; -208.000
444.029; -130.475; -767.000; -494.000
444.152; -139.350; -644.000; -554.000
444.274;  -35.150;  -18.000;  -24.000
444.396; -110.175; -461.000; -221.000
444.518; -138.425; -691.000; -454.000
444.640; -117.500; -268.000; -111.000
444.763;  -15.600;  388.000;  249.000
444.885; -129.200; -432.000; -392.000
445.007;  -38.375;   35.000;   86.000
445.129; -118.725; -610.000; -515.000
445.251; -110.700; -372.000; -439.000
445.373; -142.875; -537.000; -386.000
445.495;    0.100;  242.000;  350.000
445.617;   40.650;  853.000;  753.000
445.739;  -77.000; -215.000;  -97.000
445.861;  -50.325; -245.000; -112.000
445.984;  -30.525; -267.000; -101.000
446.105;  258.225; -418.000; -251.000
446.227;  807.025; -176.000;  -19.000
446.349;   37.650; -358.000; -249.000
446.471;  -92.750; -615.000; -448.000
446.593;  -62.050; -316.000;   19.000
446.715;   -0.025;  -67.000;   41.000
446.837;   49.975;  697.000;  832.000
446.959; -107.600; -457.000; -478.000
447.081; -131.875; -628.000; -518.000
447.203;   48.950;  862.000;  834.000
447.325; -102.725; -270.000;   42.000
447.446;  -14.650;  286.000;  530.000
447.568; -152.900; -921.000; -803.000
447.690;  -68.700; -236.000; -245.000
447.812; -160.800; -798.000; -519.000
447.933;  -29.425;  155.000;  127.000
448.055;  -72.125; -306.000; -261.000
448.177;  188.550;   31.000;   79.000
448.299;  157.675; -935.000; -727.000
448.420;   36.250;  -25.000;  159.000
448.542;  -47.250;   -3.000;   33.000
448.664;  -18.700;  109.000;  322.000
448.785;  -47.000;  265.000;   83.000
448.907;  -73.525; -614.000; -353.000
449.028;  -20.650; -771.000; -471.000
449.150;   60.850;  492.000;  589.000
449.272; -178.800;-1044.000; -913.000
449.393;   16.350;  612.000;  694.000
449.515; -166.000; -634.000; -581.000
449.636;  -62.975; -264.000; -155.000
449.758;   66.225;  763.000;  622.000
449.879;  -94.650; -498.000; -396.000
450.001;  -76.800; -149.000;  -49.000
450.122;  -44.550;  -95.000;  162.000
450.244;  -25.975;   37.000;  364.000
450.365; -102.100; -495.000; -301.000
450.486;  -46.325;   80.000;  268.000
450.608;   15.150;  393.000;  326.000
450.729;   58.750;  578.000;  645.000
450.850;  -14.625; -574.000; -466.000
450.972;  626.075; -552.000; -389.000
451.093; 4381.800;  190.000;  588.000
451.214; 1912.025; -516.000; -337.000
451.336;  351.050;  773.000;  579.000
451.457;   43.225;  264.000;  393.000
451.578;  -41.600; -118.000;  -74.000
451.699; -119.125; -546.000; -540.000
451.821;  -64.075; -284.000;  -50.000
451.942;    0.600;  278.000;  285.000
452.063;   30.925;  228.000;  419.000
452.184;  485.775;  -54.000;  -49.000
452.305; 1014.800;  103.000;  170.000
452.427;  118.550; -549.000; -301.000
452.548;  -19.725;   23.000;   79.000
452.669;  -59.100; -257.000;  -89.000
452.790;  -41.450;    3.000;  -18.000
452.911;   -6.850;  195.000;  259.000
453.032;  -48.675; -289.000;  -60.000
453.153;  -40.050;  -29.000;   81.000
453.274;   52.350;  737.000;  868.000
453.395;  -52.425;  -51.000;  175.000
453.516;  127.675; 1317.000; 1388.000
453.637;  -60.050; -205.000; -150.000
453.758;  -51.275;   15.000;   69.000
453.879; -128.575; -462.000; -250.000
454.000;   72.350; 1086.000;  948.000
454.121; -109.950; -554.000; -326.000
454.242; -116.600; -599.000; -383.000
454.362;  -60.450;  -99.000;  114.000
454.483;  -44.025; -309.000; -229.000
454.604;   48.875;  512.000;  580.000
454.725; -122.925; -627.000; -555.000
454.846; -145.725; -474.000; -406.000
454.967;  -27.525;  230.000;  539.000
455.087;  -44.400;  179.000;  153.000
455.208;    8.975;  554.000;  856.000
455.329;  -69.275;  -22.000;   82.000
455.450;   29.625;  473.000;  633.000
455.570;  -83.200; -234.000; -211.000
455.691;  -44.200;  201.000;  407.000
455.812; -107.125; -270.000;  -92.000
455.932;  -63.025;  107.000;  -97.000
456.053; -101.025;   36.000;   24.000
456.173; -120.850; -433.000; -355.000
456.294; -135.825; -476.000; -303.000
456.415;  -57.575;  -73.000;   70.000
456.535;  -42.425;  297.000;  273.000
456.656;  -53.125;  132.000;  240.000
456.776;  -73.150;    3.000;  298.000
456.897;   -6.450;  308.000;  513.000
457.017;  -97.225; -153.000;   -3.000
457.138; -114.150; -402.000; -249.000
457.258;  -27.500;  263.000;  224.000
457.379;  -13.150;  509.000;  521.000
457.499;  -32.725;  443.000;  432.000
457.620; -129.825; -407.000; -231.000
457.740;  -97.350; -132.000;  -11.000
457.860;  -59.175;   87.000;   44.000
457.981;  -50.625;  132.000;  124.000
458.101;  -68.450;  -89.000;   40.000
458.221;  -29.800;  336.000;  402.000
458.342;  -72.800;   -4.000;  -37.000
458.462;   13.975;  617.000;  352.000
458.582;  -61.750; -302.000; -294.000
458.703;   -6.350;  303.000;  154.000
458.823;  -46.950;   22.000;  163.000
458.943;    5.725;  341.000;  467.000
459.063;  -26.825; 1124.000;  192.000
459.183;  -10.950;  328.000;  313.000
459.304;   15.575;  315.000;  517.000
459.424;  -65.850; -246.000;  -89.000
459.544;  281.650;  388.000;  764.000
459.664;  751.275;  499.000;  506.000
459.784;  286.325; 1004.000; 1175.000
459.904;   38.975;  867.000;  744.000
460.024;   63.550;  867.000;  684.000
460.144;   20.500;  449.000;  554.000
460.264;   -6.700;  515.000;  327.000
460.385;  -94.075; -145.000; -119.000
460.505;   29.525;  905.000;  858.000
460.625;  -93.875;  -17.000;  -68.000
460.745;  -36.025;  396.000;  541.000
460.864;  -54.350;  153.000;  469.000
460.984;    5.550;  499.000;  573.000
461.104;  132.000; 1656.000; 1775.000
461.224;   12.475;  657.000;  650.000
461.344;  -35.475;  431.000;  360.000
461.464;  -42.300;  258.000;  513.000
461.584;  -13.750;  283.000;  466.000
461.704;  -55.650;   58.000;  108.000
461.824;  -61.825;  238.000;  259.000
461.943;  -44.175;  191.000;  130.000
462.063;  -96.400;    2.000;  324.000
462.183;   41.875;  639.000;  717.000
462.303;   91.025; 1678.000; 1230.000
462.422;   21.750;  781.000;  840.000
462.542;  -36.900;  271.000;  391.000
462.662;   35.800;  353.000;  380.000
462.782;  222.850;  833.000;  572.000
462.901;  446.250;  545.000;  717.000
463.021;  260.700; 1702.000; 1638.000
463.141;  -12.250;  337.000;  770.000
463.260;  -18.100;  614.000;  474.000
463.380;    0.175;  902.000;  884.000
463.499;  -32.750;  342.000;  332.000
463.619;  -23.650;  581.000;  559.000
463.738;  109.600; 1644.000;  903.000
463.858;    0.150;  657.000;  811.000
463.978;  -39.050;  542.000;  396.000
464.097;   35.575;  921.000; 1114.000
464.217;  100.900; 1196.000; 1143.000
464.336;  118.000; 1068.000; 1130.000
464.455;  -45.250;  328.000;  659.000
464.575;   56.650;  597.000;  602.000
464.694;  182.075; 1204.000; 1179.000
464.814;  128.225; 1190.000; 1138.000
464.933;   82.625; 1095.000; 1027.000
465.052;   99.125; 1412.000; 1054.000
465.172;   85.800;  922.000;  799.000
465.291;  137.000; 1376.000; 1320.000
465.410;   -0.725;  462.000;  735.000
465.530;   85.075; 1355.000; 1310.000
465.649;   51.025; 1209.000; 1273.000
465.768;  136.525; 1673.000; 1508.000
465.888;   40.825;  941.000; 1174.000
466.007;   93.600; 1335.000; 1440.000
466.126;  -11.475;  721.000;  641.000
466.245;   39.375; 1176.000; 1187.000
466.364;    3.950;  950.000; 1060.000
466.484;   62.425; 1024.000; 1213.000
466.603;   25.375; 1101.000; 1222.000
466.722;  124.700; 1490.000; 1769.000
466.841;   76.025; 1151.000; 1401.000
466.960;   30.675; 1069.000;  972.000
467.079;  125.000; 1971.000; 1786.000
467.198;   46.625; 1238.000; 1181.000
467.317;   83.100; 1768.000; 1162.000
467.436;   60.400; 1709.000; 1261.000
467.555;  120.750; 1796.000; 1746.000
467.674;   70.925; 1227.000; 1329.000
467.793;   34.900; 1376.000; 1374.000
467.912;   87.750; 1658.000; 1539.000
468.031;  113.625; 2038.000; 1930.000
468.150;  129.850; 1842.000; 1837.000
468.269;  192.450; 2313.000; 2090.000
468.388;  187.475; 2168.000; 2339.000
468.507;  246.875; 2884.000; 2903.000
468.626;  226.250; 2555.000; 2541.000
468.744;  124.775; 2018.000; 2174.000
468.863;  187.625; 2312.000; 2523.000
468.982;   88.275; 1503.000; 1555.000
469.101;  196.325; 2788.000; 2692.000
469.220;  145.375; 2333.000; 2176.000
469.338;  239.775; 2935.000; 3051.000
469.457;  192.525; 2719.000; 2545.000
469.576;  330.625; 3953.000; 3784.000
469.695;  242.375; 2877.000; 3066.000
469.813;  402.775; 4148.000; 4192.000
469.932;  414.350; 4255.000; 4485.000
470.051;  427.075; 4075.000; 4161.000
470.169;  820.600; 4470.000; 4338.000
470.288; 1393.450; 4700.000; 4809.000
470.406;  851.325; 5059.000; 5194.000
470.525;  621.175; 6101.000; 5787.000
470.644;  658.925; 6847.000; 6794.000
470.762;  820.675; 8397.000; 7873.000
470.881;  890.125; 8651.000; 8464.000
470.999; 1027.575; 9685.000; 9151.000
471.118; 1099.450;11174.000;10711.000

