
Integration time [ms]: 100.000
Averaging Nr. [scans]: 40
Smoothing Nr. [pixels]: 0
Data measured with spectrometer [name]: 2101012U2
Wave   ;Sample   ;Dark     ;Reference
[nm]   ;[counts] ;[counts] ;[counts] 

197.733;   59.275;  516.000;  404.000
197.879;  -82.775; -610.000; -634.000
198.025;  -44.000; -475.000; -420.000
198.171;  -77.450; -602.000; -612.000
198.317;  -34.450; -401.000; -316.000
198.463;  -56.625; -655.000; -404.000
198.609;   23.650;  181.000; -137.000
198.755;  -72.925; -644.000; -410.000
198.901;  -65.400; -505.000; -424.000
199.047;  -63.125; -615.000; -488.000
199.193;  -39.200; -230.000; -468.000
199.339;  -39.300; -222.000; -369.000
199.485;   33.075;  330.000;  271.000
199.631;   18.450;  227.000;  310.000
199.777;  -41.000; -466.000; -398.000
199.923;  -62.000; -610.000; -424.000
200.069;  -11.325; -141.000;  -58.000
200.215;   59.150;  128.000;  453.000
200.361;   22.825;  243.000;  477.000
200.507;  -56.850; -600.000; -373.000
200.653;  -29.725; -371.000; -194.000
200.798;  -39.150; -215.000; -125.000
200.944;    4.050; -146.000;  -41.000
201.090;   29.925;   61.000;  222.000
201.236;  -17.700; -116.000; -158.000
201.382;  124.125;  874.000;  903.000
201.528;   -6.200;  -58.000;  -48.000
201.674;  -35.225; -386.000; -293.000
201.819;  -60.175; -540.000; -439.000
201.965;  -80.225; -699.000; -447.000
202.111;  -22.600; -273.000; -226.000
202.257;  -24.475; -250.000; -238.000
202.402;   -1.000;   13.000;  -36.000
202.548;  -16.000; -169.000; -116.000
202.694;   82.675;  410.000; -183.000
202.840;  -76.150; -603.000; -531.000
202.985;  -72.525; -681.000; -639.000
203.131; -109.175; -832.000; -666.000
203.277;  -37.550; -199.000; -262.000
203.423;  -55.050; -434.000; -520.000
203.568;  -34.700; -462.000; -237.000
203.714;  -59.675; -535.000; -542.000
203.860;  -79.300; -682.000; -641.000
204.005;   14.075;  112.000;  167.000
204.151;   64.175;  561.000;  556.000
204.296;  -48.550; -354.000; -221.000
204.442;  -62.325; -600.000; -547.000
204.588;  -63.425; -592.000; -579.000
204.733;   15.250;  178.000;  168.000
204.879; -138.975;-1018.000; -822.000
205.025;    4.875;  -99.000;  126.000
205.170;   -7.625;  -17.000;   94.000
205.316;   76.500;  438.000;  661.000
205.461;  -83.150; -698.000; -554.000
205.607;   71.300;  609.000;  665.000
205.752;  -87.600; -626.000; -551.000
205.898;  -47.775; -501.000; -391.000
206.043;  -59.450; -578.000; -506.000
206.189;  -40.850; -243.000; -285.000
206.334;   87.950;  554.000;  606.000
206.480;   62.825;  409.000;  239.000
206.625;  -85.825; -529.000; -552.000
206.771;  -37.500; -451.000; -373.000
206.916;  -28.425; -210.000; -537.000
207.062;  -63.775; -545.000; -591.000
207.207;  -62.525; -546.000; -443.000
207.353;   55.275;  185.000;  460.000
207.498;   14.200;  196.000;   85.000
207.643;  -44.825; -501.000; -370.000
207.789; -119.250;-1069.000; -910.000
207.934;  -96.575; -665.000; -713.000
208.080;  -34.150; -154.000;   66.000
208.225;  -14.775;  -22.000;  -57.000
208.370;  -81.775; -727.000; -619.000
208.516;  -69.650; -741.000; -487.000
208.661;  -19.125; -127.000;  -69.000
208.806;  -22.100; -165.000; -171.000
208.952; -119.200;-1044.000; -731.000
209.097;   56.100;  378.000;  349.000
209.242;  -42.800; -307.000; -382.000
209.387;   46.925;  392.000;  350.000
209.533;  -43.525; -321.000; -350.000
209.678;   73.400;  472.000;  543.000
209.823;  -53.625; -408.000; -310.000
209.969;  -94.575; -860.000; -757.000
210.114; -101.950; -907.000; -719.000
210.259; -110.075; -939.000; -889.000
210.404;   -8.625; -171.000;  103.000
210.549;    8.825;  108.000;    3.000
210.695;  -14.575;   -3.000;  -95.000
210.840;   40.775;   94.000;   67.000
210.985;  -57.725; -484.000; -303.000
211.130;   70.350;  268.000;  406.000
211.275;   20.825;  207.000;  199.000
211.420;  -38.150; -300.000; -289.000
211.566;  -63.250; -536.000; -489.000
211.711;   19.125;  218.000;  157.000
211.856;  -69.750; -545.000; -519.000
212.001;    1.950;  151.000;   44.000
212.146;   19.850;  153.000;   49.000
212.291;  -23.500; -210.000; -186.000
212.436;  -34.250; -280.000;   -6.000
212.581;  -89.800; -685.000; -653.000
212.726;  -76.325; -487.000; -538.000
212.871;  -47.475; -552.000; -217.000
213.016; -137.000;-1172.000;-1029.000
213.161;   57.175;  406.000;  291.000
213.306;  -76.800; -435.000; -577.000
213.451;  -97.325; -778.000; -689.000
213.596;  -33.700; -455.000; -347.000
213.741;  -65.450; -448.000; -538.000
213.886;  -72.900; -498.000; -517.000
214.031;  -25.225; -294.000; -124.000
214.176;  -58.250; -408.000; -341.000
214.321;  -29.400; -296.000; -157.000
214.466;  -22.900; -163.000;  -43.000
214.611;  -14.800;  -61.000;  -10.000
214.756; -117.050; -948.000; -858.000
214.901;  -16.375; -388.000; -226.000
215.046; -116.700; -797.000; -825.000
215.191;    6.825;  128.000;   35.000
215.336;  -17.725; -157.000;  -19.000
215.480;  -71.075; -684.000; -505.000
215.625;  -19.850; -175.000;  -19.000
215.770;  -86.525; -757.000; -662.000
215.915;   -8.125;   -5.000;  -97.000
216.060;  -11.400; -113.000;  -21.000
216.205; -100.750; -731.000; -779.000
216.349;  -65.375; -470.000; -533.000
216.494; -135.475; -939.000; -867.000
216.639; -115.300; -823.000; -888.000
216.784; -100.275; -577.000; -525.000
216.929;   53.925;  392.000;  281.000
217.073;   -5.575; -244.000;  -31.000
217.218;    4.350;   78.000;  -47.000
217.363; -101.850; -656.000; -618.000
217.507;  -83.975; -623.000; -588.000
217.652; -117.375; -845.000; -874.000
217.797;  -96.425; -708.000; -659.000
217.942; -115.700; -856.000; -720.000
218.086;   78.800;  608.000;  539.000
218.231;  -21.950; -174.000;  -26.000
218.376;  -35.550; -337.000; -229.000
218.520;    1.750;  -41.000;   96.000
218.665;  -46.400; -338.000; -204.000
218.810;  -48.625; -275.000; -233.000
218.954;   18.675;  201.000;   35.000
219.099; -109.900; -713.000; -963.000
219.243;  -69.975; -589.000; -554.000
219.388;  -32.675; -264.000; -136.000
219.532;  -11.675; -116.000; -116.000
219.677;  -75.475; -564.000; -521.000
219.822;    2.975;   33.000;   89.000
219.966;    6.250;   17.000;  -99.000
220.111;  -39.825; -328.000;  -40.000
220.255;  -88.475; -797.000; -750.000
220.400;  -18.550; -180.000; -146.000
220.544;  -66.725; -516.000; -450.000
220.689;  -53.175; -422.000; -451.000
220.833;  -18.475; -123.000;  -58.000
220.978;  -41.400; -393.000; -563.000
221.122;   13.325;  319.000;  307.000
221.267;  -99.600; -906.000; -837.000
221.411;  -56.675; -478.000; -394.000
221.555;   -5.325; -104.000;  -23.000
221.700;  -51.850; -329.000; -222.000
221.844;   32.675;  255.000;  272.000
221.989;  -39.625; -328.000; -311.000
222.133;  -39.900; -289.000; -307.000
222.277;  -14.550;    5.000;   78.000
222.422;    7.875;  227.000;  113.000
222.566;  -32.050; -381.000; -214.000
222.711;  -63.800; -414.000; -479.000
222.855;  -80.000; -643.000; -586.000
222.999;  -93.125; -642.000; -717.000
223.144;  -22.975; -195.000; -194.000
223.288;   50.775;  423.000;  251.000
223.432;   28.400;  184.000;  230.000
223.576;   15.475;  152.000;  -21.000
223.721;   35.450;  364.000;  273.000
223.865;  -63.025; -472.000; -475.000
224.009;  218.175; 1673.000; 1631.000
224.153;  -79.050; -660.000; -671.000
224.298;  -66.850; -531.000; -489.000
224.442;  -13.900;  -74.000;  -33.000
224.586;  -11.225; -169.000; -106.000
224.730;  -97.875; -858.000; -670.000
224.875; -114.500; -739.000; -688.000
225.019;   19.425;  102.000;  188.000
225.163;   45.600;  208.000;  341.000
225.307;   14.325;   97.000;  -91.000
225.451;   48.175;  360.000;  481.000
225.595;   29.825;  264.000;  176.000
225.739;  -16.150; -170.000;  -94.000
225.884;   10.725;   86.000;    5.000
226.028;  -80.075; -760.000; -626.000
226.172;  -33.300; -260.000; -273.000
226.316; -106.825; -941.000; -902.000
226.460;  -65.800; -645.000; -493.000
226.604;  -60.675; -406.000; -400.000
226.748;  -93.975; -836.000; -733.000
226.892;  -36.225; -227.000; -181.000
227.036;  -46.250; -537.000; -447.000
227.180;  -56.050; -551.000; -375.000
227.324;  -74.075; -561.000; -580.000
227.468; -109.775; -819.000; -717.000
227.612;   13.100;  242.000;  -28.000
227.756;  -99.225; -845.000; -698.000
227.900;   57.650;  342.000;  441.000
228.044;  -60.950; -509.000; -290.000
228.188;   59.375;  448.000;  568.000
228.332;  -87.175; -546.000; -472.000
228.476;  -32.250; -223.000; -149.000
228.620;  -24.900; -210.000; -150.000
228.764;   52.750;  431.000;  349.000
228.908;  -34.675; -155.000;   30.000
229.052;  -74.975; -615.000; -528.000
229.195;  -14.750; -172.000;   13.000
229.339;  -27.725; -235.000; -305.000
229.483;  -36.500;    5.000; -162.000
229.627;  -12.800; -156.000;  139.000
229.771;  -51.275; -218.000; -294.000
229.915;   -0.175;  230.000;   79.000
230.059;  -98.325; -648.000; -663.000
230.202;  -37.350; -370.000; -317.000
230.346;  -12.025; -107.000;  107.000
230.490;  -67.975; -489.000; -521.000
230.634; -104.425; -736.000; -553.000
230.777;   75.225;  478.000;  509.000
230.921;  -64.450; -450.000; -359.000
231.065;  -46.100; -246.000; -286.000
231.209;   22.850;  261.000;  265.000
231.352;   16.025;   54.000;   40.000
231.496;   15.525;  568.000;  188.000
231.640;  -76.725; -693.000; -621.000
231.783;   57.725;  546.000;  525.000
231.927;  -42.550; -294.000; -365.000
232.071; -101.225; -962.000; -736.000
232.214; -117.400; -980.000; -764.000
232.358;  -84.600; -683.000; -599.000
232.502;    6.075;  -19.000;    7.000
232.645; -147.425;-1090.000; -927.000
232.789;  -24.625; -257.000; -218.000
232.933;  -44.250; -407.000; -224.000
233.076; -137.750;-1038.000; -897.000
233.220;  -91.825; -752.000; -777.000
233.363;  -66.850; -669.000; -477.000
233.507;   41.750;  371.000;  129.000
233.650;  -89.225; -764.000; -834.000
233.794;   53.625;  438.000;  461.000
233.938;  -66.725; -530.000; -362.000
234.081;  -17.675;  -93.000;   31.000
234.225;  -63.900; -631.000; -539.000
234.368; -117.975; -773.000; -723.000
234.512;  -33.200; -385.000; -299.000
234.655;  -88.575; -582.000; -555.000
234.798;  -76.500; -493.000; -466.000
234.942; -128.600; -884.000;-1002.000
235.085;  -89.300; -651.000; -443.000
235.229;  -68.450; -405.000; -410.000
235.372;  -46.550; -247.000; -191.000
235.516;  -56.550; -397.000; -321.000
235.659;    8.125;   92.000;  121.000
235.802;   -8.325;  -38.000;  -22.000
235.946;   23.000;  335.000;  215.000
236.089;   25.925;  126.000;  250.000
236.233;   47.800;  275.000;  298.000
236.376;  -64.750; -235.000; -378.000
236.519;  -48.925; -297.000; -319.000
236.663;  -22.650; -215.000; -117.000
236.806; -134.325;-1029.000; -999.000
236.949;   36.525;  543.000;  431.000
237.092;   65.200;  412.000;  391.000
237.236;  -85.300; -589.000; -502.000
237.379;   70.250;  352.000;  428.000
237.522; -122.900; -879.000; -768.000
237.666;  -25.200; -271.000;   18.000
237.809; -123.425; -851.000; -823.000
237.952;   37.250;  469.000;  271.000
238.095;  -73.450; -447.000; -442.000
238.238;   81.350;  688.000;  700.000
238.382;   -6.800;  166.000;  103.000
238.525;  -63.475; -598.000; -511.000
238.668; -125.800;-1060.000; -985.000
238.811;  -76.100; -638.000; -643.000
238.954;  -58.375; -483.000; -334.000
239.097;   76.975;  617.000;  664.000
239.241;   18.500;  394.000;  326.000
239.384;  -37.950; -254.000; -214.000
239.527;  -67.600; -424.000; -224.000
239.670; -138.125; -994.000;-1091.000
239.813; -113.950; -696.000; -658.000
239.956;   66.950;  579.000;  473.000
240.099; -113.100; -778.000; -725.000
240.242;   58.775;  428.000;  432.000
240.385;   43.675;  466.000;  450.000
240.528;  -73.000; -706.000; -473.000
240.671;   14.450;  189.000;  134.000
240.814;  -54.875; -441.000; -158.000
240.957;  -98.225; -767.000; -578.000
241.100;  -97.925; -779.000; -755.000
241.243; -150.150;-1234.000; -893.000
241.386;  -55.300; -508.000; -379.000
241.529;  -74.900; -735.000; -547.000
241.672;  -61.700; -566.000; -495.000
241.815; -117.450; -832.000; -808.000
241.958;  -30.275; -125.000; -182.000
242.101;  -82.750; -545.000; -390.000
242.244;  -33.750; -270.000; -325.000
242.387;  -56.800; -304.000; -246.000
242.530;   54.100;  470.000;  134.000
242.673;  -43.475; -381.000; -309.000
242.815; -115.100; -925.000; -899.000
242.958;  -67.500; -482.000; -381.000
243.101;   10.975;  132.000;  187.000
243.244;  -83.075; -564.000; -521.000
243.387;  -50.750; -313.000; -316.000
243.530; -103.425; -657.000; -674.000
243.672;   -3.075;   43.000;  -92.000
243.815;  -50.625; -355.000; -283.000
243.958;   -6.375;   98.000;  -26.000
244.101;    1.575;   59.000;  -16.000
244.243;  -19.200;  -47.000;  101.000
244.386; -110.875; -761.000; -630.000
244.529;  -37.750; -132.000; -139.000
244.672; -150.225;-1154.000; -951.000
244.814; -102.125; -621.000; -794.000
244.957;  -66.900; -380.000; -304.000
245.100;  -62.700; -489.000; -489.000
245.242;  -59.650; -387.000; -374.000
245.385;   -0.125;  -59.000;  -39.000
245.528; -124.125; -871.000; -705.000
245.670;   89.175;  612.000;  634.000
245.813;  -87.325; -599.000; -547.000
245.956;  -42.675; -324.000; -275.000
246.098;  -72.200; -508.000; -650.000
246.241;    0.325;  194.000;   48.000
246.383;  -21.875; -119.000;  -73.000
246.526;  -82.825; -454.000; -525.000
246.669; -120.850; -889.000; -780.000
246.811;   13.675;  172.000;   -1.000
246.954;  -66.925; -512.000; -426.000
247.096;  -26.875;  -84.000;   -6.000
247.239;  -74.900; -482.000; -445.000
247.381;  -77.450; -647.000; -488.000
247.524;   91.200;  645.000;  679.000
247.666;   -9.850;   58.000;   11.000
247.809; -118.825; -887.000; -691.000
247.951;  -13.275;  -75.000;  138.000
248.094;   23.500;  432.000;  308.000
248.236; -165.450;-1262.000;-1238.000
248.378;    8.875; -356.000;  -81.000
248.521;  -17.100; -334.000; -337.000
248.663;  -47.875; -236.000; -267.000
248.806;  -18.600; -300.000; -266.000
248.948;  -97.350; -886.000; -763.000
249.090;  -46.225; -428.000; -398.000
249.233;  -56.225; -344.000; -381.000
249.375;  -74.725; -474.000; -451.000
249.518;  -32.350;  -83.000; -133.000
249.660;  -11.850; -103.000;    3.000
249.802; -164.125;-1303.000;-1189.000
249.945;  -83.675; -612.000; -540.000
250.087; -120.150; -834.000; -768.000
250.229;  -56.100; -362.000; -480.000
250.371;  -80.375; -494.000; -439.000
250.514;  -48.750; -310.000; -244.000
250.656;  -42.275;   69.000;  102.000
250.798; -128.225; -849.000; -800.000
250.940;  -56.675; -322.000; -322.000
251.083;  -26.500; -335.000; -111.000
251.225;   60.100;  338.000;  310.000
251.367;  -64.750; -274.000; -373.000
251.509;  -41.500; -265.000; -210.000
251.651;  -96.175; -731.000; -671.000
251.794;   57.275;  538.000;  632.000
251.936; -109.000; -821.000; -747.000
252.078;  -78.400; -540.000; -461.000
252.220;  -70.075; -645.000; -477.000
252.362;   86.075;  344.000;  462.000
252.504;  -56.400; -677.000; -584.000
252.646; -118.275; -875.000; -722.000
252.788;   -5.600;   14.000; -128.000
252.931;  -27.400; -257.000; -253.000
253.073;  -44.700; -376.000; -317.000
253.215;   -9.600;  141.000;  122.000
253.357;  -22.550;   82.000; -153.000
253.499;  -55.450; -374.000; -234.000
253.641;  -79.575; -749.000; -594.000
253.783;  -78.425; -609.000; -527.000
253.925;  -88.225; -586.000; -591.000
254.067; -109.075; -744.000; -667.000
254.209;  -34.850; -391.000; -259.000
254.351; -132.625; -865.000; -883.000
254.493;  -70.450; -441.000; -417.000
254.635; -126.350; -936.000; -818.000
254.777;  -93.150; -752.000; -687.000
254.918;  -75.625; -512.000; -430.000
255.060;  -54.575; -551.000; -395.000
255.202;  -63.225; -473.000; -261.000
255.344;  -86.925; -658.000; -455.000
255.486;  -80.875; -471.000; -406.000
255.628; -113.575; -780.000; -781.000
255.770;  -82.200; -676.000; -536.000
255.912;  -71.050; -559.000; -468.000
256.053;  -96.600; -730.000; -508.000
256.195;  146.050; 1008.000;  903.000
256.337; -101.250; -861.000; -595.000
256.479;   57.175;  532.000;  416.000
256.621;  -45.800; -394.000; -212.000
256.762;  -89.700; -789.000; -742.000
256.904;   40.525;  485.000;  487.000
257.046;  -54.050; -381.000; -271.000
257.188;  -47.450; -351.000; -264.000
257.329;  -67.500; -525.000; -464.000
257.471; -117.500; -939.000; -807.000
257.613;  -63.850; -584.000; -498.000
257.755; -146.900;-1073.000; -982.000
257.896;   37.900;  286.000;  392.000
258.038;  -71.225; -403.000; -352.000
258.180;  -43.650; -354.000; -279.000
258.321;  -88.925; -581.000; -457.000
258.463;   -8.075;  -71.000;  133.000
258.605;  -98.200; -562.000; -570.000
258.746; -110.175; -886.000; -772.000
258.888; -147.675;-1026.000;-1020.000
259.029;   11.450;  121.000;   -8.000
259.171;  -96.025; -614.000; -550.000
259.313;   -4.275;  -49.000;  -47.000
259.454;  -70.050; -536.000; -414.000
259.596;  -52.400; -483.000; -390.000
259.737;  -76.600; -590.000; -474.000
259.879;   34.475;  217.000;  311.000
260.020;   87.350;  901.000;  636.000
260.162;  -26.925; -146.000; -253.000
260.303; -110.600; -768.000; -687.000
260.445;  -90.450; -609.000; -613.000
260.586;   21.800;  392.000;  157.000
260.728;  -47.525; -360.000; -248.000
260.869; -110.250; -350.000; -343.000
261.011;   80.775;  706.000;  537.000
261.152;  -68.125; -479.000; -319.000
261.293;  -80.875; -576.000; -595.000
261.435;  -50.425; -219.000; -184.000
261.576;  -51.175; -455.000; -325.000
261.718;   46.150;  420.000;  470.000
261.859; -125.025; -940.000; -949.000
262.000; -121.300; -951.000;-1016.000
262.142;  -26.025;  -52.000;  -60.000
262.283; -116.850; -808.000; -691.000
262.424;  -94.925; -666.000; -625.000
262.566; -153.250;-1161.000; -983.000
262.707; -109.150; -840.000; -830.000
262.848; -121.025; -769.000; -726.000
262.990;  -46.750; -362.000; -345.000
263.131;   81.700;  650.000;  681.000
263.272;  -15.950;  -61.000;  -41.000
263.413;  -85.325; -589.000; -561.000
263.555;  -55.825; -669.000; -143.000
263.696;  -88.675; -550.000; -641.000
263.837;  -54.350; -449.000; -551.000
263.978;  -12.600;   -5.000;  -77.000
264.119;  -50.950; -283.000; -264.000
264.261; -111.800; -847.000; -630.000
264.402;   -8.300;   33.000;   40.000
264.543;  -85.350; -509.000; -524.000
264.684;   -7.925;   61.000;  -50.000
264.825;  -76.425; -816.000; -538.000
264.966;   -5.675;  -84.000;  -67.000
265.107; -111.925; -646.000; -670.000
265.248; -125.900; -825.000; -812.000
265.390;   -1.325;  152.000;   -9.000
265.531;  -38.950; -238.000; -107.000
265.672;  -73.975; -557.000; -630.000
265.813;   59.275;  563.000;  439.000
265.954; -131.850; -959.000; -940.000
266.095;  -16.375; -372.000; -322.000
266.236; -104.100; -686.000; -548.000
266.377;  -37.900; -243.000; -297.000
266.518;  -69.225; -619.000; -547.000
266.659;    8.400;  170.000;  268.000
266.800;    1.875;   83.000;   85.000
266.941;  -70.250; -487.000; -478.000
267.082;    5.025;  354.000;   99.000
267.223;  -53.550; -344.000; -273.000
267.364; -129.600; -892.000; -686.000
267.504;  -22.975;    3.000;  135.000
267.645;    1.550;  160.000;   67.000
267.786;  -43.200; -147.000;  -86.000
267.927;  -75.875; -473.000; -379.000
268.068;  -31.400; -186.000;  -61.000
268.209;  -49.600; -175.000; -413.000
268.350;  -68.000; -388.000; -532.000
268.490;  -92.800; -648.000; -521.000
268.631;   29.900;  127.000;  225.000
268.772;  -97.675; -874.000; -647.000
268.913;  -48.075; -328.000; -476.000
269.054;  -15.750; -117.000;   12.000
269.194;  -59.075; -418.000; -402.000
269.335; -162.325;-1137.000;-1074.000
269.476;  -20.775;   33.000;  -35.000
269.617;  -40.700; -347.000; -392.000
269.757;  -99.775; -713.000; -646.000
269.898; -101.775; -856.000; -613.000
270.039;  -63.500; -415.000; -405.000
270.180; -141.425; -952.000; -816.000
270.320;  -25.750; -190.000; -250.000
270.461;  -50.050; -277.000; -249.000
270.602;  -29.425; -186.000; -156.000
270.742; -125.950; -868.000; -943.000
270.883;  -59.275; -442.000; -390.000
271.023;  -63.450; -358.000; -357.000
271.164;  -77.625; -607.000; -528.000
271.305; -103.650; -666.000; -654.000
271.445;  -96.700; -722.000; -683.000
271.586;  -62.500; -462.000; -283.000
271.726;  -41.875; -397.000; -322.000
271.867;  -53.225; -594.000; -534.000
272.008;  196.150; -473.000; -285.000
272.148;  119.450;  462.000;  468.000
272.289;    9.675; -113.000; -181.000
272.429;   19.100;   19.000;  185.000
272.570;  -95.950; -633.000; -737.000
272.710; -103.325; -825.000; -775.000
272.851;  -20.025;  113.000; -130.000
272.991; -150.350;-1173.000;-1077.000
273.131;  -64.275; -419.000; -459.000
273.272;  -96.700; -683.000; -723.000
273.412;    1.200; -143.000;  -31.000
273.553;  -56.450; -488.000; -507.000
273.693;  118.575;  913.000;  858.000
273.834;  -85.250; -894.000; -692.000
273.974;  -67.100; -664.000; -615.000
274.114; -113.525; -772.000; -560.000
274.255;   75.350;  414.000;  373.000
274.395;    5.125; -180.000; -125.000
274.535;   31.975;  199.000;  350.000
274.676;    5.175;  225.000;   94.000
274.816;   -5.700;  110.000;   34.000
274.956;  -90.575; -624.000; -690.000
275.097;  -45.125;-1014.000; -922.000
275.237; -115.925; -913.000; -803.000
275.377; -102.825; -778.000; -689.000
275.517; -159.600; -878.000; -937.000
275.658;  -60.975; -590.000; -555.000
275.798;  -66.700; -606.000; -413.000
275.938;   15.800;  215.000;  323.000
276.078;  -85.250; -626.000; -395.000
276.218;    4.925;   99.000;  104.000
276.359; -128.175;-1026.000;-1024.000
276.499;  -60.675; -605.000; -446.000
276.639;  -26.725; -305.000; -151.000
276.779;  -40.150; -475.000; -357.000
276.919; -108.050; -783.000; -624.000
277.059;  -23.575; -261.000; -212.000
277.199;  -45.050; -357.000; -259.000
277.340;   29.325;  287.000;  175.000
277.480; -116.825; -840.000; -693.000
277.620;   28.075;  192.000;   16.000
277.760; -187.475;-1533.000;-1294.000
277.900;   13.100;  113.000;   33.000
278.040;   14.050;  137.000;  159.000
278.180;   32.125;  270.000;  170.000
278.320;   -9.075;   21.000;   56.000
278.460;  -69.525; -443.000; -469.000
278.600;  -84.975; -708.000; -598.000
278.740;   45.525;  448.000;  224.000
278.880;  -59.175; -768.000; -791.000
279.020;  -15.125; -194.000; -144.000
279.160;  -94.375; -672.000; -595.000
279.300; -120.600; -926.000; -873.000
279.440;  -88.525; -709.000; -622.000
279.579;  -13.500;-1014.000; -929.000
279.719;  -67.950; -410.000; -394.000
279.859;   71.100;   -4.000;   41.000
279.999;   26.725; -208.000;  101.000
280.139;  -25.675; -435.000; -387.000
280.279;  -82.850; -708.000; -745.000
280.419;  -12.000; -229.000; -147.000
280.559;  -24.450; -259.000; -180.000
280.698;  -93.050; -790.000; -639.000
280.838; -101.200; -778.000; -800.000
280.978;  -99.150; -846.000; -790.000
281.118; -112.675; -811.000; -704.000
281.257;  -12.675;   24.000;    6.000
281.397; -105.975;-1094.000; -960.000
281.537;  -89.200; -599.000; -712.000
281.677;  -31.250; -150.000; -101.000
281.816;  -89.175; -700.000; -630.000
281.956;  -35.600; -193.000; -257.000
282.096;  -70.325; -539.000; -396.000
282.235; -106.200; -672.000; -638.000
282.375;  -20.850; -243.000;  -98.000
282.515; -101.950; -715.000; -707.000
282.654;   19.300;   29.000;  106.000
282.794;   19.350;  388.000;  244.000
282.934;  -62.900; -530.000; -491.000
283.073; -123.275;-1030.000; -857.000
283.213;  -67.950; -460.000; -467.000
283.353;  -39.700; -408.000; -349.000
283.492;  -33.150; -264.000; -296.000
283.632;  -51.625; -254.000; -168.000
283.771;  -96.975; -859.000; -730.000
283.911;  -55.100; -369.000; -260.000
284.050; -112.075; -794.000; -748.000
284.190; -167.825;-1229.000;-1096.000
284.329; -137.800;-1055.000; -964.000
284.469;  -60.625; -516.000; -591.000
284.608;  -48.600; -559.000; -598.000
284.748;  -80.725; -614.000; -570.000
284.887;  -14.175;  -87.000;  -20.000
285.027; -128.800; -844.000; -892.000
285.166;  -45.350; -192.000; -249.000
285.306;    5.125; -116.000;  -33.000
285.445;  -41.575; -229.000; -343.000
285.584;  -93.975; -630.000; -494.000
285.724;  -44.425; -282.000; -322.000
285.863;  -98.100; -857.000; -507.000
286.002;  -67.925; -366.000; -276.000
286.142; -106.225; -715.000; -622.000
286.281;  -69.525; -525.000; -493.000
286.420;  -68.500; -554.000; -417.000
286.560;   91.650;  653.000;  623.000
286.699; -149.275; -958.000; -912.000
286.838;  -90.050; -590.000; -591.000
286.978;  -86.950; -533.000; -537.000
287.117; -129.725;-1085.000; -950.000
287.256;  -39.200; -228.000; -211.000
287.395;  -53.675; -197.000; -378.000
287.535;  -43.950; -370.000; -298.000
287.674;  -81.150; -509.000; -484.000
287.813;   56.175;  661.000;  533.000
287.952; -143.475;-1010.000; -871.000
288.091; -145.250;-1049.000; -915.000
288.231;    4.650;   13.000;   15.000
288.370; -179.650;-1217.000;-1200.000
288.509;  -91.350; -728.000; -645.000
288.648;  -93.225; -770.000; -548.000
288.787;  -41.525; -243.000;  -87.000
288.926;  -58.425; -454.000; -475.000
289.065;  116.375;  859.000;  672.000
289.204;  -52.600; -377.000; -217.000
289.344;  -95.350; -791.000; -690.000
289.483;   24.325;  416.000;  304.000
289.622;  -27.700; -291.000; -149.000
289.761;  -21.450; -309.000; -166.000
289.900; -103.725; -785.000; -626.000
290.039;   -2.350;  -12.000;  -95.000
290.178;  -39.475; -274.000; -180.000
290.317;  -80.800; -618.000; -479.000
290.456;  -70.850; -463.000; -451.000
290.595; -132.625; -961.000; -833.000
290.734; -131.375; -904.000; -891.000
290.873;  -66.100; -456.000; -420.000
291.011; -113.050; -833.000; -843.000
291.150; -108.200; -770.000; -682.000
291.289;  -27.650; -343.000; -110.000
291.428; -104.425; -599.000; -480.000
291.567;  -69.525; -370.000; -442.000
291.706;   -3.575;  109.000;  154.000
291.845;  -86.200; -597.000; -505.000
291.984; -170.125;-1234.000;-1061.000
292.122;   63.325;  602.000;  582.000
292.261;   36.525;  620.000;  463.000
292.400;    3.200; -144.000;  211.000
292.539; -129.750; -959.000; -813.000
292.678;  -39.325; -325.000; -300.000
292.816; -159.450;-1136.000; -965.000
292.955;  -81.125; -844.000; -684.000
293.094;  -26.800; -173.000; -337.000
293.233;  -47.300; -556.000; -400.000
293.371;  -38.225; -225.000;  -84.000
293.510; -120.575; -866.000; -780.000
293.649; -118.800; -959.000; -924.000
293.787;  -54.200;-1083.000;-1012.000
293.926;  -12.050; -113.000;  -32.000
294.065;  -56.750; -379.000; -290.000
294.203;   49.225;  298.000;  406.000
294.342;    5.925;   74.000;  156.000
294.481; 6132.475;51180.000; -836.000
294.619;  -30.600; -425.000; -582.000
294.758; -147.075;-1230.000;-1137.000
294.896;   64.150; -125.000;    5.000
295.035; -110.950;-1040.000;-1006.000
295.174; -117.375;-1082.000; -954.000
295.312;  -42.825; -323.000; -203.000
295.451;  -16.900; -307.000; -428.000
295.589;  -58.025; -389.000; -518.000
295.728;    1.575; -292.000; -165.000
295.866;   -1.100;  -36.000;  -51.000
296.005;  -69.850; -584.000; -341.000
296.143;  -63.025; -558.000; -596.000
296.282; -101.925; -957.000; -881.000
296.420;  -88.300; -657.000; -557.000
296.559;  -88.600; -892.000; -633.000
296.697;   39.800; -847.000; -665.000
296.835;   60.750;-1141.000;-1002.000
296.974;   42.775;  -23.000;   39.000
297.112;    3.025; -443.000; -504.000
297.251;  -69.525; -815.000; -755.000
297.389;   95.950; -576.000; -438.000
297.527;   42.125; -145.000;  -83.000
297.666;  -59.700; -486.000; -438.000
297.804;  -61.100; -404.000; -264.000
297.942;  -14.150; -136.000; -161.000
298.081;  -14.850; -183.000;   63.000
298.219;   70.175;  -17.000;  -19.000
298.357;   50.175; -144.000;  -71.000
298.495;   38.425; -810.000; -812.000
298.634;   87.800;  245.000;  219.000
298.772;   57.375; -220.000; -338.000
298.910;  -36.250; -309.000; -182.000
299.048;   -6.950; -130.000; -153.000
299.187;  -37.700; -350.000; -250.000
299.325;   24.800;   52.000;  122.000
299.463;   59.650; -389.000; -299.000
299.601;  104.050; -327.000; -271.000
299.739;  -94.375; -908.000; -883.000
299.877;  -75.425; -791.000; -703.000
300.016;  -29.725;-1095.000; -935.000
300.154;  167.050;  -19.000; -161.000
300.292;   51.625; -428.000; -348.000
300.430;   29.100; -408.000; -291.000
300.568;  -95.000; -940.000; -874.000
300.706;  -56.450; -366.000; -469.000
300.844;  -72.800;-1108.000; -979.000
300.982;  107.900;  246.000;  282.000
301.120; -107.550; -965.000; -866.000
301.258;  -62.650; -812.000; -705.000
301.396;   38.275;  104.000;  -41.000
301.534;   69.600; -218.000; -293.000
301.672;  -13.725; -664.000; -521.000
301.810;   41.675; -613.000; -545.000
301.948;  118.875;   53.000;  149.000
302.086;  638.575; -250.000;  -32.000
302.224;  973.225; -610.000; -585.000
302.362;   45.425; -558.000; -622.000
302.500;   -9.100; -923.000; -893.000
302.638;  117.825;  128.000;  245.000
302.776;   -2.375; -352.000; -408.000
302.913;   34.500;  447.000;  236.000
303.051;   -8.875;  -86.000;  -23.000
303.189;   40.450;   90.000;  118.000
303.327;  -35.700; -341.000; -256.000
303.465;  -78.950; -832.000; -588.000
303.603;  -96.150; -805.000; -604.000
303.740;   90.650;  417.000;  241.000
303.878;   12.500; -800.000; -759.000
304.016;  -86.125; -915.000; -790.000
304.154; -124.850;-1123.000;-1152.000
304.291;  -44.075; -505.000; -554.000
304.429;    7.725;  102.000;   74.000
304.567; -132.725; -908.000; -893.000
304.705;  -54.975; -408.000; -515.000
304.842;   85.675; -616.000; -540.000
304.980;   43.325;  215.000;   35.000
305.118;   43.525; -367.000; -365.000
305.255;  -86.300; -945.000; -927.000
305.393;   60.425;  178.000;  239.000
305.531; -101.325;-1173.000; -956.000
305.668;  -70.675; -663.000; -582.000
305.806;  117.600; -358.000; -439.000
305.943;  112.575; -629.000; -637.000
306.081;   65.200; -378.000; -267.000
306.219; -116.600; -863.000; -748.000
306.356;    8.750;  158.000;   27.000
306.494;  103.150;  981.000;  761.000
306.631;   -0.900;  -11.000;  -55.000
306.769;    4.375; -613.000; -485.000
306.906;  -17.550; -284.000; -258.000
307.044;  -55.100; -473.000; -488.000
307.181;  -69.600; -410.000; -332.000
307.319;   11.350;  112.000;   87.000
307.456; -171.600;-1191.000;-1153.000
307.594; -103.500; -980.000; -727.000
307.731;   -7.950; -371.000; -164.000
307.868;   -2.925;  -15.000;   20.000
308.006; -133.250; -961.000; -847.000
308.143;  -65.575; -618.000; -330.000
308.281;  183.425;  -37.000; -254.000
308.418;  -19.025; -748.000; -640.000
308.555;  -72.000; -400.000; -250.000
308.693;  -81.550; -577.000; -573.000
308.830; -104.575; -712.000; -657.000
308.967;  -18.775; -215.000;  -95.000
309.105;  -56.475; -507.000; -396.000
309.242;   29.625; -468.000; -367.000
309.379;  329.225; -577.000; -655.000
309.517;  -75.025; -936.000; -948.000
309.654; -113.700; -910.000; -734.000
309.791;  -85.250; -662.000; -580.000
309.928; -123.850; -977.000; -914.000
310.065;  167.975;  819.000;  697.000
310.203;   -4.325; -825.000; -850.000
310.340;  -10.925; -465.000; -321.000
310.477;  -75.300; -412.000; -516.000
310.614;  -72.675; -383.000; -473.000
310.751;  -73.950; -427.000; -518.000
310.889;  -41.600;    1.000;   11.000
311.026; -135.850;-1161.000; -939.000
311.163;  -67.300; -386.000; -380.000
311.300;  -77.350; -512.000; -479.000
311.437;  -79.200; -658.000; -619.000
311.574; -154.375;-1226.000; -985.000
311.711;  -53.200; -595.000; -433.000
311.848;  -40.600; -380.000; -388.000
311.985;    1.900;  270.000;   93.000
312.122; -122.425; -932.000; -762.000
312.259; -122.375; -941.000; -994.000
312.396;  -84.150; -508.000; -551.000
312.533;  -86.125; -812.000; -790.000
312.670; -139.175;-1070.000; -898.000
312.807;  -38.550; -352.000; -367.000
312.944;  -84.575; -513.000; -611.000
313.081;  -39.950; -150.000; -415.000
313.218;  -92.975;-1111.000; -867.000
313.355;   20.050; -531.000; -449.000
313.492;    3.775; -455.000; -292.000
313.629;  111.025;  815.000;  735.000
313.766; -151.925;-1176.000;-1008.000
313.902;  -14.175; -186.000;   21.000
314.039;  -50.775; -372.000; -289.000
314.176;   19.025;  286.000;  192.000
314.313;  -83.100; -569.000; -473.000
314.450;  -81.225; -788.000; -684.000
314.587;  -60.725; -468.000; -480.000
314.723;   -9.575;  -78.000;  130.000
314.860;   39.350;  318.000;  332.000
314.997;   29.450;  223.000;  142.000
315.134;  -49.325; -385.000; -368.000
315.270;  -32.250; -480.000; -496.000
315.407; -128.200;-1094.000; -967.000
315.544;  -53.125; -657.000; -538.000
315.681;  -62.250; -681.000; -565.000
315.817;   26.425; -133.000; -176.000
315.954;    9.550; -613.000; -392.000
316.091; -119.150;-1045.000;-1023.000
316.227;  -23.425;  -71.000; -179.000
316.364;   -5.050;   23.000;    6.000
316.500;  -51.975; -113.000; -300.000
316.637;  -48.475; -181.000; -302.000
316.774;  -89.525; -625.000; -358.000
316.910; -107.025; -598.000; -629.000
317.047;  -75.300; -487.000; -351.000
317.183;  -39.575; -435.000; -566.000
317.320;  -13.475; -367.000; -321.000
317.456;  -69.275; -733.000; -805.000
317.593;  -82.950; -598.000; -641.000
317.729;   -0.300;  168.000;  -67.000
317.866; -185.175;-1434.000;-1285.000
318.002; -104.800; -708.000; -948.000
318.139;  -94.100; -883.000; -867.000
318.275; -108.875;-1003.000; -738.000
318.412;  -49.700; -517.000; -336.000
318.548;  -19.175; -751.000; -720.000
318.685;  -89.400; -985.000; -888.000
318.821;  -92.450; -762.000; -735.000
318.957;   -8.075;   34.000;  -23.000
319.094;   29.725;  297.000;  154.000
319.230;  -54.800; -756.000; -742.000
319.367;  145.075; -471.000; -520.000
319.503;   59.875; -538.000; -436.000
319.639;  -90.575; -877.000; -793.000
319.775;  -48.575; -750.000; -685.000
319.912;  -55.225; -424.000; -519.000
320.048;  -80.675;-1184.000;-1184.000
320.184;   77.225;   59.000;   70.000
320.321;  -60.200; -497.000; -467.000
320.457;   63.050;  475.000;  662.000
320.593;  -54.225; -375.000; -382.000
320.729; -106.150; -732.000; -734.000
320.866;  -76.100; -577.000; -635.000
321.002;  -88.175; -759.000; -809.000
321.138;  -15.450; -135.000; -211.000
321.274;   83.825; -148.000; -115.000
321.410;  -30.950; -585.000; -353.000
321.546;  -25.100;-1011.000; -911.000
321.683;   62.625;  400.000;  185.000
321.819;   -2.775;  -48.000; -117.000
321.955; -105.800; -743.000; -722.000
322.091;  -60.800; -585.000; -540.000
322.227;  -17.250; -382.000; -202.000
322.363;  -35.575; -320.000; -215.000
322.499;  -51.450; -343.000; -331.000
322.635;  169.400;  636.000;  443.000
322.771;   37.600; -139.000;   12.000
322.907;   92.925;  129.000;  327.000
323.043;  -30.650; -115.000; -206.000
323.179;  -35.525; -394.000; -363.000
323.315;   24.125; -401.000; -371.000
323.451;   89.150; -328.000; -236.000
323.587;   64.950;  -60.000;  -77.000
323.723;   14.625; -682.000; -601.000
323.859;  -12.400; -258.000;  -76.000
323.995;  -25.725; -467.000; -409.000
324.131; -131.350; -967.000; -892.000
324.267;  -43.350; -254.000; -276.000
324.402; -133.775; -960.000; -983.000
324.538;  -23.425; -279.000; -104.000
324.674;   16.050;  164.000;   77.000
324.810;  135.800;  226.000;  308.000
324.946;    4.300; -810.000; -658.000
325.082;  -72.950; -568.000; -475.000
325.217;  -17.125;  -62.000;   16.000
325.353; -106.750; -764.000; -659.000
325.489;  -83.550; -540.000; -506.000
325.625;  -77.775; -579.000; -525.000
325.760;   56.425;  517.000;  376.000
325.896;  -26.650; -515.000; -702.000
326.032;  -59.900; -403.000; -352.000
326.168;  -70.400; -462.000; -369.000
326.303;  -57.750; -352.000; -461.000
326.439;  -29.925; -336.000; -276.000
326.575;   -7.275; -190.000;  -29.000
326.710;   -0.825; -156.000;  -30.000
326.846;  -22.400;  146.000;  103.000
326.982;  -85.550; -530.000; -548.000
327.117;  -78.775; -481.000; -442.000
327.253;  -91.125; -745.000; -742.000
327.388; -150.600;-1137.000;-1153.000
327.524;  -56.750; -811.000; -578.000
327.659;  -25.550;  -58.000;  -22.000
327.795;  -27.950;   69.000;   45.000
327.931;  -93.725; -723.000; -499.000
328.066;  -36.575; -417.000; -276.000
328.202;  -23.775;   12.000; -129.000
328.337;  102.275;  957.000;  713.000
328.473;   40.250;  -12.000;  -74.000
328.608;  -30.775; -256.000; -267.000
328.743;  -92.475; -799.000; -664.000
328.879;    3.475;  214.000;  114.000
329.014;  -33.125; -102.000; -122.000
329.150;  -83.050; -358.000; -483.000
329.285;  -61.800; -465.000; -466.000
329.421;  -64.250; -548.000; -246.000
329.556;  -34.125;  -36.000;   85.000
329.691; -103.850; -633.000; -615.000
329.827;  -78.475; -626.000; -480.000
329.962;  -53.000;  131.000; -301.000
330.097;  -95.250; -673.000; -585.000
330.233;  -57.250; -410.000; -223.000
330.368; -130.150; -839.000; -628.000
330.503;  -22.750;    3.000;   98.000
330.638;    1.125;  -93.000; -125.000
330.774;  -53.525; -609.000; -530.000
330.909;  -39.425; -434.000; -244.000
331.044;  -96.950; -714.000; -708.000
331.179; -165.475;-1217.000;-1109.000
331.315;  -16.425;   77.000;   20.000
331.450;    5.175;  157.000;  285.000
331.585;  -90.125; -805.000; -706.000
331.720;  -92.200; -510.000; -460.000
331.855;  -22.900;  -35.000; -102.000
331.990;  245.900;   62.000;  138.000
332.126;  137.500; -110.000;   71.000
332.261;  -26.275; -379.000; -265.000
332.396;   -2.500; -135.000; -242.000
332.531;  -93.425;-1074.000;-1031.000
332.666;   37.075; -519.000; -363.000
332.801; -102.925; -726.000; -807.000
332.936;  -39.150; -192.000; -122.000
333.071; -150.100; -870.000; -817.000
333.206;    3.850;  307.000;  379.000
333.341;   27.950;  344.000;  418.000
333.476;  -86.475; -627.000; -623.000
333.611;  -34.725; -251.000; -173.000
333.746;  -48.750; -381.000; -464.000
333.881; -112.975; -973.000; -935.000
334.016; -132.500; -936.000; -917.000
334.151; -113.850; -746.000; -702.000
334.286;   15.025;  152.000;  186.000
334.421;  -12.675; -125.000; -178.000
334.556;  -84.075; -611.000; -567.000
334.690;  -89.775; -631.000; -577.000
334.825;   42.200;  381.000;   83.000
334.960;  -66.025; -285.000; -413.000
335.095;    1.725;  135.000;  -91.000
335.230;  -97.375; -722.000; -738.000
335.365; -144.775;-1084.000; -990.000
335.499; -131.575;-1108.000;-1037.000
335.634;   11.725;    9.000;  534.000
335.769;  -98.775; -755.000; -720.000
335.904;  -68.950; -603.000; -561.000
336.038;  -63.475; -735.000; -657.000
336.173; -114.500;-1206.000;-1194.000
336.308;   10.400; -116.000; -189.000
336.443;    8.850; -544.000; -634.000
336.577;  -76.675; -936.000; -787.000
336.712;   67.075;   -4.000;  -12.000
336.847;  -37.750; -724.000; -607.000
336.981;   71.250; -272.000; -208.000
337.116;  288.400;  615.000;  501.000
337.250;  157.325; -434.000; -421.000
337.385;  253.875; -297.000; -208.000
337.520;   83.350; -632.000; -603.000
337.654;  -42.500; -215.000; -126.000
337.789; -134.800; -989.000; -933.000
337.923;  -35.100; -104.000; -205.000
338.058;  -92.875; -673.000; -738.000
338.192;  -35.275; -611.000; -488.000
338.327;  -10.325;  -18.000; -155.000
338.461;  -62.550; -299.000; -469.000
338.596;  -88.025; -780.000; -638.000
338.730; -114.100; -767.000; -803.000
338.865;  100.000;  -46.000; -140.000
338.999;  -43.150; -846.000; -702.000
339.134;  -40.450; -634.000; -536.000
339.268;    8.800; -741.000; -603.000
339.403;  353.850; -740.000; -775.000
339.537;  135.525; -894.000; -820.000
339.671; -114.150; -829.000; -813.000
339.806;  -65.900; -556.000; -512.000
339.940;   11.750; -261.000; -235.000
340.074;  -98.525; -685.000; -510.000
340.209;  -38.250; -351.000; -230.000
340.343;  -99.625; -517.000; -573.000
340.477;  135.825;  998.000; 1036.000
340.612;  -48.025;-1033.000; -900.000
340.746;  133.850; -199.000; -243.000
340.880;  -74.800; -924.000; -785.000
341.014;  -15.400;  -45.000; -154.000
341.149; -120.725; -756.000; -718.000
341.283; -109.200; -839.000; -754.000
341.417;  -95.325;-1124.000; -938.000
341.551;  141.675; -768.000; -708.000
341.685;  -31.275; -633.000; -611.000
341.820;  -56.875; -562.000; -493.000
341.954;  -55.575; -218.000; -349.000
342.088; -144.625;-1102.000;-1019.000
342.222;   53.900;  565.000;  618.000
342.356;  -67.675; -395.000; -335.000
342.490;  -99.975; -880.000; -841.000
342.624;  -38.925; -339.000; -242.000
342.758;  -11.200; -364.000; -312.000
342.892;  -76.900; -710.000; -585.000
343.026;  -47.625;  -58.000; -116.000
343.160;  -59.425; -426.000; -376.000
343.294;  -67.725; -474.000; -337.000
343.428;  -37.125; -488.000; -448.000
343.562;   -9.475; -172.000;  -23.000
343.696;  -25.450; -385.000; -314.000
343.830;  -18.375; -362.000; -356.000
343.964;    7.150; -231.000; -168.000
344.098;  953.675;  199.000;   70.000
344.232;  785.075; -266.000; -127.000
344.366;   89.425; -567.000; -453.000
344.500;   77.175; -665.000; -744.000
344.634;   26.175; -324.000; -164.000
344.768;  -15.475; -531.000; -341.000
344.902;   19.050;  278.000;  256.000
345.035;  -75.025; -556.000; -496.000
345.169; -124.975; -933.000; -656.000
345.303;  -29.675; -308.000; -482.000
345.437;  -66.450; -826.000; -717.000
345.571;  -68.350; -675.000; -594.000
345.704;  -59.925; -309.000; -532.000
345.838;  -15.900; -331.000; -284.000
345.972;  -34.850; -543.000; -495.000
346.106;  167.900; -179.000; -190.000
346.239;  437.725; -312.000; -243.000
346.373;    3.175; -343.000; -302.000
346.507; -130.650; -950.000; -962.000
346.640;  136.650;  -30.000;   13.000
346.774;  -37.300; -650.000; -797.000
346.908;  -24.900; -138.000;  -11.000
347.041;  -90.775; -646.000; -593.000
347.175;   13.225;  259.000;   27.000
347.309;  -66.425; -698.000; -628.000
347.442; -107.975; -883.000; -732.000
347.576;  272.250;  670.000;  668.000
347.709;  196.675; -123.000;  -52.000
347.843;  -77.925; -933.000; -825.000
347.976;   39.225;  235.000;  294.000
348.110; -172.400;-1268.000;-1186.000
348.243; -107.600; -679.000; -772.000
348.377;   -7.375;  -26.000;   60.000
348.510;   41.850;  403.000;  540.000
348.644;  -46.100;  -37.000; -159.000
348.777;  -13.875;  180.000;  191.000
348.911;  -47.550; -142.000; -112.000
349.044;  168.300;  471.000;  448.000
349.178;  177.975;-1069.000;-1006.000
349.311;  104.650;  141.000;  255.000
349.444;    4.400; -927.000; -813.000
349.578;  -19.500; -347.000; -200.000
349.711;  -94.675; -959.000; -862.000
349.845;   -6.975; -661.000; -591.000
349.978; -137.825;-1224.000;-1137.000
350.111;  -91.450; -546.000; -612.000
350.244;  -83.425; -596.000; -700.000
350.378;    4.925; -392.000; -393.000
350.511;  -59.025; -393.000; -426.000
350.644; -121.825; -808.000; -806.000
350.778;    9.450;  168.000;  104.000
350.911;   -8.900;  134.000;  140.000
351.044; -101.875; -685.000; -615.000
351.177;  -29.550; -321.000; -281.000
351.310;  -19.750;    3.000; -131.000
351.444;  -87.525; -888.000; -788.000
351.577;  102.150;  140.000;   90.000
351.710;  109.925;  593.000;  417.000
351.843;  -45.850; -165.000;  -77.000
351.976;  -20.125;  149.000;  -79.000
352.109;  -86.600; -621.000; -612.000
352.242;  -21.875; -464.000; -419.000
352.376;  -54.050; -580.000; -636.000
352.509;  176.850; -437.000; -356.000
352.642;   15.025; -654.000; -604.000
352.775;   64.550; -141.000;  -98.000
352.908; -106.475; -933.000; -904.000
353.041; -111.950; -814.000; -824.000
353.174;  -60.250; -551.000; -424.000
353.307;  -87.275; -753.000; -764.000
353.440;   54.875;  541.000;  453.000
353.573; -107.925; -957.000;-1008.000
353.706;  -53.225; -384.000; -558.000
353.839;  -31.500; -264.000; -220.000
353.971;  -78.850; -657.000; -512.000
354.104;  -82.125; -896.000; -835.000
354.237;  -35.100; -627.000; -662.000
354.370;  -95.825; -846.000; -879.000
354.503; -167.550;-1231.000;-1308.000
354.636;  -40.700; -529.000; -348.000
354.769; -120.975; -937.000; -860.000
354.902;  -22.800; -230.000; -139.000
355.034;  -28.775; -164.000; -220.000
355.167;  -11.800; -262.000; -162.000
355.300;  -83.275;-1061.000; -880.000
355.433;  975.925;  -71.000;  -14.000
355.565; 1538.850; -402.000; -384.000
355.698;  377.525; -356.000; -296.000
355.831;    6.225; -882.000; -801.000
355.964;   81.900; -285.000; -170.000
356.096;  -77.500; -856.000; -843.000
356.229;    3.375; -523.000; -530.000
356.362;  314.425; -373.000; -266.000
356.494;  599.600; -229.000; -162.000
356.627;  487.100;  269.000;  377.000
356.760;  683.500;  120.000;   53.000
356.892;  980.375; -286.000; -601.000
357.025;  661.075;  403.000;  389.000
357.157;  635.400; -167.000; -179.000
357.290;  670.850; -856.000; -713.000
357.423;  220.425; -667.000; -556.000
357.555;  114.275; -217.000; -228.000
357.688;  126.900; -483.000; -364.000
357.820;  455.475; -870.000; -877.000
357.953; 3853.625; -563.000; -589.000
358.085;  841.800; -632.000; -612.000
358.218; 1165.925;-1131.000; -932.000
358.350;  217.725;  -58.000;  312.000
358.483; -118.750;-1300.000;-1187.000
358.615;   -7.225;-1182.000;-1078.000
358.747;  -47.750;-1187.000;-1058.000
358.880;   22.075; -810.000; -744.000
359.012;   -5.325; -376.000; -202.000
359.145;  -43.325; -480.000; -511.000
359.277;   62.725; -962.000; -913.000
359.409; 3114.275;  536.000;  231.000
359.542;  816.125; -738.000; -688.000
359.674;   63.200;   46.000;   13.000
359.806;  -57.875; -565.000; -438.000
359.939;  -30.000; -617.000; -516.000
360.071;   -7.700; -583.000; -579.000
360.203;  -17.800; -411.000; -364.000
360.335;   57.450;  164.000;  -16.000
360.468;  197.150; -249.000; -307.000
360.600; 2547.500; -547.000; -454.000
360.732; 2880.725; -546.000; -423.000
360.864;  418.950;-1216.000;-1044.000
360.996;  277.525; -516.000; -554.000
361.129;   49.750; -389.000; -598.000
361.261;   18.675;  110.000; -113.000
361.393;  -29.600; -252.000; -214.000
361.525;   24.125;   94.000;  244.000
361.657;  -45.375; -821.000; -703.000
361.789;    6.400; -139.000; -155.000
361.921;  237.200; -642.000; -593.000
362.053;  267.400;  524.000;  541.000
362.185;   32.850;  288.000;   72.000
362.318;  -74.925; -709.000; -705.000
362.450;  123.650;  294.000;  444.000
362.582;  119.650; -913.000; -870.000
362.714;  -31.000; -353.000; -332.000
362.846;  -79.700; -606.000; -490.000
362.978; -131.700; -941.000; -811.000
363.109;   37.050; -161.000; -260.000
363.241;  448.300; -739.000; -749.000
363.373;  445.525; -649.000; -564.000
363.505;  655.100; -186.000;  -91.000
363.637;  147.000; -787.000; -601.000
363.769; -118.550;-1067.000;-1080.000
363.901;  -81.450; -596.000; -654.000
364.033; -112.675;-1103.000;-1062.000
364.165;    0.000; -283.000; -283.000
364.296;   77.525; -316.000; -177.000
364.428;   73.900;-1344.000;-1220.000
364.560;  -70.500; -679.000; -661.000
364.692;  -67.425; -738.000; -835.000
364.824;  256.475; -588.000; -456.000
364.955;  430.450; -402.000; -564.000
365.087;  931.050;-1097.000; -852.000
365.219;   26.900; -686.000; -816.000
365.351;  -72.100; -526.000; -572.000
365.482;   48.825;  300.000;  240.000
365.614;  -54.375; -402.000; -314.000
365.746;  -97.975; -729.000; -752.000
365.877;  -85.950; -706.000; -672.000
366.009;  265.275;  -35.000;  -62.000
366.141;  -86.950;-1249.000;-1134.000
366.272; -119.000; -803.000; -719.000
366.404; -109.650;-1005.000; -874.000
366.535;   -9.675; -139.000;  -12.000
366.667; -105.875; -644.000; -649.000
366.799;   35.525;  353.000;  203.000
366.930; -124.025; -862.000; -996.000
367.062;  119.925; -639.000; -613.000
367.193;  153.875; -872.000; -842.000
367.325;  -71.950; -580.000; -684.000
367.456;   38.350; -246.000;   31.000
367.588;  166.775; -371.000; -318.000
367.719;   33.525;  -44.000;  -45.000
367.851;  -21.575; -222.000; -241.000
367.982;  -51.475; -875.000; -732.000
368.113;  107.550; -475.000; -358.000
368.245; -103.700; -960.000; -841.000
368.376;  -19.100; -254.000; -302.000
368.508;  -24.325; -188.000; -263.000
368.639; -134.400;-1166.000;-1034.000
368.770;  -16.525; -670.000; -589.000
368.902;  -56.175; -836.000; -926.000
369.033; -109.525; -906.000; -855.000
369.164;  -56.625; -720.000; -653.000
369.296; -114.775; -452.000; -601.000
369.427;   -9.900; -209.000; -144.000
369.558;  -65.125; -593.000; -377.000
369.689;  -92.350; -721.000; -569.000
369.821; -120.550; -951.000; -845.000
369.952;  -25.325;   42.000; -108.000
370.083;  -49.500; -229.000; -108.000
370.214; -100.700; -735.000; -650.000
370.345;  -11.125;   65.000;   81.000
370.477;  -83.875; -810.000; -790.000
370.608;  223.775; -328.000; -264.000
370.739;  -51.800;-1233.000;-1292.000
370.870;  -43.200;-1102.000; -923.000
371.001;   96.100; -378.000; -467.000
371.132;  -76.275; -754.000; -735.000
371.263;  -20.600;  -42.000; -148.000
371.394; -141.125; -841.000; -748.000
371.525;   32.425;  345.000;  225.000
371.657;  -88.675; -808.000; -670.000
371.788;   69.925;  103.000;  199.000
371.919;  168.175; -384.000; -304.000
372.050; 3703.225;  -91.000; -156.000
372.181; 1147.950; -188.000; -294.000
372.311;  385.200;   42.000; -127.000
372.442;   36.850; -457.000; -451.000
372.573;  -32.700; -444.000; -340.000
372.704; -113.900;-1008.000; -980.000
372.835;   94.025; -228.000; -289.000
372.966;  -63.000; -646.000; -554.000
373.097;  -54.975; -575.000; -711.000
373.228;  -39.900; -717.000; -542.000
373.359;  144.450; -824.000; -536.000
373.490;  950.325; -881.000; -727.000
373.620; 1198.450;-1001.000; -803.000
373.751; 1816.575; -332.000; -396.000
373.882;  846.100; -663.000; -733.000
374.013;   63.875; -449.000; -262.000
374.143;  -41.625; -581.000; -659.000
374.274;  -89.825; -987.000; -908.000
374.405;  177.175; -388.000; -276.000
374.536;  445.675; -526.000; -387.000
374.666; 1173.275; -759.000; -807.000
374.797;  224.900; -817.000; -868.000
374.928;  874.025; -710.000; -560.000
375.058;  948.775; -535.000; -500.000
375.189;   85.450;  -59.000;  -93.000
375.320;  -98.175; -928.000;-1034.000
375.450;  -40.325; -625.000; -616.000
375.581;  -51.900; -526.000; -436.000
375.712;  -29.150; -574.000; -250.000
375.842;  315.850; -438.000; -415.000
375.973;  238.350; -554.000; -513.000
376.103;  -53.425; -665.000; -648.000
376.234;  -81.125; -531.000; -552.000
376.364;  -37.250; -944.000; -867.000
376.495;  340.475;  925.000;  529.000
376.625;   -6.425; -472.000; -485.000
376.756;   56.650; -709.000; -678.000
376.886;  -80.275;-1178.000;-1026.000
377.017;   34.975;-1048.000;-1061.000
377.147;  344.725; -786.000; -782.000
377.278;   59.025;  174.000;  228.000
377.408; -135.500; -801.000; -815.000
377.538; -109.425; -707.000; -693.000
377.669;  -80.525; -537.000; -613.000
377.799;  -96.875; -645.000; -635.000
377.929;  -60.250; -610.000; -428.000
378.060; -129.225; -781.000; -847.000
378.190;  -59.250; -726.000; -531.000
378.320;  -64.575; -401.000; -406.000
378.451;   -5.150; -131.000;  -22.000
378.581;   -0.850;  -67.000; -110.000
378.711;  149.275; 1035.000;  866.000
378.841;  -23.375; -533.000; -675.000
378.972;  -63.025; -871.000; -751.000
379.102;   -2.500; -652.000; -579.000
379.232;  -21.850; -126.000;  -73.000
379.362; -104.775;-1001.000; -885.000
379.492;   10.850; -373.000; -424.000
379.623;  111.875;    0.000;  111.000
379.753; -110.500;-1107.000; -974.000
379.883;  188.975;   59.000;  156.000
380.013;    8.725;-1081.000;-1017.000
380.143;  -98.875;-1097.000;-1056.000
380.273;  -99.925; -985.000; -861.000
380.403;   -9.575; -344.000; -257.000
380.533;  -26.700; -651.000; -664.000
380.663;   56.600;  173.000;  128.000
380.793;  -88.675;-1027.000;-1074.000
380.923;  -32.425; -103.000;  -34.000
381.053;  -87.075; -613.000; -623.000
381.183;  -35.750; -106.000; -248.000
381.313;   49.825; -656.000; -470.000
381.443;   39.125; -692.000; -473.000
381.573;  204.600; -402.000; -409.000
381.703;  306.550;-1249.000;-1095.000
381.833; -126.925;-1454.000;-1336.000
381.963;  112.200; -134.000;  -87.000
382.093; 1437.325; -925.000; -909.000
382.223;  463.975; -713.000; -602.000
382.353;   -6.050; -801.000; -608.000
382.482;  364.650;-1091.000; -964.000
382.612;  799.075; -872.000; -644.000
382.742;  452.700; -695.000; -622.000
382.872;  265.000; -565.000; -551.000
383.002;   63.650;  347.000; -132.000
383.131;  -18.000; -226.000; -160.000
383.261;  -46.875; -706.000; -768.000
383.391;  293.825; -552.000; -377.000
383.521; 3213.100;  451.000;  263.000
383.650;  786.300; -947.000; -904.000
383.780;   -7.550; -783.000; -656.000
383.910;  111.625;  880.000;  802.000
384.039;   13.900; -794.000; -656.000
384.169;  221.150;-1205.000;-1017.000
384.299;  -20.125; -650.000; -662.000
384.428; -100.150; -764.000; -680.000
384.558;  -65.200; -308.000; -275.000
384.687;  -52.250; -414.000; -334.000
384.817;   20.025;   75.000;   -2.000
384.947;    9.825; -234.000; -141.000
385.076;  277.875;  982.000;  912.000
385.206;   87.550;  369.000;  480.000
385.335;  -32.450; -549.000; -417.000
385.465;  -77.550; -655.000; -663.000
385.594;  143.775;  -53.000;  -44.000
385.724;  443.650; -868.000; -838.000
385.853;  117.050; -296.000; -270.000
385.982; 1399.050; -743.000; -787.000
386.112; 2251.500;-1052.000; -871.000
386.241;  147.375; -307.000; -312.000
386.371;    1.425; -174.000;  -87.000
386.500;   11.825; -825.000; -789.000
386.629;   30.800; -874.000; -817.000
386.759;   65.775;  -43.000;   68.000
386.888;  -23.325; -170.000; -250.000
387.017;  -83.800; -648.000; -620.000
387.147;  -85.125; -771.000; -798.000
387.276;   -5.800; -410.000; -397.000
387.405;   10.075; -398.000; -342.000
387.535;  -53.425; -452.000; -361.000
387.664;  -57.150; -692.000; -620.000
387.793;   52.325; -198.000; -113.000
387.922;  531.400;  255.000;  200.000
388.052;   30.825; -576.000; -423.000
388.181;   23.500; -342.000; -472.000
388.310;   -7.675; -889.000; -710.000
388.439;  -44.150; -749.000; -742.000
388.568;  176.900;  365.000;  244.000
388.697; 1081.275; -756.000; -653.000
388.826;  242.125; -768.000; -666.000
388.956;   55.475; -285.000; -307.000
389.085;  -39.625; -347.000; -287.000
389.214; -102.650; -842.000; -872.000
389.343;  -64.775; -645.000; -413.000
389.472;  386.400;  126.000;  149.000
389.601;  523.300;   91.000;    0.000
389.730;   18.225; -568.000; -687.000
389.859;   70.400;  226.000;   46.000
389.988;  179.875; -423.000; -408.000
390.117;  157.875; -168.000; -146.000
390.246;  -11.750; -331.000; -320.000
390.375;  106.550; -673.000; -626.000
390.504;  -60.025; -703.000; -621.000
390.633; -103.250; -672.000; -726.000
390.761;  -63.200; -732.000; -645.000
390.890;    8.825;   -4.000; -130.000
391.019;  -28.400; -421.000; -441.000
391.148; -122.475; -826.000; -855.000
391.277;  -71.450; -576.000; -493.000
391.406;  -83.750; -821.000; -805.000
391.534;   -1.225;  574.000; -301.000
391.663;  -79.775; -583.000; -645.000
391.792;  -84.250; -673.000; -701.000
391.921;   98.800;   -3.000;   15.000
392.050;  184.400; -287.000; -228.000
392.178;  -46.750;-1206.000;-1061.000
392.307;  138.000; -758.000; -712.000
392.436;   73.100; -427.000; -641.000
392.564;   13.925;  166.000;   -6.000
392.693;  -87.900; -860.000; -682.000
392.822;  206.500; -529.000; -534.000
392.950;  105.650; -880.000; -714.000
393.079;  308.325; -188.000; -328.000
393.208;   45.575; -488.000; -511.000
393.336;  -21.675; -170.000; -145.000
393.465;  -50.050; -317.000; -199.000
393.593;   -9.025;   62.000;   79.000
393.722; -150.850;-1121.000; -916.000
393.850;  -34.025; -188.000;  -61.000
393.979; -153.475; -926.000; -805.000
394.107;  -67.050; -517.000; -537.000
394.236;  -26.200; -570.000; -507.000
394.364;  213.075;  383.000;  206.000
394.493;  382.075; -911.000; -767.000
394.621;  -16.275; -955.000; -916.000
394.750;  711.125; -873.000; -923.000
394.878; 2945.650; -247.000; -149.000
395.007; 4124.800; -721.000; -807.000
395.135;  316.025; -790.000; -721.000
395.263;  -85.600;-1038.000;-1040.000
395.392;    7.300;  -25.000; -107.000
395.520; -134.100; -818.000; -679.000
395.648; -100.125; -865.000; -915.000
395.777;  -29.525; -366.000; -405.000
395.905;  -46.750; -449.000; -564.000
396.033;    5.425;  217.000;  172.000
396.162;  603.000; -399.000; -453.000
396.290;  557.975;  -17.000;   -2.000
396.418;  104.725; -555.000; -514.000
396.546;  -74.275; -571.000; -466.000
396.674;  -94.650; -850.000; -878.000
396.803;    4.550;  -72.000;  -23.000
396.931;   84.075; -179.000; -199.000
397.059;   61.725;-1026.000; -989.000
397.187; -110.525;-1026.000; -975.000
397.315; -132.225; -884.000; -649.000
397.443;  -95.250; -592.000; -443.000
397.572;  -96.700; -578.000; -424.000
397.700;  -11.700; -607.000; -614.000
397.828;   25.125;  120.000;  -90.000
397.956;  -62.125; -508.000; -478.000
398.084;  -60.900; -767.000; -626.000
398.212;   30.425;  137.000;  124.000
398.340;   -3.575;  -56.000;  159.000
398.468;   34.550; -390.000; -169.000
398.596; -138.325; -993.000; -953.000
398.724; -141.375; -762.000; -767.000
398.852; -163.800;-1024.000; -976.000
398.980;  -80.400; -560.000; -560.000
399.108;  -51.675; -982.000; -735.000
399.236;   32.675;   13.000;    8.000
399.363;   14.375;  222.000;  196.000
399.491;  -71.750; -404.000; -398.000
399.619; -119.175; -829.000; -800.000
399.747; -101.675; -859.000; -771.000
399.875;   82.475;  220.000;  234.000
400.003;  -58.650; -359.000; -284.000
400.130; -106.000; -421.000; -341.000
400.258;  -43.050;  -83.000;   38.000
400.386;  -70.375; -352.000; -168.000
400.514;  -44.300; -526.000; -587.000
400.641;  -93.825; -928.000; -802.000
400.769; -144.100; -979.000; -888.000
400.897; -104.850; -838.000; -793.000
401.025;  -18.225; -166.000; -152.000
401.152;  -22.900;  220.000;   38.000
401.280;  -90.125; -430.000; -429.000
401.408; -122.750; -712.000; -576.000
401.535; -107.825; -735.000; -758.000
401.663; -182.050;-1134.000;-1054.000
401.790;  -82.700; -514.000; -525.000
401.918;   23.600;  436.000;  405.000
402.046;  -19.750;  134.000;  122.000
402.173;  -42.875;  -18.000;    7.000
402.301;  -72.550; -519.000; -397.000
402.428;   45.900;  528.000;  383.000
402.556; -148.175;-1188.000; -913.000
402.683;  -30.475;  -20.000;   -1.000
402.811;  -17.650;  -37.000; -206.000
402.938;  -14.125;   20.000;   27.000
403.066;  191.050; -574.000; -558.000
403.193;  345.675;  299.000;  239.000
403.321;  244.875; -396.000; -574.000
403.448;  323.425;   83.000;   27.000
403.575;  152.650;  -90.000;  -46.000
403.703;  -87.000; -732.000; -557.000
403.830;  -76.375; -531.000; -496.000
403.957; -131.600;-1117.000;-1023.000
404.085;    2.750;  -61.000; -172.000
404.212;  101.775;  -50.000;   63.000
404.339;  269.200; -566.000; -306.000
404.467; 5770.075; -612.000; -524.000
404.594; 3970.975; -287.000; -227.000
404.721;  969.175; -869.000; -764.000
404.848;   83.525; -113.000; -202.000
404.976; -102.475; -856.000; -783.000
405.103;  -13.075;  -14.000;  -82.000
405.230;   13.750;  190.000;  226.000
405.357;    7.475;  117.000;   44.000
405.484;  252.025;  -49.000;    5.000
405.612;   62.875; -548.000; -563.000
405.739;  -60.850; -488.000; -243.000
405.866;   74.700;  669.000;  385.000
405.993;  -59.075; -398.000; -102.000
406.120; -135.525; -801.000; -887.000
406.247;  -53.675; -323.000; -342.000
406.374;  442.500;  540.000;  629.000
406.501;  116.525; -632.000; -702.000
406.628;  -76.675; -621.000; -589.000
406.755;  -98.200; -803.000; -620.000
406.882;  -49.825; -228.000; -277.000
407.009; -106.550; -719.000; -628.000
407.136;   49.075; -480.000; -401.000
407.263;  157.225; -939.000; -829.000
407.390;  -73.475; -692.000; -614.000
407.517; -173.775;-1139.000;-1187.000
407.644;  -60.975; -332.000; -256.000
407.771; -121.150; -249.000; -287.000
407.898;   -5.475;  168.000;  328.000
408.025;  -78.575; -421.000; -313.000
408.151;  -20.075;   82.000;  153.000
408.278;  -64.200; -267.000; -216.000
408.405; -122.500; -931.000; -899.000
408.532;  -74.525; -549.000; -542.000
408.659; -115.400; -677.000; -648.000
408.785; -193.350;-1298.000;-1170.000
408.912;  -83.350; -412.000; -296.000
409.039; -112.675; -610.000; -686.000
409.166; -108.900; -591.000; -555.000
409.292; -116.300; -571.000; -534.000
409.419; -119.875; -665.000; -649.000
409.546;  -82.500; -431.000; -192.000
409.672; -112.625; -713.000; -545.000
409.799;  -25.075;  -36.000;   34.000
409.926;  -42.700; -180.000; -179.000
410.052; -176.400;-1127.000;-1091.000
410.179;  -58.900; -368.000; -392.000
410.305;  -87.850; -375.000; -493.000
410.432;  -62.625; -220.000; -333.000
410.558; -111.225; -305.000; -380.000
410.685; -111.175; -688.000; -431.000
410.812; -107.450; -409.000; -588.000
410.938; -152.600; -964.000; -808.000
411.065;  -91.925; -671.000; -645.000
411.191;  -27.450; -189.000; -174.000
411.317; -119.700; -823.000; -742.000
411.444;  -68.875; -317.000; -246.000
411.570;  -83.850; -339.000; -294.000
411.697; -129.500; -758.000; -752.000
411.823; -166.725; -989.000; -999.000
411.949;  -29.225;  -56.000;   17.000
412.076; -114.550; -539.000; -519.000
412.202; -129.025; -758.000; -757.000
412.329; -127.600; -798.000; -752.000
412.455; -124.350; -821.000; -657.000
412.581;  -36.250;  -15.000;  172.000
412.707;  -70.075; -540.000; -457.000
412.834;   -8.975;  156.000;  219.000
412.960;  -94.550; -785.000; -784.000
413.086; -106.000; -743.000; -701.000
413.212;  145.550;  604.000;  578.000
413.339;  -64.475; -685.000; -701.000
413.465;   -9.100; -364.000; -310.000
413.591;  -85.525; -757.000; -474.000
413.717;  -49.250; -358.000; -366.000
413.843; -135.500; -839.000; -861.000
413.969;  -60.175;  -47.000; -292.000
414.096; -107.950; -679.000; -679.000
414.222;   -4.725;  -33.000;   85.000
414.348;  -25.500; -652.000; -385.000
414.474;   81.625;   38.000;  -52.000
414.600;   -9.250; -126.000; -144.000
414.726;  -22.100;  -96.000;  -55.000
414.852;  -67.400; -365.000; -342.000
414.978;   22.775;  104.000;  -18.000
415.104;   44.775;   38.000;   80.000
415.230;   13.475; -329.000; -330.000
415.356;   57.925; -409.000; -514.000
415.482;  203.850;   13.000;  -35.000
415.608;  272.425; -247.000; -323.000
415.734;  946.025;   67.000;   38.000
415.860;19867.375; -875.000; -767.000
415.986;15330.250; -685.000; -607.000
416.111; 1356.675; -798.000; -652.000
416.237;  266.125; -424.000; -571.000
416.363; 1103.875; -765.000; -733.000
416.489; 4328.800; -324.000; -251.000
416.615;  503.550; -707.000; -742.000
416.741;  -12.425; -677.000; -784.000
416.866;  -86.050; -673.000; -736.000
416.992; -122.250; -801.000; -818.000
417.118;  -33.225;  -41.000;  -80.000
417.244;  -82.500; -798.000; -531.000
417.369;  -81.525; -801.000; -612.000
417.495;  -15.175; -325.000; -254.000
417.621;  -81.725;-1015.000; -803.000
417.746;    5.850; -579.000; -572.000
417.872;   47.625; -254.000; -144.000
417.998;   47.450; -515.000; -530.000
418.123; 1009.550;-1073.000; -845.000
418.249; 5548.800; -512.000; -601.000
418.374;  826.300; -916.000; -824.000
418.500;  127.625; -383.000; -482.000
418.626;  110.075;   70.000;  -59.000
418.751;  116.800; -549.000; -448.000
418.877;  206.050; -637.000; -643.000
419.002; 1764.675; -688.000; -560.000
419.128;12829.975; -930.000; -721.000
419.253; 3345.700; -967.000; -837.000
419.379;  430.875; -391.000; -338.000
419.504;  383.825;  325.000;  415.000
419.629;  523.250; -393.000; -212.000
419.755; 3470.975; -317.000; -254.000
419.880;21547.100;  -98.000;   67.000
420.006;11630.725; -280.000; -221.000
420.131;30397.125; -662.000; -775.000
420.256; 4611.925; -315.000; -316.000
420.382;  605.575; -665.000; -687.000
420.507;   85.500; -649.000; -778.000
420.632;  136.200; -337.000; -339.000
420.758;  252.800; -251.000; -425.000
420.883;  -68.900; -876.000; -672.000
421.008;  -99.950; -775.000; -619.000
421.133;  -95.450; -509.000; -467.000
421.259;  -62.900; -325.000; -259.000
421.384; -111.825; -834.000; -693.000
421.509;  -47.575;-1052.000; -862.000
421.634; 1127.125; -936.000; -820.000
421.759;  529.275; -359.000; -327.000
421.885;  -64.825; -717.000; -656.000
422.010;  -84.525; -673.000; -542.000
422.135; -146.750; -695.000; -727.000
422.260;   24.725;  340.000;  280.000
422.385;  -39.850;   12.000;  -98.000
422.510;   -8.075;  151.000;  -26.000
422.635;   23.975;  -87.000;  -43.000
422.760;  115.100; -766.000; -791.000
422.885;   56.550;  -57.000;  -80.000
423.010;  -38.550; -112.000; -169.000
423.135; -108.250; -481.000; -561.000
423.260;  -26.100; -150.000; -245.000
423.385;   57.075;  476.000;  222.000
423.510;   26.350;   71.000;  -22.000
423.635;   65.050;  133.000;   45.000
423.760;   60.875;  383.000;  328.000
423.885;   53.900;  336.000;  391.000
424.010;   13.275;  -68.000;  -13.000
424.135;  -28.125;    5.000;  -33.000
424.259;  -87.050; -654.000; -457.000
424.384;  -69.475; -279.000; -272.000
424.509;  -28.075; -260.000; -186.000
424.634;  -95.900; -761.000; -623.000
424.759;  -27.475; -688.000; -544.000
424.883;  -19.475; -506.000; -527.000
425.008;  157.825; -502.000; -410.000
425.133; 2028.775; -679.000; -653.000
425.258;  997.900; -517.000; -381.000
425.382; 1011.400; -867.000; -774.000
425.507; 2736.725; -487.000; -543.000
425.632;  473.225; -802.000; -663.000
425.756;  457.000; -256.000; -146.000
425.881; 6371.350; -831.000; -857.000
426.006;18348.625; -604.000; -355.000
426.130; 3047.825; -696.000; -508.000
426.255;  391.125; -611.000; -491.000
426.379;  180.700; -189.000; -577.000
426.504;  378.975;  660.000;  544.000
426.629; 3987.900; -519.000; -466.000
426.753; 2974.800;   64.000;  -46.000
426.878;  340.750; -252.000; -288.000
427.002;  169.825; -651.000; -668.000
427.127; 1562.050;  -35.000; -158.000
427.251;11526.575;  372.000;  401.000
427.375; 3559.450; -191.000; -173.000
427.500; 2357.025; -616.000; -610.000
427.624;  847.600; -234.000; -400.000
427.749;   98.450; -216.000; -225.000
427.873;  -42.500; -499.000; -412.000
427.997;  -45.750; -222.000; -230.000
428.122;   65.675;  795.000;  703.000
428.246;   58.875;  433.000;  434.000
428.371; -133.125; -869.000; -773.000
428.495; -106.325; -624.000; -646.000
428.619;  -24.725; -186.000; -117.000
428.743;   17.925;   65.000;  132.000
428.868;   -1.875; -732.000; -643.000
428.992; 1415.100; -219.000; -326.000
429.116;  599.575; -329.000; -357.000
429.240;  270.475;  419.000;  426.000
429.365;  -10.825; -454.000; -574.000
429.489;  -45.125; -638.000; -647.000
429.613;   16.475; -236.000; -177.000
429.737;   15.750; -563.000; -432.000
429.861;  259.050; -247.000; -133.000
429.985; 5503.650; -425.000; -305.000
430.109; 6451.475; -770.000; -908.000
430.234;  767.850;   76.000;  -50.000
430.358;   85.325; -250.000; -160.000
430.482;  -64.875; -672.000; -564.000
430.606;  -77.325; -655.000; -375.000
430.730;    9.175; -437.000; -388.000
430.854;  129.425; -909.000; -835.000
430.978;  -58.400; -795.000; -764.000
431.102;  -70.925; -499.000; -422.000
431.226; -123.575; -874.000; -815.000
431.350;   25.950;  345.000;  422.000
431.474;  -79.675; -661.000; -373.000
431.597; -145.550;-1060.000; -848.000
431.721;  -92.550; -276.000; -267.000
431.845; -130.200; -704.000; -472.000
431.969;  -79.775; -304.000; -349.000
432.093;  -96.125; -395.000; -317.000
432.217;   -8.875;   32.000;   82.000
432.341;  -91.500; -523.000; -518.000
432.464;   -8.350;   96.000;   40.000
432.588;  183.275; -401.000; -329.000
432.712;  100.100;  -52.000;  -52.000
432.836;   36.825;  213.000;  263.000
432.959;  -25.475; -372.000; -311.000
433.083;   90.125;   11.000;    2.000
433.207;  375.425;  285.000;  930.000
433.330; 5000.275; -391.000; -200.000
433.454; 6529.275; -654.000; -638.000
433.578; 3723.750;  583.000;  278.000
433.701;  728.900; -623.000; -675.000
433.825;  152.050; -292.000; -299.000
433.949;  162.375;   28.000;  -72.000
434.072;   46.550; -410.000; -323.000
434.196;   -8.375; -309.000; -117.000
434.319; 3629.925;25482.000;25124.000
434.443;  692.575; -656.000; -603.000
434.566; 2705.825;  281.000;   62.000
434.690;  488.700; -637.000; -383.000
434.813;   62.425; -251.000; -173.000
434.937;  -74.600; -569.000; -696.000
435.060;  -43.825; -423.000; -332.000
435.184;  290.800; -492.000; -217.000
435.307;  177.650;  159.000;  102.000
435.431;  -13.475;  -40.000;   24.000
435.554;  -82.025; -399.000; -240.000
435.677;  -91.075; -350.000; -258.000
435.801;  -42.175;  -25.000;   49.000
435.924;  -20.375;    1.000;  -67.000
436.048; -122.750;-1019.000; -732.000
436.171;  -77.075; -240.000;  -66.000
436.294;  -31.525; -248.000; -229.000
436.417;   94.200; -963.000; -849.000
436.541;  -77.725; -814.000; -840.000
436.664;  -43.050; -242.000; -316.000
436.787;  -38.600;   13.000;  113.000
436.910; -126.750; -792.000; -422.000
437.034;    5.800;  142.000;  143.000
437.157;   41.400;  -11.000;    0.000
437.280;  -53.750; -392.000; -292.000
437.403;  -85.400; -982.000; -869.000
437.526;  582.750; -903.000; -865.000
437.649; 2252.250; -505.000; -332.000
437.772;  350.825; -692.000; -540.000
437.896;   86.250;  700.000;  544.000
438.019; -100.900; -758.000; -503.000
438.142;  -85.575; -596.000; -506.000
438.265;  -41.225; -639.000; -670.000
438.388;  570.750; -520.000; -410.000
438.511;  109.700; -597.000; -394.000
438.634;  -56.025; -247.000; -125.000
438.757; -144.125; -693.000; -619.000
438.880;  -31.125;  -34.000;  -57.000
439.003;  -85.050; -417.000; -437.000
439.126;  -65.825; -287.000; -167.000
439.248;  -67.850;  -98.000; -139.000
439.371;  -43.650;    9.000;  -53.000
439.494;   21.400;  510.000;  439.000
439.617;  -57.200;   65.000;  -88.000
439.740; -172.250; -968.000; -816.000
439.863; -149.875; -755.000; -595.000
439.986; -115.250; -476.000; -431.000
440.108;  -54.725; -161.000; -112.000
440.231; -171.900; -950.000; -836.000
440.354;  -51.125;  -64.000; -150.000
440.477;   12.925; -566.000; -542.000
440.599;   -6.525; -200.000; -225.000
440.722; -122.600; -709.000; -586.000
440.845;   65.825;  751.000;  928.000
440.968; -110.025; -415.000; -311.000
441.090;  -78.125; -199.000;  -33.000
441.213; -160.625;-1021.000; -825.000
441.336;  -55.725; -159.000;   -5.000
441.458;  -76.275; -549.000; -396.000
441.581;  -83.250; -628.000; -629.000
441.703;  -63.625; -152.000;   13.000
441.826; -130.375; -557.000; -400.000
441.948;  -57.275;   56.000;   51.000
442.071;    8.175;  555.000;  424.000
442.193; -106.025; -531.000; -485.000
442.316;   12.825;  152.000;   97.000
442.438;   47.300; -233.000;  -10.000
442.561;   64.100;  272.000;  262.000
442.683;  487.450; -809.000; -522.000
442.806; 1166.750;   -8.000;   74.000
442.928;   43.475; -859.000; -604.000
443.051;  -67.600; -577.000; -373.000
443.173;  -98.200; -341.000; -339.000
443.295;  -95.500; -263.000; -371.000
443.418;  -91.375; -321.000;  -29.000
443.540;  -16.925; -106.000;   -4.000
443.662; -110.850; -563.000; -465.000
443.785;  -25.750;  335.000;  199.000
443.907; -104.100; -362.000; -208.000
444.029; -133.975; -767.000; -494.000
444.152; -149.600; -644.000; -554.000
444.274;  -46.800;  -18.000;  -24.000
444.396; -110.450; -461.000; -221.000
444.518; -132.175; -691.000; -454.000
444.640; -102.425; -268.000; -111.000
444.763;  -44.925;  388.000;  249.000
444.885; -117.150; -432.000; -392.000
445.007;  -47.925;   35.000;   86.000
445.129; -121.225; -610.000; -515.000
445.251; -111.500; -372.000; -439.000
445.373; -132.825; -537.000; -386.000
445.495;   -6.825;  242.000;  350.000
445.617;   48.775;  853.000;  753.000
445.739;  -79.425; -215.000;  -97.000
445.861;  -40.150; -245.000; -112.000
445.984;  -39.200; -267.000; -101.000
446.105;  183.725; -418.000; -251.000
446.227;  616.700; -176.000;  -19.000
446.349;   18.650; -358.000; -249.000
446.471;  -89.350; -615.000; -448.000
446.593;  -68.875; -316.000;   19.000
446.715;  -20.050;  -67.000;   41.000
446.837;   46.600;  697.000;  832.000
446.959;  -94.975; -457.000; -478.000
447.081; -134.975; -628.000; -518.000
447.203;   43.150;  862.000;  834.000
447.325; -100.375; -270.000;   42.000
447.446;  -13.200;  286.000;  530.000
447.568; -170.075; -921.000; -803.000
447.690;  -78.275; -236.000; -245.000
447.812; -149.350; -798.000; -519.000
447.933;  -38.625;  155.000;  127.000
448.055;  -70.450; -306.000; -261.000
448.177;  139.075;   31.000;   79.000
448.299;   77.825; -935.000; -727.000
448.420;   17.525;  -25.000;  159.000
448.542;  -50.225;   -3.000;   33.000
448.664;  -37.450;  109.000;  322.000
448.785;  -48.750;  265.000;   83.000
448.907;  -77.175; -614.000; -353.000
449.028;  -31.350; -771.000; -471.000
449.150;   63.800;  492.000;  589.000
449.272; -185.225;-1044.000; -913.000
449.393;   24.875;  612.000;  694.000
449.515; -133.350; -634.000; -581.000
449.636;  -63.175; -264.000; -155.000
449.758;   77.525;  763.000;  622.000
449.879;  -94.925; -498.000; -396.000
450.001;  -95.550; -149.000;  -49.000
450.122;  -39.600;  -95.000;  162.000
450.244;  -20.725;   37.000;  364.000
450.365; -100.725; -495.000; -301.000
450.486;  -41.850;   80.000;  268.000
450.608;   21.575;  393.000;  326.000
450.729;   56.775;  578.000;  645.000
450.850;    5.300; -574.000; -466.000
450.972;  720.650; -552.000; -389.000
451.093; 4949.550;  190.000;  588.000
451.214; 2316.400; -516.000; -337.000
451.336;  422.900;  773.000;  579.000
451.457;   55.775;  264.000;  393.000
451.578;  -38.075; -118.000;  -74.000
451.699; -123.350; -546.000; -540.000
451.821;  -64.125; -284.000;  -50.000
451.942;  -12.800;  278.000;  285.000
452.063;   31.850;  228.000;  419.000
452.184;  545.900;  -54.000;  -49.000
452.305; 1136.425;  103.000;  170.000
452.427;  159.200; -549.000; -301.000
452.548;  -17.100;   23.000;   79.000
452.669;  -53.875; -257.000;  -89.000
452.790;  -55.400;    3.000;  -18.000
452.911;   -7.450;  195.000;  259.000
453.032;  -56.600; -289.000;  -60.000
453.153;  -40.550;  -29.000;   81.000
453.274;   45.825;  737.000;  868.000
453.395;  -49.300;  -51.000;  175.000
453.516;  114.475; 1317.000; 1388.000
453.637;  -84.925; -205.000; -150.000
453.758;  -69.300;   15.000;   69.000
453.879; -117.400; -462.000; -250.000
454.000;   69.775; 1086.000;  948.000
454.121; -114.325; -554.000; -326.000
454.242; -110.600; -599.000; -383.000
454.362;  -65.600;  -99.000;  114.000
454.483;  -43.975; -309.000; -229.000
454.604;   54.275;  512.000;  580.000
454.725; -124.125; -627.000; -555.000
454.846; -115.025; -474.000; -406.000
454.967;  -28.800;  230.000;  539.000
455.087;  -47.600;  179.000;  153.000
455.208;   10.825;  554.000;  856.000
455.329;  -58.900;  -22.000;   82.000
455.450;   39.225;  473.000;  633.000
455.570;  -83.100; -234.000; -211.000
455.691;  -42.600;  201.000;  407.000
455.812; -120.250; -270.000;  -92.000
455.932;  -61.400;  107.000;  -97.000
456.053;  -84.450;   36.000;   24.000
456.173; -110.600; -433.000; -355.000
456.294; -128.900; -476.000; -303.000
456.415;  -79.375;  -73.000;   70.000
456.535;  -32.875;  297.000;  273.000
456.656;  -42.575;  132.000;  240.000
456.776;  -77.675;    3.000;  298.000
456.897;   -3.575;  308.000;  513.000
457.017;  -82.725; -153.000;   -3.000
457.138; -113.525; -402.000; -249.000
457.258;  -39.775;  263.000;  224.000
457.379;  -25.950;  509.000;  521.000
457.499;  -21.700;  443.000;  432.000
457.620; -118.250; -407.000; -231.000
457.740; -106.175; -132.000;  -11.000
457.860;  -66.325;   87.000;   44.000
457.981;  -52.850;  132.000;  124.000
458.101;  -87.000;  -89.000;   40.000
458.221;  -15.825;  336.000;  402.000
458.342;  -66.075;   -4.000;  -37.000
458.462;   20.775;  617.000;  352.000
458.582;  -28.525; -302.000; -294.000
458.703;   15.650;  303.000;  154.000
458.823;  -32.175;   22.000;  163.000
458.943;    6.200;  341.000;  467.000
459.063;  -18.650; 1124.000;  192.000
459.183;  -17.475;  328.000;  313.000
459.304;   -2.000;  315.000;  517.000
459.424;  -70.500; -246.000;  -89.000
459.544;  312.575;  388.000;  764.000
459.664;  857.500;  499.000;  506.000
459.784;  335.575; 1004.000; 1175.000
459.904;   59.750;  867.000;  744.000
460.024;   47.150;  867.000;  684.000
460.144;    4.175;  449.000;  554.000
460.264;  -25.150;  515.000;  327.000
460.385;  -91.725; -145.000; -119.000
460.505;   43.400;  905.000;  858.000
460.625;  -84.950;  -17.000;  -68.000
460.745;  -29.250;  396.000;  541.000
460.864;  -49.550;  153.000;  469.000
460.984;    4.550;  499.000;  573.000
461.104;  131.025; 1656.000; 1775.000
461.224;   14.825;  657.000;  650.000
461.344;  -26.725;  431.000;  360.000
461.464;  -36.825;  258.000;  513.000
461.584;  -15.675;  283.000;  466.000
461.704;  -39.525;   58.000;  108.000
461.824;  -53.500;  238.000;  259.000
461.943;  -43.025;  191.000;  130.000
462.063;  -77.350;    2.000;  324.000
462.183;   17.875;  639.000;  717.000
462.303;  103.850; 1678.000; 1230.000
462.422;   32.200;  781.000;  840.000
462.542;  -43.925;  271.000;  391.000
462.662;   37.475;  353.000;  380.000
462.782;  236.300;  833.000;  572.000
462.901;  461.575;  545.000;  717.000
463.021;  291.325; 1702.000; 1638.000
463.141;  -14.500;  337.000;  770.000
463.260;  -23.650;  614.000;  474.000
463.380;    0.400;  902.000;  884.000
463.499;  -46.200;  342.000;  332.000
463.619;  -32.775;  581.000;  559.000
463.738;  111.125; 1644.000;  903.000
463.858;    9.450;  657.000;  811.000
463.978;  -38.375;  542.000;  396.000
464.097;   51.925;  921.000; 1114.000
464.217;  103.050; 1196.000; 1143.000
464.336;   93.175; 1068.000; 1130.000
464.455;  -43.925;  328.000;  659.000
464.575;   33.925;  597.000;  602.000
464.694;  159.475; 1204.000; 1179.000
464.814;  119.850; 1190.000; 1138.000
464.933;   85.425; 1095.000; 1027.000
465.052;   98.925; 1412.000; 1054.000
465.172;   83.400;  922.000;  799.000
465.291;  122.600; 1376.000; 1320.000
465.410;    7.300;  462.000;  735.000
465.530;   81.175; 1355.000; 1310.000
465.649;   68.600; 1209.000; 1273.000
465.768;  136.725; 1673.000; 1508.000
465.888;   48.425;  941.000; 1174.000
466.007;   91.650; 1335.000; 1440.000
466.126;  -12.450;  721.000;  641.000
466.245;   24.550; 1176.000; 1187.000
466.364;   39.925;  950.000; 1060.000
466.484;   61.675; 1024.000; 1213.000
466.603;   20.300; 1101.000; 1222.000
466.722;  120.025; 1490.000; 1769.000
466.841;   68.100; 1151.000; 1401.000
466.960;   31.675; 1069.000;  972.000
467.079;  120.800; 1971.000; 1786.000
467.198;   58.200; 1238.000; 1181.000
467.317;   88.900; 1768.000; 1162.000
467.436;   52.250; 1709.000; 1261.000
467.555;  124.650; 1796.000; 1746.000
467.674;   59.675; 1227.000; 1329.000
467.793;   51.050; 1376.000; 1374.000
467.912;   94.650; 1658.000; 1539.000
468.031;  140.375; 2038.000; 1930.000
468.150;  132.750; 1842.000; 1837.000
468.269;  198.200; 2313.000; 2090.000
468.388;  172.550; 2168.000; 2339.000
468.507;  245.000; 2884.000; 2903.000
468.626;  261.875; 2555.000; 2541.000
468.744;  137.875; 2018.000; 2174.000
468.863;  180.150; 2312.000; 2523.000
468.982;   87.425; 1503.000; 1555.000
469.101;  215.250; 2788.000; 2692.000
469.220;  144.750; 2333.000; 2176.000
469.338;  239.425; 2935.000; 3051.000
469.457;  208.825; 2719.000; 2545.000
469.576;  320.250; 3953.000; 3784.000
469.695;  230.725; 2877.000; 3066.000
469.813;  421.575; 4148.000; 4192.000
469.932;  398.925; 4255.000; 4485.000
470.051;  437.275; 4075.000; 4161.000
470.169;  839.400; 4470.000; 4338.000
470.288; 1502.150; 4700.000; 4809.000
470.406;  902.850; 5059.000; 5194.000
470.525;  636.575; 6101.000; 5787.000
470.644;  636.350; 6847.000; 6794.000
470.762;  783.475; 8397.000; 7873.000
470.881;  895.200; 8651.000; 8464.000
470.999; 1044.750; 9685.000; 9151.000
471.118; 1097.050;11174.000;10711.000

