
Integration time [ms]: 100.000
Averaging Nr. [scans]: 40
Smoothing Nr. [pixels]: 0
Data measured with spectrometer [name]: 2101012U2
Wave   ;Sample   ;Dark     ;Reference
[nm]   ;[counts] ;[counts] ;[counts] 

197.733;   58.750;  516.000;  404.000
197.879;  -79.275; -610.000; -634.000
198.025;  -59.650; -475.000; -420.000
198.171;  -85.525; -602.000; -612.000
198.317;  -29.975; -401.000; -316.000
198.463;  -55.125; -655.000; -404.000
198.609;   33.925;  181.000; -137.000
198.755;  -73.150; -644.000; -410.000
198.901;  -53.050; -505.000; -424.000
199.047;  -67.650; -615.000; -488.000
199.193;  -43.375; -230.000; -468.000
199.339;  -43.025; -222.000; -369.000
199.485;   33.475;  330.000;  271.000
199.631;   12.725;  227.000;  310.000
199.777;  -40.250; -466.000; -398.000
199.923;  -58.825; -610.000; -424.000
200.069;    0.050; -141.000;  -58.000
200.215;   60.125;  128.000;  453.000
200.361;   40.325;  243.000;  477.000
200.507;  -61.475; -600.000; -373.000
200.653;  -23.025; -371.000; -194.000
200.798;  -38.225; -215.000; -125.000
200.944;   -3.125; -146.000;  -41.000
201.090;   35.150;   61.000;  222.000
201.236;    0.950; -116.000; -158.000
201.382;  129.950;  874.000;  903.000
201.528;   -1.600;  -58.000;  -48.000
201.674;  -58.050; -386.000; -293.000
201.819;  -66.600; -540.000; -439.000
201.965;  -88.100; -699.000; -447.000
202.111;  -30.225; -273.000; -226.000
202.257;  -38.000; -250.000; -238.000
202.402;    3.425;   13.000;  -36.000
202.548;  -23.450; -169.000; -116.000
202.694;   83.525;  410.000; -183.000
202.840;  -67.875; -603.000; -531.000
202.985;  -90.575; -681.000; -639.000
203.131; -112.825; -832.000; -666.000
203.277;  -19.775; -199.000; -262.000
203.423;  -58.500; -434.000; -520.000
203.568;  -50.950; -462.000; -237.000
203.714;  -65.900; -535.000; -542.000
203.860;  -79.200; -682.000; -641.000
204.005;   10.675;  112.000;  167.000
204.151;   82.350;  561.000;  556.000
204.296;  -45.850; -354.000; -221.000
204.442;  -73.875; -600.000; -547.000
204.588;  -72.500; -592.000; -579.000
204.733;   19.250;  178.000;  168.000
204.879; -136.825;-1018.000; -822.000
205.025;    5.550;  -99.000;  126.000
205.170;    4.475;  -17.000;   94.000
205.316;   66.725;  438.000;  661.000
205.461;  -79.875; -698.000; -554.000
205.607;   87.475;  609.000;  665.000
205.752;  -76.400; -626.000; -551.000
205.898;  -50.325; -501.000; -391.000
206.043;  -72.275; -578.000; -506.000
206.189;  -41.375; -243.000; -285.000
206.334;   79.775;  554.000;  606.000
206.480;   75.300;  409.000;  239.000
206.625;  -87.400; -529.000; -552.000
206.771;  -43.325; -451.000; -373.000
206.916;  -26.800; -210.000; -537.000
207.062;  -88.850; -545.000; -591.000
207.207;  -50.500; -546.000; -443.000
207.353;   52.500;  185.000;  460.000
207.498;   14.575;  196.000;   85.000
207.643;  -57.400; -501.000; -370.000
207.789; -124.875;-1069.000; -910.000
207.934;  -94.000; -665.000; -713.000
208.080;  -30.775; -154.000;   66.000
208.225;  -10.100;  -22.000;  -57.000
208.370;  -87.500; -727.000; -619.000
208.516;  -72.150; -741.000; -487.000
208.661;  -35.100; -127.000;  -69.000
208.806;  -17.100; -165.000; -171.000
208.952; -123.750;-1044.000; -731.000
209.097;   73.300;  378.000;  349.000
209.242;  -55.975; -307.000; -382.000
209.387;   63.625;  392.000;  350.000
209.533;  -49.725; -321.000; -350.000
209.678;   69.875;  472.000;  543.000
209.823;  -59.900; -408.000; -310.000
209.969; -110.800; -860.000; -757.000
210.114;  -94.925; -907.000; -719.000
210.259; -125.750; -939.000; -889.000
210.404;   -6.750; -171.000;  103.000
210.549;    2.150;  108.000;    3.000
210.695;  -20.500;   -3.000;  -95.000
210.840;   34.600;   94.000;   67.000
210.985;  -71.550; -484.000; -303.000
211.130;   74.725;  268.000;  406.000
211.275;   26.150;  207.000;  199.000
211.420;  -53.025; -300.000; -289.000
211.566;  -65.625; -536.000; -489.000
211.711;   24.875;  218.000;  157.000
211.856;  -63.825; -545.000; -519.000
212.001;   -4.550;  151.000;   44.000
212.146;   21.025;  153.000;   49.000
212.291;  -25.600; -210.000; -186.000
212.436;  -26.950; -280.000;   -6.000
212.581;  -77.825; -685.000; -653.000
212.726;  -84.100; -487.000; -538.000
212.871;  -47.200; -552.000; -217.000
213.016; -143.000;-1172.000;-1029.000
213.161;   57.825;  406.000;  291.000
213.306;  -78.225; -435.000; -577.000
213.451;  -90.700; -778.000; -689.000
213.596;  -44.575; -455.000; -347.000
213.741;  -67.725; -448.000; -538.000
213.886;  -71.925; -498.000; -517.000
214.031;  -20.150; -294.000; -124.000
214.176;  -45.075; -408.000; -341.000
214.321;  -28.325; -296.000; -157.000
214.466;  -42.725; -163.000;  -43.000
214.611;    3.975;  -61.000;  -10.000
214.756; -127.075; -948.000; -858.000
214.901;  -26.325; -388.000; -226.000
215.046; -124.375; -797.000; -825.000
215.191;   30.275;  128.000;   35.000
215.336;  -25.675; -157.000;  -19.000
215.480;  -59.625; -684.000; -505.000
215.625;  -20.375; -175.000;  -19.000
215.770;  -83.950; -757.000; -662.000
215.915;  -12.375;   -5.000;  -97.000
216.060;  -14.050; -113.000;  -21.000
216.205; -122.550; -731.000; -779.000
216.349;  -76.575; -470.000; -533.000
216.494; -148.300; -939.000; -867.000
216.639; -101.100; -823.000; -888.000
216.784;  -91.625; -577.000; -525.000
216.929;   54.450;  392.000;  281.000
217.073;  -21.950; -244.000;  -31.000
217.218;   11.425;   78.000;  -47.000
217.363;  -78.825; -656.000; -618.000
217.507;  -79.000; -623.000; -588.000
217.652; -127.000; -845.000; -874.000
217.797;  -92.250; -708.000; -659.000
217.942; -121.425; -856.000; -720.000
218.086;   80.950;  608.000;  539.000
218.231;  -14.775; -174.000;  -26.000
218.376;  -32.100; -337.000; -229.000
218.520;  -15.525;  -41.000;   96.000
218.665;  -29.250; -338.000; -204.000
218.810;  -44.575; -275.000; -233.000
218.954;   30.175;  201.000;   35.000
219.099; -109.475; -713.000; -963.000
219.243;  -91.725; -589.000; -554.000
219.388;  -32.275; -264.000; -136.000
219.532;  -14.500; -116.000; -116.000
219.677;  -87.825; -564.000; -521.000
219.822;   -2.550;   33.000;   89.000
219.966;    6.475;   17.000;  -99.000
220.111;  -32.650; -328.000;  -40.000
220.255;  -93.825; -797.000; -750.000
220.400;   -9.000; -180.000; -146.000
220.544;  -72.700; -516.000; -450.000
220.689;  -49.750; -422.000; -451.000
220.833;  -27.900; -123.000;  -58.000
220.978;  -51.275; -393.000; -563.000
221.122;   17.600;  319.000;  307.000
221.267; -121.100; -906.000; -837.000
221.411;  -65.700; -478.000; -394.000
221.555;    5.375; -104.000;  -23.000
221.700;  -51.750; -329.000; -222.000
221.844;   32.775;  255.000;  272.000
221.989;  -52.350; -328.000; -311.000
222.133;  -37.800; -289.000; -307.000
222.277;   -5.650;    5.000;   78.000
222.422;   11.500;  227.000;  113.000
222.566;  -38.275; -381.000; -214.000
222.711;  -64.625; -414.000; -479.000
222.855;  -84.225; -643.000; -586.000
222.999;  -91.625; -642.000; -717.000
223.144;  -33.750; -195.000; -194.000
223.288;   59.175;  423.000;  251.000
223.432;   13.500;  184.000;  230.000
223.576;   18.625;  152.000;  -21.000
223.721;   38.775;  364.000;  273.000
223.865;  -58.025; -472.000; -475.000
224.009;  240.425; 1673.000; 1631.000
224.153;  -88.525; -660.000; -671.000
224.298;  -69.275; -531.000; -489.000
224.442;  -18.500;  -74.000;  -33.000
224.586;  -11.400; -169.000; -106.000
224.730; -104.825; -858.000; -670.000
224.875; -101.525; -739.000; -688.000
225.019;   23.875;  102.000;  188.000
225.163;   54.200;  208.000;  341.000
225.307;   12.000;   97.000;  -91.000
225.451;   51.050;  360.000;  481.000
225.595;   33.800;  264.000;  176.000
225.739;   -7.200; -170.000;  -94.000
225.884;   12.475;   86.000;    5.000
226.028; -105.300; -760.000; -626.000
226.172;  -35.950; -260.000; -273.000
226.316; -115.000; -941.000; -902.000
226.460;  -70.450; -645.000; -493.000
226.604;  -43.250; -406.000; -400.000
226.748;  -97.725; -836.000; -733.000
226.892;  -25.825; -227.000; -181.000
227.036;  -45.575; -537.000; -447.000
227.180;  -67.125; -551.000; -375.000
227.324;  -70.100; -561.000; -580.000
227.468; -116.525; -819.000; -717.000
227.612;    6.125;  242.000;  -28.000
227.756;  -99.450; -845.000; -698.000
227.900;   45.900;  342.000;  441.000
228.044;  -71.900; -509.000; -290.000
228.188;   58.025;  448.000;  568.000
228.332;  -82.900; -546.000; -472.000
228.476;  -27.925; -223.000; -149.000
228.620;  -36.600; -210.000; -150.000
228.764;   54.150;  431.000;  349.000
228.908;  -21.775; -155.000;   30.000
229.052;  -65.525; -615.000; -528.000
229.195;  -13.625; -172.000;   13.000
229.339;  -27.600; -235.000; -305.000
229.483;  -28.900;    5.000; -162.000
229.627;  -11.800; -156.000;  139.000
229.771;  -47.925; -218.000; -294.000
229.915;   -0.775;  230.000;   79.000
230.059;  -89.300; -648.000; -663.000
230.202;  -38.025; -370.000; -317.000
230.346;  -12.375; -107.000;  107.000
230.490;  -62.575; -489.000; -521.000
230.634; -116.175; -736.000; -553.000
230.777;   70.100;  478.000;  509.000
230.921;  -66.825; -450.000; -359.000
231.065;  -40.775; -246.000; -286.000
231.209;   32.100;  261.000;  265.000
231.352;   14.525;   54.000;   40.000
231.496;   22.725;  568.000;  188.000
231.640;  -84.875; -693.000; -621.000
231.783;   56.350;  546.000;  525.000
231.927;  -63.300; -294.000; -365.000
232.071; -127.425; -962.000; -736.000
232.214; -105.875; -980.000; -764.000
232.358; -101.700; -683.000; -599.000
232.502;    5.175;  -19.000;    7.000
232.645; -133.300;-1090.000; -927.000
232.789;  -25.825; -257.000; -218.000
232.933;  -41.050; -407.000; -224.000
233.076; -135.025;-1038.000; -897.000
233.220; -111.925; -752.000; -777.000
233.363;  -89.250; -669.000; -477.000
233.507;   59.775;  371.000;  129.000
233.650;  -97.225; -764.000; -834.000
233.794;   46.525;  438.000;  461.000
233.938;  -66.525; -530.000; -362.000
234.081;  -12.725;  -93.000;   31.000
234.225;  -62.550; -631.000; -539.000
234.368; -102.825; -773.000; -723.000
234.512;  -43.350; -385.000; -299.000
234.655;  -92.875; -582.000; -555.000
234.798;  -64.525; -493.000; -466.000
234.942; -137.100; -884.000;-1002.000
235.085;  -67.375; -651.000; -443.000
235.229;  -90.275; -405.000; -410.000
235.372;  -51.525; -247.000; -191.000
235.516;  -62.175; -397.000; -321.000
235.659;   11.450;   92.000;  121.000
235.802;  -17.550;  -38.000;  -22.000
235.946;   17.725;  335.000;  215.000
236.089;   32.850;  126.000;  250.000
236.233;   48.275;  275.000;  298.000
236.376;  -47.125; -235.000; -378.000
236.519;  -52.050; -297.000; -319.000
236.663;  -21.875; -215.000; -117.000
236.806; -139.850;-1029.000; -999.000
236.949;   46.150;  543.000;  431.000
237.092;   58.300;  412.000;  391.000
237.236; -102.075; -589.000; -502.000
237.379;   62.825;  352.000;  428.000
237.522; -126.075; -879.000; -768.000
237.666;  -11.025; -271.000;   18.000
237.809; -123.300; -851.000; -823.000
237.952;   30.850;  469.000;  271.000
238.095;  -77.325; -447.000; -442.000
238.238;   81.900;  688.000;  700.000
238.382;   -8.575;  166.000;  103.000
238.525;  -84.775; -598.000; -511.000
238.668; -139.375;-1060.000; -985.000
238.811;  -73.375; -638.000; -643.000
238.954;  -66.700; -483.000; -334.000
239.097;   92.650;  617.000;  664.000
239.241;   17.375;  394.000;  326.000
239.384;  -22.125; -254.000; -214.000
239.527;  -71.225; -424.000; -224.000
239.670; -148.500; -994.000;-1091.000
239.813; -104.025; -696.000; -658.000
239.956;   76.525;  579.000;  473.000
240.099; -111.775; -778.000; -725.000
240.242;   78.425;  428.000;  432.000
240.385;   35.000;  466.000;  450.000
240.528;  -71.975; -706.000; -473.000
240.671;   -0.700;  189.000;  134.000
240.814;  -52.150; -441.000; -158.000
240.957; -113.100; -767.000; -578.000
241.100;  -96.075; -779.000; -755.000
241.243; -151.425;-1234.000; -893.000
241.386;  -73.700; -508.000; -379.000
241.529;  -95.800; -735.000; -547.000
241.672;  -76.250; -566.000; -495.000
241.815; -102.350; -832.000; -808.000
241.958;  -13.850; -125.000; -182.000
242.101;  -85.300; -545.000; -390.000
242.244;  -40.775; -270.000; -325.000
242.387;  -54.725; -304.000; -246.000
242.530;   50.925;  470.000;  134.000
242.673;  -51.100; -381.000; -309.000
242.815; -124.825; -925.000; -899.000
242.958;  -67.625; -482.000; -381.000
243.101;   10.000;  132.000;  187.000
243.244;  -83.750; -564.000; -521.000
243.387;  -59.250; -313.000; -316.000
243.530; -106.750; -657.000; -674.000
243.672;   -3.450;   43.000;  -92.000
243.815;  -54.650; -355.000; -283.000
243.958;    6.350;   98.000;  -26.000
244.101;   -0.300;   59.000;  -16.000
244.243;   -1.275;  -47.000;  101.000
244.386; -126.100; -761.000; -630.000
244.529;  -35.050; -132.000; -139.000
244.672; -152.250;-1154.000; -951.000
244.814; -102.275; -621.000; -794.000
244.957;  -55.475; -380.000; -304.000
245.100;  -72.750; -489.000; -489.000
245.242;  -49.725; -387.000; -374.000
245.385;   -4.625;  -59.000;  -39.000
245.528; -130.200; -871.000; -705.000
245.670;   88.575;  612.000;  634.000
245.813; -106.550; -599.000; -547.000
245.956;  -47.700; -324.000; -275.000
246.098;  -65.625; -508.000; -650.000
246.241;   -4.550;  194.000;   48.000
246.383;  -27.000; -119.000;  -73.000
246.526;  -78.275; -454.000; -525.000
246.669; -115.325; -889.000; -780.000
246.811;   11.000;  172.000;   -1.000
246.954;  -60.625; -512.000; -426.000
247.096;  -23.550;  -84.000;   -6.000
247.239;  -81.275; -482.000; -445.000
247.381;  -78.525; -647.000; -488.000
247.524;   85.625;  645.000;  679.000
247.666;   -0.450;   58.000;   11.000
247.809; -117.400; -887.000; -691.000
247.951;  -17.325;  -75.000;  138.000
248.094;   29.650;  432.000;  308.000
248.236; -164.000;-1262.000;-1238.000
248.378;    0.825; -356.000;  -81.000
248.521;  -25.150; -334.000; -337.000
248.663;  -41.375; -236.000; -267.000
248.806;  -20.250; -300.000; -266.000
248.948; -103.050; -886.000; -763.000
249.090;  -39.700; -428.000; -398.000
249.233;  -57.725; -344.000; -381.000
249.375;  -68.700; -474.000; -451.000
249.518;  -22.675;  -83.000; -133.000
249.660;   -0.600; -103.000;    3.000
249.802; -183.800;-1303.000;-1189.000
249.945;  -85.400; -612.000; -540.000
250.087; -118.925; -834.000; -768.000
250.229;  -57.575; -362.000; -480.000
250.371;  -78.750; -494.000; -439.000
250.514;  -47.700; -310.000; -244.000
250.656;  -10.900;   69.000;  102.000
250.798; -131.775; -849.000; -800.000
250.940;  -61.800; -322.000; -322.000
251.083;  -31.650; -335.000; -111.000
251.225;   54.975;  338.000;  310.000
251.367;  -41.700; -274.000; -373.000
251.509;  -33.475; -265.000; -210.000
251.651; -100.100; -731.000; -671.000
251.794;   58.000;  538.000;  632.000
251.936; -108.925; -821.000; -747.000
252.078;  -77.275; -540.000; -461.000
252.220;  -66.775; -645.000; -477.000
252.362;   85.700;  344.000;  462.000
252.504;  -71.450; -677.000; -584.000
252.646; -106.850; -875.000; -722.000
252.788;   -9.575;   14.000; -128.000
252.931;  -41.825; -257.000; -253.000
253.073;  -46.375; -376.000; -317.000
253.215;   -2.600;  141.000;  122.000
253.357;  -23.025;   82.000; -153.000
253.499;  -49.175; -374.000; -234.000
253.641;  -83.675; -749.000; -594.000
253.783;  -85.300; -609.000; -527.000
253.925;  -98.575; -586.000; -591.000
254.067; -112.275; -744.000; -667.000
254.209;  -34.450; -391.000; -259.000
254.351; -130.025; -865.000; -883.000
254.493;  -73.050; -441.000; -417.000
254.635; -124.300; -936.000; -818.000
254.777;  -92.675; -752.000; -687.000
254.918;  -79.625; -512.000; -430.000
255.060;  -49.900; -551.000; -395.000
255.202;  -53.450; -473.000; -261.000
255.344;  -76.475; -658.000; -455.000
255.486;  -87.200; -471.000; -406.000
255.628; -117.075; -780.000; -781.000
255.770;  -94.650; -676.000; -536.000
255.912;  -64.125; -559.000; -468.000
256.053;  -98.900; -730.000; -508.000
256.195;  149.175; 1008.000;  903.000
256.337; -102.050; -861.000; -595.000
256.479;   57.550;  532.000;  416.000
256.621;  -36.325; -394.000; -212.000
256.762;  -90.775; -789.000; -742.000
256.904;   50.750;  485.000;  487.000
257.046;  -40.550; -381.000; -271.000
257.188;  -43.225; -351.000; -264.000
257.329;  -71.950; -525.000; -464.000
257.471; -109.575; -939.000; -807.000
257.613;  -62.125; -584.000; -498.000
257.755; -150.675;-1073.000; -982.000
257.896;   31.800;  286.000;  392.000
258.038;  -79.500; -403.000; -352.000
258.180;  -42.800; -354.000; -279.000
258.321;  -94.600; -581.000; -457.000
258.463;   -9.800;  -71.000;  133.000
258.605;  -87.625; -562.000; -570.000
258.746; -109.375; -886.000; -772.000
258.888; -162.150;-1026.000;-1020.000
259.029;   10.775;  121.000;   -8.000
259.171;  -86.100; -614.000; -550.000
259.313;   -8.275;  -49.000;  -47.000
259.454;  -79.000; -536.000; -414.000
259.596;  -63.100; -483.000; -390.000
259.737;  -78.775; -590.000; -474.000
259.879;   28.325;  217.000;  311.000
260.020;   84.475;  901.000;  636.000
260.162;  -45.225; -146.000; -253.000
260.303; -114.775; -768.000; -687.000
260.445;  -82.000; -609.000; -613.000
260.586;   29.600;  392.000;  157.000
260.728;  -45.600; -360.000; -248.000
260.869;  -74.150; -350.000; -343.000
261.011;   76.525;  706.000;  537.000
261.152;  -77.050; -479.000; -319.000
261.293;  -82.675; -576.000; -595.000
261.435;  -32.475; -219.000; -184.000
261.576;  -60.100; -455.000; -325.000
261.718;   44.900;  420.000;  470.000
261.859; -130.825; -940.000; -949.000
262.000; -138.725; -951.000;-1016.000
262.142;  -18.550;  -52.000;  -60.000
262.283; -125.100; -808.000; -691.000
262.424;  -83.525; -666.000; -625.000
262.566; -147.450;-1161.000; -983.000
262.707; -114.700; -840.000; -830.000
262.848; -125.025; -769.000; -726.000
262.990;  -53.975; -362.000; -345.000
263.131;   81.350;  650.000;  681.000
263.272;   -0.850;  -61.000;  -41.000
263.413; -101.875; -589.000; -561.000
263.555;  -69.325; -669.000; -143.000
263.696;  -90.850; -550.000; -641.000
263.837;  -69.825; -449.000; -551.000
263.978;  -10.725;   -5.000;  -77.000
264.119;  -32.525; -283.000; -264.000
264.261; -116.875; -847.000; -630.000
264.402;    4.775;   33.000;   40.000
264.543;  -72.625; -509.000; -524.000
264.684;  -13.850;   61.000;  -50.000
264.825;  -80.450; -816.000; -538.000
264.966;  -13.400;  -84.000;  -67.000
265.107; -126.800; -646.000; -670.000
265.248; -130.750; -825.000; -812.000
265.390;   -3.150;  152.000;   -9.000
265.531;  -13.150; -238.000; -107.000
265.672;  -93.675; -557.000; -630.000
265.813;   58.000;  563.000;  439.000
265.954; -161.975; -959.000; -940.000
266.095;  -18.375; -372.000; -322.000
266.236; -103.275; -686.000; -548.000
266.377;  -40.275; -243.000; -297.000
266.518;  -78.475; -619.000; -547.000
266.659;   20.875;  170.000;  268.000
266.800;   12.075;   83.000;   85.000
266.941;  -82.950; -487.000; -478.000
267.082;   22.625;  354.000;   99.000
267.223;  -62.775; -344.000; -273.000
267.364; -111.175; -892.000; -686.000
267.504;  -21.950;    3.000;  135.000
267.645;   -5.925;  160.000;   67.000
267.786;  -40.875; -147.000;  -86.000
267.927;  -73.800; -473.000; -379.000
268.068;  -15.925; -186.000;  -61.000
268.209;  -44.575; -175.000; -413.000
268.350;  -72.200; -388.000; -532.000
268.490;  -83.875; -648.000; -521.000
268.631;   34.700;  127.000;  225.000
268.772; -107.900; -874.000; -647.000
268.913;  -48.950; -328.000; -476.000
269.054;  -16.300; -117.000;   12.000
269.194;  -63.150; -418.000; -402.000
269.335; -156.300;-1137.000;-1074.000
269.476;  -15.850;   33.000;  -35.000
269.617;  -53.375; -347.000; -392.000
269.757;  -88.400; -713.000; -646.000
269.898; -110.775; -856.000; -613.000
270.039;  -64.125; -415.000; -405.000
270.180; -149.725; -952.000; -816.000
270.320;  -24.200; -190.000; -250.000
270.461;  -47.150; -277.000; -249.000
270.602;  -19.575; -186.000; -156.000
270.742; -126.825; -868.000; -943.000
270.883;  -64.400; -442.000; -390.000
271.023;  -54.075; -358.000; -357.000
271.164;  -71.600; -607.000; -528.000
271.305; -109.425; -666.000; -654.000
271.445;  -91.200; -722.000; -683.000
271.586;  -78.125; -462.000; -283.000
271.726;  -54.975; -397.000; -322.000
271.867;  -71.775; -594.000; -534.000
272.008;  184.175; -473.000; -285.000
272.148;  129.625;  462.000;  468.000
272.289;   22.600; -113.000; -181.000
272.429;   18.675;   19.000;  185.000
272.570;  -95.400; -633.000; -737.000
272.710;  -94.250; -825.000; -775.000
272.851;  -24.100;  113.000; -130.000
272.991; -169.050;-1173.000;-1077.000
273.131;  -63.150; -419.000; -459.000
273.272;  -95.700; -683.000; -723.000
273.412;   14.725; -143.000;  -31.000
273.553;  -63.750; -488.000; -507.000
273.693;  125.800;  913.000;  858.000
273.834;  -82.950; -894.000; -692.000
273.974;  -80.450; -664.000; -615.000
274.114;  -97.525; -772.000; -560.000
274.255;   70.575;  414.000;  373.000
274.395;    6.250; -180.000; -125.000
274.535;   49.425;  199.000;  350.000
274.676;   22.300;  225.000;   94.000
274.816;   11.150;  110.000;   34.000
274.956;  -93.150; -624.000; -690.000
275.097;  -71.950;-1014.000; -922.000
275.237; -107.875; -913.000; -803.000
275.377; -105.775; -778.000; -689.000
275.517; -150.425; -878.000; -937.000
275.658;  -71.525; -590.000; -555.000
275.798;  -66.375; -606.000; -413.000
275.938;   10.025;  215.000;  323.000
276.078; -117.475; -626.000; -395.000
276.218;   10.550;   99.000;  104.000
276.359; -125.675;-1026.000;-1024.000
276.499;  -73.575; -605.000; -446.000
276.639;  -25.775; -305.000; -151.000
276.779;  -39.000; -475.000; -357.000
276.919; -109.750; -783.000; -624.000
277.059;  -38.400; -261.000; -212.000
277.199;  -43.150; -357.000; -259.000
277.340;   42.925;  287.000;  175.000
277.480;  -94.875; -840.000; -693.000
277.620;   30.850;  192.000;   16.000
277.760; -198.650;-1533.000;-1294.000
277.900;   26.550;  113.000;   33.000
278.040;   15.300;  137.000;  159.000
278.180;   38.100;  270.000;  170.000
278.320;   11.350;   21.000;   56.000
278.460;  -78.875; -443.000; -469.000
278.600;  -84.850; -708.000; -598.000
278.740;   54.950;  448.000;  224.000
278.880;  -69.725; -768.000; -791.000
279.020;   -9.900; -194.000; -144.000
279.160;  -88.875; -672.000; -595.000
279.300; -110.275; -926.000; -873.000
279.440;  -89.425; -709.000; -622.000
279.579;   -8.000;-1014.000; -929.000
279.719;  -49.500; -410.000; -394.000
279.859;   61.675;   -4.000;   41.000
279.999;   28.200; -208.000;  101.000
280.139;  -13.625; -435.000; -387.000
280.279;  -75.425; -708.000; -745.000
280.419;  -28.025; -229.000; -147.000
280.559;  -34.200; -259.000; -180.000
280.698;  -88.750; -790.000; -639.000
280.838;  -93.600; -778.000; -800.000
280.978; -103.125; -846.000; -790.000
281.118; -124.425; -811.000; -704.000
281.257;   18.200;   24.000;    6.000
281.397; -107.225;-1094.000; -960.000
281.537;  -86.375; -599.000; -712.000
281.677;  -27.325; -150.000; -101.000
281.816;  -98.700; -700.000; -630.000
281.956;  -36.525; -193.000; -257.000
282.096;  -76.150; -539.000; -396.000
282.235; -111.800; -672.000; -638.000
282.375;  -27.300; -243.000;  -98.000
282.515; -115.300; -715.000; -707.000
282.654;   29.825;   29.000;  106.000
282.794;   31.100;  388.000;  244.000
282.934;  -45.800; -530.000; -491.000
283.073; -147.425;-1030.000; -857.000
283.213;  -61.225; -460.000; -467.000
283.353;  -33.475; -408.000; -349.000
283.492;  -35.275; -264.000; -296.000
283.632;  -40.350; -254.000; -168.000
283.771; -101.575; -859.000; -730.000
283.911;  -63.800; -369.000; -260.000
284.050; -101.875; -794.000; -748.000
284.190; -162.250;-1229.000;-1096.000
284.329; -146.100;-1055.000; -964.000
284.469;  -64.175; -516.000; -591.000
284.608;  -54.200; -559.000; -598.000
284.748;  -89.100; -614.000; -570.000
284.887;   -3.425;  -87.000;  -20.000
285.027; -132.025; -844.000; -892.000
285.166;  -31.175; -192.000; -249.000
285.306;    2.975; -116.000;  -33.000
285.445;  -47.875; -229.000; -343.000
285.584;  -89.975; -630.000; -494.000
285.724;  -49.975; -282.000; -322.000
285.863; -117.525; -857.000; -507.000
286.002;  -49.950; -366.000; -276.000
286.142; -108.525; -715.000; -622.000
286.281;  -63.875; -525.000; -493.000
286.420;  -76.150; -554.000; -417.000
286.560;   87.800;  653.000;  623.000
286.699; -154.900; -958.000; -912.000
286.838;  -93.400; -590.000; -591.000
286.978; -104.400; -533.000; -537.000
287.117; -148.525;-1085.000; -950.000
287.256;  -35.200; -228.000; -211.000
287.395;  -49.400; -197.000; -378.000
287.535;  -60.325; -370.000; -298.000
287.674;  -88.800; -509.000; -484.000
287.813;   44.325;  661.000;  533.000
287.952; -129.250;-1010.000; -871.000
288.091; -147.500;-1049.000; -915.000
288.231;   15.375;   13.000;   15.000
288.370; -187.725;-1217.000;-1200.000
288.509;  -95.650; -728.000; -645.000
288.648;  -82.775; -770.000; -548.000
288.787;  -34.900; -243.000;  -87.000
288.926;  -62.875; -454.000; -475.000
289.065;  126.425;  859.000;  672.000
289.204;  -66.675; -377.000; -217.000
289.344;  -92.100; -791.000; -690.000
289.483;   25.825;  416.000;  304.000
289.622;  -18.825; -291.000; -149.000
289.761;  -18.300; -309.000; -166.000
289.900; -114.100; -785.000; -626.000
290.039;  -17.775;  -12.000;  -95.000
290.178;  -46.875; -274.000; -180.000
290.317;  -86.175; -618.000; -479.000
290.456;  -68.150; -463.000; -451.000
290.595; -146.925; -961.000; -833.000
290.734; -150.050; -904.000; -891.000
290.873;  -66.400; -456.000; -420.000
291.011; -115.375; -833.000; -843.000
291.150; -114.075; -770.000; -682.000
291.289;  -34.050; -343.000; -110.000
291.428;  -96.200; -599.000; -480.000
291.567;  -64.550; -370.000; -442.000
291.706;   -6.175;  109.000;  154.000
291.845;  -91.025; -597.000; -505.000
291.984; -179.950;-1234.000;-1061.000
292.122;   64.350;  602.000;  582.000
292.261;   46.550;  620.000;  463.000
292.400;    8.825; -144.000;  211.000
292.539; -120.325; -959.000; -813.000
292.678;  -39.850; -325.000; -300.000
292.816; -170.275;-1136.000; -965.000
292.955;  -93.575; -844.000; -684.000
293.094;  -19.825; -173.000; -337.000
293.233;  -65.625; -556.000; -400.000
293.371;  -40.200; -225.000;  -84.000
293.510; -115.275; -866.000; -780.000
293.649; -134.425; -959.000; -924.000
293.787;  -66.925;-1083.000;-1012.000
293.926;  -10.325; -113.000;  -32.000
294.065;  -37.700; -379.000; -290.000
294.203;   46.300;  298.000;  406.000
294.342;   34.600;   74.000;  156.000
294.481; 5245.750;51180.000; -836.000
294.619;  -38.025; -425.000; -582.000
294.758; -146.550;-1230.000;-1137.000
294.896;   84.825; -125.000;    5.000
295.035; -122.475;-1040.000;-1006.000
295.174; -122.975;-1082.000; -954.000
295.312;  -50.400; -323.000; -203.000
295.451;   -9.075; -307.000; -428.000
295.589;  -37.200; -389.000; -518.000
295.728;   25.250; -292.000; -165.000
295.866;    1.575;  -36.000;  -51.000
296.005;  -61.250; -584.000; -341.000
296.143;  -66.450; -558.000; -596.000
296.282;  -98.400; -957.000; -881.000
296.420;  -85.400; -657.000; -557.000
296.559;  -91.550; -892.000; -633.000
296.697;   20.525; -847.000; -665.000
296.835;   72.925;-1141.000;-1002.000
296.974;   38.875;  -23.000;   39.000
297.112;   21.025; -443.000; -504.000
297.251;  -85.350; -815.000; -755.000
297.389;  104.775; -576.000; -438.000
297.527;   53.425; -145.000;  -83.000
297.666;  -44.125; -486.000; -438.000
297.804;  -58.325; -404.000; -264.000
297.942;   -4.475; -136.000; -161.000
298.081;   -0.875; -183.000;   63.000
298.219;   81.325;  -17.000;  -19.000
298.357;   59.200; -144.000;  -71.000
298.495;   49.550; -810.000; -812.000
298.634;   80.450;  245.000;  219.000
298.772;   67.500; -220.000; -338.000
298.910;  -35.975; -309.000; -182.000
299.048;  -10.550; -130.000; -153.000
299.187;  -37.825; -350.000; -250.000
299.325;   29.925;   52.000;  122.000
299.463;   54.425; -389.000; -299.000
299.601;  140.100; -327.000; -271.000
299.739; -107.000; -908.000; -883.000
299.877;  -71.525; -791.000; -703.000
300.016;  -44.200;-1095.000; -935.000
300.154;  187.900;  -19.000; -161.000
300.292;   61.850; -428.000; -348.000
300.430;   18.150; -408.000; -291.000
300.568; -111.925; -940.000; -874.000
300.706;  -46.875; -366.000; -469.000
300.844;  -84.925;-1108.000; -979.000
300.982;  136.850;  246.000;  282.000
301.120; -104.825; -965.000; -866.000
301.258;  -56.200; -812.000; -705.000
301.396;   28.450;  104.000;  -41.000
301.534;   88.175; -218.000; -293.000
301.672;    0.700; -664.000; -521.000
301.810;   47.650; -613.000; -545.000
301.948;  126.950;   53.000;  149.000
302.086;  661.700; -250.000;  -32.000
302.224; 1006.550; -610.000; -585.000
302.362;   41.600; -558.000; -622.000
302.500;  -16.650; -923.000; -893.000
302.638;  117.325;  128.000;  245.000
302.776;  -15.150; -352.000; -408.000
302.913;   41.950;  447.000;  236.000
303.051;    6.975;  -86.000;  -23.000
303.189;   53.600;   90.000;  118.000
303.327;  -35.050; -341.000; -256.000
303.465;  -80.700; -832.000; -588.000
303.603;  -97.550; -805.000; -604.000
303.740;  109.125;  417.000;  241.000
303.878;   23.500; -800.000; -759.000
304.016;  -92.675; -915.000; -790.000
304.154; -113.825;-1123.000;-1152.000
304.291;  -36.575; -505.000; -554.000
304.429;   10.975;  102.000;   74.000
304.567; -122.800; -908.000; -893.000
304.705;  -66.475; -408.000; -515.000
304.842;   91.600; -616.000; -540.000
304.980;   54.250;  215.000;   35.000
305.118;   57.650; -367.000; -365.000
305.255;  -65.275; -945.000; -927.000
305.393;   46.750;  178.000;  239.000
305.531; -108.675;-1173.000; -956.000
305.668;  -49.625; -663.000; -582.000
305.806;  100.475; -358.000; -439.000
305.943;  120.600; -629.000; -637.000
306.081;   52.125; -378.000; -267.000
306.219;  -92.950; -863.000; -748.000
306.356;    2.175;  158.000;   27.000
306.494;  102.275;  981.000;  761.000
306.631;  -10.175;  -11.000;  -55.000
306.769;    2.275; -613.000; -485.000
306.906;  -20.775; -284.000; -258.000
307.044;  -72.775; -473.000; -488.000
307.181;  -64.575; -410.000; -332.000
307.319;    4.375;  112.000;   87.000
307.456; -176.075;-1191.000;-1153.000
307.594; -107.425; -980.000; -727.000
307.731;  -14.825; -371.000; -164.000
307.868;   -3.975;  -15.000;   20.000
308.006; -136.975; -961.000; -847.000
308.143;  -66.325; -618.000; -330.000
308.281;  136.050;  -37.000; -254.000
308.418;  -22.050; -748.000; -640.000
308.555;  -81.100; -400.000; -250.000
308.693;  -81.100; -577.000; -573.000
308.830; -114.450; -712.000; -657.000
308.967;   -7.075; -215.000;  -95.000
309.105;  -50.575; -507.000; -396.000
309.242;   18.375; -468.000; -367.000
309.379;  269.550; -577.000; -655.000
309.517;  -72.150; -936.000; -948.000
309.654; -116.650; -910.000; -734.000
309.791;  -69.100; -662.000; -580.000
309.928; -120.525; -977.000; -914.000
310.065;  180.200;  819.000;  697.000
310.203;   -4.775; -825.000; -850.000
310.340;   13.500; -465.000; -321.000
310.477;  -79.325; -412.000; -516.000
310.614;  -68.200; -383.000; -473.000
310.751;  -79.225; -427.000; -518.000
310.889;  -25.250;    1.000;   11.000
311.026; -163.725;-1161.000; -939.000
311.163;  -44.000; -386.000; -380.000
311.300;  -75.750; -512.000; -479.000
311.437;  -81.275; -658.000; -619.000
311.574; -151.850;-1226.000; -985.000
311.711;  -65.750; -595.000; -433.000
311.848;  -56.775; -380.000; -388.000
311.985;   16.175;  270.000;   93.000
312.122; -125.050; -932.000; -762.000
312.259; -125.975; -941.000; -994.000
312.396;  -83.550; -508.000; -551.000
312.533;  -86.225; -812.000; -790.000
312.670; -139.750;-1070.000; -898.000
312.807;  -39.300; -352.000; -367.000
312.944;  -78.300; -513.000; -611.000
313.081;  -33.800; -150.000; -415.000
313.218; -107.500;-1111.000; -867.000
313.355;    7.075; -531.000; -449.000
313.492;   -1.950; -455.000; -292.000
313.629;  137.025;  815.000;  735.000
313.766; -156.350;-1176.000;-1008.000
313.902;   -4.875; -186.000;   21.000
314.039;  -49.750; -372.000; -289.000
314.176;   16.475;  286.000;  192.000
314.313;  -86.625; -569.000; -473.000
314.450;  -79.800; -788.000; -684.000
314.587;  -58.675; -468.000; -480.000
314.723;    5.500;  -78.000;  130.000
314.860;   35.175;  318.000;  332.000
314.997;   28.975;  223.000;  142.000
315.134;  -42.675; -385.000; -368.000
315.270;  -29.850; -480.000; -496.000
315.407; -121.050;-1094.000; -967.000
315.544;  -56.675; -657.000; -538.000
315.681;  -71.200; -681.000; -565.000
315.817;   30.600; -133.000; -176.000
315.954;   14.550; -613.000; -392.000
316.091; -124.100;-1045.000;-1023.000
316.227;  -31.875;  -71.000; -179.000
316.364;   -9.525;   23.000;    6.000
316.500;  -53.525; -113.000; -300.000
316.637;  -51.725; -181.000; -302.000
316.774;  -86.950; -625.000; -358.000
316.910;  -87.925; -598.000; -629.000
317.047;  -62.600; -487.000; -351.000
317.183;  -43.575; -435.000; -566.000
317.320;   -6.675; -367.000; -321.000
317.456;  -90.900; -733.000; -805.000
317.593;  -88.625; -598.000; -641.000
317.729;    5.375;  168.000;  -67.000
317.866; -198.000;-1434.000;-1285.000
318.002;  -90.050; -708.000; -948.000
318.139;  -92.600; -883.000; -867.000
318.275;  -99.275;-1003.000; -738.000
318.412;  -56.000; -517.000; -336.000
318.548;  -23.700; -751.000; -720.000
318.685;  -98.875; -985.000; -888.000
318.821;  -90.600; -762.000; -735.000
318.957;  -26.350;   34.000;  -23.000
319.094;   42.000;  297.000;  154.000
319.230;  -54.950; -756.000; -742.000
319.367;  150.425; -471.000; -520.000
319.503;   59.650; -538.000; -436.000
319.639;  -97.800; -877.000; -793.000
319.775;  -69.950; -750.000; -685.000
319.912;  -53.150; -424.000; -519.000
320.048;  -78.600;-1184.000;-1184.000
320.184;   76.075;   59.000;   70.000
320.321;  -53.975; -497.000; -467.000
320.457;   61.550;  475.000;  662.000
320.593;  -66.275; -375.000; -382.000
320.729; -109.850; -732.000; -734.000
320.866;  -70.025; -577.000; -635.000
321.002;  -89.825; -759.000; -809.000
321.138;  -10.750; -135.000; -211.000
321.274;   68.525; -148.000; -115.000
321.410;  -19.325; -585.000; -353.000
321.546;  -16.400;-1011.000; -911.000
321.683;   50.425;  400.000;  185.000
321.819;    1.900;  -48.000; -117.000
321.955; -108.525; -743.000; -722.000
322.091;  -43.325; -585.000; -540.000
322.227;  -23.625; -382.000; -202.000
322.363;   -6.575; -320.000; -215.000
322.499;  -44.725; -343.000; -331.000
322.635;  172.350;  636.000;  443.000
322.771;   26.450; -139.000;   12.000
322.907;   99.750;  129.000;  327.000
323.043;  -19.625; -115.000; -206.000
323.179;  -38.425; -394.000; -363.000
323.315;   27.150; -401.000; -371.000
323.451;   92.450; -328.000; -236.000
323.587;   53.575;  -60.000;  -77.000
323.723;   26.975; -682.000; -601.000
323.859;  -24.150; -258.000;  -76.000
323.995;  -49.650; -467.000; -409.000
324.131; -135.525; -967.000; -892.000
324.267;  -34.400; -254.000; -276.000
324.402; -140.075; -960.000; -983.000
324.538;   -6.550; -279.000; -104.000
324.674;   24.475;  164.000;   77.000
324.810;  133.825;  226.000;  308.000
324.946;    8.400; -810.000; -658.000
325.082;  -73.200; -568.000; -475.000
325.217;  -19.100;  -62.000;   16.000
325.353; -106.300; -764.000; -659.000
325.489;  -85.625; -540.000; -506.000
325.625;  -77.375; -579.000; -525.000
325.760;   49.750;  517.000;  376.000
325.896;  -36.175; -515.000; -702.000
326.032;  -57.400; -403.000; -352.000
326.168;  -64.525; -462.000; -369.000
326.303;  -64.225; -352.000; -461.000
326.439;  -25.725; -336.000; -276.000
326.575;   -5.275; -190.000;  -29.000
326.710;  -11.875; -156.000;  -30.000
326.846;   -1.225;  146.000;  103.000
326.982;  -93.175; -530.000; -548.000
327.117;  -83.075; -481.000; -442.000
327.253;  -87.250; -745.000; -742.000
327.388; -141.800;-1137.000;-1153.000
327.524;  -47.725; -811.000; -578.000
327.659;  -32.150;  -58.000;  -22.000
327.795;  -13.050;   69.000;   45.000
327.931;  -86.925; -723.000; -499.000
328.066;  -48.575; -417.000; -276.000
328.202;  -10.950;   12.000; -129.000
328.337;  104.900;  957.000;  713.000
328.473;   33.800;  -12.000;  -74.000
328.608;  -15.775; -256.000; -267.000
328.743;  -83.475; -799.000; -664.000
328.879;   23.050;  214.000;  114.000
329.014;  -43.850; -102.000; -122.000
329.150; -100.125; -358.000; -483.000
329.285;  -81.225; -465.000; -466.000
329.421;  -51.825; -548.000; -246.000
329.556;  -20.925;  -36.000;   85.000
329.691;  -98.250; -633.000; -615.000
329.827;  -90.225; -626.000; -480.000
329.962;  -38.750;  131.000; -301.000
330.097; -103.425; -673.000; -585.000
330.233;  -58.075; -410.000; -223.000
330.368; -121.800; -839.000; -628.000
330.503;  -17.800;    3.000;   98.000
330.638;   22.375;  -93.000; -125.000
330.774;  -62.750; -609.000; -530.000
330.909;  -53.275; -434.000; -244.000
331.044; -113.475; -714.000; -708.000
331.179; -170.025;-1217.000;-1109.000
331.315;   -5.175;   77.000;   20.000
331.450;   18.900;  157.000;  285.000
331.585;  -87.525; -805.000; -706.000
331.720;  -75.300; -510.000; -460.000
331.855;  -17.150;  -35.000; -102.000
331.990;  223.450;   62.000;  138.000
332.126;  112.250; -110.000;   71.000
332.261;  -36.000; -379.000; -265.000
332.396;   -4.275; -135.000; -242.000
332.531; -104.575;-1074.000;-1031.000
332.666;   37.275; -519.000; -363.000
332.801; -104.075; -726.000; -807.000
332.936;  -23.925; -192.000; -122.000
333.071; -130.850; -870.000; -817.000
333.206;   18.600;  307.000;  379.000
333.341;   33.175;  344.000;  418.000
333.476;  -83.175; -627.000; -623.000
333.611;  -34.925; -251.000; -173.000
333.746;  -60.900; -381.000; -464.000
333.881; -121.750; -973.000; -935.000
334.016; -132.350; -936.000; -917.000
334.151; -126.500; -746.000; -702.000
334.286;   29.950;  152.000;  186.000
334.421;  -25.950; -125.000; -178.000
334.556;  -82.050; -611.000; -567.000
334.690;  -84.000; -631.000; -577.000
334.825;   56.550;  381.000;   83.000
334.960;  -58.250; -285.000; -413.000
335.095;   19.050;  135.000;  -91.000
335.230;  -95.275; -722.000; -738.000
335.365; -139.925;-1084.000; -990.000
335.499; -133.150;-1108.000;-1037.000
335.634;   28.425;    9.000;  534.000
335.769;  -94.225; -755.000; -720.000
335.904;  -60.750; -603.000; -561.000
336.038;  -53.400; -735.000; -657.000
336.173; -112.425;-1206.000;-1194.000
336.308;   12.375; -116.000; -189.000
336.443;   37.875; -544.000; -634.000
336.577;  -69.300; -936.000; -787.000
336.712;   80.925;   -4.000;  -12.000
336.847;  -34.450; -724.000; -607.000
336.981;   62.925; -272.000; -208.000
337.116;  304.275;  615.000;  501.000
337.250;  159.150; -434.000; -421.000
337.385;  226.975; -297.000; -208.000
337.520;   71.350; -632.000; -603.000
337.654;  -32.575; -215.000; -126.000
337.789; -128.400; -989.000; -933.000
337.923;  -32.825; -104.000; -205.000
338.058;  -92.250; -673.000; -738.000
338.192;  -31.350; -611.000; -488.000
338.327;  -16.475;  -18.000; -155.000
338.461;  -62.975; -299.000; -469.000
338.596;  -96.950; -780.000; -638.000
338.730;  -94.025; -767.000; -803.000
338.865;   81.800;  -46.000; -140.000
338.999;  -58.450; -846.000; -702.000
339.134;  -31.050; -634.000; -536.000
339.268;   16.900; -741.000; -603.000
339.403;  355.575; -740.000; -775.000
339.537;   98.650; -894.000; -820.000
339.671; -118.100; -829.000; -813.000
339.806;  -66.450; -556.000; -512.000
339.940;    0.525; -261.000; -235.000
340.074; -106.575; -685.000; -510.000
340.209;  -50.100; -351.000; -230.000
340.343;  -99.125; -517.000; -573.000
340.477;  165.275;  998.000; 1036.000
340.612;  -67.200;-1033.000; -900.000
340.746;  125.275; -199.000; -243.000
340.880;  -67.950; -924.000; -785.000
341.014;  -20.125;  -45.000; -154.000
341.149; -126.875; -756.000; -718.000
341.283; -114.750; -839.000; -754.000
341.417;  -79.100;-1124.000; -938.000
341.551;  148.000; -768.000; -708.000
341.685;  -31.275; -633.000; -611.000
341.820;  -58.275; -562.000; -493.000
341.954;  -57.075; -218.000; -349.000
342.088; -145.375;-1102.000;-1019.000
342.222;   58.475;  565.000;  618.000
342.356;  -46.375; -395.000; -335.000
342.490;  -85.525; -880.000; -841.000
342.624;  -37.400; -339.000; -242.000
342.758;   -4.500; -364.000; -312.000
342.892;  -66.075; -710.000; -585.000
343.026;  -46.050;  -58.000; -116.000
343.160;  -58.100; -426.000; -376.000
343.294;  -72.325; -474.000; -337.000
343.428;  -20.950; -488.000; -448.000
343.562;  -21.775; -172.000;  -23.000
343.696;  -32.100; -385.000; -314.000
343.830;  -22.250; -362.000; -356.000
343.964;    3.975; -231.000; -168.000
344.098;  983.075;  199.000;   70.000
344.232;  805.200; -266.000; -127.000
344.366;   78.750; -567.000; -453.000
344.500;   72.925; -665.000; -744.000
344.634;   37.950; -324.000; -164.000
344.768;   -4.125; -531.000; -341.000
344.902;   23.150;  278.000;  256.000
345.035;  -70.000; -556.000; -496.000
345.169; -131.825; -933.000; -656.000
345.303;  -62.600; -308.000; -482.000
345.437;  -76.025; -826.000; -717.000
345.571;  -70.675; -675.000; -594.000
345.704;  -70.400; -309.000; -532.000
345.838;   -9.600; -331.000; -284.000
345.972;  -55.875; -543.000; -495.000
346.106;  161.100; -179.000; -190.000
346.239;  410.575; -312.000; -243.000
346.373;   -5.500; -343.000; -302.000
346.507; -152.000; -950.000; -962.000
346.640;  171.175;  -30.000;   13.000
346.774;  -42.875; -650.000; -797.000
346.908;  -19.700; -138.000;  -11.000
347.041;  -89.600; -646.000; -593.000
347.175;    9.950;  259.000;   27.000
347.309;  -66.050; -698.000; -628.000
347.442;  -92.900; -883.000; -732.000
347.576;  293.675;  670.000;  668.000
347.709;  225.625; -123.000;  -52.000
347.843;  -99.200; -933.000; -825.000
347.976;   31.500;  235.000;  294.000
348.110; -168.525;-1268.000;-1186.000
348.243; -104.000; -679.000; -772.000
348.377;    4.550;  -26.000;   60.000
348.510;   45.550;  403.000;  540.000
348.644;  -39.075;  -37.000; -159.000
348.777;    8.025;  180.000;  191.000
348.911;  -60.475; -142.000; -112.000
349.044;  175.100;  471.000;  448.000
349.178;  168.700;-1069.000;-1006.000
349.311;  108.575;  141.000;  255.000
349.444;    1.125; -927.000; -813.000
349.578;  -15.700; -347.000; -200.000
349.711;  -91.500; -959.000; -862.000
349.845;   11.400; -661.000; -591.000
349.978; -133.950;-1224.000;-1137.000
350.111;  -92.425; -546.000; -612.000
350.244;  -73.025; -596.000; -700.000
350.378;   19.900; -392.000; -393.000
350.511;  -79.050; -393.000; -426.000
350.644; -109.225; -808.000; -806.000
350.778;    8.575;  168.000;  104.000
350.911;    1.425;  134.000;  140.000
351.044;  -91.225; -685.000; -615.000
351.177;  -22.200; -321.000; -281.000
351.310;  -27.675;    3.000; -131.000
351.444;  -77.875; -888.000; -788.000
351.577;  108.250;  140.000;   90.000
351.710;  107.425;  593.000;  417.000
351.843;  -39.100; -165.000;  -77.000
351.976;    2.025;  149.000;  -79.000
352.109;  -84.650; -621.000; -612.000
352.242;  -30.800; -464.000; -419.000
352.376;  -54.300; -580.000; -636.000
352.509;  189.300; -437.000; -356.000
352.642;   26.850; -654.000; -604.000
352.775;   68.925; -141.000;  -98.000
352.908; -114.725; -933.000; -904.000
353.041;  -97.325; -814.000; -824.000
353.174;  -68.400; -551.000; -424.000
353.307;  -83.450; -753.000; -764.000
353.440;   72.800;  541.000;  453.000
353.573; -108.050; -957.000;-1008.000
353.706;  -18.400; -384.000; -558.000
353.839;   -7.725; -264.000; -220.000
353.971;  -82.575; -657.000; -512.000
354.104;  -89.875; -896.000; -835.000
354.237;  -34.625; -627.000; -662.000
354.370;  -85.600; -846.000; -879.000
354.503; -174.225;-1231.000;-1308.000
354.636;  -39.750; -529.000; -348.000
354.769; -122.550; -937.000; -860.000
354.902;   -7.675; -230.000; -139.000
355.034;  -22.200; -164.000; -220.000
355.167;  -16.750; -262.000; -162.000
355.300;  -83.800;-1061.000; -880.000
355.433;  957.650;  -71.000;  -14.000
355.565; 1447.475; -402.000; -384.000
355.698;  350.575; -356.000; -296.000
355.831;    0.450; -882.000; -801.000
355.964;  100.925; -285.000; -170.000
356.096;  -79.750; -856.000; -843.000
356.229;   -6.725; -523.000; -530.000
356.362;  314.500; -373.000; -266.000
356.494;  581.700; -229.000; -162.000
356.627;  505.175;  269.000;  377.000
356.760;  663.775;  120.000;   53.000
356.892;  923.300; -286.000; -601.000
357.025;  705.425;  403.000;  389.000
357.157;  660.475; -167.000; -179.000
357.290;  632.975; -856.000; -713.000
357.423;  194.825; -667.000; -556.000
357.555;  120.625; -217.000; -228.000
357.688;  132.975; -483.000; -364.000
357.820;  510.600; -870.000; -877.000
357.953; 3952.025; -563.000; -589.000
358.085;  886.700; -632.000; -612.000
358.218; 1269.650;-1131.000; -932.000
358.350;  234.950;  -58.000;  312.000
358.483; -122.550;-1300.000;-1187.000
358.615;  -15.125;-1182.000;-1078.000
358.747;  -38.975;-1187.000;-1058.000
358.880;   31.950; -810.000; -744.000
359.012;   -9.350; -376.000; -202.000
359.145;  -38.325; -480.000; -511.000
359.277;   72.450; -962.000; -913.000
359.409; 3266.750;  536.000;  231.000
359.542;  870.675; -738.000; -688.000
359.674;   80.225;   46.000;   13.000
359.806;  -60.225; -565.000; -438.000
359.939;  -56.450; -617.000; -516.000
360.071;  -22.125; -583.000; -579.000
360.203;  -23.275; -411.000; -364.000
360.335;   47.725;  164.000;  -16.000
360.468;  203.100; -249.000; -307.000
360.600; 2585.825; -547.000; -454.000
360.732; 2755.275; -546.000; -423.000
360.864;  378.625;-1216.000;-1044.000
360.996;  305.925; -516.000; -554.000
361.129;   54.825; -389.000; -598.000
361.261;   19.525;  110.000; -113.000
361.393;  -24.425; -252.000; -214.000
361.525;   30.425;   94.000;  244.000
361.657;  -27.500; -821.000; -703.000
361.789;   11.200; -139.000; -155.000
361.921;  255.550; -642.000; -593.000
362.053;  274.350;  524.000;  541.000
362.185;   55.575;  288.000;   72.000
362.318;  -79.900; -709.000; -705.000
362.450;  126.325;  294.000;  444.000
362.582;  140.175; -913.000; -870.000
362.714;  -31.500; -353.000; -332.000
362.846;  -88.675; -606.000; -490.000
362.978; -137.525; -941.000; -811.000
363.109;   51.800; -161.000; -260.000
363.241;  471.950; -739.000; -749.000
363.373;  418.925; -649.000; -564.000
363.505;  633.375; -186.000;  -91.000
363.637;  167.500; -787.000; -601.000
363.769; -132.400;-1067.000;-1080.000
363.901;  -71.600; -596.000; -654.000
364.033; -111.725;-1103.000;-1062.000
364.165;    9.400; -283.000; -283.000
364.296;   78.775; -316.000; -177.000
364.428;   66.250;-1344.000;-1220.000
364.560;  -77.000; -679.000; -661.000
364.692;  -57.025; -738.000; -835.000
364.824;  285.700; -588.000; -456.000
364.955;  468.250; -402.000; -564.000
365.087;  849.450;-1097.000; -852.000
365.219;   16.050; -686.000; -816.000
365.351;  -69.000; -526.000; -572.000
365.482;   51.750;  300.000;  240.000
365.614;  -53.425; -402.000; -314.000
365.746;  -94.200; -729.000; -752.000
365.877;  -97.025; -706.000; -672.000
366.009;  238.650;  -35.000;  -62.000
366.141; -101.300;-1249.000;-1134.000
366.272; -113.450; -803.000; -719.000
366.404; -105.700;-1005.000; -874.000
366.535;  -12.200; -139.000;  -12.000
366.667;  -98.250; -644.000; -649.000
366.799;   47.275;  353.000;  203.000
366.930; -116.250; -862.000; -996.000
367.062;  114.500; -639.000; -613.000
367.193;  120.850; -872.000; -842.000
367.325;  -60.525; -580.000; -684.000
367.456;   57.675; -246.000;   31.000
367.588;  150.050; -371.000; -318.000
367.719;   21.325;  -44.000;  -45.000
367.851;   -2.550; -222.000; -241.000
367.982;  -44.350; -875.000; -732.000
368.113;  114.150; -475.000; -358.000
368.245; -120.675; -960.000; -841.000
368.376;  -11.950; -254.000; -302.000
368.508;  -27.300; -188.000; -263.000
368.639; -136.800;-1166.000;-1034.000
368.770;  -24.900; -670.000; -589.000
368.902;  -62.225; -836.000; -926.000
369.033; -108.525; -906.000; -855.000
369.164;  -61.175; -720.000; -653.000
369.296; -102.925; -452.000; -601.000
369.427;   -4.850; -209.000; -144.000
369.558;  -42.925; -593.000; -377.000
369.689;  -79.675; -721.000; -569.000
369.821; -137.725; -951.000; -845.000
369.952;  -14.800;   42.000; -108.000
370.083;  -52.900; -229.000; -108.000
370.214;  -77.625; -735.000; -650.000
370.345;    3.500;   65.000;   81.000
370.477;  -93.800; -810.000; -790.000
370.608;  247.075; -328.000; -264.000
370.739;  -39.375;-1233.000;-1292.000
370.870;  -30.975;-1102.000; -923.000
371.001;  108.175; -378.000; -467.000
371.132;  -70.650; -754.000; -735.000
371.263;  -17.450;  -42.000; -148.000
371.394; -131.525; -841.000; -748.000
371.525;   27.575;  345.000;  225.000
371.657;  -87.725; -808.000; -670.000
371.788;   70.375;  103.000;  199.000
371.919;  168.650; -384.000; -304.000
372.050; 3905.125;  -91.000; -156.000
372.181; 1155.425; -188.000; -294.000
372.311;  404.875;   42.000; -127.000
372.442;   63.575; -457.000; -451.000
372.573;  -25.600; -444.000; -340.000
372.704; -125.250;-1008.000; -980.000
372.835;   89.375; -228.000; -289.000
372.966;  -61.950; -646.000; -554.000
373.097;  -57.800; -575.000; -711.000
373.228;  -36.575; -717.000; -542.000
373.359;  148.600; -824.000; -536.000
373.490; 1039.575; -881.000; -727.000
373.620; 1268.875;-1001.000; -803.000
373.751; 1944.850; -332.000; -396.000
373.882;  874.000; -663.000; -733.000
374.013;   72.700; -449.000; -262.000
374.143;  -31.375; -581.000; -659.000
374.274;  -99.075; -987.000; -908.000
374.405;  193.575; -388.000; -276.000
374.536;  500.100; -526.000; -387.000
374.666; 1239.450; -759.000; -807.000
374.797;  257.300; -817.000; -868.000
374.928;  965.950; -710.000; -560.000
375.058;  982.375; -535.000; -500.000
375.189;   90.875;  -59.000;  -93.000
375.320; -125.225; -928.000;-1034.000
375.450;  -43.975; -625.000; -616.000
375.581;  -51.500; -526.000; -436.000
375.712;  -26.300; -574.000; -250.000
375.842;  338.825; -438.000; -415.000
375.973;  248.550; -554.000; -513.000
376.103;  -40.175; -665.000; -648.000
376.234;  -82.050; -531.000; -552.000
376.364;  -31.000; -944.000; -867.000
376.495;  349.450;  925.000;  529.000
376.625;  -10.075; -472.000; -485.000
376.756;   79.475; -709.000; -678.000
376.886;  -61.500;-1178.000;-1026.000
377.017;   47.125;-1048.000;-1061.000
377.147;  327.000; -786.000; -782.000
377.278;   61.225;  174.000;  228.000
377.408; -129.450; -801.000; -815.000
377.538; -113.475; -707.000; -693.000
377.669;  -82.400; -537.000; -613.000
377.799;  -86.000; -645.000; -635.000
377.929;  -46.600; -610.000; -428.000
378.060; -116.225; -781.000; -847.000
378.190;  -56.950; -726.000; -531.000
378.320;  -52.650; -401.000; -406.000
378.451;  -16.200; -131.000;  -22.000
378.581;   -3.375;  -67.000; -110.000
378.711;  143.275; 1035.000;  866.000
378.841;  -14.000; -533.000; -675.000
378.972;  -62.900; -871.000; -751.000
379.102;    6.625; -652.000; -579.000
379.232;   -8.475; -126.000;  -73.000
379.362;  -97.725;-1001.000; -885.000
379.492;   20.400; -373.000; -424.000
379.623;  111.475;    0.000;  111.000
379.753;  -90.975;-1107.000; -974.000
379.883;  203.400;   59.000;  156.000
380.013;   10.500;-1081.000;-1017.000
380.143;  -91.625;-1097.000;-1056.000
380.273;  -95.250; -985.000; -861.000
380.403;   -2.675; -344.000; -257.000
380.533;  -18.500; -651.000; -664.000
380.663;   89.200;  173.000;  128.000
380.793;  -87.500;-1027.000;-1074.000
380.923;  -36.025; -103.000;  -34.000
381.053; -107.475; -613.000; -623.000
381.183;  -28.250; -106.000; -248.000
381.313;   52.950; -656.000; -470.000
381.443;   55.325; -692.000; -473.000
381.573;  227.150; -402.000; -409.000
381.703;  325.150;-1249.000;-1095.000
381.833; -115.950;-1454.000;-1336.000
381.963;  117.850; -134.000;  -87.000
382.093; 1515.500; -925.000; -909.000
382.223;  465.575; -713.000; -602.000
382.353;   -4.950; -801.000; -608.000
382.482;  416.650;-1091.000; -964.000
382.612;  852.975; -872.000; -644.000
382.742;  448.800; -695.000; -622.000
382.872;  295.400; -565.000; -551.000
383.002;   76.500;  347.000; -132.000
383.131;   -9.125; -226.000; -160.000
383.261;  -30.625; -706.000; -768.000
383.391;  309.500; -552.000; -377.000
383.521; 3054.400;  451.000;  263.000
383.650;  704.500; -947.000; -904.000
383.780;  -31.175; -783.000; -656.000
383.910;  116.300;  880.000;  802.000
384.039;   34.500; -794.000; -656.000
384.169;  242.800;-1205.000;-1017.000
384.299;  -23.350; -650.000; -662.000
384.428;  -78.975; -764.000; -680.000
384.558;  -36.650; -308.000; -275.000
384.687;  -52.900; -414.000; -334.000
384.817;   23.000;   75.000;   -2.000
384.947;   18.075; -234.000; -141.000
385.076;  305.825;  982.000;  912.000
385.206;  114.675;  369.000;  480.000
385.335;  -23.950; -549.000; -417.000
385.465;  -69.675; -655.000; -663.000
385.594;  140.550;  -53.000;  -44.000
385.724;  486.175; -868.000; -838.000
385.853;  131.275; -296.000; -270.000
385.982; 1496.700; -743.000; -787.000
386.112; 2361.225;-1052.000; -871.000
386.241;  156.575; -307.000; -312.000
386.371;   27.125; -174.000;  -87.000
386.500;    0.150; -825.000; -789.000
386.629;   22.275; -874.000; -817.000
386.759;   60.975;  -43.000;   68.000
386.888;  -10.450; -170.000; -250.000
387.017;  -91.050; -648.000; -620.000
387.147;  -77.050; -771.000; -798.000
387.276;    1.450; -410.000; -397.000
387.405;   18.250; -398.000; -342.000
387.535;  -40.825; -452.000; -361.000
387.664;  -57.075; -692.000; -620.000
387.793;   61.250; -198.000; -113.000
387.922;  584.425;  255.000;  200.000
388.052;   19.900; -576.000; -423.000
388.181;   21.225; -342.000; -472.000
388.310;   15.075; -889.000; -710.000
388.439;  -49.225; -749.000; -742.000
388.568;  188.650;  365.000;  244.000
388.697; 1181.350; -756.000; -653.000
388.826;  234.025; -768.000; -666.000
388.956;   70.450; -285.000; -307.000
389.085;  -26.225; -347.000; -287.000
389.214; -116.475; -842.000; -872.000
389.343;  -49.250; -645.000; -413.000
389.472;  399.900;  126.000;  149.000
389.601;  508.975;   91.000;    0.000
389.730;   15.000; -568.000; -687.000
389.859;   73.500;  226.000;   46.000
389.988;  198.425; -423.000; -408.000
390.117;  154.075; -168.000; -146.000
390.246;   -6.600; -331.000; -320.000
390.375;  115.050; -673.000; -626.000
390.504;  -64.925; -703.000; -621.000
390.633;  -88.975; -672.000; -726.000
390.761;  -66.550; -732.000; -645.000
390.890;   23.650;   -4.000; -130.000
391.019;  -22.575; -421.000; -441.000
391.148; -130.975; -826.000; -855.000
391.277;  -62.925; -576.000; -493.000
391.406;  -76.750; -821.000; -805.000
391.534;   10.325;  574.000; -301.000
391.663;  -55.675; -583.000; -645.000
391.792;  -79.750; -673.000; -701.000
391.921;  116.100;   -3.000;   15.000
392.050;  212.350; -287.000; -228.000
392.178;  -31.575;-1206.000;-1061.000
392.307;  176.725; -758.000; -712.000
392.436;   91.675; -427.000; -641.000
392.564;   13.600;  166.000;   -6.000
392.693;  -95.675; -860.000; -682.000
392.822;  223.300; -529.000; -534.000
392.950;   97.300; -880.000; -714.000
393.079;  362.150; -188.000; -328.000
393.208;   33.750; -488.000; -511.000
393.336;  -38.850; -170.000; -145.000
393.465;  -43.450; -317.000; -199.000
393.593;    1.500;   62.000;   79.000
393.722; -163.250;-1121.000; -916.000
393.850;  -34.750; -188.000;  -61.000
393.979; -153.450; -926.000; -805.000
394.107;  -73.575; -517.000; -537.000
394.236;  -26.500; -570.000; -507.000
394.364;  201.000;  383.000;  206.000
394.493;  305.975; -911.000; -767.000
394.621;  -15.000; -955.000; -916.000
394.750;  673.550; -873.000; -923.000
394.878; 2877.025; -247.000; -149.000
395.007; 3862.900; -721.000; -807.000
395.135;  283.425; -790.000; -721.000
395.263;  -85.350;-1038.000;-1040.000
395.392;    5.725;  -25.000; -107.000
395.520; -139.925; -818.000; -679.000
395.648;  -81.125; -865.000; -915.000
395.777;   -9.775; -366.000; -405.000
395.905;  -42.975; -449.000; -564.000
396.033;    4.925;  217.000;  172.000
396.162;  541.800; -399.000; -453.000
396.290;  473.725;  -17.000;   -2.000
396.418;   95.750; -555.000; -514.000
396.546;  -78.225; -571.000; -466.000
396.674; -110.750; -850.000; -878.000
396.803;    7.825;  -72.000;  -23.000
396.931;   94.825; -179.000; -199.000
397.059;   69.025;-1026.000; -989.000
397.187; -116.750;-1026.000; -975.000
397.315; -137.625; -884.000; -649.000
397.443;  -99.250; -592.000; -443.000
397.572;  -93.875; -578.000; -424.000
397.700;   -6.500; -607.000; -614.000
397.828;    9.125;  120.000;  -90.000
397.956;  -49.625; -508.000; -478.000
398.084;  -62.000; -767.000; -626.000
398.212;   31.275;  137.000;  124.000
398.340;    6.075;  -56.000;  159.000
398.468;   35.075; -390.000; -169.000
398.596; -139.725; -993.000; -953.000
398.724; -123.550; -762.000; -767.000
398.852; -164.275;-1024.000; -976.000
398.980;  -83.825; -560.000; -560.000
399.108;  -54.525; -982.000; -735.000
399.236;   26.525;   13.000;    8.000
399.363;   14.550;  222.000;  196.000
399.491;  -73.275; -404.000; -398.000
399.619; -124.550; -829.000; -800.000
399.747;  -96.900; -859.000; -771.000
399.875;   85.500;  220.000;  234.000
400.003;  -43.625; -359.000; -284.000
400.130;  -93.225; -421.000; -341.000
400.258;  -26.825;  -83.000;   38.000
400.386;  -63.300; -352.000; -168.000
400.514;  -40.225; -526.000; -587.000
400.641;  -99.200; -928.000; -802.000
400.769; -151.100; -979.000; -888.000
400.897; -112.775; -838.000; -793.000
401.025;  -22.800; -166.000; -152.000
401.152;  -18.625;  220.000;   38.000
401.280;  -83.575; -430.000; -429.000
401.408; -128.775; -712.000; -576.000
401.535; -102.575; -735.000; -758.000
401.663; -187.075;-1134.000;-1054.000
401.790;  -81.000; -514.000; -525.000
401.918;   43.850;  436.000;  405.000
402.046;  -26.550;  134.000;  122.000
402.173;  -45.900;  -18.000;    7.000
402.301;  -68.150; -519.000; -397.000
402.428;   40.250;  528.000;  383.000
402.556; -146.500;-1188.000; -913.000
402.683;  -25.250;  -20.000;   -1.000
402.811;  -25.225;  -37.000; -206.000
402.938;  -21.900;   20.000;   27.000
403.066;  215.525; -574.000; -558.000
403.193;  367.800;  299.000;  239.000
403.321;  276.750; -396.000; -574.000
403.448;  346.750;   83.000;   27.000
403.575;  153.050;  -90.000;  -46.000
403.703;  -87.425; -732.000; -557.000
403.830;  -80.000; -531.000; -496.000
403.957; -144.250;-1117.000;-1023.000
404.085;   15.200;  -61.000; -172.000
404.212;   94.100;  -50.000;   63.000
404.339;  264.550; -566.000; -306.000
404.467; 5606.175; -612.000; -524.000
404.594; 3792.775; -287.000; -227.000
404.721;  923.050; -869.000; -764.000
404.848;   84.375; -113.000; -202.000
404.976; -110.025; -856.000; -783.000
405.103;  -20.650;  -14.000;  -82.000
405.230;   -3.475;  190.000;  226.000
405.357;   17.300;  117.000;   44.000
405.484;  247.425;  -49.000;    5.000
405.612;   36.125; -548.000; -563.000
405.739;  -67.375; -488.000; -243.000
405.866;   94.975;  669.000;  385.000
405.993;  -54.300; -398.000; -102.000
406.120; -145.200; -801.000; -887.000
406.247;  -44.950; -323.000; -342.000
406.374;  475.200;  540.000;  629.000
406.501;  129.450; -632.000; -702.000
406.628;  -69.650; -621.000; -589.000
406.755;  -87.025; -803.000; -620.000
406.882;  -40.475; -228.000; -277.000
407.009; -108.175; -719.000; -628.000
407.136;   62.600; -480.000; -401.000
407.263;  147.100; -939.000; -829.000
407.390;  -81.675; -692.000; -614.000
407.517; -163.375;-1139.000;-1187.000
407.644;  -54.000; -332.000; -256.000
407.771;  -71.325; -249.000; -287.000
407.898;    5.950;  168.000;  328.000
408.025;  -75.675; -421.000; -313.000
408.151;  -19.475;   82.000;  153.000
408.278;  -84.200; -267.000; -216.000
408.405; -118.300; -931.000; -899.000
408.532;  -56.150; -549.000; -542.000
408.659; -119.750; -677.000; -648.000
408.785; -207.000;-1298.000;-1170.000
408.912;  -69.975; -412.000; -296.000
409.039; -113.750; -610.000; -686.000
409.166; -114.800; -591.000; -555.000
409.292; -112.375; -571.000; -534.000
409.419; -118.000; -665.000; -649.000
409.546;  -91.950; -431.000; -192.000
409.672; -117.875; -713.000; -545.000
409.799;  -19.800;  -36.000;   34.000
409.926;  -39.825; -180.000; -179.000
410.052; -181.150;-1127.000;-1091.000
410.179;  -69.600; -368.000; -392.000
410.305;  -97.000; -375.000; -493.000
410.432;  -53.350; -220.000; -333.000
410.558;  -95.025; -305.000; -380.000
410.685; -106.775; -688.000; -431.000
410.812; -102.950; -409.000; -588.000
410.938; -142.250; -964.000; -808.000
411.065; -109.925; -671.000; -645.000
411.191;  -25.725; -189.000; -174.000
411.317; -109.550; -823.000; -742.000
411.444;  -61.700; -317.000; -246.000
411.570;  -82.725; -339.000; -294.000
411.697; -136.275; -758.000; -752.000
411.823; -169.075; -989.000; -999.000
411.949;  -25.900;  -56.000;   17.000
412.076; -107.675; -539.000; -519.000
412.202; -122.700; -758.000; -757.000
412.329; -134.525; -798.000; -752.000
412.455; -112.900; -821.000; -657.000
412.581;  -32.025;  -15.000;  172.000
412.707;  -81.725; -540.000; -457.000
412.834;   20.250;  156.000;  219.000
412.960;  -79.150; -785.000; -784.000
413.086; -106.900; -743.000; -701.000
413.212;  154.950;  604.000;  578.000
413.339;  -78.550; -685.000; -701.000
413.465;   14.125; -364.000; -310.000
413.591;  -96.875; -757.000; -474.000
413.717;  -58.125; -358.000; -366.000
413.843; -138.125; -839.000; -861.000
413.969;  -57.225;  -47.000; -292.000
414.096; -106.925; -679.000; -679.000
414.222;    4.125;  -33.000;   85.000
414.348;  -17.775; -652.000; -385.000
414.474;  100.725;   38.000;  -52.000
414.600;  -12.500; -126.000; -144.000
414.726;  -10.025;  -96.000;  -55.000
414.852;  -70.825; -365.000; -342.000
414.978;   33.325;  104.000;  -18.000
415.104;   45.250;   38.000;   80.000
415.230;   14.775; -329.000; -330.000
415.356;   38.400; -409.000; -514.000
415.482;  177.150;   13.000;  -35.000
415.608;  262.175; -247.000; -323.000
415.734;  948.825;   67.000;   38.000
415.860;19786.600; -875.000; -767.000
415.986;14224.800; -685.000; -607.000
416.111; 1206.575; -798.000; -652.000
416.237;  235.525; -424.000; -571.000
416.363; 1106.100; -765.000; -733.000
416.489; 4055.875; -324.000; -251.000
416.615;  432.075; -707.000; -742.000
416.741;  -32.650; -677.000; -784.000
416.866;  -87.375; -673.000; -736.000
416.992; -128.850; -801.000; -818.000
417.118;  -26.725;  -41.000;  -80.000
417.244;  -65.700; -798.000; -531.000
417.369; -102.700; -801.000; -612.000
417.495;   -7.800; -325.000; -254.000
417.621;  -97.575;-1015.000; -803.000
417.746;   -1.025; -579.000; -572.000
417.872;   49.550; -254.000; -144.000
417.998;   40.100; -515.000; -530.000
418.123; 1040.450;-1073.000; -845.000
418.249; 5243.850; -512.000; -601.000
418.374;  713.475; -916.000; -824.000
418.500;  114.325; -383.000; -482.000
418.626;   89.125;   70.000;  -59.000
418.751;  104.025; -549.000; -448.000
418.877;  194.025; -637.000; -643.000
419.002; 1750.025; -688.000; -560.000
419.128;12293.075; -930.000; -721.000
419.253; 2962.750; -967.000; -837.000
419.379;  396.875; -391.000; -338.000
419.504;  381.600;  325.000;  415.000
419.629;  504.925; -393.000; -212.000
419.755; 3427.575; -317.000; -254.000
419.880;20484.400;  -98.000;   67.000
420.006;11137.525; -280.000; -221.000
420.131;28748.225; -662.000; -775.000
420.256; 4126.275; -315.000; -316.000
420.382;  529.600; -665.000; -687.000
420.507;   61.975; -649.000; -778.000
420.632;  150.925; -337.000; -339.000
420.758;  278.875; -251.000; -425.000
420.883;  -75.600; -876.000; -672.000
421.008;  -93.650; -775.000; -619.000
421.133;  -68.900; -509.000; -467.000
421.259;  -53.775; -325.000; -259.000
421.384; -115.400; -834.000; -693.000
421.509;  -37.750;-1052.000; -862.000
421.634; 1292.375; -936.000; -820.000
421.759;  556.800; -359.000; -327.000
421.885;  -66.875; -717.000; -656.000
422.010;  -88.075; -673.000; -542.000
422.135; -156.525; -695.000; -727.000
422.260;   38.725;  340.000;  280.000
422.385;  -45.550;   12.000;  -98.000
422.510;   19.900;  151.000;  -26.000
422.635;   12.625;  -87.000;  -43.000
422.760;   94.700; -766.000; -791.000
422.885;   56.425;  -57.000;  -80.000
423.010;  -38.875; -112.000; -169.000
423.135; -100.300; -481.000; -561.000
423.260;  -13.000; -150.000; -245.000
423.385;   65.375;  476.000;  222.000
423.510;   32.975;   71.000;  -22.000
423.635;   77.150;  133.000;   45.000
423.760;   55.225;  383.000;  328.000
423.885;   59.550;  336.000;  391.000
424.010;    0.675;  -68.000;  -13.000
424.135;  -26.325;    5.000;  -33.000
424.259; -101.100; -654.000; -457.000
424.384;  -58.575; -279.000; -272.000
424.509;  -21.200; -260.000; -186.000
424.634;  -91.200; -761.000; -623.000
424.759;  -33.600; -688.000; -544.000
424.883;  -28.950; -506.000; -527.000
425.008;  163.950; -502.000; -410.000
425.133; 1940.900; -679.000; -653.000
425.258;  902.525; -517.000; -381.000
425.382; 1117.575; -867.000; -774.000
425.507; 2834.250; -487.000; -543.000
425.632;  442.800; -802.000; -663.000
425.756;  442.650; -256.000; -146.000
425.881; 6332.625; -831.000; -857.000
426.006;16926.975; -604.000; -355.000
426.130; 2636.925; -696.000; -508.000
426.255;  329.375; -611.000; -491.000
426.379;  148.875; -189.000; -577.000
426.504;  370.150;  660.000;  544.000
426.629; 4026.400; -519.000; -466.000
426.753; 2728.775;   64.000;  -46.000
426.878;  297.025; -252.000; -288.000
427.002;  135.650; -651.000; -668.000
427.127; 1571.575;  -35.000; -158.000
427.251;11177.375;  372.000;  401.000
427.375; 3194.875; -191.000; -173.000
427.500; 2449.775; -616.000; -610.000
427.624;  836.875; -234.000; -400.000
427.749;   95.850; -216.000; -225.000
427.873;  -40.675; -499.000; -412.000
427.997;  -45.275; -222.000; -230.000
428.122;   70.200;  795.000;  703.000
428.246;   74.800;  433.000;  434.000
428.371; -118.750; -869.000; -773.000
428.495;  -99.775; -624.000; -646.000
428.619;  -21.000; -186.000; -117.000
428.743;   14.775;   65.000;  132.000
428.868;   25.150; -732.000; -643.000
428.992; 1520.800; -219.000; -326.000
429.116;  619.625; -329.000; -357.000
429.240;  297.075;  419.000;  426.000
429.365;  -34.150; -454.000; -574.000
429.489;  -36.250; -638.000; -647.000
429.613;   10.150; -236.000; -177.000
429.737;   33.150; -563.000; -432.000
429.861;  279.325; -247.000; -133.000
429.985; 5462.050; -425.000; -305.000
430.109; 5984.100; -770.000; -908.000
430.234;  689.200;   76.000;  -50.000
430.358;   71.875; -250.000; -160.000
430.482;  -61.425; -672.000; -564.000
430.606;  -70.125; -655.000; -375.000
430.730;   30.350; -437.000; -388.000
430.854;  126.475; -909.000; -835.000
430.978;  -71.575; -795.000; -764.000
431.102;  -87.450; -499.000; -422.000
431.226; -107.675; -874.000; -815.000
431.350;   39.625;  345.000;  422.000
431.474;  -64.275; -661.000; -373.000
431.597; -165.050;-1060.000; -848.000
431.721;  -93.800; -276.000; -267.000
431.845; -128.175; -704.000; -472.000
431.969; -104.475; -304.000; -349.000
432.093; -102.475; -395.000; -317.000
432.217;  -12.525;   32.000;   82.000
432.341;  -83.050; -523.000; -518.000
432.464;    0.450;   96.000;   40.000
432.588;  227.200; -401.000; -329.000
432.712;  123.800;  -52.000;  -52.000
432.836;   35.075;  213.000;  263.000
432.959;  -18.825; -372.000; -311.000
433.083;   67.650;   11.000;    2.000
433.207;  360.675;  285.000;  930.000
433.330; 4933.500; -391.000; -200.000
433.454; 6032.875; -654.000; -638.000
433.578; 3480.925;  583.000;  278.000
433.701;  653.450; -623.000; -675.000
433.825;  160.025; -292.000; -299.000
433.949;  204.750;   28.000;  -72.000
434.072;   67.175; -410.000; -323.000
434.196;  -16.175; -309.000; -117.000
434.319; 3731.850;25482.000;25124.000
434.443;  724.375; -656.000; -603.000
434.566; 2588.675;  281.000;   62.000
434.690;  433.125; -637.000; -383.000
434.813;   55.500; -251.000; -173.000
434.937;  -77.900; -569.000; -696.000
435.060;  -41.650; -423.000; -332.000
435.184;  359.475; -492.000; -217.000
435.307;  186.050;  159.000;  102.000
435.431;  -14.600;  -40.000;   24.000
435.554;  -90.700; -399.000; -240.000
435.677;  -74.325; -350.000; -258.000
435.801;  -41.475;  -25.000;   49.000
435.924;  -14.950;    1.000;  -67.000
436.048; -113.450;-1019.000; -732.000
436.171;  -76.475; -240.000;  -66.000
436.294;  -33.075; -248.000; -229.000
436.417;   92.450; -963.000; -849.000
436.541;  -75.475; -814.000; -840.000
436.664;  -54.875; -242.000; -316.000
436.787;  -22.200;   13.000;  113.000
436.910; -120.350; -792.000; -422.000
437.034;    8.925;  142.000;  143.000
437.157;   51.100;  -11.000;    0.000
437.280;  -51.675; -392.000; -292.000
437.403;  -79.675; -982.000; -869.000
437.526;  697.300; -903.000; -865.000
437.649; 2544.625; -505.000; -332.000
437.772;  381.900; -692.000; -540.000
437.896;  117.175;  700.000;  544.000
438.019;  -95.875; -758.000; -503.000
438.142;  -95.750; -596.000; -506.000
438.265;   -2.950; -639.000; -670.000
438.388;  614.175; -520.000; -410.000
438.511;  107.150; -597.000; -394.000
438.634;  -47.850; -247.000; -125.000
438.757; -141.850; -693.000; -619.000
438.880;  -15.300;  -34.000;  -57.000
439.003;  -79.900; -417.000; -437.000
439.126;  -68.800; -287.000; -167.000
439.248;  -57.725;  -98.000; -139.000
439.371;  -55.150;    9.000;  -53.000
439.494;   35.025;  510.000;  439.000
439.617;  -52.275;   65.000;  -88.000
439.740; -182.975; -968.000; -816.000
439.863; -149.850; -755.000; -595.000
439.986; -121.200; -476.000; -431.000
440.108;  -62.450; -161.000; -112.000
440.231; -172.675; -950.000; -836.000
440.354;  -30.600;  -64.000; -150.000
440.477;   44.300; -566.000; -542.000
440.599;    2.175; -200.000; -225.000
440.722; -120.275; -709.000; -586.000
440.845;   60.950;  751.000;  928.000
440.968; -130.200; -415.000; -311.000
441.090;  -72.950; -199.000;  -33.000
441.213; -180.425;-1021.000; -825.000
441.336;  -54.750; -159.000;   -5.000
441.458;  -87.500; -549.000; -396.000
441.581;  -88.150; -628.000; -629.000
441.703;  -82.925; -152.000;   13.000
441.826; -132.700; -557.000; -400.000
441.948;  -44.900;   56.000;   51.000
442.071;    5.000;  555.000;  424.000
442.193; -131.350; -531.000; -485.000
442.316;   21.200;  152.000;   97.000
442.438;   45.750; -233.000;  -10.000
442.561;   66.525;  272.000;  262.000
442.683;  600.000; -809.000; -522.000
442.806; 1301.725;   -8.000;   74.000
442.928;   39.350; -859.000; -604.000
443.051;  -74.200; -577.000; -373.000
443.173; -103.425; -341.000; -339.000
443.295; -100.350; -263.000; -371.000
443.418;  -72.750; -321.000;  -29.000
443.540;  -13.600; -106.000;   -4.000
443.662; -117.500; -563.000; -465.000
443.785;  -17.475;  335.000;  199.000
443.907;  -93.700; -362.000; -208.000
444.029; -136.950; -767.000; -494.000
444.152; -153.625; -644.000; -554.000
444.274;  -40.425;  -18.000;  -24.000
444.396; -110.050; -461.000; -221.000
444.518; -143.750; -691.000; -454.000
444.640; -112.775; -268.000; -111.000
444.763;  -17.925;  388.000;  249.000
444.885; -127.525; -432.000; -392.000
445.007;  -41.700;   35.000;   86.000
445.129; -118.875; -610.000; -515.000
445.251;  -96.375; -372.000; -439.000
445.373; -136.575; -537.000; -386.000
445.495;   -7.425;  242.000;  350.000
445.617;   49.500;  853.000;  753.000
445.739;  -60.050; -215.000;  -97.000
445.861;  -31.675; -245.000; -112.000
445.984;  -42.950; -267.000; -101.000
446.105;  219.725; -418.000; -251.000
446.227;  679.025; -176.000;  -19.000
446.349;   26.825; -358.000; -249.000
446.471;  -94.825; -615.000; -448.000
446.593;  -69.125; -316.000;   19.000
446.715;   -4.500;  -67.000;   41.000
446.837;   56.825;  697.000;  832.000
446.959; -102.575; -457.000; -478.000
447.081; -128.375; -628.000; -518.000
447.203;   60.625;  862.000;  834.000
447.325;  -90.075; -270.000;   42.000
447.446;   -9.125;  286.000;  530.000
447.568; -163.050; -921.000; -803.000
447.690;  -83.375; -236.000; -245.000
447.812; -155.875; -798.000; -519.000
447.933;  -23.850;  155.000;  127.000
448.055;  -76.550; -306.000; -261.000
448.177;  144.350;   31.000;   79.000
448.299;  108.150; -935.000; -727.000
448.420;   15.625;  -25.000;  159.000
448.542;  -32.375;   -3.000;   33.000
448.664;  -28.500;  109.000;  322.000
448.785;  -28.800;  265.000;   83.000
448.907;  -85.850; -614.000; -353.000
449.028;  -34.850; -771.000; -471.000
449.150;   57.850;  492.000;  589.000
449.272; -186.675;-1044.000; -913.000
449.393;   34.225;  612.000;  694.000
449.515; -145.675; -634.000; -581.000
449.636;  -64.700; -264.000; -155.000
449.758;   70.200;  763.000;  622.000
449.879;  -93.950; -498.000; -396.000
450.001;  -82.875; -149.000;  -49.000
450.122;  -35.100;  -95.000;  162.000
450.244;  -34.550;   37.000;  364.000
450.365; -100.500; -495.000; -301.000
450.486;  -41.425;   80.000;  268.000
450.608;   16.000;  393.000;  326.000
450.729;   45.600;  578.000;  645.000
450.850;   -3.825; -574.000; -466.000
450.972;  717.425; -552.000; -389.000
451.093; 4739.025;  190.000;  588.000
451.214; 2039.650; -516.000; -337.000
451.336;  338.950;  773.000;  579.000
451.457;   60.150;  264.000;  393.000
451.578;  -50.225; -118.000;  -74.000
451.699; -129.975; -546.000; -540.000
451.821;  -74.050; -284.000;  -50.000
451.942;  -12.150;  278.000;  285.000
452.063;   21.325;  228.000;  419.000
452.184;  520.250;  -54.000;  -49.000
452.305; 1083.225;  103.000;  170.000
452.427;  127.000; -549.000; -301.000
452.548;  -26.375;   23.000;   79.000
452.669;  -42.900; -257.000;  -89.000
452.790;  -56.500;    3.000;  -18.000
452.911;   -4.025;  195.000;  259.000
453.032;  -71.875; -289.000;  -60.000
453.153;  -44.050;  -29.000;   81.000
453.274;   56.550;  737.000;  868.000
453.395;  -62.625;  -51.000;  175.000
453.516;  117.700; 1317.000; 1388.000
453.637;  -71.500; -205.000; -150.000
453.758;  -54.525;   15.000;   69.000
453.879; -135.750; -462.000; -250.000
454.000;   82.825; 1086.000;  948.000
454.121; -107.350; -554.000; -326.000
454.242; -131.025; -599.000; -383.000
454.362;  -62.700;  -99.000;  114.000
454.483;  -41.100; -309.000; -229.000
454.604;   66.250;  512.000;  580.000
454.725; -129.250; -627.000; -555.000
454.846; -130.375; -474.000; -406.000
454.967;  -39.075;  230.000;  539.000
455.087;  -50.050;  179.000;  153.000
455.208;   23.075;  554.000;  856.000
455.329;  -55.750;  -22.000;   82.000
455.450;   12.600;  473.000;  633.000
455.570;  -84.225; -234.000; -211.000
455.691;  -50.675;  201.000;  407.000
455.812; -120.325; -270.000;  -92.000
455.932;  -87.725;  107.000;  -97.000
456.053;  -94.625;   36.000;   24.000
456.173; -119.100; -433.000; -355.000
456.294; -138.675; -476.000; -303.000
456.415;  -63.650;  -73.000;   70.000
456.535;  -39.075;  297.000;  273.000
456.656;  -40.825;  132.000;  240.000
456.776;  -70.200;    3.000;  298.000
456.897;   -8.575;  308.000;  513.000
457.017;  -83.700; -153.000;   -3.000
457.138; -112.850; -402.000; -249.000
457.258;  -25.850;  263.000;  224.000
457.379;  -20.350;  509.000;  521.000
457.499;  -48.650;  443.000;  432.000
457.620; -122.725; -407.000; -231.000
457.740; -110.425; -132.000;  -11.000
457.860;  -54.600;   87.000;   44.000
457.981;  -48.050;  132.000;  124.000
458.101;  -79.050;  -89.000;   40.000
458.221;  -24.725;  336.000;  402.000
458.342;  -59.575;   -4.000;  -37.000
458.462;   16.800;  617.000;  352.000
458.582;  -54.250; -302.000; -294.000
458.703;    2.825;  303.000;  154.000
458.823;  -26.125;   22.000;  163.000
458.943;    9.625;  341.000;  467.000
459.063;  -25.825; 1124.000;  192.000
459.183;  -39.400;  328.000;  313.000
459.304;    2.000;  315.000;  517.000
459.424;  -69.925; -246.000;  -89.000
459.544;  315.800;  388.000;  764.000
459.664;  807.550;  499.000;  506.000
459.784;  294.850; 1004.000; 1175.000
459.904;   49.700;  867.000;  744.000
460.024;   64.550;  867.000;  684.000
460.144;    6.125;  449.000;  554.000
460.264;  -21.825;  515.000;  327.000
460.385; -113.000; -145.000; -119.000
460.505;   32.150;  905.000;  858.000
460.625; -109.100;  -17.000;  -68.000
460.745;  -32.475;  396.000;  541.000
460.864;  -58.200;  153.000;  469.000
460.984;    8.575;  499.000;  573.000
461.104;  126.625; 1656.000; 1775.000
461.224;   15.975;  657.000;  650.000
461.344;  -42.825;  431.000;  360.000
461.464;  -32.825;  258.000;  513.000
461.584;  -14.950;  283.000;  466.000
461.704;  -40.350;   58.000;  108.000
461.824;  -61.400;  238.000;  259.000
461.943;  -49.725;  191.000;  130.000
462.063;  -75.525;    2.000;  324.000
462.183;   12.950;  639.000;  717.000
462.303;   84.975; 1678.000; 1230.000
462.422;   18.375;  781.000;  840.000
462.542;  -47.625;  271.000;  391.000
462.662;   34.000;  353.000;  380.000
462.782;  230.950;  833.000;  572.000
462.901;  462.075;  545.000;  717.000
463.021;  282.075; 1702.000; 1638.000
463.141;   -9.975;  337.000;  770.000
463.260;  -18.300;  614.000;  474.000
463.380;    8.075;  902.000;  884.000
463.499;  -39.925;  342.000;  332.000
463.619;  -34.475;  581.000;  559.000
463.738;  114.025; 1644.000;  903.000
463.858;   15.725;  657.000;  811.000
463.978;  -44.975;  542.000;  396.000
464.097;   45.850;  921.000; 1114.000
464.217;  120.900; 1196.000; 1143.000
464.336;  122.875; 1068.000; 1130.000
464.455;  -34.450;  328.000;  659.000
464.575;   48.925;  597.000;  602.000
464.694;  174.000; 1204.000; 1179.000
464.814;  117.300; 1190.000; 1138.000
464.933;   67.475; 1095.000; 1027.000
465.052;   92.600; 1412.000; 1054.000
465.172;   87.100;  922.000;  799.000
465.291;  128.375; 1376.000; 1320.000
465.410;    1.850;  462.000;  735.000
465.530;   93.600; 1355.000; 1310.000
465.649;   58.900; 1209.000; 1273.000
465.768;  127.475; 1673.000; 1508.000
465.888;   42.800;  941.000; 1174.000
466.007;   96.200; 1335.000; 1440.000
466.126;   -7.125;  721.000;  641.000
466.245;   60.175; 1176.000; 1187.000
466.364;   14.575;  950.000; 1060.000
466.484;   58.200; 1024.000; 1213.000
466.603;   28.825; 1101.000; 1222.000
466.722;  120.175; 1490.000; 1769.000
466.841;   77.300; 1151.000; 1401.000
466.960;   40.500; 1069.000;  972.000
467.079;  133.575; 1971.000; 1786.000
467.198;   52.475; 1238.000; 1181.000
467.317;   82.400; 1768.000; 1162.000
467.436;   60.600; 1709.000; 1261.000
467.555;  133.975; 1796.000; 1746.000
467.674;   61.250; 1227.000; 1329.000
467.793;   57.375; 1376.000; 1374.000
467.912;   90.800; 1658.000; 1539.000
468.031;  140.275; 2038.000; 1930.000
468.150;  145.550; 1842.000; 1837.000
468.269;  201.150; 2313.000; 2090.000
468.388;  188.025; 2168.000; 2339.000
468.507;  243.375; 2884.000; 2903.000
468.626;  219.500; 2555.000; 2541.000
468.744;  133.675; 2018.000; 2174.000
468.863;  172.775; 2312.000; 2523.000
468.982;   84.100; 1503.000; 1555.000
469.101;  225.725; 2788.000; 2692.000
469.220;  147.775; 2333.000; 2176.000
469.338;  243.500; 2935.000; 3051.000
469.457;  196.375; 2719.000; 2545.000
469.576;  355.075; 3953.000; 3784.000
469.695;  231.625; 2877.000; 3066.000
469.813;  411.325; 4148.000; 4192.000
469.932;  431.875; 4255.000; 4485.000
470.051;  401.475; 4075.000; 4161.000
470.169;  833.125; 4470.000; 4338.000
470.288; 1440.650; 4700.000; 4809.000
470.406;  833.100; 5059.000; 5194.000
470.525;  617.825; 6101.000; 5787.000
470.644;  634.200; 6847.000; 6794.000
470.762;  821.425; 8397.000; 7873.000
470.881;  897.575; 8651.000; 8464.000
470.999; 1023.950; 9685.000; 9151.000
471.118; 1116.400;11174.000;10711.000

