
Integration time [ms]: 100.000
Averaging Nr. [scans]: 40
Smoothing Nr. [pixels]: 0
Data measured with spectrometer [name]: 2101012U2
Wave   ;Sample   ;Dark     ;Reference
[nm]   ;[counts] ;[counts] ;[counts] 

197.733;   51.650;  516.000;  404.000
197.879;  -82.075; -610.000; -634.000
198.025;  -41.075; -475.000; -420.000
198.171;  -75.875; -602.000; -612.000
198.317;  -17.075; -401.000; -316.000
198.463;  -69.000; -655.000; -404.000
198.609;   37.175;  181.000; -137.000
198.755;  -63.850; -644.000; -410.000
198.901;  -46.900; -505.000; -424.000
199.047;  -60.325; -615.000; -488.000
199.193;  -40.675; -230.000; -468.000
199.339;  -40.875; -222.000; -369.000
199.485;   53.225;  330.000;  271.000
199.631;   16.675;  227.000;  310.000
199.777;  -39.150; -466.000; -398.000
199.923;  -61.775; -610.000; -424.000
200.069;   -0.275; -141.000;  -58.000
200.215;   39.875;  128.000;  453.000
200.361;   57.825;  243.000;  477.000
200.507;  -58.600; -600.000; -373.000
200.653;  -21.075; -371.000; -194.000
200.798;  -44.425; -215.000; -125.000
200.944;    6.475; -146.000;  -41.000
201.090;   33.175;   61.000;  222.000
201.236;    4.025; -116.000; -158.000
201.382;  114.650;  874.000;  903.000
201.528;    2.450;  -58.000;  -48.000
201.674;  -65.600; -386.000; -293.000
201.819;  -56.250; -540.000; -439.000
201.965;  -82.400; -699.000; -447.000
202.111;  -22.650; -273.000; -226.000
202.257;  -45.225; -250.000; -238.000
202.402;    7.975;   13.000;  -36.000
202.548;  -26.550; -169.000; -116.000
202.694;   84.050;  410.000; -183.000
202.840;  -69.925; -603.000; -531.000
202.985;  -63.275; -681.000; -639.000
203.131; -100.225; -832.000; -666.000
203.277;  -13.900; -199.000; -262.000
203.423;  -62.300; -434.000; -520.000
203.568;  -25.200; -462.000; -237.000
203.714;  -73.450; -535.000; -542.000
203.860;  -82.850; -682.000; -641.000
204.005;   14.775;  112.000;  167.000
204.151;   76.125;  561.000;  556.000
204.296;  -49.825; -354.000; -221.000
204.442;  -59.300; -600.000; -547.000
204.588;  -77.700; -592.000; -579.000
204.733;   25.375;  178.000;  168.000
204.879; -130.200;-1018.000; -822.000
205.025;   20.900;  -99.000;  126.000
205.170;   -1.675;  -17.000;   94.000
205.316;   88.550;  438.000;  661.000
205.461;  -79.800; -698.000; -554.000
205.607;   67.625;  609.000;  665.000
205.752;  -69.175; -626.000; -551.000
205.898;  -48.425; -501.000; -391.000
206.043;  -58.125; -578.000; -506.000
206.189;  -33.725; -243.000; -285.000
206.334;   75.200;  554.000;  606.000
206.480;   68.325;  409.000;  239.000
206.625;  -78.250; -529.000; -552.000
206.771;  -38.525; -451.000; -373.000
206.916;  -38.375; -210.000; -537.000
207.062;  -54.900; -545.000; -591.000
207.207;  -50.200; -546.000; -443.000
207.353;   62.275;  185.000;  460.000
207.498;   11.000;  196.000;   85.000
207.643;  -36.075; -501.000; -370.000
207.789; -130.400;-1069.000; -910.000
207.934;  -79.850; -665.000; -713.000
208.080;  -29.575; -154.000;   66.000
208.225;    0.550;  -22.000;  -57.000
208.370;  -81.525; -727.000; -619.000
208.516;  -79.250; -741.000; -487.000
208.661;  -26.275; -127.000;  -69.000
208.806;  -19.750; -165.000; -171.000
208.952; -108.400;-1044.000; -731.000
209.097;   73.075;  378.000;  349.000
209.242;  -60.175; -307.000; -382.000
209.387;   82.450;  392.000;  350.000
209.533;  -57.950; -321.000; -350.000
209.678;   81.850;  472.000;  543.000
209.823;  -50.350; -408.000; -310.000
209.969;  -85.875; -860.000; -757.000
210.114; -110.675; -907.000; -719.000
210.259; -103.000; -939.000; -889.000
210.404;  -13.450; -171.000;  103.000
210.549;   16.200;  108.000;    3.000
210.695;  -26.925;   -3.000;  -95.000
210.840;   27.725;   94.000;   67.000
210.985;  -69.200; -484.000; -303.000
211.130;   62.500;  268.000;  406.000
211.275;    5.775;  207.000;  199.000
211.420;  -37.950; -300.000; -289.000
211.566;  -67.200; -536.000; -489.000
211.711;   23.425;  218.000;  157.000
211.856;  -77.500; -545.000; -519.000
212.001;   17.725;  151.000;   44.000
212.146;   11.025;  153.000;   49.000
212.291;  -23.000; -210.000; -186.000
212.436;  -26.200; -280.000;   -6.000
212.581;  -70.000; -685.000; -653.000
212.726;  -81.000; -487.000; -538.000
212.871;  -37.675; -552.000; -217.000
213.016; -154.175;-1172.000;-1029.000
213.161;   65.025;  406.000;  291.000
213.306;  -63.000; -435.000; -577.000
213.451;  -91.250; -778.000; -689.000
213.596;  -35.200; -455.000; -347.000
213.741;  -52.425; -448.000; -538.000
213.886;  -85.800; -498.000; -517.000
214.031;  -19.525; -294.000; -124.000
214.176;  -65.175; -408.000; -341.000
214.321;   -9.175; -296.000; -157.000
214.466;  -28.725; -163.000;  -43.000
214.611;   -1.100;  -61.000;  -10.000
214.756; -116.375; -948.000; -858.000
214.901;  -27.900; -388.000; -226.000
215.046; -110.375; -797.000; -825.000
215.191;   11.875;  128.000;   35.000
215.336;  -17.275; -157.000;  -19.000
215.480;  -56.750; -684.000; -505.000
215.625;  -15.750; -175.000;  -19.000
215.770;  -85.725; -757.000; -662.000
215.915;   -7.025;   -5.000;  -97.000
216.060;    7.025; -113.000;  -21.000
216.205; -121.350; -731.000; -779.000
216.349;  -71.575; -470.000; -533.000
216.494; -124.450; -939.000; -867.000
216.639; -124.275; -823.000; -888.000
216.784;  -84.950; -577.000; -525.000
216.929;   49.475;  392.000;  281.000
217.073;  -18.525; -244.000;  -31.000
217.218;   15.475;   78.000;  -47.000
217.363;  -89.975; -656.000; -618.000
217.507;  -77.025; -623.000; -588.000
217.652; -122.575; -845.000; -874.000
217.797;  -83.375; -708.000; -659.000
217.942; -113.325; -856.000; -720.000
218.086;   67.275;  608.000;  539.000
218.231;  -30.400; -174.000;  -26.000
218.376;  -36.850; -337.000; -229.000
218.520;  -11.450;  -41.000;   96.000
218.665;  -37.625; -338.000; -204.000
218.810;  -51.100; -275.000; -233.000
218.954;   21.400;  201.000;   35.000
219.099;  -97.550; -713.000; -963.000
219.243;  -58.325; -589.000; -554.000
219.388;  -25.550; -264.000; -136.000
219.532;    8.750; -116.000; -116.000
219.677;  -75.900; -564.000; -521.000
219.822;    2.875;   33.000;   89.000
219.966;   -1.350;   17.000;  -99.000
220.111;  -42.325; -328.000;  -40.000
220.255;  -82.175; -797.000; -750.000
220.400;  -17.325; -180.000; -146.000
220.544;  -74.125; -516.000; -450.000
220.689;  -56.450; -422.000; -451.000
220.833;  -22.375; -123.000;  -58.000
220.978;  -46.300; -393.000; -563.000
221.122;   16.075;  319.000;  307.000
221.267; -101.000; -906.000; -837.000
221.411;  -66.050; -478.000; -394.000
221.555;    0.475; -104.000;  -23.000
221.700;  -51.900; -329.000; -222.000
221.844;   37.475;  255.000;  272.000
221.989;  -54.025; -328.000; -311.000
222.133;  -33.200; -289.000; -307.000
222.277;  -13.800;    5.000;   78.000
222.422;   12.025;  227.000;  113.000
222.566;  -42.225; -381.000; -214.000
222.711;  -42.800; -414.000; -479.000
222.855;  -68.900; -643.000; -586.000
222.999;  -76.825; -642.000; -717.000
223.144;  -37.625; -195.000; -194.000
223.288;   55.825;  423.000;  251.000
223.432;   11.375;  184.000;  230.000
223.576;   18.025;  152.000;  -21.000
223.721;   23.225;  364.000;  273.000
223.865;  -57.875; -472.000; -475.000
224.009;  242.925; 1673.000; 1631.000
224.153;  -90.125; -660.000; -671.000
224.298;  -61.400; -531.000; -489.000
224.442;  -15.175;  -74.000;  -33.000
224.586;  -19.775; -169.000; -106.000
224.730;  -87.150; -858.000; -670.000
224.875; -110.625; -739.000; -688.000
225.019;   18.325;  102.000;  188.000
225.163;   38.925;  208.000;  341.000
225.307;    0.550;   97.000;  -91.000
225.451;   41.250;  360.000;  481.000
225.595;   32.000;  264.000;  176.000
225.739;  -17.250; -170.000;  -94.000
225.884;   12.800;   86.000;    5.000
226.028;  -93.650; -760.000; -626.000
226.172;  -26.000; -260.000; -273.000
226.316; -111.300; -941.000; -902.000
226.460;  -59.875; -645.000; -493.000
226.604;  -57.425; -406.000; -400.000
226.748;  -91.300; -836.000; -733.000
226.892;  -39.475; -227.000; -181.000
227.036;  -45.250; -537.000; -447.000
227.180;  -77.675; -551.000; -375.000
227.324;  -69.000; -561.000; -580.000
227.468; -105.350; -819.000; -717.000
227.612;    9.900;  242.000;  -28.000
227.756;  -90.375; -845.000; -698.000
227.900;   58.950;  342.000;  441.000
228.044;  -58.075; -509.000; -290.000
228.188;   51.050;  448.000;  568.000
228.332;  -85.900; -546.000; -472.000
228.476;  -31.875; -223.000; -149.000
228.620;  -32.050; -210.000; -150.000
228.764;   56.325;  431.000;  349.000
228.908;  -30.325; -155.000;   30.000
229.052;  -54.150; -615.000; -528.000
229.195;  -29.075; -172.000;   13.000
229.339;  -18.950; -235.000; -305.000
229.483;  -35.275;    5.000; -162.000
229.627;    7.525; -156.000;  139.000
229.771;  -49.350; -218.000; -294.000
229.915;    5.500;  230.000;   79.000
230.059;  -94.225; -648.000; -663.000
230.202;  -46.425; -370.000; -317.000
230.346;  -10.650; -107.000;  107.000
230.490;  -61.525; -489.000; -521.000
230.634; -106.675; -736.000; -553.000
230.777;   67.825;  478.000;  509.000
230.921;  -52.050; -450.000; -359.000
231.065;  -42.650; -246.000; -286.000
231.209;   14.200;  261.000;  265.000
231.352;   32.075;   54.000;   40.000
231.496;   16.225;  568.000;  188.000
231.640;  -72.700; -693.000; -621.000
231.783;   65.225;  546.000;  525.000
231.927;  -52.625; -294.000; -365.000
232.071; -118.175; -962.000; -736.000
232.214; -105.400; -980.000; -764.000
232.358; -103.825; -683.000; -599.000
232.502;    0.325;  -19.000;    7.000
232.645; -140.500;-1090.000; -927.000
232.789;   -8.300; -257.000; -218.000
232.933;  -39.775; -407.000; -224.000
233.076; -130.075;-1038.000; -897.000
233.220; -101.325; -752.000; -777.000
233.363;  -73.725; -669.000; -477.000
233.507;   44.025;  371.000;  129.000
233.650;  -89.900; -764.000; -834.000
233.794;   47.475;  438.000;  461.000
233.938;  -60.075; -530.000; -362.000
234.081;  -29.250;  -93.000;   31.000
234.225;  -60.625; -631.000; -539.000
234.368; -114.450; -773.000; -723.000
234.512;  -37.175; -385.000; -299.000
234.655; -100.900; -582.000; -555.000
234.798;  -47.600; -493.000; -466.000
234.942; -120.475; -884.000;-1002.000
235.085;  -68.450; -651.000; -443.000
235.229;  -75.450; -405.000; -410.000
235.372;  -42.125; -247.000; -191.000
235.516;  -58.175; -397.000; -321.000
235.659;   26.550;   92.000;  121.000
235.802;  -18.475;  -38.000;  -22.000
235.946;   21.975;  335.000;  215.000
236.089;   27.925;  126.000;  250.000
236.233;   46.125;  275.000;  298.000
236.376;  -54.600; -235.000; -378.000
236.519;  -44.400; -297.000; -319.000
236.663;  -28.175; -215.000; -117.000
236.806; -129.175;-1029.000; -999.000
236.949;   57.575;  543.000;  431.000
237.092;   47.400;  412.000;  391.000
237.236;  -84.775; -589.000; -502.000
237.379;   67.550;  352.000;  428.000
237.522; -104.850; -879.000; -768.000
237.666;  -11.125; -271.000;   18.000
237.809; -125.200; -851.000; -823.000
237.952;   39.300;  469.000;  271.000
238.095;  -68.875; -447.000; -442.000
238.238;   90.700;  688.000;  700.000
238.382;   -6.225;  166.000;  103.000
238.525;  -65.400; -598.000; -511.000
238.668; -133.200;-1060.000; -985.000
238.811;  -83.400; -638.000; -643.000
238.954;  -65.525; -483.000; -334.000
239.097;   80.400;  617.000;  664.000
239.241;   11.850;  394.000;  326.000
239.384;  -26.550; -254.000; -214.000
239.527;  -60.150; -424.000; -224.000
239.670; -130.775; -994.000;-1091.000
239.813; -115.675; -696.000; -658.000
239.956;   68.325;  579.000;  473.000
240.099; -108.250; -778.000; -725.000
240.242;   54.975;  428.000;  432.000
240.385;   38.225;  466.000;  450.000
240.528;  -66.475; -706.000; -473.000
240.671;   15.175;  189.000;  134.000
240.814;  -50.450; -441.000; -158.000
240.957; -113.475; -767.000; -578.000
241.100;  -82.400; -779.000; -755.000
241.243; -148.075;-1234.000; -893.000
241.386;  -65.700; -508.000; -379.000
241.529;  -89.050; -735.000; -547.000
241.672;  -67.075; -566.000; -495.000
241.815; -113.275; -832.000; -808.000
241.958;  -13.525; -125.000; -182.000
242.101;  -64.950; -545.000; -390.000
242.244;  -24.150; -270.000; -325.000
242.387;  -35.825; -304.000; -246.000
242.530;   48.725;  470.000;  134.000
242.673;  -43.625; -381.000; -309.000
242.815; -107.225; -925.000; -899.000
242.958;  -55.850; -482.000; -381.000
243.101;   14.475;  132.000;  187.000
243.244;  -87.350; -564.000; -521.000
243.387;  -38.150; -313.000; -316.000
243.530;  -97.025; -657.000; -674.000
243.672;    7.275;   43.000;  -92.000
243.815;  -54.825; -355.000; -283.000
243.958;   16.375;   98.000;  -26.000
244.101;   -0.275;   59.000;  -16.000
244.243;   -6.375;  -47.000;  101.000
244.386; -109.550; -761.000; -630.000
244.529;  -26.275; -132.000; -139.000
244.672; -150.025;-1154.000; -951.000
244.814;  -90.200; -621.000; -794.000
244.957;  -35.600; -380.000; -304.000
245.100;  -76.725; -489.000; -489.000
245.242;  -65.500; -387.000; -374.000
245.385;   -8.575;  -59.000;  -39.000
245.528; -111.875; -871.000; -705.000
245.670;   87.975;  612.000;  634.000
245.813;  -90.800; -599.000; -547.000
245.956;  -37.700; -324.000; -275.000
246.098;  -84.100; -508.000; -650.000
246.241;    1.550;  194.000;   48.000
246.383;  -26.050; -119.000;  -73.000
246.526;  -70.150; -454.000; -525.000
246.669; -117.725; -889.000; -780.000
246.811;   17.775;  172.000;   -1.000
246.954;  -62.850; -512.000; -426.000
247.096;  -26.100;  -84.000;   -6.000
247.239;  -60.175; -482.000; -445.000
247.381;  -69.800; -647.000; -488.000
247.524;   65.350;  645.000;  679.000
247.666;    0.800;   58.000;   11.000
247.809; -119.325; -887.000; -691.000
247.951;   -4.800;  -75.000;  138.000
248.094;   17.600;  432.000;  308.000
248.236; -150.300;-1262.000;-1238.000
248.378;  -26.575; -356.000;  -81.000
248.521;  -33.075; -334.000; -337.000
248.663;  -53.325; -236.000; -267.000
248.806;  -22.825; -300.000; -266.000
248.948; -110.100; -886.000; -763.000
249.090;  -53.425; -428.000; -398.000
249.233;  -57.800; -344.000; -381.000
249.375;  -62.450; -474.000; -451.000
249.518;  -24.275;  -83.000; -133.000
249.660;  -21.100; -103.000;    3.000
249.802; -165.750;-1303.000;-1189.000
249.945;  -68.275; -612.000; -540.000
250.087; -125.825; -834.000; -768.000
250.229;  -43.725; -362.000; -480.000
250.371;  -77.525; -494.000; -439.000
250.514;  -45.100; -310.000; -244.000
250.656;  -60.125;   69.000;  102.000
250.798; -114.975; -849.000; -800.000
250.940;  -56.150; -322.000; -322.000
251.083;  -25.550; -335.000; -111.000
251.225;   41.225;  338.000;  310.000
251.367;  -43.225; -274.000; -373.000
251.509;  -34.650; -265.000; -210.000
251.651;  -89.275; -731.000; -671.000
251.794;   35.650;  538.000;  632.000
251.936;  -96.000; -821.000; -747.000
252.078;  -78.100; -540.000; -461.000
252.220;  -60.300; -645.000; -477.000
252.362;   47.100;  344.000;  462.000
252.504;  -73.150; -677.000; -584.000
252.646; -118.775; -875.000; -722.000
252.788;   -7.450;   14.000; -128.000
252.931;  -50.075; -257.000; -253.000
253.073;  -38.800; -376.000; -317.000
253.215;  -18.700;  141.000;  122.000
253.357;  -10.075;   82.000; -153.000
253.499;  -62.275; -374.000; -234.000
253.641;  -84.525; -749.000; -594.000
253.783;  -89.325; -609.000; -527.000
253.925;  -80.550; -586.000; -591.000
254.067; -114.275; -744.000; -667.000
254.209;  -38.525; -391.000; -259.000
254.351; -128.875; -865.000; -883.000
254.493;  -64.075; -441.000; -417.000
254.635; -126.675; -936.000; -818.000
254.777;  -78.700; -752.000; -687.000
254.918;  -61.450; -512.000; -430.000
255.060;  -63.400; -551.000; -395.000
255.202;  -58.450; -473.000; -261.000
255.344;  -70.100; -658.000; -455.000
255.486;  -68.975; -471.000; -406.000
255.628; -100.600; -780.000; -781.000
255.770;  -95.400; -676.000; -536.000
255.912;  -59.200; -559.000; -468.000
256.053;  -85.200; -730.000; -508.000
256.195;  136.425; 1008.000;  903.000
256.337; -104.525; -861.000; -595.000
256.479;   63.800;  532.000;  416.000
256.621;  -57.900; -394.000; -212.000
256.762;  -87.675; -789.000; -742.000
256.904;   44.375;  485.000;  487.000
257.046;  -40.875; -381.000; -271.000
257.188;  -39.025; -351.000; -264.000
257.329;  -73.850; -525.000; -464.000
257.471; -120.900; -939.000; -807.000
257.613;  -62.250; -584.000; -498.000
257.755; -143.775;-1073.000; -982.000
257.896;   34.775;  286.000;  392.000
258.038;  -80.650; -403.000; -352.000
258.180;  -31.775; -354.000; -279.000
258.321;  -81.125; -581.000; -457.000
258.463;  -23.050;  -71.000;  133.000
258.605;  -91.300; -562.000; -570.000
258.746; -103.400; -886.000; -772.000
258.888; -145.125;-1026.000;-1020.000
259.029;   14.675;  121.000;   -8.000
259.171;  -87.625; -614.000; -550.000
259.313;   -0.125;  -49.000;  -47.000
259.454;  -81.550; -536.000; -414.000
259.596;  -55.600; -483.000; -390.000
259.737;  -80.150; -590.000; -474.000
259.879;   28.000;  217.000;  311.000
260.020;   69.000;  901.000;  636.000
260.162;  -22.975; -146.000; -253.000
260.303; -113.875; -768.000; -687.000
260.445;  -86.825; -609.000; -613.000
260.586;   18.350;  392.000;  157.000
260.728;  -52.075; -360.000; -248.000
260.869;  -73.650; -350.000; -343.000
261.011;   82.075;  706.000;  537.000
261.152;  -56.375; -479.000; -319.000
261.293;  -78.350; -576.000; -595.000
261.435;  -20.625; -219.000; -184.000
261.576;  -40.750; -455.000; -325.000
261.718;   42.300;  420.000;  470.000
261.859; -111.675; -940.000; -949.000
262.000; -132.700; -951.000;-1016.000
262.142;  -12.325;  -52.000;  -60.000
262.283; -107.000; -808.000; -691.000
262.424;  -72.450; -666.000; -625.000
262.566; -148.300;-1161.000; -983.000
262.707; -119.475; -840.000; -830.000
262.848; -113.950; -769.000; -726.000
262.990;  -51.050; -362.000; -345.000
263.131;   79.725;  650.000;  681.000
263.272;   -2.575;  -61.000;  -41.000
263.413;  -98.550; -589.000; -561.000
263.555;  -54.325; -669.000; -143.000
263.696;  -78.700; -550.000; -641.000
263.837;  -51.800; -449.000; -551.000
263.978;  -14.500;   -5.000;  -77.000
264.119;  -40.325; -283.000; -264.000
264.261; -103.875; -847.000; -630.000
264.402;  -11.700;   33.000;   40.000
264.543;  -65.175; -509.000; -524.000
264.684;    1.125;   61.000;  -50.000
264.825;  -97.575; -816.000; -538.000
264.966;   -5.150;  -84.000;  -67.000
265.107; -107.725; -646.000; -670.000
265.248; -119.125; -825.000; -812.000
265.390;   -5.000;  152.000;   -9.000
265.531;  -26.200; -238.000; -107.000
265.672;  -77.400; -557.000; -630.000
265.813;   64.825;  563.000;  439.000
265.954; -136.275; -959.000; -940.000
266.095;   -9.350; -372.000; -322.000
266.236;  -96.025; -686.000; -548.000
266.377;  -54.625; -243.000; -297.000
266.518;  -78.025; -619.000; -547.000
266.659;   10.800;  170.000;  268.000
266.800;   -4.200;   83.000;   85.000
266.941;  -74.650; -487.000; -478.000
267.082;   10.150;  354.000;   99.000
267.223;  -37.075; -344.000; -273.000
267.364; -114.700; -892.000; -686.000
267.504;  -11.250;    3.000;  135.000
267.645;  -10.075;  160.000;   67.000
267.786;  -31.650; -147.000;  -86.000
267.927;  -62.500; -473.000; -379.000
268.068;  -14.175; -186.000;  -61.000
268.209;  -53.775; -175.000; -413.000
268.350;  -50.300; -388.000; -532.000
268.490;  -73.925; -648.000; -521.000
268.631;   23.275;  127.000;  225.000
268.772; -109.000; -874.000; -647.000
268.913;  -47.175; -328.000; -476.000
269.054;  -20.100; -117.000;   12.000
269.194;  -30.550; -418.000; -402.000
269.335; -155.075;-1137.000;-1074.000
269.476;  -11.450;   33.000;  -35.000
269.617;  -47.800; -347.000; -392.000
269.757;  -77.725; -713.000; -646.000
269.898; -118.300; -856.000; -613.000
270.039;  -62.875; -415.000; -405.000
270.180; -129.075; -952.000; -816.000
270.320;  -20.925; -190.000; -250.000
270.461;  -39.275; -277.000; -249.000
270.602;  -22.850; -186.000; -156.000
270.742; -113.325; -868.000; -943.000
270.883;  -61.000; -442.000; -390.000
271.023;  -66.625; -358.000; -357.000
271.164;  -63.350; -607.000; -528.000
271.305; -103.150; -666.000; -654.000
271.445;  -90.200; -722.000; -683.000
271.586;  -70.925; -462.000; -283.000
271.726;  -34.900; -397.000; -322.000
271.867;  -66.925; -594.000; -534.000
272.008;   57.650; -473.000; -285.000
272.148;   76.800;  462.000;  468.000
272.289;   -2.000; -113.000; -181.000
272.429;    6.175;   19.000;  185.000
272.570;  -95.250; -633.000; -737.000
272.710; -101.475; -825.000; -775.000
272.851;  -21.950;  113.000; -130.000
272.991; -158.425;-1173.000;-1077.000
273.131;  -65.575; -419.000; -459.000
273.272;  -92.325; -683.000; -723.000
273.412;  -14.525; -143.000;  -31.000
273.553;  -71.925; -488.000; -507.000
273.693;  116.375;  913.000;  858.000
273.834; -111.175; -894.000; -692.000
273.974;  -55.675; -664.000; -615.000
274.114;  -94.350; -772.000; -560.000
274.255;   66.175;  414.000;  373.000
274.395;  -11.175; -180.000; -125.000
274.535;   25.375;  199.000;  350.000
274.676;   10.950;  225.000;   94.000
274.816;    0.900;  110.000;   34.000
274.956;  -88.700; -624.000; -690.000
275.097;  -88.525;-1014.000; -922.000
275.237; -116.775; -913.000; -803.000
275.377; -105.925; -778.000; -689.000
275.517; -143.300; -878.000; -937.000
275.658;  -63.250; -590.000; -555.000
275.798;  -75.350; -606.000; -413.000
275.938;   33.025;  215.000;  323.000
276.078;  -88.550; -626.000; -395.000
276.218;   -0.800;   99.000;  104.000
276.359; -127.050;-1026.000;-1024.000
276.499;  -76.000; -605.000; -446.000
276.639;  -28.975; -305.000; -151.000
276.779;  -49.350; -475.000; -357.000
276.919; -103.325; -783.000; -624.000
277.059;  -22.800; -261.000; -212.000
277.199;  -56.600; -357.000; -259.000
277.340;   40.250;  287.000;  175.000
277.480; -110.625; -840.000; -693.000
277.620;   21.275;  192.000;   16.000
277.760; -190.100;-1533.000;-1294.000
277.900;    4.775;  113.000;   33.000
278.040;    6.450;  137.000;  159.000
278.180;   37.675;  270.000;  170.000
278.320;   -2.650;   21.000;   56.000
278.460;  -68.775; -443.000; -469.000
278.600;  -80.100; -708.000; -598.000
278.740;   38.425;  448.000;  224.000
278.880;  -98.000; -768.000; -791.000
279.020;  -40.575; -194.000; -144.000
279.160;  -83.825; -672.000; -595.000
279.300; -111.150; -926.000; -873.000
279.440;  -90.650; -709.000; -622.000
279.579;  -71.600;-1014.000; -929.000
279.719;  -56.200; -410.000; -394.000
279.859;   40.050;   -4.000;   41.000
279.999;   -9.500; -208.000;  101.000
280.139;  -33.325; -435.000; -387.000
280.279;  -99.225; -708.000; -745.000
280.419;   -7.225; -229.000; -147.000
280.559;  -42.700; -259.000; -180.000
280.698;  -87.075; -790.000; -639.000
280.838; -106.425; -778.000; -800.000
280.978;  -93.650; -846.000; -790.000
281.118; -105.900; -811.000; -704.000
281.257;   18.275;   24.000;    6.000
281.397; -143.700;-1094.000; -960.000
281.537;  -91.675; -599.000; -712.000
281.677;  -15.850; -150.000; -101.000
281.816;  -77.975; -700.000; -630.000
281.956;  -23.850; -193.000; -257.000
282.096;  -53.825; -539.000; -396.000
282.235; -103.275; -672.000; -638.000
282.375;  -16.450; -243.000;  -98.000
282.515;  -89.900; -715.000; -707.000
282.654;   12.975;   29.000;  106.000
282.794;   26.725;  388.000;  244.000
282.934;  -40.750; -530.000; -491.000
283.073; -127.775;-1030.000; -857.000
283.213;  -41.325; -460.000; -467.000
283.353;  -48.800; -408.000; -349.000
283.492;  -17.925; -264.000; -296.000
283.632;  -44.800; -254.000; -168.000
283.771;  -87.200; -859.000; -730.000
283.911;  -37.675; -369.000; -260.000
284.050;  -96.250; -794.000; -748.000
284.190; -146.800;-1229.000;-1096.000
284.329; -129.300;-1055.000; -964.000
284.469;  -82.975; -516.000; -591.000
284.608;  -60.825; -559.000; -598.000
284.748;  -82.600; -614.000; -570.000
284.887;    4.225;  -87.000;  -20.000
285.027; -121.000; -844.000; -892.000
285.166;  -30.725; -192.000; -249.000
285.306;   -1.275; -116.000;  -33.000
285.445;  -31.100; -229.000; -343.000
285.584;  -87.700; -630.000; -494.000
285.724;  -46.500; -282.000; -322.000
285.863; -103.850; -857.000; -507.000
286.002;  -49.450; -366.000; -276.000
286.142; -104.375; -715.000; -622.000
286.281;  -53.750; -525.000; -493.000
286.420;  -81.825; -554.000; -417.000
286.560;   93.850;  653.000;  623.000
286.699; -126.000; -958.000; -912.000
286.838;  -78.750; -590.000; -591.000
286.978;  -84.125; -533.000; -537.000
287.117; -129.550;-1085.000; -950.000
287.256;  -34.625; -228.000; -211.000
287.395;  -44.525; -197.000; -378.000
287.535;  -55.150; -370.000; -298.000
287.674;  -70.525; -509.000; -484.000
287.813;   60.975;  661.000;  533.000
287.952; -119.150;-1010.000; -871.000
288.091; -145.150;-1049.000; -915.000
288.231;    7.225;   13.000;   15.000
288.370; -170.175;-1217.000;-1200.000
288.509;  -84.450; -728.000; -645.000
288.648;  -87.450; -770.000; -548.000
288.787;  -12.375; -243.000;  -87.000
288.926;  -70.275; -454.000; -475.000
289.065;   97.400;  859.000;  672.000
289.204;  -40.400; -377.000; -217.000
289.344;  -83.650; -791.000; -690.000
289.483;    9.100;  416.000;  304.000
289.622;  -24.875; -291.000; -149.000
289.761;  -11.625; -309.000; -166.000
289.900;  -92.775; -785.000; -626.000
290.039;  -13.450;  -12.000;  -95.000
290.178;  -33.950; -274.000; -180.000
290.317;  -88.500; -618.000; -479.000
290.456;  -65.700; -463.000; -451.000
290.595; -135.725; -961.000; -833.000
290.734; -131.400; -904.000; -891.000
290.873;  -61.475; -456.000; -420.000
291.011;  -96.500; -833.000; -843.000
291.150; -103.400; -770.000; -682.000
291.289;  -27.100; -343.000; -110.000
291.428;  -87.700; -599.000; -480.000
291.567;  -45.200; -370.000; -442.000
291.706;   -7.800;  109.000;  154.000
291.845;  -81.850; -597.000; -505.000
291.984; -156.700;-1234.000;-1061.000
292.122;   70.750;  602.000;  582.000
292.261;   49.950;  620.000;  463.000
292.400;   14.725; -144.000;  211.000
292.539; -107.675; -959.000; -813.000
292.678;  -25.075; -325.000; -300.000
292.816; -141.250;-1136.000; -965.000
292.955;  -86.975; -844.000; -684.000
293.094;  -31.500; -173.000; -337.000
293.233;  -61.375; -556.000; -400.000
293.371;  -28.750; -225.000;  -84.000
293.510;  -97.250; -866.000; -780.000
293.649; -138.250; -959.000; -924.000
293.787; -112.000;-1083.000;-1012.000
293.926;  -12.600; -113.000;  -32.000
294.065;  -36.625; -379.000; -290.000
294.203;   39.975;  298.000;  406.000
294.342;   41.725;   74.000;  156.000
294.481; 5250.325;51180.000; -836.000
294.619;  -34.150; -425.000; -582.000
294.758; -143.175;-1230.000;-1137.000
294.896;   24.100; -125.000;    5.000
295.035; -128.775;-1040.000;-1006.000
295.174; -116.700;-1082.000; -954.000
295.312;  -41.325; -323.000; -203.000
295.451;  -39.475; -307.000; -428.000
295.589;  -67.300; -389.000; -518.000
295.728;   19.725; -292.000; -165.000
295.866;  -15.450;  -36.000;  -51.000
296.005;  -46.100; -584.000; -341.000
296.143;  -65.950; -558.000; -596.000
296.282;  -82.675; -957.000; -881.000
296.420;  -62.850; -657.000; -557.000
296.559;  -83.200; -892.000; -633.000
296.697;  -27.250; -847.000; -665.000
296.835;  -64.000;-1141.000;-1002.000
296.974;   24.525;  -23.000;   39.000
297.112;  -29.225; -443.000; -504.000
297.251;  -81.450; -815.000; -755.000
297.389;   10.375; -576.000; -438.000
297.527;   13.225; -145.000;  -83.000
297.666;  -50.825; -486.000; -438.000
297.804;  -55.225; -404.000; -264.000
297.942;    2.525; -136.000; -161.000
298.081;   -9.600; -183.000;   63.000
298.219;   23.325;  -17.000;  -19.000
298.357;    4.400; -144.000;  -71.000
298.495;  -43.350; -810.000; -812.000
298.634;   16.425;  245.000;  219.000
298.772;   -3.450; -220.000; -338.000
298.910;  -47.300; -309.000; -182.000
299.048;   -0.250; -130.000; -153.000
299.187;  -34.550; -350.000; -250.000
299.325;   11.725;   52.000;  122.000
299.463;  -14.425; -389.000; -299.000
299.601;   25.050; -327.000; -271.000
299.739; -130.850; -908.000; -883.000
299.877;  -84.750; -791.000; -703.000
300.016;  -90.650;-1095.000; -935.000
300.154;   64.925;  -19.000; -161.000
300.292;   -7.875; -428.000; -348.000
300.430;  -21.000; -408.000; -291.000
300.568; -101.675; -940.000; -874.000
300.706;  -56.825; -366.000; -469.000
300.844; -115.775;-1108.000; -979.000
300.982;   65.450;  246.000;  282.000
301.120; -119.750; -965.000; -866.000
301.258;  -72.800; -812.000; -705.000
301.396;   -3.500;  104.000;  -41.000
301.534;    2.200; -218.000; -293.000
301.672;  -71.075; -664.000; -521.000
301.810;  -37.450; -613.000; -545.000
301.948;   51.325;   53.000;  149.000
302.086;  247.925; -250.000;  -32.000
302.224;  285.125; -610.000; -585.000
302.362;  -28.175; -558.000; -622.000
302.500;  -89.600; -923.000; -893.000
302.638;   45.450;  128.000;  245.000
302.776;  -22.150; -352.000; -408.000
302.913;   44.725;  447.000;  236.000
303.051;  -21.875;  -86.000;  -23.000
303.189;   25.075;   90.000;  118.000
303.327;  -32.200; -341.000; -256.000
303.465;  -73.550; -832.000; -588.000
303.603;  -85.075; -805.000; -604.000
303.740;   57.650;  417.000;  241.000
303.878;  -69.650; -800.000; -759.000
304.016;  -95.125; -915.000; -790.000
304.154; -143.700;-1123.000;-1152.000
304.291;  -50.825; -505.000; -554.000
304.429;   14.875;  102.000;   74.000
304.567; -126.350; -908.000; -893.000
304.705;  -68.350; -408.000; -515.000
304.842;   -0.850; -616.000; -540.000
304.980;   16.550;  215.000;   35.000
305.118;   -9.250; -367.000; -365.000
305.255;  -97.000; -945.000; -927.000
305.393;   41.750;  178.000;  239.000
305.531; -116.900;-1173.000; -956.000
305.668;  -71.125; -663.000; -582.000
305.806;    1.250; -358.000; -439.000
305.943;    6.275; -629.000; -637.000
306.081;   -4.300; -378.000; -267.000
306.219;  -96.875; -863.000; -748.000
306.356;   25.600;  158.000;   27.000
306.494;  137.675;  981.000;  761.000
306.631;    7.875;  -11.000;  -55.000
306.769;   30.100; -613.000; -485.000
306.906;  -10.275; -284.000; -258.000
307.044;  -24.000; -473.000; -488.000
307.181;  -45.325; -410.000; -332.000
307.319;   22.075;  112.000;   87.000
307.456; -160.425;-1191.000;-1153.000
307.594;  -95.800; -980.000; -727.000
307.731;  -13.700; -371.000; -164.000
307.868;   -4.125;  -15.000;   20.000
308.006; -124.475; -961.000; -847.000
308.143;  -48.750; -618.000; -330.000
308.281;   80.225;  -37.000; -254.000
308.418;  -38.250; -748.000; -640.000
308.555;  -45.775; -400.000; -250.000
308.693;  -48.325; -577.000; -573.000
308.830;  -85.575; -712.000; -657.000
308.967;    8.025; -215.000;  -95.000
309.105;   -8.550; -507.000; -396.000
309.242;   34.375; -468.000; -367.000
309.379;   99.650; -577.000; -655.000
309.517;  -63.425; -936.000; -948.000
309.654;  -71.375; -910.000; -734.000
309.791;  -47.200; -662.000; -580.000
309.928;  -87.975; -977.000; -914.000
310.065;  159.975;  819.000;  697.000
310.203;  -51.850; -825.000; -850.000
310.340;    0.500; -465.000; -321.000
310.477;  -51.750; -412.000; -516.000
310.614;  -34.725; -383.000; -473.000
310.751;  -46.750; -427.000; -518.000
310.889;   17.500;    1.000;   11.000
311.026; -124.800;-1161.000; -939.000
311.163;  -20.900; -386.000; -380.000
311.300;  -56.325; -512.000; -479.000
311.437;  -49.875; -658.000; -619.000
311.574; -122.700;-1226.000; -985.000
311.711;  -34.800; -595.000; -433.000
311.848;    3.000; -380.000; -388.000
311.985;   39.550;  270.000;   93.000
312.122;  -97.800; -932.000; -762.000
312.259;  -79.150; -941.000; -994.000
312.396;  -39.500; -508.000; -551.000
312.533;  -53.775; -812.000; -790.000
312.670; -110.825;-1070.000; -898.000
312.807;   -0.100; -352.000; -367.000
312.944;  -43.075; -513.000; -611.000
313.081;    4.400; -150.000; -415.000
313.218;  -83.375;-1111.000; -867.000
313.355;   12.625; -531.000; -449.000
313.492;   18.700; -455.000; -292.000
313.629;  153.825;  815.000;  735.000
313.766; -117.325;-1176.000;-1008.000
313.902;   17.700; -186.000;   21.000
314.039;  -29.850; -372.000; -289.000
314.176;   42.200;  286.000;  192.000
314.313;  -57.300; -569.000; -473.000
314.450;  -41.525; -788.000; -684.000
314.587;  -41.475; -468.000; -480.000
314.723;   30.775;  -78.000;  130.000
314.860;   48.350;  318.000;  332.000
314.997;   67.400;  223.000;  142.000
315.134;  -19.075; -385.000; -368.000
315.270;  -14.000; -480.000; -496.000
315.407;  -99.225;-1094.000; -967.000
315.544;  -16.125; -657.000; -538.000
315.681;  -35.350; -681.000; -565.000
315.817;   72.900; -133.000; -176.000
315.954;   81.975; -613.000; -392.000
316.091;  -85.975;-1045.000;-1023.000
316.227;  -16.750;  -71.000; -179.000
316.364;    7.800;   23.000;    6.000
316.500;  -33.425; -113.000; -300.000
316.637;  -30.550; -181.000; -302.000
316.774;  -72.525; -625.000; -358.000
316.910;  -74.150; -598.000; -629.000
317.047;  -49.800; -487.000; -351.000
317.183;  -54.525; -435.000; -566.000
317.320;   20.825; -367.000; -321.000
317.456;  -27.775; -733.000; -805.000
317.593;  -88.050; -598.000; -641.000
317.729;   -1.975;  168.000;  -67.000
317.866; -177.250;-1434.000;-1285.000
318.002;  -78.275; -708.000; -948.000
318.139; -111.125; -883.000; -867.000
318.275;  -99.900;-1003.000; -738.000
318.412;  -63.300; -517.000; -336.000
318.548;  -64.650; -751.000; -720.000
318.685;  -79.575; -985.000; -888.000
318.821;  -71.425; -762.000; -735.000
318.957;  -22.525;   34.000;  -23.000
319.094;   43.575;  297.000;  154.000
319.230;  -73.775; -756.000; -742.000
319.367;   24.825; -471.000; -520.000
319.503;  -11.075; -538.000; -436.000
319.639;  -83.800; -877.000; -793.000
319.775;  -88.200; -750.000; -685.000
319.912;  -50.425; -424.000; -519.000
320.048;  -89.075;-1184.000;-1184.000
320.184;   91.350;   59.000;   70.000
320.321;  -44.400; -497.000; -467.000
320.457;   86.975;  475.000;  662.000
320.593;  -59.300; -375.000; -382.000
320.729;  -97.200; -732.000; -734.000
320.866;  -63.250; -577.000; -635.000
321.002;  -87.925; -759.000; -809.000
321.138;  -48.975; -135.000; -211.000
321.274;   32.350; -148.000; -115.000
321.410;  -49.050; -585.000; -353.000
321.546;  -75.975;-1011.000; -911.000
321.683;   36.600;  400.000;  185.000
321.819;   -0.325;  -48.000; -117.000
321.955; -113.450; -743.000; -722.000
322.091;  -62.200; -585.000; -540.000
322.227;  -24.875; -382.000; -202.000
322.363;  -21.550; -320.000; -215.000
322.499;  -52.425; -343.000; -331.000
322.635;  106.925;  636.000;  443.000
322.771;   -7.500; -139.000;   12.000
322.907;   58.800;  129.000;  327.000
323.043;  -33.950; -115.000; -206.000
323.179;  -39.450; -394.000; -363.000
323.315;  -39.500; -401.000; -371.000
323.451;   33.200; -328.000; -236.000
323.587;   57.875;  -60.000;  -77.000
323.723;  -45.600; -682.000; -601.000
323.859;  -29.700; -258.000;  -76.000
323.995;  -36.425; -467.000; -409.000
324.131; -121.250; -967.000; -892.000
324.267;  -37.600; -254.000; -276.000
324.402; -129.250; -960.000; -983.000
324.538;  -29.150; -279.000; -104.000
324.674;   19.725;  164.000;   77.000
324.810;   68.725;  226.000;  308.000
324.946;  -55.750; -810.000; -658.000
325.082;  -75.850; -568.000; -475.000
325.217;  -17.125;  -62.000;   16.000
325.353;  -80.300; -764.000; -659.000
325.489;  -95.850; -540.000; -506.000
325.625;  -65.700; -579.000; -525.000
325.760;   66.775;  517.000;  376.000
325.896;   13.375; -515.000; -702.000
326.032;  -58.500; -403.000; -352.000
326.168;  -40.850; -462.000; -369.000
326.303;  -52.625; -352.000; -461.000
326.439;   -0.400; -336.000; -276.000
326.575;   -0.950; -190.000;  -29.000
326.710;   -3.500; -156.000;  -30.000
326.846;   -2.475;  146.000;  103.000
326.982;  -82.650; -530.000; -548.000
327.117;  -65.475; -481.000; -442.000
327.253;  -80.600; -745.000; -742.000
327.388; -135.100;-1137.000;-1153.000
327.524;  -64.550; -811.000; -578.000
327.659;  -29.400;  -58.000;  -22.000
327.795;   -4.775;   69.000;   45.000
327.931;  -64.725; -723.000; -499.000
328.066;  -25.025; -417.000; -276.000
328.202;  -29.575;   12.000; -129.000
328.337;   99.450;  957.000;  713.000
328.473;   34.375;  -12.000;  -74.000
328.608;  -15.575; -256.000; -267.000
328.743;  -88.700; -799.000; -664.000
328.879;   28.625;  214.000;  114.000
329.014;  -28.725; -102.000; -122.000
329.150;  -74.425; -358.000; -483.000
329.285;  -79.725; -465.000; -466.000
329.421;  -39.900; -548.000; -246.000
329.556;  -28.125;  -36.000;   85.000
329.691;  -63.925; -633.000; -615.000
329.827;  -87.500; -626.000; -480.000
329.962;  -22.900;  131.000; -301.000
330.097;  -71.000; -673.000; -585.000
330.233;  -38.725; -410.000; -223.000
330.368; -117.125; -839.000; -628.000
330.503;    0.775;    3.000;   98.000
330.638;   -6.725;  -93.000; -125.000
330.774;  -62.625; -609.000; -530.000
330.909;  -41.600; -434.000; -244.000
331.044;  -80.625; -714.000; -708.000
331.179; -158.775;-1217.000;-1109.000
331.315;   24.475;   77.000;   20.000
331.450;   12.225;  157.000;  285.000
331.585;  -79.400; -805.000; -706.000
331.720;  -82.975; -510.000; -460.000
331.855;    4.550;  -35.000; -102.000
331.990;  390.675;   62.000;  138.000
332.126;  209.225; -110.000;   71.000
332.261;   12.725; -379.000; -265.000
332.396;   25.725; -135.000; -242.000
332.531;  -56.975;-1074.000;-1031.000
332.666;   88.950; -519.000; -363.000
332.801;  -84.225; -726.000; -807.000
332.936;   -8.975; -192.000; -122.000
333.071; -111.550; -870.000; -817.000
333.206;   32.825;  307.000;  379.000
333.341;   19.850;  344.000;  418.000
333.476;  -66.825; -627.000; -623.000
333.611;  -39.225; -251.000; -173.000
333.746;  -26.800; -381.000; -464.000
333.881; -109.750; -973.000; -935.000
334.016; -110.600; -936.000; -917.000
334.151; -105.175; -746.000; -702.000
334.286;   40.825;  152.000;  186.000
334.421;   -8.225; -125.000; -178.000
334.556;  -40.675; -611.000; -567.000
334.690;  -74.075; -631.000; -577.000
334.825;   75.175;  381.000;   83.000
334.960;  -38.500; -285.000; -413.000
335.095;   20.500;  135.000;  -91.000
335.230;  -66.550; -722.000; -738.000
335.365;  -89.100;-1084.000; -990.000
335.499; -114.625;-1108.000;-1037.000
335.634;   61.975;    9.000;  534.000
335.769;  -71.725; -755.000; -720.000
335.904;  -25.550; -603.000; -561.000
336.038;   -4.075; -735.000; -657.000
336.173;  -67.800;-1206.000;-1194.000
336.308;   40.400; -116.000; -189.000
336.443;   94.625; -544.000; -634.000
336.577;   -4.275; -936.000; -787.000
336.712;  105.950;   -4.000;  -12.000
336.847;   23.000; -724.000; -607.000
336.981;  126.725; -272.000; -208.000
337.116;  382.200;  615.000;  501.000
337.250;  178.375; -434.000; -421.000
337.385;  399.150; -297.000; -208.000
337.520;  178.850; -632.000; -603.000
337.654;  -43.725; -215.000; -126.000
337.789; -114.000; -989.000; -933.000
337.923;  -31.500; -104.000; -205.000
338.058;  -86.725; -673.000; -738.000
338.192;  -49.400; -611.000; -488.000
338.327;  -15.600;  -18.000; -155.000
338.461;  -75.650; -299.000; -469.000
338.596;  -80.675; -780.000; -638.000
338.730;  -73.100; -767.000; -803.000
338.865;  142.525;  -46.000; -140.000
338.999;    0.325; -846.000; -702.000
339.134;    8.025; -634.000; -536.000
339.268;   27.575; -741.000; -603.000
339.403;  508.950; -740.000; -775.000
339.537;  236.200; -894.000; -820.000
339.671;  -92.800; -829.000; -813.000
339.806;  -37.700; -556.000; -512.000
339.940;   30.050; -261.000; -235.000
340.074;  -92.375; -685.000; -510.000
340.209;  -55.375; -351.000; -230.000
340.343;  -94.550; -517.000; -573.000
340.477;  140.400;  998.000; 1036.000
340.612;  -12.175;-1033.000; -900.000
340.746;  183.400; -199.000; -243.000
340.880;  -94.825; -924.000; -785.000
341.014;  -16.350;  -45.000; -154.000
341.149; -110.525; -756.000; -718.000
341.283; -103.500; -839.000; -754.000
341.417; -131.750;-1124.000; -938.000
341.551;   -8.925; -768.000; -708.000
341.685;  -50.775; -633.000; -611.000
341.820;  -52.325; -562.000; -493.000
341.954;  -46.375; -218.000; -349.000
342.088; -142.175;-1102.000;-1019.000
342.222;   48.125;  565.000;  618.000
342.356;  -74.075; -395.000; -335.000
342.490; -128.200; -880.000; -841.000
342.624;  -48.975; -339.000; -242.000
342.758;  -41.625; -364.000; -312.000
342.892;  -79.000; -710.000; -585.000
343.026;  -42.950;  -58.000; -116.000
343.160;  -62.675; -426.000; -376.000
343.294;  -90.775; -474.000; -337.000
343.428;  -51.725; -488.000; -448.000
343.562;  -33.675; -172.000;  -23.000
343.696;  -34.950; -385.000; -314.000
343.830;  -42.000; -362.000; -356.000
343.964;  -17.325; -231.000; -168.000
344.098;  374.200;  199.000;   70.000
344.232;  304.225; -266.000; -127.000
344.366;   68.625; -567.000; -453.000
344.500;  -15.850; -665.000; -744.000
344.634;  -23.450; -324.000; -164.000
344.768;  -59.325; -531.000; -341.000
344.902;   14.225;  278.000;  256.000
345.035;  -71.650; -556.000; -496.000
345.169; -145.325; -933.000; -656.000
345.303;  -40.850; -308.000; -482.000
345.437;  -95.500; -826.000; -717.000
345.571;  -51.300; -675.000; -594.000
345.704;  -64.025; -309.000; -532.000
345.838;  -12.200; -331.000; -284.000
345.972;  -65.250; -543.000; -495.000
346.106;  235.350; -179.000; -190.000
346.239;  447.900; -312.000; -243.000
346.373;    7.825; -343.000; -302.000
346.507; -140.525; -950.000; -962.000
346.640;   45.825;  -30.000;   13.000
346.774;  -78.300; -650.000; -797.000
346.908;  -13.600; -138.000;  -11.000
347.041;  -99.075; -646.000; -593.000
347.175;    6.675;  259.000;   27.000
347.309;  -83.725; -698.000; -628.000
347.442; -100.900; -883.000; -732.000
347.576;  145.450;  670.000;  668.000
347.709;   68.800; -123.000;  -52.000
347.843; -101.150; -933.000; -825.000
347.976;   28.700;  235.000;  294.000
348.110; -170.875;-1268.000;-1186.000
348.243;  -99.675; -679.000; -772.000
348.377;    7.875;  -26.000;   60.000
348.510;   56.025;  403.000;  540.000
348.644;  -37.800;  -37.000; -159.000
348.777;   10.600;  180.000;  191.000
348.911;  -34.375; -142.000; -112.000
349.044;   92.025;  471.000;  448.000
349.178;   12.475;-1069.000;-1006.000
349.311;  112.025;  141.000;  255.000
349.444;   36.750; -927.000; -813.000
349.578;  -17.875; -347.000; -200.000
349.711; -117.800; -959.000; -862.000
349.845;  -63.325; -661.000; -591.000
349.978; -146.975;-1224.000;-1137.000
350.111;  -71.425; -546.000; -612.000
350.244;  -99.300; -596.000; -700.000
350.378;  -34.475; -392.000; -393.000
350.511;  -68.150; -393.000; -426.000
350.644;  -82.225; -808.000; -806.000
350.778;   20.025;  168.000;  104.000
350.911;   16.150;  134.000;  140.000
351.044;  -87.700; -685.000; -615.000
351.177;  -27.775; -321.000; -281.000
351.310;  -16.550;    3.000; -131.000
351.444;  -90.600; -888.000; -788.000
351.577;   38.200;  140.000;   90.000
351.710;   85.375;  593.000;  417.000
351.843;  -40.675; -165.000;  -77.000
351.976;    8.025;  149.000;  -79.000
352.109;  -88.050; -621.000; -612.000
352.242;  -31.900; -464.000; -419.000
352.376;  -76.700; -580.000; -636.000
352.509;   52.550; -437.000; -356.000
352.642;  -72.100; -654.000; -604.000
352.775;   15.025; -141.000;  -98.000
352.908; -107.475; -933.000; -904.000
353.041;  -84.925; -814.000; -824.000
353.174;  -48.900; -551.000; -424.000
353.307;  -66.050; -753.000; -764.000
353.440;   68.800;  541.000;  453.000
353.573;  -91.375; -957.000;-1008.000
353.706;  -24.625; -384.000; -558.000
353.839;   -3.050; -264.000; -220.000
353.971;  -85.350; -657.000; -512.000
354.104;  -86.800; -896.000; -835.000
354.237;  -81.325; -627.000; -662.000
354.370;  -78.850; -846.000; -879.000
354.503; -161.350;-1231.000;-1308.000
354.636;   -0.825; -529.000; -348.000
354.769; -106.700; -937.000; -860.000
354.902;    2.025; -230.000; -139.000
355.034;  -13.950; -164.000; -220.000
355.167;    8.925; -262.000; -162.000
355.300;  -65.800;-1061.000; -880.000
355.433; 1425.300;  -71.000;  -14.000
355.565; 2228.825; -402.000; -384.000
355.698;  571.025; -356.000; -296.000
355.831;   12.900; -882.000; -801.000
355.964;   58.725; -285.000; -170.000
356.096;  -53.550; -856.000; -843.000
356.229;   28.575; -523.000; -530.000
356.362;  507.000; -373.000; -266.000
356.494;  875.925; -229.000; -162.000
356.627;  377.100;  269.000;  377.000
356.760;  869.350;  120.000;   53.000
356.892; 1443.550; -286.000; -601.000
357.025;  401.925;  403.000;  389.000
357.157;  290.500; -167.000; -179.000
357.290; 1034.800; -856.000; -713.000
357.423;  340.625; -667.000; -556.000
357.555;  135.250; -217.000; -228.000
357.688;  188.075; -483.000; -364.000
357.820;  225.225; -870.000; -877.000
357.953; 1721.250; -563.000; -589.000
358.085;  314.525; -632.000; -612.000
358.218;  250.950;-1131.000; -932.000
358.350;   72.450;  -58.000;  312.000
358.483; -152.775;-1300.000;-1187.000
358.615; -102.075;-1182.000;-1078.000
358.747; -133.275;-1187.000;-1058.000
358.880;  -25.400; -810.000; -744.000
359.012;  -21.350; -376.000; -202.000
359.145;  -42.025; -480.000; -511.000
359.277;  -36.500; -962.000; -913.000
359.409; 1465.875;  536.000;  231.000
359.542;  326.700; -738.000; -688.000
359.674;   27.400;   46.000;   13.000
359.806;  -81.000; -565.000; -438.000
359.939;  -26.675; -617.000; -516.000
360.071;   21.125; -583.000; -579.000
360.203;  -12.800; -411.000; -364.000
360.335;   26.775;  164.000;  -16.000
360.468;  110.100; -249.000; -307.000
360.600; 1414.650; -547.000; -454.000
360.732; 3757.850; -546.000; -423.000
360.864;  550.475;-1216.000;-1044.000
360.996;  100.550; -516.000; -554.000
361.129;  -34.100; -389.000; -598.000
361.261;   -0.250;  110.000; -113.000
361.393;  -49.925; -252.000; -214.000
361.525;    5.825;   94.000;  244.000
361.657; -104.250; -821.000; -703.000
361.789;  -18.925; -139.000; -155.000
361.921;   -4.400; -642.000; -593.000
362.053;  112.150;  524.000;  541.000
362.185;   -5.075;  288.000;   72.000
362.318; -105.075; -709.000; -705.000
362.450;   55.550;  294.000;  444.000
362.582;  -35.750; -913.000; -870.000
362.714;  -58.900; -353.000; -332.000
362.846;  -66.875; -606.000; -490.000
362.978; -135.950; -941.000; -811.000
363.109;  -13.000; -161.000; -260.000
363.241;  193.425; -739.000; -749.000
363.373;  626.725; -649.000; -564.000
363.505;  931.375; -186.000;  -91.000
363.637;  218.575; -787.000; -601.000
363.769; -127.900;-1067.000;-1080.000
363.901;  -72.050; -596.000; -654.000
364.033; -122.225;-1103.000;-1062.000
364.165;  -31.325; -283.000; -283.000
364.296;  102.750; -316.000; -177.000
364.428;  180.575;-1344.000;-1220.000
364.560;  -57.725; -679.000; -661.000
364.692;  -61.800; -738.000; -835.000
364.824;   46.300; -588.000; -456.000
364.955;  450.650; -402.000; -564.000
365.087; 1419.375;-1097.000; -852.000
365.219;   84.975; -686.000; -816.000
365.351;  -69.325; -526.000; -572.000
365.482;   29.475;  300.000;  240.000
365.614;  -57.200; -402.000; -314.000
365.746;  -94.775; -729.000; -752.000
365.877; -109.175; -706.000; -672.000
366.009;  385.800;  -35.000;  -62.000
366.141;  -23.725;-1249.000;-1134.000
366.272;  -93.525; -803.000; -719.000
366.404; -117.700;-1005.000; -874.000
366.535;  -12.450; -139.000;  -12.000
366.667; -102.350; -644.000; -649.000
366.799;   35.825;  353.000;  203.000
366.930; -129.125; -862.000; -996.000
367.062;  170.575; -639.000; -613.000
367.193;  300.275; -872.000; -842.000
367.325;  -27.050; -580.000; -684.000
367.456;   23.725; -246.000;   31.000
367.588;  242.750; -371.000; -318.000
367.719;   34.500;  -44.000;  -45.000
367.851;  -27.775; -222.000; -241.000
367.982; -112.550; -875.000; -732.000
368.113;    6.925; -475.000; -358.000
368.245; -141.200; -960.000; -841.000
368.376;  -35.400; -254.000; -302.000
368.508;  -42.800; -188.000; -263.000
368.639; -144.500;-1166.000;-1034.000
368.770;  -84.425; -670.000; -589.000
368.902;  -93.250; -836.000; -926.000
369.033; -123.875; -906.000; -855.000
369.164;  -38.050; -720.000; -653.000
369.296;  -98.825; -452.000; -601.000
369.427;  -21.925; -209.000; -144.000
369.558;  -71.850; -593.000; -377.000
369.689;  -77.525; -721.000; -569.000
369.821; -127.000; -951.000; -845.000
369.952;  -26.075;   42.000; -108.000
370.083;  -47.325; -229.000; -108.000
370.214;  -86.325; -735.000; -650.000
370.345;  -19.375;   65.000;   81.000
370.477;  -82.775; -810.000; -790.000
370.608;   49.825; -328.000; -264.000
370.739;  -88.150;-1233.000;-1292.000
370.870; -100.675;-1102.000; -923.000
371.001;    1.975; -378.000; -467.000
371.132;  -94.600; -754.000; -735.000
371.263;  -17.750;  -42.000; -148.000
371.394; -130.450; -841.000; -748.000
371.525;   28.200;  345.000;  225.000
371.657;  -92.200; -808.000; -670.000
371.788;   44.200;  103.000;  199.000
371.919;   30.150; -384.000; -304.000
372.050; 1525.625;  -91.000; -156.000
372.181;  481.700; -188.000; -294.000
372.311;  136.150;   42.000; -127.000
372.442;  -37.575; -457.000; -451.000
372.573;  -41.350; -444.000; -340.000
372.704; -147.900;-1008.000; -980.000
372.835;   -4.525; -228.000; -289.000
372.966;  -71.975; -646.000; -554.000
373.097;  -73.825; -575.000; -711.000
373.228;  -81.425; -717.000; -542.000
373.359;   -1.500; -824.000; -536.000
373.490;  246.975; -881.000; -727.000
373.620;  356.825;-1001.000; -803.000
373.751;  685.325; -332.000; -396.000
373.882;  307.400; -663.000; -733.000
374.013;    3.875; -449.000; -262.000
374.143;  -57.875; -581.000; -659.000
374.274; -102.400; -987.000; -908.000
374.405;   63.050; -388.000; -276.000
374.536;  164.025; -526.000; -387.000
374.666;  421.100; -759.000; -807.000
374.797;   37.025; -817.000; -868.000
374.928;  268.575; -710.000; -560.000
375.058;  273.225; -535.000; -500.000
375.189;   12.350;  -59.000;  -93.000
375.320; -111.325; -928.000;-1034.000
375.450;  -34.400; -625.000; -616.000
375.581;  -35.575; -526.000; -436.000
375.712;  -32.700; -574.000; -250.000
375.842;   46.950; -438.000; -415.000
375.973;   20.925; -554.000; -513.000
376.103;  -92.675; -665.000; -648.000
376.234;  -74.975; -531.000; -552.000
376.364; -117.625; -944.000; -867.000
376.495;  177.400;  925.000;  529.000
376.625;  -41.250; -472.000; -485.000
376.756;  -27.675; -709.000; -678.000
376.886; -130.475;-1178.000;-1026.000
377.017;  129.000;-1048.000;-1061.000
377.147;  605.575; -786.000; -782.000
377.278;   91.775;  174.000;  228.000
377.408; -111.325; -801.000; -815.000
377.538; -100.800; -707.000; -693.000
377.669;  -89.800; -537.000; -613.000
377.799;  -82.700; -645.000; -635.000
377.929;  -84.100; -610.000; -428.000
378.060; -111.175; -781.000; -847.000
378.190;  -33.175; -726.000; -531.000
378.320;  -34.975; -401.000; -406.000
378.451;   -6.850; -131.000;  -22.000
378.581;  -20.825;  -67.000; -110.000
378.711;  102.375; 1035.000;  866.000
378.841;  -46.450; -533.000; -675.000
378.972; -107.500; -871.000; -751.000
379.102;  -42.475; -652.000; -579.000
379.232;  -36.175; -126.000;  -73.000
379.362; -104.625;-1001.000; -885.000
379.492;  -45.400; -373.000; -424.000
379.623;   70.500;    0.000;  111.000
379.753; -106.250;-1107.000; -974.000
379.883;  102.950;   59.000;  156.000
380.013;  -60.125;-1081.000;-1017.000
380.143; -112.950;-1097.000;-1056.000
380.273;  -88.050; -985.000; -861.000
380.403;   34.625; -344.000; -257.000
380.533;  -21.150; -651.000; -664.000
380.663;   42.275;  173.000;  128.000
380.793; -125.325;-1027.000;-1074.000
380.923;  -27.075; -103.000;  -34.000
381.053;  -94.250; -613.000; -623.000
381.183;  -31.025; -106.000; -248.000
381.313;  -44.000; -656.000; -470.000
381.443;  -25.100; -692.000; -473.000
381.573;   -0.775; -402.000; -409.000
381.703;  -33.250;-1249.000;-1095.000
381.833; -167.350;-1454.000;-1336.000
381.963;   29.700; -134.000;  -87.000
382.093;  472.400; -925.000; -909.000
382.223;  129.325; -713.000; -602.000
382.353;  -63.450; -801.000; -608.000
382.482;   63.525;-1091.000; -964.000
382.612;  255.150; -872.000; -644.000
382.742;  132.850; -695.000; -622.000
382.872;   30.200; -565.000; -551.000
383.002;   45.850;  347.000; -132.000
383.131;  -25.375; -226.000; -160.000
383.261;  -34.500; -706.000; -768.000
383.391;  302.425; -552.000; -377.000
383.521; 4423.525;  451.000;  263.000
383.650; 1317.425; -947.000; -904.000
383.780;   39.725; -783.000; -656.000
383.910;  104.000;  880.000;  802.000
384.039;  -53.800; -794.000; -656.000
384.169;  -34.750;-1205.000;-1017.000
384.299;  -66.350; -650.000; -662.000
384.428; -110.125; -764.000; -680.000
384.558;  -37.000; -308.000; -275.000
384.687;  -57.975; -414.000; -334.000
384.817;    4.975;   75.000;   -2.000
384.947;  -21.625; -234.000; -141.000
385.076;  191.525;  982.000;  912.000
385.206;   71.275;  369.000;  480.000
385.335;  -55.575; -549.000; -417.000
385.465; -107.050; -655.000; -663.000
385.594;   53.400;  -53.000;  -44.000
385.724;   86.150; -868.000; -838.000
385.853;   20.000; -296.000; -270.000
385.982;  470.750; -743.000; -787.000
386.112;  853.400;-1052.000; -871.000
386.241;   31.450; -307.000; -312.000
386.371;    2.150; -174.000;  -87.000
386.500;  -37.900; -825.000; -789.000
386.629;   14.500; -874.000; -817.000
386.759;   71.400;  -43.000;   68.000
386.888;   -9.375; -170.000; -250.000
387.017;  -73.150; -648.000; -620.000
387.147;  -81.600; -771.000; -798.000
387.276;  -29.200; -410.000; -397.000
387.405;  -27.800; -398.000; -342.000
387.535;  -63.600; -452.000; -361.000
387.664;  -52.950; -692.000; -620.000
387.793;    0.250; -198.000; -113.000
387.922;  214.450;  255.000;  200.000
388.052;  -27.025; -576.000; -423.000
388.181;  -20.750; -342.000; -472.000
388.310;  -51.550; -889.000; -710.000
388.439;  -93.675; -749.000; -742.000
388.568;   65.550;  365.000;  244.000
388.697;  355.100; -756.000; -653.000
388.826;   23.325; -768.000; -666.000
388.956;  -15.100; -285.000; -307.000
389.085;  -38.975; -347.000; -287.000
389.214;  -97.350; -842.000; -872.000
389.343;  -65.175; -645.000; -413.000
389.472;  517.150;  126.000;  149.000
389.601;  601.175;   91.000;    0.000
389.730;  -13.875; -568.000; -687.000
389.859;   41.275;  226.000;   46.000
389.988;   60.250; -423.000; -408.000
390.117;   56.500; -168.000; -146.000
390.246;  -34.150; -331.000; -320.000
390.375;  -38.075; -673.000; -626.000
390.504;  -77.950; -703.000; -621.000
390.633; -111.375; -672.000; -726.000
390.761;  -78.000; -732.000; -645.000
390.890;   -4.250;   -4.000; -130.000
391.019;  -55.700; -421.000; -441.000
391.148; -113.325; -826.000; -855.000
391.277;  -65.000; -576.000; -493.000
391.406;  -96.375; -821.000; -805.000
391.534;   20.500;  574.000; -301.000
391.663;  -84.025; -583.000; -645.000
391.792; -102.300; -673.000; -701.000
391.921;   12.550;   -3.000;   15.000
392.050;   39.275; -287.000; -228.000
392.178; -112.100;-1206.000;-1061.000
392.307;  -22.525; -758.000; -712.000
392.436;  -29.200; -427.000; -641.000
392.564;   11.300;  166.000;   -6.000
392.693; -102.400; -860.000; -682.000
392.822;   31.775; -529.000; -534.000
392.950;  -17.300; -880.000; -714.000
393.079;   95.975; -188.000; -328.000
393.208;  -38.550; -488.000; -511.000
393.336;  -26.150; -170.000; -145.000
393.465;  -38.550; -317.000; -199.000
393.593;   15.175;   62.000;   79.000
393.722; -145.675;-1121.000; -916.000
393.850;  -13.675; -188.000;  -61.000
393.979; -132.700; -926.000; -805.000
394.107;  -49.000; -517.000; -537.000
394.236;  -38.900; -570.000; -507.000
394.364;  131.425;  383.000;  206.000
394.493;  117.200; -911.000; -767.000
394.621;   15.525; -955.000; -916.000
394.750; 1109.975; -873.000; -923.000
394.878; 4338.900; -247.000; -149.000
395.007; 6420.375; -721.000; -807.000
395.135;  599.225; -790.000; -721.000
395.263;  -43.900;-1038.000;-1040.000
395.392;   13.800;  -25.000; -107.000
395.520; -124.750; -818.000; -679.000
395.648; -106.275; -865.000; -915.000
395.777;  -57.925; -366.000; -405.000
395.905;  -51.725; -449.000; -564.000
396.033;   -9.550;  217.000;  172.000
396.162;  174.700; -399.000; -453.000
396.290;  181.550;  -17.000;   -2.000
396.418;  -16.125; -555.000; -514.000
396.546;  -88.050; -571.000; -466.000
396.674; -112.425; -850.000; -878.000
396.803;  -19.500;  -72.000;  -23.000
396.931;   -8.825; -179.000; -199.000
397.059; -114.700;-1026.000; -989.000
397.187; -125.125;-1026.000; -975.000
397.315; -117.325; -884.000; -649.000
397.443;  -91.875; -592.000; -443.000
397.572;  -73.875; -578.000; -424.000
397.700;  -81.300; -607.000; -614.000
397.828;  -33.975;  120.000;  -90.000
397.956;  -33.800; -508.000; -478.000
398.084;  -26.225; -767.000; -626.000
398.212;   24.375;  137.000;  124.000
398.340;  -24.550;  -56.000;  159.000
398.468;  -17.675; -390.000; -169.000
398.596; -131.300; -993.000; -953.000
398.724; -108.075; -762.000; -767.000
398.852; -166.500;-1024.000; -976.000
398.980;  -78.775; -560.000; -560.000
399.108; -102.750; -982.000; -735.000
399.236;    0.975;   13.000;    8.000
399.363;   10.825;  222.000;  196.000
399.491;  -51.625; -404.000; -398.000
399.619; -105.950; -829.000; -800.000
399.747;  -91.625; -859.000; -771.000
399.875;   54.000;  220.000;  234.000
400.003;  -58.125; -359.000; -284.000
400.130;  -84.125; -421.000; -341.000
400.258;  -29.575;  -83.000;   38.000
400.386;  -70.625; -352.000; -168.000
400.514;  -78.175; -526.000; -587.000
400.641; -128.325; -928.000; -802.000
400.769; -131.275; -979.000; -888.000
400.897; -119.850; -838.000; -793.000
401.025;  -31.400; -166.000; -152.000
401.152;   -2.675;  220.000;   38.000
401.280;  -85.950; -430.000; -429.000
401.408; -110.450; -712.000; -576.000
401.535; -106.975; -735.000; -758.000
401.663; -187.400;-1134.000;-1054.000
401.790;  -67.725; -514.000; -525.000
401.918;   19.550;  436.000;  405.000
402.046;   -9.175;  134.000;  122.000
402.173;  -34.825;  -18.000;    7.000
402.301;  -63.575; -519.000; -397.000
402.428;   24.750;  528.000;  383.000
402.556; -141.900;-1188.000; -913.000
402.683;  -26.200;  -20.000;   -1.000
402.811;   -5.325;  -37.000; -206.000
402.938;  -20.525;   20.000;   27.000
403.066;   26.025; -574.000; -558.000
403.193;  142.275;  299.000;  239.000
403.321;   95.250; -396.000; -574.000
403.448;  146.075;   83.000;   27.000
403.575;   66.100;  -90.000;  -46.000
403.703;  -91.450; -732.000; -557.000
403.830;  -41.725; -531.000; -496.000
403.957; -122.175;-1117.000;-1023.000
404.085;   28.100;  -61.000; -172.000
404.212;  120.775;  -50.000;   63.000
404.339;  428.800; -566.000; -306.000
404.467; 8557.675; -612.000; -524.000
404.594; 5445.775; -287.000; -227.000
404.721;  990.500; -869.000; -764.000
404.848;  118.875; -113.000; -202.000
404.976;  -83.125; -856.000; -783.000
405.103;    8.875;  -14.000;  -82.000
405.230;    5.050;  190.000;  226.000
405.357;   70.425;  117.000;   44.000
405.484;  405.650;  -49.000;    5.000
405.612;  140.925; -548.000; -563.000
405.739;  -54.700; -488.000; -243.000
405.866;   86.875;  669.000;  385.000
405.993;  -45.775; -398.000; -102.000
406.120; -134.975; -801.000; -887.000
406.247;  -75.575; -323.000; -342.000
406.374;  138.475;  540.000;  629.000
406.501;  -44.275; -632.000; -702.000
406.628;  -82.650; -621.000; -589.000
406.755; -121.400; -803.000; -620.000
406.882;  -38.150; -228.000; -277.000
407.009; -116.225; -719.000; -628.000
407.136;  -33.675; -480.000; -401.000
407.263;  -16.950; -939.000; -829.000
407.390;  -80.250; -692.000; -614.000
407.517; -167.825;-1139.000;-1187.000
407.644;  -59.500; -332.000; -256.000
407.771;  -83.575; -249.000; -287.000
407.898;   24.325;  168.000;  328.000
408.025;  -77.800; -421.000; -313.000
408.151;   -0.250;   82.000;  153.000
408.278;  -70.150; -267.000; -216.000
408.405; -107.875; -931.000; -899.000
408.532;  -92.650; -549.000; -542.000
408.659; -105.175; -677.000; -648.000
408.785; -187.625;-1298.000;-1170.000
408.912;  -51.075; -412.000; -296.000
409.039; -109.925; -610.000; -686.000
409.166; -104.200; -591.000; -555.000
409.292; -105.975; -571.000; -534.000
409.419; -107.025; -665.000; -649.000
409.546;  -79.650; -431.000; -192.000
409.672; -107.225; -713.000; -545.000
409.799;  -36.900;  -36.000;   34.000
409.926;  -47.575; -180.000; -179.000
410.052; -181.025;-1127.000;-1091.000
410.179;  -64.875; -368.000; -392.000
410.305;  -92.725; -375.000; -493.000
410.432;  -22.350; -220.000; -333.000
410.558;  -82.150; -305.000; -380.000
410.685;  -92.550; -688.000; -431.000
410.812; -102.375; -409.000; -588.000
410.938; -132.225; -964.000; -808.000
411.065; -109.750; -671.000; -645.000
411.191;  -25.925; -189.000; -174.000
411.317; -126.725; -823.000; -742.000
411.444;  -58.875; -317.000; -246.000
411.570;  -79.025; -339.000; -294.000
411.697; -102.925; -758.000; -752.000
411.823; -165.875; -989.000; -999.000
411.949;  -41.875;  -56.000;   17.000
412.076; -111.875; -539.000; -519.000
412.202; -128.000; -758.000; -757.000
412.329; -123.175; -798.000; -752.000
412.455; -120.900; -821.000; -657.000
412.581;  -27.750;  -15.000;  172.000
412.707;  -75.375; -540.000; -457.000
412.834;   -6.875;  156.000;  219.000
412.960;  -96.025; -785.000; -784.000
413.086; -113.375; -743.000; -701.000
413.212;  131.125;  604.000;  578.000
413.339;  -91.050; -685.000; -701.000
413.465;  -31.075; -364.000; -310.000
413.591; -116.300; -757.000; -474.000
413.717;  -47.425; -358.000; -366.000
413.843; -118.275; -839.000; -861.000
413.969;  -41.900;  -47.000; -292.000
414.096; -108.325; -679.000; -679.000
414.222;    7.125;  -33.000;   85.000
414.348;  -72.425; -652.000; -385.000
414.474;   22.000;   38.000;  -52.000
414.600;  -15.975; -126.000; -144.000
414.726;   -2.150;  -96.000;  -55.000
414.852;  -48.375; -365.000; -342.000
414.978;   44.475;  104.000;  -18.000
415.104;   74.975;   38.000;   80.000
415.230;   61.825; -329.000; -330.000
415.356;   76.175; -409.000; -514.000
415.482;  245.250;   13.000;  -35.000
415.608;  415.450; -247.000; -323.000
415.734; 1360.025;   67.000;   38.000
415.860;27734.775; -875.000; -767.000
415.986;23406.200; -685.000; -607.000
416.111; 2220.950; -798.000; -652.000
416.237;  484.900; -424.000; -571.000
416.363; 1597.250; -765.000; -733.000
416.489; 6557.175; -324.000; -251.000
416.615;  905.275; -707.000; -742.000
416.741;   52.450; -677.000; -784.000
416.866;  -54.075; -673.000; -736.000
416.992;  -93.950; -801.000; -818.000
417.118;  -20.200;  -41.000;  -80.000
417.244;  -58.625; -798.000; -531.000
417.369;  -69.725; -801.000; -612.000
417.495;   -5.575; -325.000; -254.000
417.621;  -79.600;-1015.000; -803.000
417.746;    9.950; -579.000; -572.000
417.872;   79.300; -254.000; -144.000
417.998;  131.000; -515.000; -530.000
418.123; 1474.125;-1073.000; -845.000
418.249; 8343.925; -512.000; -601.000
418.374; 1452.150; -916.000; -824.000
418.500;  225.500; -383.000; -482.000
418.626;  163.600;   70.000;  -59.000
418.751;  164.850; -549.000; -448.000
418.877;  287.350; -637.000; -643.000
419.002; 2456.975; -688.000; -560.000
419.128;18892.575; -930.000; -721.000
419.253; 5422.825; -967.000; -837.000
419.379;  752.800; -391.000; -338.000
419.504;  585.350;  325.000;  415.000
419.629;  787.675; -393.000; -212.000
419.755; 4973.625; -317.000; -254.000
419.880;32696.075;  -98.000;   67.000
420.006;16891.850; -280.000; -221.000
420.131;42712.400; -662.000; -775.000
420.256; 7050.475; -315.000; -316.000
420.382;  958.700; -665.000; -687.000
420.507;  180.725; -649.000; -778.000
420.632;   77.350; -337.000; -339.000
420.758;  108.400; -251.000; -425.000
420.883;  -93.700; -876.000; -672.000
421.008;  -85.325; -775.000; -619.000
421.133;  -83.025; -509.000; -467.000
421.259;  -34.075; -325.000; -259.000
421.384; -121.550; -834.000; -693.000
421.509;  -99.750;-1052.000; -862.000
421.634;  369.725; -936.000; -820.000
421.759;  187.375; -359.000; -327.000
421.885;  -80.750; -717.000; -656.000
422.010;  -75.475; -673.000; -542.000
422.135; -141.350; -695.000; -727.000
422.260;   25.425;  340.000;  280.000
422.385;  -49.125;   12.000;  -98.000
422.510;   -2.725;  151.000;  -26.000
422.635;   -7.950;  -87.000;  -43.000
422.760;    2.025; -766.000; -791.000
422.885;   34.450;  -57.000;  -80.000
423.010;  -16.500; -112.000; -169.000
423.135;  -87.275; -481.000; -561.000
423.260;  -38.675; -150.000; -245.000
423.385;   29.350;  476.000;  222.000
423.510;    3.400;   71.000;  -22.000
423.635;   12.950;  133.000;   45.000
423.760;   66.225;  383.000;  328.000
423.885;   24.400;  336.000;  391.000
424.010;   -0.575;  -68.000;  -13.000
424.135;  -30.750;    5.000;  -33.000
424.259;  -65.225; -654.000; -457.000
424.384;  -53.075; -279.000; -272.000
424.509;   -8.725; -260.000; -186.000
424.634;  -88.175; -761.000; -623.000
424.759;  -26.100; -688.000; -544.000
424.883;   -4.400; -506.000; -527.000
425.008;  228.575; -502.000; -410.000
425.133; 2797.825; -679.000; -653.000
425.258; 1571.825; -517.000; -381.000
425.382;  569.650; -867.000; -774.000
425.507; 1366.350; -487.000; -543.000
425.632;  375.950; -802.000; -663.000
425.756;  636.400; -256.000; -146.000
425.881; 8935.975; -831.000; -857.000
426.006;28084.175; -604.000; -355.000
426.130; 4775.225; -696.000; -508.000
426.255;  664.575; -611.000; -491.000
426.379;  284.550; -189.000; -577.000
426.504;  523.025;  660.000;  544.000
426.629; 5862.575; -519.000; -466.000
426.753; 4613.075;   64.000;  -46.000
426.878;  584.250; -252.000; -288.000
427.002;  330.525; -651.000; -668.000
427.127; 1970.375;  -35.000; -158.000
427.251;16561.825;  372.000;  401.000
427.375; 5547.575; -191.000; -173.000
427.500; 1472.525; -616.000; -610.000
427.624;  487.300; -234.000; -400.000
427.749;  130.400; -216.000; -225.000
427.873;    6.000; -499.000; -412.000
427.997;  -27.025; -222.000; -230.000
428.122;   74.550;  795.000;  703.000
428.246;   42.775;  433.000;  434.000
428.371; -121.950; -869.000; -773.000
428.495;  -89.050; -624.000; -646.000
428.619;  -36.250; -186.000; -117.000
428.743;   22.175;   65.000;  132.000
428.868;  -65.300; -732.000; -643.000
428.992;  598.000; -219.000; -326.000
429.116;  253.300; -329.000; -357.000
429.240;  138.950;  419.000;  426.000
429.365;  -28.075; -454.000; -574.000
429.489;  -45.525; -638.000; -647.000
429.613;   42.950; -236.000; -177.000
429.737;   93.500; -563.000; -432.000
429.861;  390.725; -247.000; -133.000
429.985; 7720.425; -425.000; -305.000
430.109; 9979.675; -770.000; -908.000
430.234; 1261.300;   76.000;  -50.000
430.358;  163.350; -250.000; -160.000
430.482;  -33.975; -672.000; -564.000
430.606;  -59.400; -655.000; -375.000
430.730;  -34.975; -437.000; -388.000
430.854;  -47.325; -909.000; -835.000
430.978;  -78.075; -795.000; -764.000
431.102;  -74.250; -499.000; -422.000
431.226;  -93.350; -874.000; -815.000
431.350;   39.650;  345.000;  422.000
431.474;  -75.625; -661.000; -373.000
431.597; -143.775;-1060.000; -848.000
431.721;  -63.300; -276.000; -267.000
431.845; -111.300; -704.000; -472.000
431.969;  -67.050; -304.000; -349.000
432.093;  -94.050; -395.000; -317.000
432.217;  -10.525;   32.000;   82.000
432.341;  -76.175; -523.000; -518.000
432.464;   21.725;   96.000;   40.000
432.588;    9.125; -401.000; -329.000
432.712;   32.925;  -52.000;  -52.000
432.836;   53.300;  213.000;  263.000
432.959;    7.825; -372.000; -311.000
433.083;  147.200;   11.000;    2.000
433.207;  567.200;  285.000;  930.000
433.330; 7283.175; -391.000; -200.000
433.454;10249.875; -654.000; -638.000
433.578; 5696.625;  583.000;  278.000
433.701; 1270.575; -623.000; -675.000
433.825;  179.250; -292.000; -299.000
433.949;   78.025;   28.000;  -72.000
434.072;    5.400; -410.000; -323.000
434.196;    5.325; -309.000; -117.000
434.319; 3540.000;25482.000;25124.000
434.443;  841.950; -656.000; -603.000
434.566; 3911.300;  281.000;   62.000
434.690;  881.125; -637.000; -383.000
434.813;  156.425; -251.000; -173.000
434.937;  -21.725; -569.000; -696.000
435.060;  -59.700; -423.000; -332.000
435.184;   45.625; -492.000; -217.000
435.307;   34.825;  159.000;  102.000
435.431;  -20.900;  -40.000;   24.000
435.554;  -81.700; -399.000; -240.000
435.677;  -83.300; -350.000; -258.000
435.801;  -48.500;  -25.000;   49.000
435.924;  -23.250;    1.000;  -67.000
436.048; -142.125;-1019.000; -732.000
436.171;  -65.775; -240.000;  -66.000
436.294;  -19.550; -248.000; -229.000
436.417;  218.150; -963.000; -849.000
436.541;  -17.600; -814.000; -840.000
436.664;  -41.750; -242.000; -316.000
436.787;  -28.400;   13.000;  113.000
436.910; -109.925; -792.000; -422.000
437.034;  -12.250;  142.000;  143.000
437.157;   41.850;  -11.000;    0.000
437.280;  -63.200; -392.000; -292.000
437.403; -116.525; -982.000; -869.000
437.526;  125.600; -903.000; -865.000
437.649;  845.325; -505.000; -332.000
437.772;   90.450; -692.000; -540.000
437.896;   59.300;  700.000;  544.000
438.019;  -87.475; -758.000; -503.000
438.142;  -83.700; -596.000; -506.000
438.265; -105.650; -639.000; -670.000
438.388;   80.025; -520.000; -410.000
438.511;  -38.075; -597.000; -394.000
438.634;  -48.250; -247.000; -125.000
438.757; -142.850; -693.000; -619.000
438.880;  -33.175;  -34.000;  -57.000
439.003;  -94.825; -417.000; -437.000
439.126;  -66.125; -287.000; -167.000
439.248;  -66.650;  -98.000; -139.000
439.371;  -43.650;    9.000;  -53.000
439.494;   15.975;  510.000;  439.000
439.617;  -52.375;   65.000;  -88.000
439.740; -162.825; -968.000; -816.000
439.863; -136.900; -755.000; -595.000
439.986; -115.250; -476.000; -431.000
440.108;  -35.175; -161.000; -112.000
440.231; -150.775; -950.000; -836.000
440.354;  -49.025;  -64.000; -150.000
440.477;  -88.200; -566.000; -542.000
440.599;  -51.750; -200.000; -225.000
440.722; -130.375; -709.000; -586.000
440.845;   69.900;  751.000;  928.000
440.968;  -96.575; -415.000; -311.000
441.090;  -65.950; -199.000;  -33.000
441.213; -165.200;-1021.000; -825.000
441.336;  -50.050; -159.000;   -5.000
441.458;  -84.650; -549.000; -396.000
441.581; -103.700; -628.000; -629.000
441.703;  -70.950; -152.000;   13.000
441.826; -107.975; -557.000; -400.000
441.948;  -59.750;   56.000;   51.000
442.071;   34.475;  555.000;  424.000
442.193; -112.875; -531.000; -485.000
442.316;   12.175;  152.000;   97.000
442.438;   74.450; -233.000;  -10.000
442.561;   85.575;  272.000;  262.000
442.683;  139.950; -809.000; -522.000
442.806;  453.750;   -8.000;   74.000
442.928;  -66.550; -859.000; -604.000
443.051;  -66.625; -577.000; -373.000
443.173;  -76.200; -341.000; -339.000
443.295;  -89.925; -263.000; -371.000
443.418;  -77.875; -321.000;  -29.000
443.540;  -33.600; -106.000;   -4.000
443.662; -121.900; -563.000; -465.000
443.785;  -14.725;  335.000;  199.000
443.907;  -88.225; -362.000; -208.000
444.029; -119.625; -767.000; -494.000
444.152; -152.775; -644.000; -554.000
444.274;  -40.950;  -18.000;  -24.000
444.396; -120.425; -461.000; -221.000
444.518; -132.625; -691.000; -454.000
444.640;  -94.325; -268.000; -111.000
444.763;  -27.175;  388.000;  249.000
444.885; -116.075; -432.000; -392.000
445.007;  -38.425;   35.000;   86.000
445.129; -122.500; -610.000; -515.000
445.251; -106.200; -372.000; -439.000
445.373; -143.350; -537.000; -386.000
445.495;   -0.550;  242.000;  350.000
445.617;   27.150;  853.000;  753.000
445.739;  -63.325; -215.000;  -97.000
445.861;  -74.025; -245.000; -112.000
445.984;  -66.775; -267.000; -101.000
446.105;   10.225; -418.000; -251.000
446.227;  192.450; -176.000;  -19.000
446.349;  -70.650; -358.000; -249.000
446.471; -109.400; -615.000; -448.000
446.593;  -93.550; -316.000;   19.000
446.715;  -29.475;  -67.000;   41.000
446.837;   41.575;  697.000;  832.000
446.959;  -87.125; -457.000; -478.000
447.081; -124.925; -628.000; -518.000
447.203;   58.100;  862.000;  834.000
447.325;  -83.700; -270.000;   42.000
447.446;   -0.050;  286.000;  530.000
447.568; -153.925; -921.000; -803.000
447.690;  -76.450; -236.000; -245.000
447.812; -151.900; -798.000; -519.000
447.933;  -32.475;  155.000;  127.000
448.055;  -71.900; -306.000; -261.000
448.177;   52.950;   31.000;   79.000
448.299;  -60.525; -935.000; -727.000
448.420;    0.475;  -25.000;  159.000
448.542;  -57.600;   -3.000;   33.000
448.664;  -22.675;  109.000;  322.000
448.785;  -38.675;  265.000;   83.000
448.907;  -87.925; -614.000; -353.000
449.028;  -87.600; -771.000; -471.000
449.150;   43.525;  492.000;  589.000
449.272; -170.325;-1044.000; -913.000
449.393;   29.225;  612.000;  694.000
449.515; -134.800; -634.000; -581.000
449.636;  -62.575; -264.000; -155.000
449.758;   59.075;  763.000;  622.000
449.879;  -97.825; -498.000; -396.000
450.001;  -74.500; -149.000;  -49.000
450.122;  -30.675;  -95.000;  162.000
450.244;  -20.300;   37.000;  364.000
450.365;  -75.350; -495.000; -301.000
450.486;   -9.325;   80.000;  268.000
450.608;   58.450;  393.000;  326.000
450.729;   97.775;  578.000;  645.000
450.850;   97.850; -574.000; -466.000
450.972; 1097.825; -552.000; -389.000
451.093; 7422.575;  190.000;  588.000
451.214; 3956.175; -516.000; -337.000
451.336;  680.750;  773.000;  579.000
451.457;  125.775;  264.000;  393.000
451.578;  -21.675; -118.000;  -74.000
451.699; -111.900; -546.000; -540.000
451.821;  -56.700; -284.000;  -50.000
451.942;   12.975;  278.000;  285.000
452.063;   65.675;  228.000;  419.000
452.184;  782.750;  -54.000;  -49.000
452.305; 1694.550;  103.000;  170.000
452.427;  332.475; -549.000; -301.000
452.548;   16.825;   23.000;   79.000
452.669;  -56.150; -257.000;  -89.000
452.790;  -41.500;    3.000;  -18.000
452.911;  -23.900;  195.000;  259.000
453.032;  -69.000; -289.000;  -60.000
453.153;  -54.425;  -29.000;   81.000
453.274;   54.650;  737.000;  868.000
453.395;  -69.850;  -51.000;  175.000
453.516;  102.325; 1317.000; 1388.000
453.637;  -92.300; -205.000; -150.000
453.758;  -50.550;   15.000;   69.000
453.879; -116.400; -462.000; -250.000
454.000;   68.025; 1086.000;  948.000
454.121; -128.975; -554.000; -326.000
454.242; -100.050; -599.000; -383.000
454.362;  -58.925;  -99.000;  114.000
454.483;    0.675; -309.000; -229.000
454.604;   90.225;  512.000;  580.000
454.725; -115.225; -627.000; -555.000
454.846; -127.225; -474.000; -406.000
454.967;  -20.925;  230.000;  539.000
455.087;  -37.275;  179.000;  153.000
455.208;   18.375;  554.000;  856.000
455.329;  -56.125;  -22.000;   82.000
455.450;   47.075;  473.000;  633.000
455.570;  -77.000; -234.000; -211.000
455.691;  -28.900;  201.000;  407.000
455.812; -105.600; -270.000;  -92.000
455.932;  -52.600;  107.000;  -97.000
456.053;  -79.725;   36.000;   24.000
456.173; -102.250; -433.000; -355.000
456.294; -130.375; -476.000; -303.000
456.415;  -44.200;  -73.000;   70.000
456.535;  -41.050;  297.000;  273.000
456.656;  -31.925;  132.000;  240.000
456.776;  -73.750;    3.000;  298.000
456.897;   -5.700;  308.000;  513.000
457.017;  -67.825; -153.000;   -3.000
457.138; -104.150; -402.000; -249.000
457.258;  -27.050;  263.000;  224.000
457.379;  -10.150;  509.000;  521.000
457.499;  -44.175;  443.000;  432.000
457.620; -107.100; -407.000; -231.000
457.740;  -99.725; -132.000;  -11.000
457.860;  -25.800;   87.000;   44.000
457.981;  -27.075;  132.000;  124.000
458.101;  -64.100;  -89.000;   40.000
458.221;  -25.150;  336.000;  402.000
458.342;  -61.775;   -4.000;  -37.000
458.462;   34.000;  617.000;  352.000
458.582;   12.150; -302.000; -294.000
458.703;   40.650;  303.000;  154.000
458.823;   21.000;   22.000;  163.000
458.943;   67.900;  341.000;  467.000
459.063;   22.625; 1124.000;  192.000
459.183;  -24.275;  328.000;  313.000
459.304;    5.650;  315.000;  517.000
459.424;  -55.225; -246.000;  -89.000
459.544;  465.050;  388.000;  764.000
459.664; 1276.475;  499.000;  506.000
459.784;  496.600; 1004.000; 1175.000
459.904;  106.925;  867.000;  744.000
460.024;   50.675;  867.000;  684.000
460.144;  -14.150;  449.000;  554.000
460.264;   -2.150;  515.000;  327.000
460.385;  -92.450; -145.000; -119.000
460.505;   34.225;  905.000;  858.000
460.625;  -89.300;  -17.000;  -68.000
460.745;  -22.925;  396.000;  541.000
460.864;  -36.375;  153.000;  469.000
460.984;   56.650;  499.000;  573.000
461.104;  162.325; 1656.000; 1775.000
461.224;   18.000;  657.000;  650.000
461.344;  -40.400;  431.000;  360.000
461.464;  -36.350;  258.000;  513.000
461.584;  -30.725;  283.000;  466.000
461.704;  -56.575;   58.000;  108.000
461.824;  -60.050;  238.000;  259.000
461.943;  -45.200;  191.000;  130.000
462.063;  -66.375;    2.000;  324.000
462.183;   22.575;  639.000;  717.000
462.303;   81.400; 1678.000; 1230.000
462.422;   38.175;  781.000;  840.000
462.542;  -36.750;  271.000;  391.000
462.662;   43.400;  353.000;  380.000
462.782;  338.975;  833.000;  572.000
462.901;  748.875;  545.000;  717.000
463.021;  397.700; 1702.000; 1638.000
463.141;   11.175;  337.000;  770.000
463.260;  -14.425;  614.000;  474.000
463.380;   23.275;  902.000;  884.000
463.499;  -42.075;  342.000;  332.000
463.619;  -29.200;  581.000;  559.000
463.738;   99.825; 1644.000;  903.000
463.858;   17.375;  657.000;  811.000
463.978;  -35.675;  542.000;  396.000
464.097;   46.925;  921.000; 1114.000
464.217;  144.550; 1196.000; 1143.000
464.336;  149.125; 1068.000; 1130.000
464.455;  -32.325;  328.000;  659.000
464.575;   32.525;  597.000;  602.000
464.694;  119.025; 1204.000; 1179.000
464.814;  159.675; 1190.000; 1138.000
464.933;   76.675; 1095.000; 1027.000
465.052;   93.600; 1412.000; 1054.000
465.172;   65.050;  922.000;  799.000
465.291;  125.650; 1376.000; 1320.000
465.410;    4.725;  462.000;  735.000
465.530;   74.325; 1355.000; 1310.000
465.649;   54.225; 1209.000; 1273.000
465.768;  135.350; 1673.000; 1508.000
465.888;   66.525;  941.000; 1174.000
466.007;   95.875; 1335.000; 1440.000
466.126;  -19.425;  721.000;  641.000
466.245;   48.475; 1176.000; 1187.000
466.364;   23.475;  950.000; 1060.000
466.484;   57.700; 1024.000; 1213.000
466.603;   32.500; 1101.000; 1222.000
466.722;  106.450; 1490.000; 1769.000
466.841;   63.000; 1151.000; 1401.000
466.960;   33.200; 1069.000;  972.000
467.079;  128.725; 1971.000; 1786.000
467.198;   54.075; 1238.000; 1181.000
467.317;   83.875; 1768.000; 1162.000
467.436;   74.050; 1709.000; 1261.000
467.555;  110.125; 1796.000; 1746.000
467.674;   74.125; 1227.000; 1329.000
467.793;   48.250; 1376.000; 1374.000
467.912;   82.925; 1658.000; 1539.000
468.031;  122.300; 2038.000; 1930.000
468.150;  137.775; 1842.000; 1837.000
468.269;  184.650; 2313.000; 2090.000
468.388;  198.225; 2168.000; 2339.000
468.507;  249.925; 2884.000; 2903.000
468.626;  252.050; 2555.000; 2541.000
468.744;  133.600; 2018.000; 2174.000
468.863;  198.300; 2312.000; 2523.000
468.982;  101.275; 1503.000; 1555.000
469.101;  197.775; 2788.000; 2692.000
469.220;  146.400; 2333.000; 2176.000
469.338;  245.675; 2935.000; 3051.000
469.457;  196.325; 2719.000; 2545.000
469.576;  337.350; 3953.000; 3784.000
469.695;  249.650; 2877.000; 3066.000
469.813;  425.925; 4148.000; 4192.000
469.932;  402.200; 4255.000; 4485.000
470.051;  437.625; 4075.000; 4161.000
470.169; 1007.475; 4470.000; 4338.000
470.288; 1943.850; 4700.000; 4809.000
470.406; 1155.625; 5059.000; 5194.000
470.525;  676.250; 6101.000; 5787.000
470.644;  651.300; 6847.000; 6794.000
470.762;  803.425; 8397.000; 7873.000
470.881;  898.300; 8651.000; 8464.000
470.999; 1056.975; 9685.000; 9151.000
471.118; 1112.175;11174.000;10711.000

