
Integration time [ms]: 100.000
Averaging Nr. [scans]: 40
Smoothing Nr. [pixels]: 0
Data measured with spectrometer [name]: 2101012U2
Wave   ;Sample   ;Dark     ;Reference
[nm]   ;[counts] ;[counts] ;[counts] 

197.733;   35.400;  516.000;  404.000
197.879;  -81.325; -610.000; -634.000
198.025;  -45.000; -475.000; -420.000
198.171;  -72.400; -602.000; -612.000
198.317;  -17.575; -401.000; -316.000
198.463;  -51.425; -655.000; -404.000
198.609;   18.600;  181.000; -137.000
198.755;  -86.800; -644.000; -410.000
198.901;  -69.450; -505.000; -424.000
199.047;  -63.800; -615.000; -488.000
199.193;  -38.175; -230.000; -468.000
199.339;  -23.000; -222.000; -369.000
199.485;   32.300;  330.000;  271.000
199.631;   17.475;  227.000;  310.000
199.777;  -54.775; -466.000; -398.000
199.923;  -63.200; -610.000; -424.000
200.069;   -1.025; -141.000;  -58.000
200.215;   58.225;  128.000;  453.000
200.361;   36.775;  243.000;  477.000
200.507;  -58.800; -600.000; -373.000
200.653;  -23.925; -371.000; -194.000
200.798;  -19.725; -215.000; -125.000
200.944;   -0.575; -146.000;  -41.000
201.090;   34.000;   61.000;  222.000
201.236;    4.650; -116.000; -158.000
201.382;  118.775;  874.000;  903.000
201.528;    6.700;  -58.000;  -48.000
201.674;  -55.050; -386.000; -293.000
201.819;  -59.050; -540.000; -439.000
201.965;  -70.950; -699.000; -447.000
202.111;  -15.925; -273.000; -226.000
202.257;  -28.075; -250.000; -238.000
202.402;   14.225;   13.000;  -36.000
202.548;  -35.975; -169.000; -116.000
202.694;   78.600;  410.000; -183.000
202.840;  -74.775; -603.000; -531.000
202.985;  -65.925; -681.000; -639.000
203.131; -105.925; -832.000; -666.000
203.277;  -32.400; -199.000; -262.000
203.423;  -49.325; -434.000; -520.000
203.568;  -32.825; -462.000; -237.000
203.714;  -62.050; -535.000; -542.000
203.860;  -80.800; -682.000; -641.000
204.005;   20.425;  112.000;  167.000
204.151;   75.325;  561.000;  556.000
204.296;  -54.250; -354.000; -221.000
204.442;  -65.725; -600.000; -547.000
204.588;  -67.025; -592.000; -579.000
204.733;   13.900;  178.000;  168.000
204.879; -129.675;-1018.000; -822.000
205.025;    2.825;  -99.000;  126.000
205.170;   -0.925;  -17.000;   94.000
205.316;   77.975;  438.000;  661.000
205.461;  -77.700; -698.000; -554.000
205.607;   72.125;  609.000;  665.000
205.752;  -80.525; -626.000; -551.000
205.898;  -52.725; -501.000; -391.000
206.043;  -57.175; -578.000; -506.000
206.189;  -37.800; -243.000; -285.000
206.334;   79.800;  554.000;  606.000
206.480;   66.975;  409.000;  239.000
206.625;  -71.675; -529.000; -552.000
206.771;  -42.300; -451.000; -373.000
206.916;  -34.825; -210.000; -537.000
207.062;  -75.075; -545.000; -591.000
207.207;  -62.225; -546.000; -443.000
207.353;   54.025;  185.000;  460.000
207.498;    8.175;  196.000;   85.000
207.643;  -54.800; -501.000; -370.000
207.789; -120.075;-1069.000; -910.000
207.934;  -85.950; -665.000; -713.000
208.080;  -34.525; -154.000;   66.000
208.225;  -14.950;  -22.000;  -57.000
208.370;  -72.500; -727.000; -619.000
208.516;  -81.600; -741.000; -487.000
208.661;  -14.950; -127.000;  -69.000
208.806;  -18.850; -165.000; -171.000
208.952; -125.375;-1044.000; -731.000
209.097;   67.525;  378.000;  349.000
209.242;  -39.275; -307.000; -382.000
209.387;   91.525;  392.000;  350.000
209.533;  -44.050; -321.000; -350.000
209.678;   86.850;  472.000;  543.000
209.823;  -49.300; -408.000; -310.000
209.969;  -90.750; -860.000; -757.000
210.114;  -89.075; -907.000; -719.000
210.259; -110.800; -939.000; -889.000
210.404;   -4.700; -171.000;  103.000
210.549;   18.750;  108.000;    3.000
210.695;  -11.175;   -3.000;  -95.000
210.840;   38.625;   94.000;   67.000
210.985;  -66.725; -484.000; -303.000
211.130;   64.225;  268.000;  406.000
211.275;   15.900;  207.000;  199.000
211.420;  -44.775; -300.000; -289.000
211.566;  -68.375; -536.000; -489.000
211.711;   21.525;  218.000;  157.000
211.856;  -64.025; -545.000; -519.000
212.001;   21.350;  151.000;   44.000
212.146;   15.400;  153.000;   49.000
212.291;  -28.525; -210.000; -186.000
212.436;  -12.600; -280.000;   -6.000
212.581;  -83.700; -685.000; -653.000
212.726;  -73.500; -487.000; -538.000
212.871;  -53.425; -552.000; -217.000
213.016; -144.150;-1172.000;-1029.000
213.161;   59.500;  406.000;  291.000
213.306;  -67.150; -435.000; -577.000
213.451;  -97.100; -778.000; -689.000
213.596;  -48.925; -455.000; -347.000
213.741;  -51.825; -448.000; -538.000
213.886;  -76.300; -498.000; -517.000
214.031;  -16.575; -294.000; -124.000
214.176;  -49.100; -408.000; -341.000
214.321;  -12.150; -296.000; -157.000
214.466;  -20.550; -163.000;  -43.000
214.611;   -2.750;  -61.000;  -10.000
214.756;  -96.775; -948.000; -858.000
214.901;  -30.075; -388.000; -226.000
215.046; -118.425; -797.000; -825.000
215.191;   11.875;  128.000;   35.000
215.336;   -9.850; -157.000;  -19.000
215.480;  -67.300; -684.000; -505.000
215.625;   -7.825; -175.000;  -19.000
215.770;  -72.750; -757.000; -662.000
215.915;    1.950;   -5.000;  -97.000
216.060;   10.625; -113.000;  -21.000
216.205; -110.125; -731.000; -779.000
216.349;  -70.700; -470.000; -533.000
216.494; -127.550; -939.000; -867.000
216.639;  -99.950; -823.000; -888.000
216.784;  -76.100; -577.000; -525.000
216.929;   39.675;  392.000;  281.000
217.073;  -20.175; -244.000;  -31.000
217.218;   -3.650;   78.000;  -47.000
217.363;  -88.150; -656.000; -618.000
217.507;  -72.800; -623.000; -588.000
217.652;  -99.000; -845.000; -874.000
217.797;  -73.900; -708.000; -659.000
217.942; -103.400; -856.000; -720.000
218.086;   81.625;  608.000;  539.000
218.231;  -15.850; -174.000;  -26.000
218.376;  -28.800; -337.000; -229.000
218.520;   -8.000;  -41.000;   96.000
218.665;  -45.625; -338.000; -204.000
218.810;  -43.225; -275.000; -233.000
218.954;   13.950;  201.000;   35.000
219.099;  -97.025; -713.000; -963.000
219.243;  -58.500; -589.000; -554.000
219.388;  -35.350; -264.000; -136.000
219.532;  -17.500; -116.000; -116.000
219.677;  -70.700; -564.000; -521.000
219.822;   20.225;   33.000;   89.000
219.966;    6.875;   17.000;  -99.000
220.111;  -31.325; -328.000;  -40.000
220.255;  -92.150; -797.000; -750.000
220.400;   -6.200; -180.000; -146.000
220.544;  -74.450; -516.000; -450.000
220.689;  -47.925; -422.000; -451.000
220.833;   -9.025; -123.000;  -58.000
220.978;  -48.350; -393.000; -563.000
221.122;   25.625;  319.000;  307.000
221.267; -115.025; -906.000; -837.000
221.411;  -62.125; -478.000; -394.000
221.555;   -1.400; -104.000;  -23.000
221.700;  -52.950; -329.000; -222.000
221.844;   42.125;  255.000;  272.000
221.989;  -48.150; -328.000; -311.000
222.133;  -34.450; -289.000; -307.000
222.277;  -19.275;    5.000;   78.000
222.422;    5.975;  227.000;  113.000
222.566;  -30.025; -381.000; -214.000
222.711;  -50.075; -414.000; -479.000
222.855;  -88.875; -643.000; -586.000
222.999;  -94.475; -642.000; -717.000
223.144;  -43.300; -195.000; -194.000
223.288;   47.025;  423.000;  251.000
223.432;   18.000;  184.000;  230.000
223.576;   20.825;  152.000;  -21.000
223.721;   19.050;  364.000;  273.000
223.865;  -46.675; -472.000; -475.000
224.009;  204.300; 1673.000; 1631.000
224.153;  -78.800; -660.000; -671.000
224.298;  -68.425; -531.000; -489.000
224.442;  -11.750;  -74.000;  -33.000
224.586;   -2.500; -169.000; -106.000
224.730;  -92.975; -858.000; -670.000
224.875;  -93.950; -739.000; -688.000
225.019;    7.350;  102.000;  188.000
225.163;   40.075;  208.000;  341.000
225.307;    9.350;   97.000;  -91.000
225.451;   38.275;  360.000;  481.000
225.595;   25.725;  264.000;  176.000
225.739;  -26.000; -170.000;  -94.000
225.884;    3.800;   86.000;    5.000
226.028;  -89.625; -760.000; -626.000
226.172;  -37.700; -260.000; -273.000
226.316; -120.600; -941.000; -902.000
226.460;  -74.650; -645.000; -493.000
226.604;  -52.800; -406.000; -400.000
226.748; -100.625; -836.000; -733.000
226.892;  -23.150; -227.000; -181.000
227.036;  -53.825; -537.000; -447.000
227.180;  -63.800; -551.000; -375.000
227.324;  -56.450; -561.000; -580.000
227.468; -106.675; -819.000; -717.000
227.612;   13.050;  242.000;  -28.000
227.756;  -87.275; -845.000; -698.000
227.900;   38.700;  342.000;  441.000
228.044;  -63.275; -509.000; -290.000
228.188;   59.900;  448.000;  568.000
228.332;  -92.475; -546.000; -472.000
228.476;  -31.700; -223.000; -149.000
228.620;  -32.700; -210.000; -150.000
228.764;   70.800;  431.000;  349.000
228.908;  -17.775; -155.000;   30.000
229.052;  -56.375; -615.000; -528.000
229.195;  -25.925; -172.000;   13.000
229.339;  -30.650; -235.000; -305.000
229.483;  -21.725;    5.000; -162.000
229.627;  -13.425; -156.000;  139.000
229.771;  -49.525; -218.000; -294.000
229.915;   -1.525;  230.000;   79.000
230.059;  -94.625; -648.000; -663.000
230.202;  -33.175; -370.000; -317.000
230.346;  -27.050; -107.000;  107.000
230.490;  -71.500; -489.000; -521.000
230.634; -100.675; -736.000; -553.000
230.777;   66.750;  478.000;  509.000
230.921;  -50.650; -450.000; -359.000
231.065;  -37.775; -246.000; -286.000
231.209;   14.050;  261.000;  265.000
231.352;   24.975;   54.000;   40.000
231.496;   15.850;  568.000;  188.000
231.640;  -81.925; -693.000; -621.000
231.783;   50.125;  546.000;  525.000
231.927;  -32.375; -294.000; -365.000
232.071; -107.750; -962.000; -736.000
232.214; -109.775; -980.000; -764.000
232.358;  -97.500; -683.000; -599.000
232.502;   -3.275;  -19.000;    7.000
232.645; -121.725;-1090.000; -927.000
232.789;  -35.300; -257.000; -218.000
232.933;  -27.800; -407.000; -224.000
233.076; -112.600;-1038.000; -897.000
233.220; -108.825; -752.000; -777.000
233.363;  -67.750; -669.000; -477.000
233.507;   53.750;  371.000;  129.000
233.650;  -87.825; -764.000; -834.000
233.794;   34.225;  438.000;  461.000
233.938;  -49.200; -530.000; -362.000
234.081;  -25.225;  -93.000;   31.000
234.225;  -61.200; -631.000; -539.000
234.368; -108.475; -773.000; -723.000
234.512;  -44.325; -385.000; -299.000
234.655;  -91.700; -582.000; -555.000
234.798;  -63.475; -493.000; -466.000
234.942; -121.325; -884.000;-1002.000
235.085;  -63.675; -651.000; -443.000
235.229;  -74.950; -405.000; -410.000
235.372;  -51.750; -247.000; -191.000
235.516;  -76.000; -397.000; -321.000
235.659;   16.125;   92.000;  121.000
235.802;  -25.675;  -38.000;  -22.000
235.946;   14.850;  335.000;  215.000
236.089;   13.550;  126.000;  250.000
236.233;   46.475;  275.000;  298.000
236.376;  -52.000; -235.000; -378.000
236.519;  -36.300; -297.000; -319.000
236.663;  -17.975; -215.000; -117.000
236.806; -128.950;-1029.000; -999.000
236.949;   33.700;  543.000;  431.000
237.092;   48.650;  412.000;  391.000
237.236;  -82.175; -589.000; -502.000
237.379;   55.775;  352.000;  428.000
237.522; -118.550; -879.000; -768.000
237.666;   -8.850; -271.000;   18.000
237.809; -125.625; -851.000; -823.000
237.952;   28.900;  469.000;  271.000
238.095;  -66.325; -447.000; -442.000
238.238;   77.025;  688.000;  700.000
238.382;   -3.550;  166.000;  103.000
238.525;  -71.225; -598.000; -511.000
238.668; -134.150;-1060.000; -985.000
238.811;  -87.075; -638.000; -643.000
238.954;  -59.900; -483.000; -334.000
239.097;   81.100;  617.000;  664.000
239.241;   15.100;  394.000;  326.000
239.384;  -40.150; -254.000; -214.000
239.527;  -53.975; -424.000; -224.000
239.670; -147.600; -994.000;-1091.000
239.813; -106.425; -696.000; -658.000
239.956;   72.900;  579.000;  473.000
240.099; -111.975; -778.000; -725.000
240.242;   62.175;  428.000;  432.000
240.385;   44.850;  466.000;  450.000
240.528;  -70.725; -706.000; -473.000
240.671;   20.525;  189.000;  134.000
240.814;  -47.925; -441.000; -158.000
240.957; -112.975; -767.000; -578.000
241.100;  -79.450; -779.000; -755.000
241.243; -134.950;-1234.000; -893.000
241.386;  -50.050; -508.000; -379.000
241.529;  -83.775; -735.000; -547.000
241.672;  -67.600; -566.000; -495.000
241.815; -112.500; -832.000; -808.000
241.958;  -20.325; -125.000; -182.000
242.101;  -68.050; -545.000; -390.000
242.244;  -40.850; -270.000; -325.000
242.387;  -38.700; -304.000; -246.000
242.530;   55.750;  470.000;  134.000
242.673;  -40.100; -381.000; -309.000
242.815; -107.800; -925.000; -899.000
242.958;  -63.050; -482.000; -381.000
243.101;   -4.675;  132.000;  187.000
243.244;  -75.500; -564.000; -521.000
243.387;  -42.000; -313.000; -316.000
243.530;  -97.325; -657.000; -674.000
243.672;   -4.400;   43.000;  -92.000
243.815;  -44.425; -355.000; -283.000
243.958;    1.425;   98.000;  -26.000
244.101;    0.725;   59.000;  -16.000
244.243;  -14.225;  -47.000;  101.000
244.386; -105.250; -761.000; -630.000
244.529;  -19.925; -132.000; -139.000
244.672; -143.200;-1154.000; -951.000
244.814;  -89.800; -621.000; -794.000
244.957;  -53.275; -380.000; -304.000
245.100;  -67.900; -489.000; -489.000
245.242;  -64.175; -387.000; -374.000
245.385;   -6.050;  -59.000;  -39.000
245.528; -120.850; -871.000; -705.000
245.670;   83.700;  612.000;  634.000
245.813;  -88.175; -599.000; -547.000
245.956;  -40.600; -324.000; -275.000
246.098;  -69.525; -508.000; -650.000
246.241;    5.025;  194.000;   48.000
246.383;  -25.675; -119.000;  -73.000
246.526;  -71.650; -454.000; -525.000
246.669; -117.175; -889.000; -780.000
246.811;   22.400;  172.000;   -1.000
246.954;  -60.450; -512.000; -426.000
247.096;  -24.400;  -84.000;   -6.000
247.239;  -66.550; -482.000; -445.000
247.381;  -73.150; -647.000; -488.000
247.524;   74.450;  645.000;  679.000
247.666;  -10.800;   58.000;   11.000
247.809; -112.000; -887.000; -691.000
247.951;  -14.600;  -75.000;  138.000
248.094;   23.925;  432.000;  308.000
248.236; -141.000;-1262.000;-1238.000
248.378;  -25.050; -356.000;  -81.000
248.521;  -42.175; -334.000; -337.000
248.663;  -62.175; -236.000; -267.000
248.806;  -24.725; -300.000; -266.000
248.948; -104.550; -886.000; -763.000
249.090;  -56.400; -428.000; -398.000
249.233;  -70.350; -344.000; -381.000
249.375;  -68.050; -474.000; -451.000
249.518;  -33.850;  -83.000; -133.000
249.660;  -22.325; -103.000;    3.000
249.802; -164.425;-1303.000;-1189.000
249.945;  -76.275; -612.000; -540.000
250.087; -101.975; -834.000; -768.000
250.229;  -58.525; -362.000; -480.000
250.371;  -72.225; -494.000; -439.000
250.514;  -46.400; -310.000; -244.000
250.656;  -68.825;   69.000;  102.000
250.798; -108.950; -849.000; -800.000
250.940;  -73.675; -322.000; -322.000
251.083;  -43.500; -335.000; -111.000
251.225;   43.100;  338.000;  310.000
251.367;  -30.300; -274.000; -373.000
251.509;  -36.325; -265.000; -210.000
251.651;  -92.100; -731.000; -671.000
251.794;   53.100;  538.000;  632.000
251.936; -113.275; -821.000; -747.000
252.078;  -76.200; -540.000; -461.000
252.220;  -58.825; -645.000; -477.000
252.362;   34.100;  344.000;  462.000
252.504;  -81.300; -677.000; -584.000
252.646; -119.425; -875.000; -722.000
252.788;   -7.825;   14.000; -128.000
252.931;  -52.400; -257.000; -253.000
253.073;  -31.025; -376.000; -317.000
253.215;   -2.375;  141.000;  122.000
253.357;  -28.400;   82.000; -153.000
253.499;  -47.125; -374.000; -234.000
253.641;  -92.025; -749.000; -594.000
253.783;  -87.975; -609.000; -527.000
253.925;  -80.275; -586.000; -591.000
254.067; -102.700; -744.000; -667.000
254.209;  -35.075; -391.000; -259.000
254.351; -136.325; -865.000; -883.000
254.493;  -69.425; -441.000; -417.000
254.635; -127.050; -936.000; -818.000
254.777;  -92.350; -752.000; -687.000
254.918;  -74.725; -512.000; -430.000
255.060;  -65.100; -551.000; -395.000
255.202;  -67.275; -473.000; -261.000
255.344;  -73.675; -658.000; -455.000
255.486;  -70.000; -471.000; -406.000
255.628; -108.700; -780.000; -781.000
255.770;  -90.025; -676.000; -536.000
255.912;  -72.575; -559.000; -468.000
256.053;  -86.975; -730.000; -508.000
256.195;  136.600; 1008.000;  903.000
256.337;  -92.225; -861.000; -595.000
256.479;   59.100;  532.000;  416.000
256.621;  -50.825; -394.000; -212.000
256.762; -100.300; -789.000; -742.000
256.904;   48.250;  485.000;  487.000
257.046;  -42.300; -381.000; -271.000
257.188;  -49.800; -351.000; -264.000
257.329;  -76.500; -525.000; -464.000
257.471; -115.225; -939.000; -807.000
257.613;  -60.225; -584.000; -498.000
257.755; -145.750;-1073.000; -982.000
257.896;   27.225;  286.000;  392.000
258.038;  -69.425; -403.000; -352.000
258.180;  -40.050; -354.000; -279.000
258.321;  -79.450; -581.000; -457.000
258.463;   -9.100;  -71.000;  133.000
258.605; -100.675; -562.000; -570.000
258.746; -101.675; -886.000; -772.000
258.888; -127.825;-1026.000;-1020.000
259.029;    9.125;  121.000;   -8.000
259.171;  -88.150; -614.000; -550.000
259.313;  -15.575;  -49.000;  -47.000
259.454;  -72.975; -536.000; -414.000
259.596;  -57.325; -483.000; -390.000
259.737;  -66.150; -590.000; -474.000
259.879;   16.825;  217.000;  311.000
260.020;   61.625;  901.000;  636.000
260.162;  -21.725; -146.000; -253.000
260.303; -116.125; -768.000; -687.000
260.445;  -87.950; -609.000; -613.000
260.586;    5.750;  392.000;  157.000
260.728;  -41.825; -360.000; -248.000
260.869;  -81.275; -350.000; -343.000
261.011;   70.350;  706.000;  537.000
261.152;  -64.175; -479.000; -319.000
261.293;  -78.250; -576.000; -595.000
261.435;  -38.600; -219.000; -184.000
261.576;  -49.125; -455.000; -325.000
261.718;   33.550;  420.000;  470.000
261.859; -108.475; -940.000; -949.000
262.000; -131.800; -951.000;-1016.000
262.142;  -34.250;  -52.000;  -60.000
262.283; -115.900; -808.000; -691.000
262.424;  -86.100; -666.000; -625.000
262.566; -141.675;-1161.000; -983.000
262.707; -109.425; -840.000; -830.000
262.848; -121.000; -769.000; -726.000
262.990;  -55.950; -362.000; -345.000
263.131;   53.775;  650.000;  681.000
263.272;    2.575;  -61.000;  -41.000
263.413;  -88.675; -589.000; -561.000
263.555;  -68.825; -669.000; -143.000
263.696;  -91.550; -550.000; -641.000
263.837;  -57.150; -449.000; -551.000
263.978;  -11.600;   -5.000;  -77.000
264.119;  -48.400; -283.000; -264.000
264.261; -121.375; -847.000; -630.000
264.402;   -2.175;   33.000;   40.000
264.543;  -79.025; -509.000; -524.000
264.684;  -11.850;   61.000;  -50.000
264.825;  -87.925; -816.000; -538.000
264.966;  -14.775;  -84.000;  -67.000
265.107; -114.150; -646.000; -670.000
265.248; -113.350; -825.000; -812.000
265.390;  -14.200;  152.000;   -9.000
265.531;  -25.950; -238.000; -107.000
265.672;  -83.750; -557.000; -630.000
265.813;   69.575;  563.000;  439.000
265.954; -122.575; -959.000; -940.000
266.095;  -16.325; -372.000; -322.000
266.236;  -93.125; -686.000; -548.000
266.377;  -37.075; -243.000; -297.000
266.518;  -66.950; -619.000; -547.000
266.659;   28.350;  170.000;  268.000
266.800;    3.250;   83.000;   85.000
266.941;  -83.075; -487.000; -478.000
267.082;   13.550;  354.000;   99.000
267.223;  -53.500; -344.000; -273.000
267.364; -113.750; -892.000; -686.000
267.504;  -11.025;    3.000;  135.000
267.645;    7.400;  160.000;   67.000
267.786;  -23.075; -147.000;  -86.000
267.927;  -83.625; -473.000; -379.000
268.068;  -23.200; -186.000;  -61.000
268.209;  -52.025; -175.000; -413.000
268.350;  -52.075; -388.000; -532.000
268.490;  -79.350; -648.000; -521.000
268.631;   32.400;  127.000;  225.000
268.772;  -99.325; -874.000; -647.000
268.913;  -57.675; -328.000; -476.000
269.054;  -16.700; -117.000;   12.000
269.194;  -44.275; -418.000; -402.000
269.335; -156.275;-1137.000;-1074.000
269.476;  -21.650;   33.000;  -35.000
269.617;  -48.700; -347.000; -392.000
269.757;  -76.875; -713.000; -646.000
269.898; -102.650; -856.000; -613.000
270.039;  -59.675; -415.000; -405.000
270.180; -124.675; -952.000; -816.000
270.320;  -30.550; -190.000; -250.000
270.461;  -44.550; -277.000; -249.000
270.602;  -24.325; -186.000; -156.000
270.742; -127.375; -868.000; -943.000
270.883;  -58.875; -442.000; -390.000
271.023;  -67.825; -358.000; -357.000
271.164;  -76.450; -607.000; -528.000
271.305; -102.875; -666.000; -654.000
271.445;  -90.900; -722.000; -683.000
271.586;  -78.125; -462.000; -283.000
271.726;  -47.425; -397.000; -322.000
271.867;  -85.825; -594.000; -534.000
272.008;   36.775; -473.000; -285.000
272.148;   71.025;  462.000;  468.000
272.289;   -2.050; -113.000; -181.000
272.429;   -5.625;   19.000;  185.000
272.570; -103.000; -633.000; -737.000
272.710;  -98.800; -825.000; -775.000
272.851;  -33.050;  113.000; -130.000
272.991; -161.775;-1173.000;-1077.000
273.131;  -69.675; -419.000; -459.000
273.272;  -99.675; -683.000; -723.000
273.412;  -13.900; -143.000;  -31.000
273.553;  -70.600; -488.000; -507.000
273.693;   98.900;  913.000;  858.000
273.834; -108.000; -894.000; -692.000
273.974;  -80.825; -664.000; -615.000
274.114; -100.675; -772.000; -560.000
274.255;   39.475;  414.000;  373.000
274.395;  -22.075; -180.000; -125.000
274.535;   20.975;  199.000;  350.000
274.676;   12.150;  225.000;   94.000
274.816;    0.150;  110.000;   34.000
274.956;  -91.300; -624.000; -690.000
275.097; -100.300;-1014.000; -922.000
275.237; -113.675; -913.000; -803.000
275.377; -101.275; -778.000; -689.000
275.517; -146.625; -878.000; -937.000
275.658;  -75.175; -590.000; -555.000
275.798;  -76.125; -606.000; -413.000
275.938;   10.425;  215.000;  323.000
276.078;  -98.250; -626.000; -395.000
276.218;    5.525;   99.000;  104.000
276.359; -130.200;-1026.000;-1024.000
276.499;  -76.575; -605.000; -446.000
276.639;  -42.400; -305.000; -151.000
276.779;  -51.925; -475.000; -357.000
276.919; -104.725; -783.000; -624.000
277.059;  -14.925; -261.000; -212.000
277.199;  -57.950; -357.000; -259.000
277.340;   27.925;  287.000;  175.000
277.480; -116.625; -840.000; -693.000
277.620;   30.450;  192.000;   16.000
277.760; -182.750;-1533.000;-1294.000
277.900;  -12.675;  113.000;   33.000
278.040;  -19.650;  137.000;  159.000
278.180;   27.300;  270.000;  170.000
278.320;   -4.800;   21.000;   56.000
278.460;  -78.975; -443.000; -469.000
278.600;  -96.450; -708.000; -598.000
278.740;   46.500;  448.000;  224.000
278.880; -113.175; -768.000; -791.000
279.020;  -36.650; -194.000; -144.000
279.160;  -91.800; -672.000; -595.000
279.300; -125.650; -926.000; -873.000
279.440; -107.350; -709.000; -622.000
279.579;  -93.125;-1014.000; -929.000
279.719;  -54.800; -410.000; -394.000
279.859;   23.375;   -4.000;   41.000
279.999;   -6.475; -208.000;  101.000
280.139;  -52.425; -435.000; -387.000
280.279;  -90.600; -708.000; -745.000
280.419;  -28.650; -229.000; -147.000
280.559;  -36.725; -259.000; -180.000
280.698;  -88.350; -790.000; -639.000
280.838; -114.000; -778.000; -800.000
280.978; -103.400; -846.000; -790.000
281.118; -107.425; -811.000; -704.000
281.257;    1.450;   24.000;    6.000
281.397; -139.900;-1094.000; -960.000
281.537;  -98.525; -599.000; -712.000
281.677;  -20.225; -150.000; -101.000
281.816;  -91.550; -700.000; -630.000
281.956;  -35.325; -193.000; -257.000
282.096;  -64.050; -539.000; -396.000
282.235; -102.125; -672.000; -638.000
282.375;  -20.625; -243.000;  -98.000
282.515; -107.525; -715.000; -707.000
282.654;   12.675;   29.000;  106.000
282.794;    9.825;  388.000;  244.000
282.934;  -49.475; -530.000; -491.000
283.073; -122.425;-1030.000; -857.000
283.213;  -59.925; -460.000; -467.000
283.353;  -47.300; -408.000; -349.000
283.492;  -32.125; -264.000; -296.000
283.632;  -64.275; -254.000; -168.000
283.771; -106.250; -859.000; -730.000
283.911;  -76.625; -369.000; -260.000
284.050; -110.925; -794.000; -748.000
284.190; -147.750;-1229.000;-1096.000
284.329; -138.450;-1055.000; -964.000
284.469;  -84.625; -516.000; -591.000
284.608;  -69.400; -559.000; -598.000
284.748;  -73.250; -614.000; -570.000
284.887;   -6.850;  -87.000;  -20.000
285.027; -129.775; -844.000; -892.000
285.166;  -28.025; -192.000; -249.000
285.306;  -14.450; -116.000;  -33.000
285.445;  -54.650; -229.000; -343.000
285.584;  -98.750; -630.000; -494.000
285.724;  -30.200; -282.000; -322.000
285.863; -116.675; -857.000; -507.000
286.002;  -54.950; -366.000; -276.000
286.142; -107.675; -715.000; -622.000
286.281;  -77.150; -525.000; -493.000
286.420;  -80.900; -554.000; -417.000
286.560;   93.200;  653.000;  623.000
286.699; -133.525; -958.000; -912.000
286.838;  -87.000; -590.000; -591.000
286.978;  -92.025; -533.000; -537.000
287.117; -142.050;-1085.000; -950.000
287.256;  -31.725; -228.000; -211.000
287.395;  -48.575; -197.000; -378.000
287.535;  -53.175; -370.000; -298.000
287.674;  -84.600; -509.000; -484.000
287.813;   32.225;  661.000;  533.000
287.952; -142.475;-1010.000; -871.000
288.091; -129.650;-1049.000; -915.000
288.231;   -3.125;   13.000;   15.000
288.370; -165.375;-1217.000;-1200.000
288.509;  -83.775; -728.000; -645.000
288.648;  -87.900; -770.000; -548.000
288.787;  -45.950; -243.000;  -87.000
288.926;  -76.350; -454.000; -475.000
289.065;  101.600;  859.000;  672.000
289.204;  -60.650; -377.000; -217.000
289.344;  -94.075; -791.000; -690.000
289.483;   12.675;  416.000;  304.000
289.622;  -33.325; -291.000; -149.000
289.761;  -20.250; -309.000; -166.000
289.900; -121.100; -785.000; -626.000
290.039;  -13.100;  -12.000;  -95.000
290.178;  -36.975; -274.000; -180.000
290.317;  -91.250; -618.000; -479.000
290.456;  -67.100; -463.000; -451.000
290.595; -117.000; -961.000; -833.000
290.734; -139.975; -904.000; -891.000
290.873;  -75.775; -456.000; -420.000
291.011; -116.750; -833.000; -843.000
291.150; -106.525; -770.000; -682.000
291.289;  -29.200; -343.000; -110.000
291.428;  -90.325; -599.000; -480.000
291.567;  -49.075; -370.000; -442.000
291.706;   -7.800;  109.000;  154.000
291.845;  -96.725; -597.000; -505.000
291.984; -154.100;-1234.000;-1061.000
292.122;   53.450;  602.000;  582.000
292.261;   20.525;  620.000;  463.000
292.400;    4.375; -144.000;  211.000
292.539; -128.500; -959.000; -813.000
292.678;  -38.325; -325.000; -300.000
292.816; -155.550;-1136.000; -965.000
292.955;  -94.625; -844.000; -684.000
293.094;  -20.750; -173.000; -337.000
293.233;  -57.325; -556.000; -400.000
293.371;  -44.675; -225.000;  -84.000
293.510; -109.950; -866.000; -780.000
293.649; -142.550; -959.000; -924.000
293.787; -118.375;-1083.000;-1012.000
293.926;  -28.150; -113.000;  -32.000
294.065;  -48.450; -379.000; -290.000
294.203;   35.575;  298.000;  406.000
294.342;   17.525;   74.000;  156.000
294.481; 5035.350;51180.000; -836.000
294.619;  -41.850; -425.000; -582.000
294.758; -154.375;-1230.000;-1137.000
294.896;    5.300; -125.000;    5.000
295.035; -138.250;-1040.000;-1006.000
295.174; -123.850;-1082.000; -954.000
295.312;  -44.875; -323.000; -203.000
295.451;  -40.425; -307.000; -428.000
295.589;  -75.575; -389.000; -518.000
295.728;    0.700; -292.000; -165.000
295.866;  -27.350;  -36.000;  -51.000
296.005;  -64.475; -584.000; -341.000
296.143;  -86.100; -558.000; -596.000
296.282; -101.525; -957.000; -881.000
296.420; -100.075; -657.000; -557.000
296.559;  -85.900; -892.000; -633.000
296.697;  -58.550; -847.000; -665.000
296.835;  -93.850;-1141.000;-1002.000
296.974;    5.625;  -23.000;   39.000
297.112;  -37.350; -443.000; -504.000
297.251;  -92.975; -815.000; -755.000
297.389;  -30.175; -576.000; -438.000
297.527;  -16.175; -145.000;  -83.000
297.666;  -60.375; -486.000; -438.000
297.804;  -49.875; -404.000; -264.000
297.942;   -4.850; -136.000; -161.000
298.081;   -7.975; -183.000;   63.000
298.219;   10.275;  -17.000;  -19.000
298.357;  -18.800; -144.000;  -71.000
298.495;  -76.025; -810.000; -812.000
298.634;   16.500;  245.000;  219.000
298.772;  -35.525; -220.000; -338.000
298.910;  -60.200; -309.000; -182.000
299.048;  -32.000; -130.000; -153.000
299.187;  -47.275; -350.000; -250.000
299.325;   -2.325;   52.000;  122.000
299.463;  -41.375; -389.000; -299.000
299.601;   -5.450; -327.000; -271.000
299.739; -132.050; -908.000; -883.000
299.877;  -95.925; -791.000; -703.000
300.016; -120.250;-1095.000; -935.000
300.154;   26.900;  -19.000; -161.000
300.292;  -42.650; -428.000; -348.000
300.430;  -38.800; -408.000; -291.000
300.568; -128.050; -940.000; -874.000
300.706;  -62.050; -366.000; -469.000
300.844; -121.025;-1108.000; -979.000
300.982;   63.725;  246.000;  282.000
301.120; -128.975; -965.000; -866.000
301.258;  -83.550; -812.000; -705.000
301.396;   -9.375;  104.000;  -41.000
301.534;  -28.600; -218.000; -293.000
301.672;  -77.300; -664.000; -521.000
301.810;  -69.925; -613.000; -545.000
301.948;   29.250;   53.000;  149.000
302.086;  174.050; -250.000;  -32.000
302.224;  197.975; -610.000; -585.000
302.362;  -62.225; -558.000; -622.000
302.500;  -98.800; -923.000; -893.000
302.638;   26.625;  128.000;  245.000
302.776;  -46.700; -352.000; -408.000
302.913;   30.750;  447.000;  236.000
303.051;  -31.875;  -86.000;  -23.000
303.189;   -0.800;   90.000;  118.000
303.327;  -55.850; -341.000; -256.000
303.465;  -92.600; -832.000; -588.000
303.603;  -99.525; -805.000; -604.000
303.740;   34.200;  417.000;  241.000
303.878;  -77.550; -800.000; -759.000
304.016; -105.375; -915.000; -790.000
304.154; -154.150;-1123.000;-1152.000
304.291;  -72.575; -505.000; -554.000
304.429;  -11.575;  102.000;   74.000
304.567; -134.525; -908.000; -893.000
304.705;  -69.225; -408.000; -515.000
304.842;  -31.550; -616.000; -540.000
304.980;   10.675;  215.000;   35.000
305.118;  -20.950; -367.000; -365.000
305.255; -128.875; -945.000; -927.000
305.393;   26.025;  178.000;  239.000
305.531; -133.175;-1173.000; -956.000
305.668;  -84.600; -663.000; -582.000
305.806;   -4.100; -358.000; -439.000
305.943;  -16.650; -629.000; -637.000
306.081;  -28.125; -378.000; -267.000
306.219; -102.850; -863.000; -748.000
306.356;    1.275;  158.000;   27.000
306.494;  119.125;  981.000;  761.000
306.631;   -3.950;  -11.000;  -55.000
306.769;   -5.100; -613.000; -485.000
306.906;  -40.625; -284.000; -258.000
307.044;  -62.050; -473.000; -488.000
307.181;  -63.225; -410.000; -332.000
307.319;    8.125;  112.000;   87.000
307.456; -158.325;-1191.000;-1153.000
307.594;  -99.975; -980.000; -727.000
307.731;  -33.825; -371.000; -164.000
307.868;    3.125;  -15.000;   20.000
308.006; -125.225; -961.000; -847.000
308.143;  -66.225; -618.000; -330.000
308.281;   36.300;  -37.000; -254.000
308.418;  -73.350; -748.000; -640.000
308.555;  -72.300; -400.000; -250.000
308.693;  -72.875; -577.000; -573.000
308.830; -109.950; -712.000; -657.000
308.967;  -21.275; -215.000;  -95.000
309.105;  -36.100; -507.000; -396.000
309.242;  -20.450; -468.000; -367.000
309.379;   16.950; -577.000; -655.000
309.517; -115.200; -936.000; -948.000
309.654;  -95.025; -910.000; -734.000
309.791;  -69.975; -662.000; -580.000
309.928; -109.525; -977.000; -914.000
310.065;  126.500;  819.000;  697.000
310.203;  -79.550; -825.000; -850.000
310.340;  -47.050; -465.000; -321.000
310.477;  -77.000; -412.000; -516.000
310.614;  -57.100; -383.000; -473.000
310.751;  -66.925; -427.000; -518.000
310.889;  -15.450;    1.000;   11.000
311.026; -145.875;-1161.000; -939.000
311.163;  -55.450; -386.000; -380.000
311.300;  -69.950; -512.000; -479.000
311.437;  -84.775; -658.000; -619.000
311.574; -146.650;-1226.000; -985.000
311.711;  -65.175; -595.000; -433.000
311.848;  -38.675; -380.000; -388.000
311.985;    8.975;  270.000;   93.000
312.122; -133.050; -932.000; -762.000
312.259; -121.150; -941.000; -994.000
312.396;  -57.700; -508.000; -551.000
312.533;  -67.100; -812.000; -790.000
312.670; -124.500;-1070.000; -898.000
312.807;  -17.625; -352.000; -367.000
312.944;  -60.900; -513.000; -611.000
313.081;  -28.125; -150.000; -415.000
313.218; -105.950;-1111.000; -867.000
313.355;  -13.975; -531.000; -449.000
313.492;  -24.225; -455.000; -292.000
313.629;  126.550;  815.000;  735.000
313.766; -143.500;-1176.000;-1008.000
313.902;  -24.900; -186.000;   21.000
314.039;  -45.600; -372.000; -289.000
314.176;   14.475;  286.000;  192.000
314.313;  -65.825; -569.000; -473.000
314.450;  -73.300; -788.000; -684.000
314.587;  -58.625; -468.000; -480.000
314.723;    1.225;  -78.000;  130.000
314.860;   18.975;  318.000;  332.000
314.997;   26.625;  223.000;  142.000
315.134;  -38.850; -385.000; -368.000
315.270;  -38.925; -480.000; -496.000
315.407; -119.850;-1094.000; -967.000
315.544;  -53.950; -657.000; -538.000
315.681;  -51.575; -681.000; -565.000
315.817;   10.925; -133.000; -176.000
315.954;   26.175; -613.000; -392.000
316.091; -114.675;-1045.000;-1023.000
316.227;  -18.100;  -71.000; -179.000
316.364;   -1.875;   23.000;    6.000
316.500;  -49.925; -113.000; -300.000
316.637;  -33.400; -181.000; -302.000
316.774;  -85.000; -625.000; -358.000
316.910;  -93.175; -598.000; -629.000
317.047;  -59.175; -487.000; -351.000
317.183;  -50.375; -435.000; -566.000
317.320;   26.000; -367.000; -321.000
317.456;  -22.150; -733.000; -805.000
317.593;  -80.775; -598.000; -641.000
317.729;   -3.400;  168.000;  -67.000
317.866; -191.350;-1434.000;-1285.000
318.002;  -91.200; -708.000; -948.000
318.139; -126.300; -883.000; -867.000
318.275; -109.950;-1003.000; -738.000
318.412;  -65.800; -517.000; -336.000
318.548;  -72.550; -751.000; -720.000
318.685; -110.725; -985.000; -888.000
318.821;  -82.575; -762.000; -735.000
318.957;  -24.500;   34.000;  -23.000
319.094;   36.150;  297.000;  154.000
319.230;  -99.250; -756.000; -742.000
319.367;    4.550; -471.000; -520.000
319.503;  -34.225; -538.000; -436.000
319.639;  -86.000; -877.000; -793.000
319.775; -101.800; -750.000; -685.000
319.912;  -67.050; -424.000; -519.000
320.048; -108.150;-1184.000;-1184.000
320.184;   84.025;   59.000;   70.000
320.321;  -48.300; -497.000; -467.000
320.457;   60.275;  475.000;  662.000
320.593;  -66.175; -375.000; -382.000
320.729;  -99.650; -732.000; -734.000
320.866;  -82.125; -577.000; -635.000
321.002; -108.425; -759.000; -809.000
321.138;  -34.275; -135.000; -211.000
321.274;    2.400; -148.000; -115.000
321.410;  -68.325; -585.000; -353.000
321.546; -115.350;-1011.000; -911.000
321.683;   26.100;  400.000;  185.000
321.819;  -21.125;  -48.000; -117.000
321.955; -118.425; -743.000; -722.000
322.091;  -61.225; -585.000; -540.000
322.227;  -44.600; -382.000; -202.000
322.363;  -54.800; -320.000; -215.000
322.499;  -57.350; -343.000; -331.000
322.635;   89.550;  636.000;  443.000
322.771;  -10.675; -139.000;   12.000
322.907;   39.075;  129.000;  327.000
323.043;  -35.075; -115.000; -206.000
323.179;  -67.275; -394.000; -363.000
323.315;  -57.825; -401.000; -371.000
323.451;   26.575; -328.000; -236.000
323.587;   46.025;  -60.000;  -77.000
323.723;  -52.200; -682.000; -601.000
323.859;  -30.875; -258.000;  -76.000
323.995;  -53.600; -467.000; -409.000
324.131; -127.200; -967.000; -892.000
324.267;  -45.975; -254.000; -276.000
324.402; -141.075; -960.000; -983.000
324.538;  -42.225; -279.000; -104.000
324.674;    1.225;  164.000;   77.000
324.810;   35.000;  226.000;  308.000
324.946;  -76.700; -810.000; -658.000
325.082;  -70.025; -568.000; -475.000
325.217;  -28.050;  -62.000;   16.000
325.353; -109.525; -764.000; -659.000
325.489; -106.800; -540.000; -506.000
325.625;  -73.250; -579.000; -525.000
325.760;   69.000;  517.000;  376.000
325.896;    7.625; -515.000; -702.000
326.032;  -51.300; -403.000; -352.000
326.168;  -56.850; -462.000; -369.000
326.303;  -73.525; -352.000; -461.000
326.439;  -30.600; -336.000; -276.000
326.575;   -5.425; -190.000;  -29.000
326.710;  -20.025; -156.000;  -30.000
326.846;  -24.875;  146.000;  103.000
326.982;  -95.825; -530.000; -548.000
327.117;  -70.375; -481.000; -442.000
327.253;  -82.650; -745.000; -742.000
327.388; -180.500;-1137.000;-1153.000
327.524;  -82.725; -811.000; -578.000
327.659;  -31.625;  -58.000;  -22.000
327.795;  -13.975;   69.000;   45.000
327.931;  -94.850; -723.000; -499.000
328.066;  -28.950; -417.000; -276.000
328.202;  -38.325;   12.000; -129.000
328.337;   83.375;  957.000;  713.000
328.473;   25.750;  -12.000;  -74.000
328.608;  -30.000; -256.000; -267.000
328.743; -109.650; -799.000; -664.000
328.879;    0.075;  214.000;  114.000
329.014;  -47.075; -102.000; -122.000
329.150;  -94.800; -358.000; -483.000
329.285;  -84.525; -465.000; -466.000
329.421;  -62.200; -548.000; -246.000
329.556;  -14.700;  -36.000;   85.000
329.691;  -90.450; -633.000; -615.000
329.827;  -81.200; -626.000; -480.000
329.962;  -36.350;  131.000; -301.000
330.097;  -81.525; -673.000; -585.000
330.233;  -42.175; -410.000; -223.000
330.368; -118.400; -839.000; -628.000
330.503;  -17.450;    3.000;   98.000
330.638;  -20.350;  -93.000; -125.000
330.774;  -80.325; -609.000; -530.000
330.909;  -62.050; -434.000; -244.000
331.044; -103.175; -714.000; -708.000
331.179; -171.075;-1217.000;-1109.000
331.315;    3.825;   77.000;   20.000
331.450;    5.975;  157.000;  285.000
331.585; -100.875; -805.000; -706.000
331.720;  -91.750; -510.000; -460.000
331.855;    0.725;  -35.000; -102.000
331.990;  427.050;   62.000;  138.000
332.126;  207.050; -110.000;   71.000
332.261;   12.875; -379.000; -265.000
332.396;   18.625; -135.000; -242.000
332.531;  -80.675;-1074.000;-1031.000
332.666;   84.425; -519.000; -363.000
332.801; -103.575; -726.000; -807.000
332.936;  -26.200; -192.000; -122.000
333.071; -130.200; -870.000; -817.000
333.206;    7.375;  307.000;  379.000
333.341;   16.675;  344.000;  418.000
333.476;  -84.475; -627.000; -623.000
333.611;  -52.600; -251.000; -173.000
333.746;  -62.975; -381.000; -464.000
333.881; -136.375; -973.000; -935.000
334.016; -121.675; -936.000; -917.000
334.151; -122.425; -746.000; -702.000
334.286;    5.175;  152.000;  186.000
334.421;  -38.525; -125.000; -178.000
334.556;  -83.150; -611.000; -567.000
334.690;  -96.350; -631.000; -577.000
334.825;   42.100;  381.000;   83.000
334.960;  -74.650; -285.000; -413.000
335.095;    5.500;  135.000;  -91.000
335.230; -107.625; -722.000; -738.000
335.365; -134.175;-1084.000; -990.000
335.499; -137.750;-1108.000;-1037.000
335.634;   14.150;    9.000;  534.000
335.769;  -97.525; -755.000; -720.000
335.904;  -61.675; -603.000; -561.000
336.038;  -53.900; -735.000; -657.000
336.173; -116.450;-1206.000;-1194.000
336.308;   -2.450; -116.000; -189.000
336.443;   52.975; -544.000; -634.000
336.577;  -63.500; -936.000; -787.000
336.712;   61.500;   -4.000;  -12.000
336.847;  -36.725; -724.000; -607.000
336.981;   38.575; -272.000; -208.000
337.116;  264.575;  615.000;  501.000
337.250;  109.200; -434.000; -421.000
337.385;  475.025; -297.000; -208.000
337.520;  238.625; -632.000; -603.000
337.654;  -34.050; -215.000; -126.000
337.789; -119.725; -989.000; -933.000
337.923;  -42.775; -104.000; -205.000
338.058; -110.250; -673.000; -738.000
338.192;  -65.300; -611.000; -488.000
338.327;  -12.275;  -18.000; -155.000
338.461;  -54.325; -299.000; -469.000
338.596; -100.575; -780.000; -638.000
338.730;  -94.625; -767.000; -803.000
338.865;  152.575;  -46.000; -140.000
338.999;   11.875; -846.000; -702.000
339.134;    6.475; -634.000; -536.000
339.268;   42.800; -741.000; -603.000
339.403;  571.675; -740.000; -775.000
339.537;  266.525; -894.000; -820.000
339.671;  -93.950; -829.000; -813.000
339.806;  -14.025; -556.000; -512.000
339.940;   33.825; -261.000; -235.000
340.074; -103.850; -685.000; -510.000
340.209;  -49.725; -351.000; -230.000
340.343;  -96.275; -517.000; -573.000
340.477;  137.050;  998.000; 1036.000
340.612;   17.075;-1033.000; -900.000
340.746;  250.100; -199.000; -243.000
340.880; -107.075; -924.000; -785.000
341.014;  -26.950;  -45.000; -154.000
341.149; -114.500; -756.000; -718.000
341.283; -104.800; -839.000; -754.000
341.417; -138.550;-1124.000; -938.000
341.551;  -37.075; -768.000; -708.000
341.685;  -63.175; -633.000; -611.000
341.820;  -43.550; -562.000; -493.000
341.954;  -54.775; -218.000; -349.000
342.088; -142.700;-1102.000;-1019.000
342.222;   39.700;  565.000;  618.000
342.356;  -85.550; -395.000; -335.000
342.490; -122.525; -880.000; -841.000
342.624;  -59.850; -339.000; -242.000
342.758;  -61.075; -364.000; -312.000
342.892; -100.850; -710.000; -585.000
343.026;  -48.475;  -58.000; -116.000
343.160;  -66.900; -426.000; -376.000
343.294;  -76.475; -474.000; -337.000
343.428;  -70.400; -488.000; -448.000
343.562;  -28.225; -172.000;  -23.000
343.696;  -56.525; -385.000; -314.000
343.830;  -59.700; -362.000; -356.000
343.964;  -33.625; -231.000; -168.000
344.098;  281.275;  199.000;   70.000
344.232;  217.475; -266.000; -127.000
344.366;   70.575; -567.000; -453.000
344.500;  -43.475; -665.000; -744.000
344.634;  -58.150; -324.000; -164.000
344.768;  -78.700; -531.000; -341.000
344.902;   -1.525;  278.000;  256.000
345.035;  -79.075; -556.000; -496.000
345.169; -135.075; -933.000; -656.000
345.303;  -56.725; -308.000; -482.000
345.437; -102.650; -826.000; -717.000
345.571;  -64.650; -675.000; -594.000
345.704;  -66.750; -309.000; -532.000
345.838;  -16.325; -331.000; -284.000
345.972;  -62.250; -543.000; -495.000
346.106;  260.925; -179.000; -190.000
346.239;  471.600; -312.000; -243.000
346.373;   -8.625; -343.000; -302.000
346.507; -143.600; -950.000; -962.000
346.640;   29.400;  -30.000;   13.000
346.774; -106.775; -650.000; -797.000
346.908;  -18.800; -138.000;  -11.000
347.041; -107.725; -646.000; -593.000
347.175;   -5.825;  259.000;   27.000
347.309;  -92.375; -698.000; -628.000
347.442; -123.800; -883.000; -732.000
347.576;  107.900;  670.000;  668.000
347.709;   34.375; -123.000;  -52.000
347.843; -128.075; -933.000; -825.000
347.976;   19.325;  235.000;  294.000
348.110; -187.100;-1268.000;-1186.000
348.243;  -97.800; -679.000; -772.000
348.377;   13.250;  -26.000;   60.000
348.510;   41.925;  403.000;  540.000
348.644;  -39.800;  -37.000; -159.000
348.777;  -29.225;  180.000;  191.000
348.911;  -67.425; -142.000; -112.000
349.044;   81.925;  471.000;  448.000
349.178;  -45.750;-1069.000;-1006.000
349.311;   96.225;  141.000;  255.000
349.444;   36.500; -927.000; -813.000
349.578;  -11.950; -347.000; -200.000
349.711; -127.775; -959.000; -862.000
349.845;  -62.700; -661.000; -591.000
349.978; -154.850;-1224.000;-1137.000
350.111;  -98.350; -546.000; -612.000
350.244; -113.700; -596.000; -700.000
350.378;  -56.975; -392.000; -393.000
350.511;  -73.900; -393.000; -426.000
350.644; -101.450; -808.000; -806.000
350.778;    2.700;  168.000;  104.000
350.911;   -2.075;  134.000;  140.000
351.044;  -94.950; -685.000; -615.000
351.177;  -47.125; -321.000; -281.000
351.310;  -14.950;    3.000; -131.000
351.444; -124.625; -888.000; -788.000
351.577;   31.375;  140.000;   90.000
351.710;   62.875;  593.000;  417.000
351.843;  -39.275; -165.000;  -77.000
351.976;    2.925;  149.000;  -79.000
352.109;  -95.100; -621.000; -612.000
352.242;  -62.800; -464.000; -419.000
352.376;  -86.900; -580.000; -636.000
352.509;    1.750; -437.000; -356.000
352.642; -106.475; -654.000; -604.000
352.775;    0.400; -141.000;  -98.000
352.908; -128.425; -933.000; -904.000
353.041; -112.725; -814.000; -824.000
353.174;  -76.675; -551.000; -424.000
353.307;  -99.375; -753.000; -764.000
353.440;   50.625;  541.000;  453.000
353.573;  -99.000; -957.000;-1008.000
353.706;  -55.500; -384.000; -558.000
353.839;  -37.275; -264.000; -220.000
353.971;  -98.875; -657.000; -512.000
354.104; -111.825; -896.000; -835.000
354.237;  -91.850; -627.000; -662.000
354.370; -101.525; -846.000; -879.000
354.503; -176.325;-1231.000;-1308.000
354.636;  -34.325; -529.000; -348.000
354.769; -135.825; -937.000; -860.000
354.902;  -34.150; -230.000; -139.000
355.034;  -30.550; -164.000; -220.000
355.167;  -17.225; -262.000; -162.000
355.300;  -82.550;-1061.000; -880.000
355.433; 1437.950;  -71.000;  -14.000
355.565; 2261.850; -402.000; -384.000
355.698;  576.100; -356.000; -296.000
355.831;    1.350; -882.000; -801.000
355.964;   14.900; -285.000; -170.000
356.096;  -84.550; -856.000; -843.000
356.229;    3.200; -523.000; -530.000
356.362;  511.175; -373.000; -266.000
356.494;  936.875; -229.000; -162.000
356.627;  319.050;  269.000;  377.000
356.760;  897.150;  120.000;   53.000
356.892; 1511.000; -286.000; -601.000
357.025;  326.975;  403.000;  389.000
357.157;  202.500; -167.000; -179.000
357.290; 1221.750; -856.000; -713.000
357.423;  371.025; -667.000; -556.000
357.555;   85.675; -217.000; -228.000
357.688;   99.275; -483.000; -364.000
357.820;  142.925; -870.000; -877.000
357.953; 1337.000; -563.000; -589.000
358.085;  214.200; -632.000; -612.000
358.218;   76.075;-1131.000; -932.000
358.350;   30.800;  -58.000;  312.000
358.483; -170.250;-1300.000;-1187.000
358.615; -135.850;-1182.000;-1078.000
358.747; -156.375;-1187.000;-1058.000
358.880;  -46.350; -810.000; -744.000
359.012;  -31.375; -376.000; -202.000
359.145;  -70.150; -480.000; -511.000
359.277;  -71.350; -962.000; -913.000
359.409; 1142.775;  536.000;  231.000
359.542;  247.075; -738.000; -688.000
359.674;   -7.375;   46.000;   13.000
359.806;  -81.800; -565.000; -438.000
359.939;  -28.825; -617.000; -516.000
360.071;   17.875; -583.000; -579.000
360.203;  -39.900; -411.000; -364.000
360.335;    6.575;  164.000;  -16.000
360.468;   72.825; -249.000; -307.000
360.600; 1243.250; -547.000; -454.000
360.732; 4293.800; -546.000; -423.000
360.864;  664.750;-1216.000;-1044.000
360.996;   76.625; -516.000; -554.000
361.129;  -54.275; -389.000; -598.000
361.261;  -17.450;  110.000; -113.000
361.393;  -61.375; -252.000; -214.000
361.525;    0.425;   94.000;  244.000
361.657; -110.450; -821.000; -703.000
361.789;  -39.450; -139.000; -155.000
361.921;  -49.850; -642.000; -593.000
362.053;  104.675;  524.000;  541.000
362.185;   -9.025;  288.000;   72.000
362.318; -112.050; -709.000; -705.000
362.450;   33.250;  294.000;  444.000
362.582;  -89.025; -913.000; -870.000
362.714;  -54.250; -353.000; -332.000
362.846;  -88.150; -606.000; -490.000
362.978; -136.525; -941.000; -811.000
363.109;  -27.300; -161.000; -260.000
363.241;  127.625; -739.000; -749.000
363.373;  633.050; -649.000; -564.000
363.505; 1067.925; -186.000;  -91.000
363.637;  247.575; -787.000; -601.000
363.769; -141.850;-1067.000;-1080.000
363.901;  -90.825; -596.000; -654.000
364.033; -158.650;-1103.000;-1062.000
364.165;  -33.650; -283.000; -283.000
364.296;   85.075; -316.000; -177.000
364.428;  213.300;-1344.000;-1220.000
364.560;  -62.175; -679.000; -661.000
364.692;  -78.375; -738.000; -835.000
364.824;  -11.550; -588.000; -456.000
364.955;  514.525; -402.000; -564.000
365.087; 1745.050;-1097.000; -852.000
365.219;  128.250; -686.000; -816.000
365.351;  -75.150; -526.000; -572.000
365.482;   32.850;  300.000;  240.000
365.614;  -65.825; -402.000; -314.000
365.746; -104.750; -729.000; -752.000
365.877; -100.775; -706.000; -672.000
366.009;  438.200;  -35.000;  -62.000
366.141;  -25.650;-1249.000;-1134.000
366.272; -107.925; -803.000; -719.000
366.404; -118.900;-1005.000; -874.000
366.535;  -20.450; -139.000;  -12.000
366.667; -116.625; -644.000; -649.000
366.799;   28.450;  353.000;  203.000
366.930; -136.450; -862.000; -996.000
367.062;  195.950; -639.000; -613.000
367.193;  352.275; -872.000; -842.000
367.325;  -50.650; -580.000; -684.000
367.456;   -5.950; -246.000;   31.000
367.588;  253.550; -371.000; -318.000
367.719;   25.175;  -44.000;  -45.000
367.851;  -52.750; -222.000; -241.000
367.982; -104.950; -875.000; -732.000
368.113;  -34.700; -475.000; -358.000
368.245; -151.800; -960.000; -841.000
368.376;  -52.550; -254.000; -302.000
368.508;  -55.650; -188.000; -263.000
368.639; -145.250;-1166.000;-1034.000
368.770;  -97.150; -670.000; -589.000
368.902; -101.775; -836.000; -926.000
369.033; -138.725; -906.000; -855.000
369.164;  -29.400; -720.000; -653.000
369.296; -113.125; -452.000; -601.000
369.427;  -27.500; -209.000; -144.000
369.558;  -73.275; -593.000; -377.000
369.689;  -93.800; -721.000; -569.000
369.821; -137.975; -951.000; -845.000
369.952;  -29.075;   42.000; -108.000
370.083;  -59.550; -229.000; -108.000
370.214; -108.300; -735.000; -650.000
370.345;  -18.525;   65.000;   81.000
370.477; -112.075; -810.000; -790.000
370.608;   15.950; -328.000; -264.000
370.739; -133.350;-1233.000;-1292.000
370.870; -129.925;-1102.000; -923.000
371.001;  -42.725; -378.000; -467.000
371.132; -105.575; -754.000; -735.000
371.263;  -33.250;  -42.000; -148.000
371.394; -143.425; -841.000; -748.000
371.525;   14.150;  345.000;  225.000
371.657; -119.425; -808.000; -670.000
371.788;   15.925;  103.000;  199.000
371.919;   -2.050; -384.000; -304.000
372.050; 1140.600;  -91.000; -156.000
372.181;  334.925; -188.000; -294.000
372.311;   85.775;   42.000; -127.000
372.442;  -65.950; -457.000; -451.000
372.573;  -63.325; -444.000; -340.000
372.704; -152.350;-1008.000; -980.000
372.835;  -21.900; -228.000; -289.000
372.966;  -81.475; -646.000; -554.000
373.097; -106.425; -575.000; -711.000
373.228;  -96.625; -717.000; -542.000
373.359;  -52.825; -824.000; -536.000
373.490;  126.875; -881.000; -727.000
373.620;  203.925;-1001.000; -803.000
373.751;  464.725; -332.000; -396.000
373.882;  175.825; -663.000; -733.000
374.013;  -31.000; -449.000; -262.000
374.143;  -76.725; -581.000; -659.000
374.274; -131.375; -987.000; -908.000
374.405;   54.975; -388.000; -276.000
374.536;   80.250; -526.000; -387.000
374.666;  230.800; -759.000; -807.000
374.797;  -14.175; -817.000; -868.000
374.928;  153.425; -710.000; -560.000
375.058;  152.575; -535.000; -500.000
375.189;   -3.975;  -59.000;  -93.000
375.320; -127.425; -928.000;-1034.000
375.450;  -65.550; -625.000; -616.000
375.581;  -63.100; -526.000; -436.000
375.712;  -63.450; -574.000; -250.000
375.842;    2.325; -438.000; -415.000
375.973;  -15.275; -554.000; -513.000
376.103; -105.800; -665.000; -648.000
376.234; -105.650; -531.000; -552.000
376.364; -118.125; -944.000; -867.000
376.495;  111.300;  925.000;  529.000
376.625;  -58.975; -472.000; -485.000
376.756;  -62.900; -709.000; -678.000
376.886; -137.300;-1178.000;-1026.000
377.017;  146.250;-1048.000;-1061.000
377.147;  670.175; -786.000; -782.000
377.278;   87.075;  174.000;  228.000
377.408; -124.400; -801.000; -815.000
377.538;  -86.925; -707.000; -693.000
377.669;  -90.225; -537.000; -613.000
377.799; -106.725; -645.000; -635.000
377.929;  -90.000; -610.000; -428.000
378.060; -128.750; -781.000; -847.000
378.190;  -39.025; -726.000; -531.000
378.320;  -41.975; -401.000; -406.000
378.451;  -23.600; -131.000;  -22.000
378.581;  -17.825;  -67.000; -110.000
378.711;   79.850; 1035.000;  866.000
378.841;  -84.425; -533.000; -675.000
378.972; -127.675; -871.000; -751.000
379.102;  -65.625; -652.000; -579.000
379.232;  -57.025; -126.000;  -73.000
379.362; -134.300;-1001.000; -885.000
379.492;  -50.200; -373.000; -424.000
379.623;   36.375;    0.000;  111.000
379.753; -118.175;-1107.000; -974.000
379.883;   49.975;   59.000;  156.000
380.013;  -88.250;-1081.000;-1017.000
380.143; -123.975;-1097.000;-1056.000
380.273; -118.075; -985.000; -861.000
380.403;  -10.000; -344.000; -257.000
380.533;  -57.125; -651.000; -664.000
380.663;   31.225;  173.000;  128.000
380.793; -146.600;-1027.000;-1074.000
380.923;  -42.325; -103.000;  -34.000
381.053; -113.975; -613.000; -623.000
381.183;  -33.025; -106.000; -248.000
381.313;  -79.925; -656.000; -470.000
381.443;  -52.900; -692.000; -473.000
381.573;  -42.000; -402.000; -409.000
381.703;  -94.375;-1249.000;-1095.000
381.833; -195.525;-1454.000;-1336.000
381.963;   22.175; -134.000;  -87.000
382.093;  350.875; -925.000; -909.000
382.223;   88.325; -713.000; -602.000
382.353;  -91.800; -801.000; -608.000
382.482;   -4.200;-1091.000; -964.000
382.612;  164.250; -872.000; -644.000
382.742;   73.575; -695.000; -622.000
382.872;  -32.000; -565.000; -551.000
383.002;   18.650;  347.000; -132.000
383.131;  -24.925; -226.000; -160.000
383.261;  -39.250; -706.000; -768.000
383.391;  327.825; -552.000; -377.000
383.521; 5157.150;  451.000;  263.000
383.650; 1558.575; -947.000; -904.000
383.780;   44.900; -783.000; -656.000
383.910;   78.575;  880.000;  802.000
384.039; -100.075; -794.000; -656.000
384.169; -101.375;-1205.000;-1017.000
384.299;  -91.675; -650.000; -662.000
384.428; -106.150; -764.000; -680.000
384.558;  -57.600; -308.000; -275.000
384.687;  -70.450; -414.000; -334.000
384.817;   -2.475;   75.000;   -2.000
384.947;  -37.275; -234.000; -141.000
385.076;  152.800;  982.000;  912.000
385.206;   39.850;  369.000;  480.000
385.335;  -75.425; -549.000; -417.000
385.465; -109.000; -655.000; -663.000
385.594;    9.075;  -53.000;  -44.000
385.724;   22.525; -868.000; -838.000
385.853;   -9.100; -296.000; -270.000
385.982;  280.325; -743.000; -787.000
386.112;  585.700;-1052.000; -871.000
386.241;   11.950; -307.000; -312.000
386.371;  -25.275; -174.000;  -87.000
386.500;  -69.650; -825.000; -789.000
386.629;   -2.675; -874.000; -817.000
386.759;   83.700;  -43.000;   68.000
386.888;  -12.650; -170.000; -250.000
387.017; -108.400; -648.000; -620.000
387.147; -110.900; -771.000; -798.000
387.276;  -62.750; -410.000; -397.000
387.405;  -43.875; -398.000; -342.000
387.535;  -85.400; -452.000; -361.000
387.664;  -73.525; -692.000; -620.000
387.793;  -17.550; -198.000; -113.000
387.922;  118.900;  255.000;  200.000
388.052;  -58.450; -576.000; -423.000
388.181;  -62.200; -342.000; -472.000
388.310; -107.575; -889.000; -710.000
388.439; -110.875; -749.000; -742.000
388.568;   27.275;  365.000;  244.000
388.697;  238.500; -756.000; -653.000
388.826;   -6.675; -768.000; -666.000
388.956;  -39.725; -285.000; -307.000
389.085;  -61.175; -347.000; -287.000
389.214; -109.800; -842.000; -872.000
389.343;  -82.875; -645.000; -413.000
389.472;  563.275;  126.000;  149.000
389.601;  636.350;   91.000;    0.000
389.730;  -18.350; -568.000; -687.000
389.859;   16.700;  226.000;   46.000
389.988;   11.000; -423.000; -408.000
390.117;   28.125; -168.000; -146.000
390.246;  -47.025; -331.000; -320.000
390.375;  -68.575; -673.000; -626.000
390.504;  -86.075; -703.000; -621.000
390.633; -119.900; -672.000; -726.000
390.761; -101.550; -732.000; -645.000
390.890;  -50.300;   -4.000; -130.000
391.019;  -72.950; -421.000; -441.000
391.148; -139.850; -826.000; -855.000
391.277;  -87.075; -576.000; -493.000
391.406; -116.800; -821.000; -805.000
391.534;   10.025;  574.000; -301.000
391.663;  -89.625; -583.000; -645.000
391.792;  -97.550; -673.000; -701.000
391.921;   -6.500;   -3.000;   15.000
392.050;  -21.975; -287.000; -228.000
392.178; -136.575;-1206.000;-1061.000
392.307;  -34.750; -758.000; -712.000
392.436;  -52.025; -427.000; -641.000
392.564;   -3.275;  166.000;   -6.000
392.693; -108.500; -860.000; -682.000
392.822;  -17.950; -529.000; -534.000
392.950;  -62.800; -880.000; -714.000
393.079;   53.875; -188.000; -328.000
393.208;  -47.550; -488.000; -511.000
393.336;  -31.900; -170.000; -145.000
393.465;  -46.950; -317.000; -199.000
393.593;   -4.175;   62.000;   79.000
393.722; -145.800;-1121.000; -916.000
393.850;  -36.000; -188.000;  -61.000
393.979; -148.375; -926.000; -805.000
394.107;  -66.525; -517.000; -537.000
394.236;  -53.575; -570.000; -507.000
394.364;  100.525;  383.000;  206.000
394.493;   49.725; -911.000; -767.000
394.621;   -0.450; -955.000; -916.000
394.750; 1141.550; -873.000; -923.000
394.878; 4493.400; -247.000; -149.000
395.007; 6582.450; -721.000; -807.000
395.135;  599.050; -790.000; -721.000
395.263;  -60.275;-1038.000;-1040.000
395.392;    5.250;  -25.000; -107.000
395.520; -129.225; -818.000; -679.000
395.648; -118.775; -865.000; -915.000
395.777;  -74.450; -366.000; -405.000
395.905;  -93.275; -449.000; -564.000
396.033;  -22.725;  217.000;  172.000
396.162;   76.600; -399.000; -453.000
396.290;   89.300;  -17.000;   -2.000
396.418;  -62.325; -555.000; -514.000
396.546;  -95.575; -571.000; -466.000
396.674; -136.250; -850.000; -878.000
396.803;  -20.325;  -72.000;  -23.000
396.931;  -32.025; -179.000; -199.000
397.059; -134.600;-1026.000; -989.000
397.187; -138.150;-1026.000; -975.000
397.315; -132.175; -884.000; -649.000
397.443; -119.025; -592.000; -443.000
397.572; -109.950; -578.000; -424.000
397.700;  -99.725; -607.000; -614.000
397.828;  -52.525;  120.000;  -90.000
397.956;  -36.550; -508.000; -478.000
398.084;  -28.500; -767.000; -626.000
398.212;  -12.150;  137.000;  124.000
398.340;  -31.300;  -56.000;  159.000
398.468;  -64.100; -390.000; -169.000
398.596; -151.625; -993.000; -953.000
398.724; -122.050; -762.000; -767.000
398.852; -157.625;-1024.000; -976.000
398.980;  -94.050; -560.000; -560.000
399.108; -109.100; -982.000; -735.000
399.236;  -23.650;   13.000;    8.000
399.363;  -10.200;  222.000;  196.000
399.491;  -80.150; -404.000; -398.000
399.619; -126.625; -829.000; -800.000
399.747; -110.750; -859.000; -771.000
399.875;   33.425;  220.000;  234.000
400.003;  -74.525; -359.000; -284.000
400.130;  -86.575; -421.000; -341.000
400.258;  -40.225;  -83.000;   38.000
400.386;  -70.575; -352.000; -168.000
400.514;  -94.750; -526.000; -587.000
400.641; -148.725; -928.000; -802.000
400.769; -160.350; -979.000; -888.000
400.897; -133.550; -838.000; -793.000
401.025;  -56.825; -166.000; -152.000
401.152;   -0.125;  220.000;   38.000
401.280;  -92.200; -430.000; -429.000
401.408; -126.200; -712.000; -576.000
401.535; -114.250; -735.000; -758.000
401.663; -186.800;-1134.000;-1054.000
401.790;  -95.975; -514.000; -525.000
401.918;   16.425;  436.000;  405.000
402.046;  -29.125;  134.000;  122.000
402.173;  -49.825;  -18.000;    7.000
402.301;  -82.000; -519.000; -397.000
402.428;   26.100;  528.000;  383.000
402.556; -157.850;-1188.000; -913.000
402.683;  -43.550;  -20.000;   -1.000
402.811;  -25.600;  -37.000; -206.000
402.938;  -26.450;   20.000;   27.000
403.066;  -14.200; -574.000; -558.000
403.193;   90.675;  299.000;  239.000
403.321;   37.775; -396.000; -574.000
403.448;  101.125;   83.000;   27.000
403.575;   45.075;  -90.000;  -46.000
403.703; -105.775; -732.000; -557.000
403.830;  -59.050; -531.000; -496.000
403.957; -121.500;-1117.000;-1023.000
404.085;   26.050;  -61.000; -172.000
404.212;  122.450;  -50.000;   63.000
404.339;  439.825; -566.000; -306.000
404.467; 9013.075; -612.000; -524.000
404.594; 5597.675; -287.000; -227.000
404.721;  931.750; -869.000; -764.000
404.848;  100.625; -113.000; -202.000
404.976; -104.125; -856.000; -783.000
405.103;  -11.875;  -14.000;  -82.000
405.230;   -6.850;  190.000;  226.000
405.357;   38.525;  117.000;   44.000
405.484;  415.525;  -49.000;    5.000
405.612;   93.650; -548.000; -563.000
405.739;  -59.225; -488.000; -243.000
405.866;   65.400;  669.000;  385.000
405.993;  -66.100; -398.000; -102.000
406.120; -127.475; -801.000; -887.000
406.247;  -82.450; -323.000; -342.000
406.374;   98.350;  540.000;  629.000
406.501;  -81.525; -632.000; -702.000
406.628; -100.675; -621.000; -589.000
406.755; -114.450; -803.000; -620.000
406.882;  -67.825; -228.000; -277.000
407.009; -107.275; -719.000; -628.000
407.136;  -46.075; -480.000; -401.000
407.263;  -70.900; -939.000; -829.000
407.390; -102.675; -692.000; -614.000
407.517; -179.700;-1139.000;-1187.000
407.644;  -74.650; -332.000; -256.000
407.771;  -81.425; -249.000; -287.000
407.898;   -8.325;  168.000;  328.000
408.025;  -78.650; -421.000; -313.000
408.151;  -12.700;   82.000;  153.000
408.278;  -74.825; -267.000; -216.000
408.405; -133.350; -931.000; -899.000
408.532;  -94.225; -549.000; -542.000
408.659; -111.375; -677.000; -648.000
408.785; -194.675;-1298.000;-1170.000
408.912;  -71.050; -412.000; -296.000
409.039; -115.375; -610.000; -686.000
409.166; -117.550; -591.000; -555.000
409.292; -114.275; -571.000; -534.000
409.419; -108.175; -665.000; -649.000
409.546;  -86.675; -431.000; -192.000
409.672; -117.600; -713.000; -545.000
409.799;  -39.325;  -36.000;   34.000
409.926;  -43.025; -180.000; -179.000
410.052; -180.950;-1127.000;-1091.000
410.179;  -75.200; -368.000; -392.000
410.305;  -92.750; -375.000; -493.000
410.432;  -41.350; -220.000; -333.000
410.558;  -95.425; -305.000; -380.000
410.685; -100.225; -688.000; -431.000
410.812; -100.925; -409.000; -588.000
410.938; -141.725; -964.000; -808.000
411.065; -117.925; -671.000; -645.000
411.191;  -38.900; -189.000; -174.000
411.317; -119.550; -823.000; -742.000
411.444;  -72.950; -317.000; -246.000
411.570;  -76.300; -339.000; -294.000
411.697; -123.475; -758.000; -752.000
411.823; -178.925; -989.000; -999.000
411.949;  -45.375;  -56.000;   17.000
412.076; -121.850; -539.000; -519.000
412.202; -114.400; -758.000; -757.000
412.329; -136.950; -798.000; -752.000
412.455; -117.625; -821.000; -657.000
412.581;  -27.925;  -15.000;  172.000
412.707; -103.950; -540.000; -457.000
412.834;  -16.425;  156.000;  219.000
412.960; -102.975; -785.000; -784.000
413.086; -118.750; -743.000; -701.000
413.212;  110.100;  604.000;  578.000
413.339; -106.400; -685.000; -701.000
413.465;  -57.425; -364.000; -310.000
413.591; -107.100; -757.000; -474.000
413.717;  -62.100; -358.000; -366.000
413.843; -134.125; -839.000; -861.000
413.969;  -56.525;  -47.000; -292.000
414.096;  -99.850; -679.000; -679.000
414.222;  -14.925;  -33.000;   85.000
414.348; -100.725; -652.000; -385.000
414.474;    6.225;   38.000;  -52.000
414.600;  -14.800; -126.000; -144.000
414.726;  -15.275;  -96.000;  -55.000
414.852;  -48.300; -365.000; -342.000
414.978;   30.725;  104.000;  -18.000
415.104;   49.400;   38.000;   80.000
415.230;   33.375; -329.000; -330.000
415.356;   55.450; -409.000; -514.000
415.482;  211.400;   13.000;  -35.000
415.608;  395.175; -247.000; -323.000
415.734; 1320.550;   67.000;   38.000
415.860;27366.625; -875.000; -767.000
415.986;22778.325; -685.000; -607.000
416.111; 2122.850; -798.000; -652.000
416.237;  468.575; -424.000; -571.000
416.363; 1652.975; -765.000; -733.000
416.489; 6814.650; -324.000; -251.000
416.615;  936.275; -707.000; -742.000
416.741;   45.275; -677.000; -784.000
416.866;  -61.025; -673.000; -736.000
416.992;  -94.250; -801.000; -818.000
417.118;  -22.775;  -41.000;  -80.000
417.244;  -64.575; -798.000; -531.000
417.369;  -85.900; -801.000; -612.000
417.495;  -16.400; -325.000; -254.000
417.621;  -92.000;-1015.000; -803.000
417.746;   -5.775; -579.000; -572.000
417.872;   60.950; -254.000; -144.000
417.998;  125.075; -515.000; -530.000
418.123; 1536.550;-1073.000; -845.000
418.249; 8629.550; -512.000; -601.000
418.374; 1490.925; -916.000; -824.000
418.500;  236.800; -383.000; -482.000
418.626;  175.700;   70.000;  -59.000
418.751;  157.050; -549.000; -448.000
418.877;  334.075; -637.000; -643.000
419.002; 2550.650; -688.000; -560.000
419.128;19645.875; -930.000; -721.000
419.253; 5634.950; -967.000; -837.000
419.379;  761.125; -391.000; -338.000
419.504;  605.200;  325.000;  415.000
419.629;  841.800; -393.000; -212.000
419.755; 5341.425; -317.000; -254.000
419.880;35162.125;  -98.000;   67.000
420.006;17685.750; -280.000; -221.000
420.131;43765.825; -662.000; -775.000
420.256; 7115.425; -315.000; -316.000
420.382;  971.150; -665.000; -687.000
420.507;  159.925; -649.000; -778.000
420.632;   45.875; -337.000; -339.000
420.758;   48.475; -251.000; -425.000
420.883;  -85.700; -876.000; -672.000
421.008; -108.200; -775.000; -619.000
421.133;  -96.425; -509.000; -467.000
421.259;  -58.500; -325.000; -259.000
421.384; -130.875; -834.000; -693.000
421.509; -121.875;-1052.000; -862.000
421.634;  124.000; -936.000; -820.000
421.759;   51.150; -359.000; -327.000
421.885; -104.600; -717.000; -656.000
422.010;  -96.225; -673.000; -542.000
422.135; -140.450; -695.000; -727.000
422.260;   20.325;  340.000;  280.000
422.385;  -36.375;   12.000;  -98.000
422.510;   -9.650;  151.000;  -26.000
422.635;  -18.300;  -87.000;  -43.000
422.760;  -33.450; -766.000; -791.000
422.885;   21.025;  -57.000;  -80.000
423.010;  -27.300; -112.000; -169.000
423.135;  -84.825; -481.000; -561.000
423.260;  -48.250; -150.000; -245.000
423.385;   15.825;  476.000;  222.000
423.510;   10.825;   71.000;  -22.000
423.635;    7.950;  133.000;   45.000
423.760;   46.625;  383.000;  328.000
423.885;   29.725;  336.000;  391.000
424.010;  -16.900;  -68.000;  -13.000
424.135;  -16.750;    5.000;  -33.000
424.259;  -79.550; -654.000; -457.000
424.384;  -61.875; -279.000; -272.000
424.509;  -27.925; -260.000; -186.000
424.634; -100.250; -761.000; -623.000
424.759;  -34.625; -688.000; -544.000
424.883;   -2.225; -506.000; -527.000
425.008;  195.125; -502.000; -410.000
425.133; 2908.475; -679.000; -653.000
425.258; 1589.950; -517.000; -381.000
425.382;  442.700; -867.000; -774.000
425.507; 1020.325; -487.000; -543.000
425.632;  354.000; -802.000; -663.000
425.756;  711.400; -256.000; -146.000
425.881;10117.000; -831.000; -857.000
426.006;31594.025; -604.000; -355.000
426.130; 5289.200; -696.000; -508.000
426.255;  726.900; -611.000; -491.000
426.379;  305.925; -189.000; -577.000
426.504;  504.600;  660.000;  544.000
426.629; 5639.625; -519.000; -466.000
426.753; 4450.600;   64.000;  -46.000
426.878;  541.350; -252.000; -288.000
427.002;  315.425; -651.000; -668.000
427.127; 2047.750;  -35.000; -158.000
427.251;17388.075;  372.000;  401.000
427.375; 5737.275; -191.000; -173.000
427.500; 1238.750; -616.000; -610.000
427.624;  389.475; -234.000; -400.000
427.749;   74.975; -216.000; -225.000
427.873;  -20.075; -499.000; -412.000
427.997;  -43.125; -222.000; -230.000
428.122;   56.200;  795.000;  703.000
428.246;   23.550;  433.000;  434.000
428.371; -128.275; -869.000; -773.000
428.495; -105.450; -624.000; -646.000
428.619;  -51.450; -186.000; -117.000
428.743;   22.475;   65.000;  132.000
428.868;  -79.575; -732.000; -643.000
428.992;  407.800; -219.000; -326.000
429.116;  162.025; -329.000; -357.000
429.240;   97.850;  419.000;  426.000
429.365;  -57.400; -454.000; -574.000
429.489;  -66.925; -638.000; -647.000
429.613;   37.575; -236.000; -177.000
429.737;   80.350; -563.000; -432.000
429.861;  389.025; -247.000; -133.000
429.985; 7928.425; -425.000; -305.000
430.109;10193.675; -770.000; -908.000
430.234; 1260.250;   76.000;  -50.000
430.358;  155.025; -250.000; -160.000
430.482;  -31.800; -672.000; -564.000
430.606;  -66.300; -655.000; -375.000
430.730;  -70.500; -437.000; -388.000
430.854;  -91.850; -909.000; -835.000
430.978;  -84.075; -795.000; -764.000
431.102;  -89.425; -499.000; -422.000
431.226; -116.350; -874.000; -815.000
431.350;   17.025;  345.000;  422.000
431.474;  -79.950; -661.000; -373.000
431.597; -149.550;-1060.000; -848.000
431.721;  -72.600; -276.000; -267.000
431.845; -130.125; -704.000; -472.000
431.969;  -83.125; -304.000; -349.000
432.093;  -85.625; -395.000; -317.000
432.217;  -21.650;   32.000;   82.000
432.341;  -80.300; -523.000; -518.000
432.464;  -10.200;   96.000;   40.000
432.588;  -37.925; -401.000; -329.000
432.712;    5.850;  -52.000;  -52.000
432.836;   59.200;  213.000;  263.000
432.959;   36.725; -372.000; -311.000
433.083;  177.425;   11.000;    2.000
433.207;  542.325;  285.000;  930.000
433.330; 7622.625; -391.000; -200.000
433.454;10770.825; -654.000; -638.000
433.578; 5879.625;  583.000;  278.000
433.701; 1278.275; -623.000; -675.000
433.825;  158.600; -292.000; -299.000
433.949;   33.650;   28.000;  -72.000
434.072;  -30.625; -410.000; -323.000
434.196;  -24.225; -309.000; -117.000
434.319; 3454.925;25482.000;25124.000
434.443;  871.525; -656.000; -603.000
434.566; 4138.350;  281.000;   62.000
434.690;  915.075; -637.000; -383.000
434.813;  152.950; -251.000; -173.000
434.937;  -37.075; -569.000; -696.000
435.060;  -82.450; -423.000; -332.000
435.184;  -29.575; -492.000; -217.000
435.307;   10.950;  159.000;  102.000
435.431;  -34.800;  -40.000;   24.000
435.554;  -72.375; -399.000; -240.000
435.677; -101.150; -350.000; -258.000
435.801;  -47.550;  -25.000;   49.000
435.924;  -40.375;    1.000;  -67.000
436.048; -138.075;-1019.000; -732.000
436.171;  -55.050; -240.000;  -66.000
436.294;  -28.525; -248.000; -229.000
436.417;  213.800; -963.000; -849.000
436.541;  -25.500; -814.000; -840.000
436.664;  -43.725; -242.000; -316.000
436.787;  -47.975;   13.000;  113.000
436.910; -124.325; -792.000; -422.000
437.034;  -26.150;  142.000;  143.000
437.157;    2.550;  -11.000;    0.000
437.280;  -86.000; -392.000; -292.000
437.403; -136.100; -982.000; -869.000
437.526;  -26.050; -903.000; -865.000
437.649;  362.375; -505.000; -332.000
437.772;  -22.850; -692.000; -540.000
437.896;   52.325;  700.000;  544.000
438.019; -108.200; -758.000; -503.000
438.142; -102.950; -596.000; -506.000
438.265; -122.875; -639.000; -670.000
438.388;   12.800; -520.000; -410.000
438.511;  -70.825; -597.000; -394.000
438.634;  -76.800; -247.000; -125.000
438.757; -144.950; -693.000; -619.000
438.880;  -48.750;  -34.000;  -57.000
439.003; -102.175; -417.000; -437.000
439.126;  -67.875; -287.000; -167.000
439.248;  -66.175;  -98.000; -139.000
439.371;  -47.050;    9.000;  -53.000
439.494;   13.000;  510.000;  439.000
439.617;  -58.425;   65.000;  -88.000
439.740; -170.650; -968.000; -816.000
439.863; -145.575; -755.000; -595.000
439.986; -120.150; -476.000; -431.000
440.108;  -41.400; -161.000; -112.000
440.231; -164.725; -950.000; -836.000
440.354;  -44.725;  -64.000; -150.000
440.477; -126.875; -566.000; -542.000
440.599;  -92.475; -200.000; -225.000
440.722; -138.400; -709.000; -586.000
440.845;   57.900;  751.000;  928.000
440.968; -109.125; -415.000; -311.000
441.090;  -80.250; -199.000;  -33.000
441.213; -177.700;-1021.000; -825.000
441.336;  -54.325; -159.000;   -5.000
441.458; -105.625; -549.000; -396.000
441.581; -123.425; -628.000; -629.000
441.703;  -84.800; -152.000;   13.000
441.826; -108.375; -557.000; -400.000
441.948;  -55.000;   56.000;   51.000
442.071;    8.825;  555.000;  424.000
442.193; -122.000; -531.000; -485.000
442.316;    7.500;  152.000;   97.000
442.438;   77.975; -233.000;  -10.000
442.561;   68.425;  272.000;  262.000
442.683;   21.000; -809.000; -522.000
442.806;  198.700;   -8.000;   74.000
442.928; -117.325; -859.000; -604.000
443.051;  -86.575; -577.000; -373.000
443.173;  -90.550; -341.000; -339.000
443.295;  -96.150; -263.000; -371.000
443.418;  -76.050; -321.000;  -29.000
443.540;  -50.225; -106.000;   -4.000
443.662; -127.175; -563.000; -465.000
443.785;  -18.750;  335.000;  199.000
443.907; -104.675; -362.000; -208.000
444.029; -130.400; -767.000; -494.000
444.152; -137.650; -644.000; -554.000
444.274;  -48.175;  -18.000;  -24.000
444.396; -118.300; -461.000; -221.000
444.518; -125.900; -691.000; -454.000
444.640; -110.000; -268.000; -111.000
444.763;  -32.275;  388.000;  249.000
444.885; -115.950; -432.000; -392.000
445.007;  -32.850;   35.000;   86.000
445.129; -117.875; -610.000; -515.000
445.251; -106.075; -372.000; -439.000
445.373; -139.975; -537.000; -386.000
445.495;  -20.975;  242.000;  350.000
445.617;   37.125;  853.000;  753.000
445.739;  -84.025; -215.000;  -97.000
445.861;  -70.125; -245.000; -112.000
445.984;  -62.975; -267.000; -101.000
446.105;  -42.050; -418.000; -251.000
446.227;   86.825; -176.000;  -19.000
446.349;  -90.700; -358.000; -249.000
446.471; -121.500; -615.000; -448.000
446.593; -103.625; -316.000;   19.000
446.715;  -50.925;  -67.000;   41.000
446.837;   37.325;  697.000;  832.000
446.959; -116.250; -457.000; -478.000
447.081; -133.025; -628.000; -518.000
447.203;   39.000;  862.000;  834.000
447.325; -100.000; -270.000;   42.000
447.446;  -16.975;  286.000;  530.000
447.568; -166.975; -921.000; -803.000
447.690;  -94.250; -236.000; -245.000
447.812; -137.775; -798.000; -519.000
447.933;  -36.525;  155.000;  127.000
448.055;  -68.550; -306.000; -261.000
448.177;   21.000;   31.000;   79.000
448.299; -114.325; -935.000; -727.000
448.420;  -24.200;  -25.000;  159.000
448.542;  -51.575;   -3.000;   33.000
448.664;  -29.300;  109.000;  322.000
448.785;  -28.700;  265.000;   83.000
448.907; -113.350; -614.000; -353.000
449.028; -106.300; -771.000; -471.000
449.150;   34.950;  492.000;  589.000
449.272; -165.175;-1044.000; -913.000
449.393;   21.725;  612.000;  694.000
449.515; -139.900; -634.000; -581.000
449.636;  -70.625; -264.000; -155.000
449.758;   38.875;  763.000;  622.000
449.879;  -82.075; -498.000; -396.000
450.001;  -81.025; -149.000;  -49.000
450.122;  -36.500;  -95.000;  162.000
450.244;  -20.900;   37.000;  364.000
450.365;  -68.100; -495.000; -301.000
450.486;   -4.225;   80.000;  268.000
450.608;   21.750;  393.000;  326.000
450.729;  121.275;  578.000;  645.000
450.850;   96.125; -574.000; -466.000
450.972; 1225.025; -552.000; -389.000
451.093; 8040.100;  190.000;  588.000
451.214; 4211.150; -516.000; -337.000
451.336;  736.175;  773.000;  579.000
451.457;  113.125;  264.000;  393.000
451.578;  -20.475; -118.000;  -74.000
451.699; -107.525; -546.000; -540.000
451.821;  -65.100; -284.000;  -50.000
451.942;    3.200;  278.000;  285.000
452.063;   62.125;  228.000;  419.000
452.184;  829.225;  -54.000;  -49.000
452.305; 1762.500;  103.000;  170.000
452.427;  331.375; -549.000; -301.000
452.548;   23.625;   23.000;   79.000
452.669;  -71.575; -257.000;  -89.000
452.790;  -54.925;    3.000;  -18.000
452.911;  -18.650;  195.000;  259.000
453.032;  -79.575; -289.000;  -60.000
453.153;  -68.800;  -29.000;   81.000
453.274;   49.550;  737.000;  868.000
453.395;  -48.900;  -51.000;  175.000
453.516;   94.750; 1317.000; 1388.000
453.637;  -84.600; -205.000; -150.000
453.758;  -68.675;   15.000;   69.000
453.879; -117.700; -462.000; -250.000
454.000;   69.100; 1086.000;  948.000
454.121; -129.300; -554.000; -326.000
454.242; -124.175; -599.000; -383.000
454.362;  -56.075;  -99.000;  114.000
454.483;  -14.125; -309.000; -229.000
454.604;   59.000;  512.000;  580.000
454.725; -129.650; -627.000; -555.000
454.846; -130.400; -474.000; -406.000
454.967;  -22.850;  230.000;  539.000
455.087;  -46.825;  179.000;  153.000
455.208;   19.350;  554.000;  856.000
455.329;  -60.300;  -22.000;   82.000
455.450;   48.200;  473.000;  633.000
455.570;  -61.400; -234.000; -211.000
455.691;  -36.050;  201.000;  407.000
455.812; -102.250; -270.000;  -92.000
455.932;  -57.150;  107.000;  -97.000
456.053;  -89.900;   36.000;   24.000
456.173; -104.550; -433.000; -355.000
456.294; -137.675; -476.000; -303.000
456.415;  -63.925;  -73.000;   70.000
456.535;  -28.275;  297.000;  273.000
456.656;  -46.250;  132.000;  240.000
456.776;  -70.900;    3.000;  298.000
456.897;  -14.325;  308.000;  513.000
457.017;  -79.550; -153.000;   -3.000
457.138; -108.425; -402.000; -249.000
457.258;  -39.550;  263.000;  224.000
457.379;  -22.775;  509.000;  521.000
457.499;  -30.650;  443.000;  432.000
457.620; -116.900; -407.000; -231.000
457.740;  -92.750; -132.000;  -11.000
457.860;  -56.600;   87.000;   44.000
457.981;  -43.175;  132.000;  124.000
458.101;  -76.275;  -89.000;   40.000
458.221;  -18.325;  336.000;  402.000
458.342;  -41.900;   -4.000;  -37.000
458.462;   44.275;  617.000;  352.000
458.582;   18.600; -302.000; -294.000
458.703;   72.225;  303.000;  154.000
458.823;    6.500;   22.000;  163.000
458.943;   53.550;  341.000;  467.000
459.063;   17.225; 1124.000;  192.000
459.183;   -9.250;  328.000;  313.000
459.304;    5.625;  315.000;  517.000
459.424;  -40.850; -246.000;  -89.000
459.544;  477.300;  388.000;  764.000
459.664; 1290.825;  499.000;  506.000
459.784;  530.225; 1004.000; 1175.000
459.904;   84.650;  867.000;  744.000
460.024;   64.625;  867.000;  684.000
460.144;  -10.500;  449.000;  554.000
460.264;   -9.250;  515.000;  327.000
460.385;  -86.550; -145.000; -119.000
460.505;   27.300;  905.000;  858.000
460.625;  -92.750;  -17.000;  -68.000
460.745;  -22.325;  396.000;  541.000
460.864;  -40.850;  153.000;  469.000
460.984;   19.975;  499.000;  573.000
461.104;  148.025; 1656.000; 1775.000
461.224;   13.325;  657.000;  650.000
461.344;  -30.450;  431.000;  360.000
461.464;  -46.225;  258.000;  513.000
461.584;  -41.175;  283.000;  466.000
461.704;  -71.400;   58.000;  108.000
461.824;  -57.475;  238.000;  259.000
461.943;  -46.725;  191.000;  130.000
462.063;  -83.850;    2.000;  324.000
462.183;   27.550;  639.000;  717.000
462.303;   70.475; 1678.000; 1230.000
462.422;   30.875;  781.000;  840.000
462.542;  -36.925;  271.000;  391.000
462.662;   37.900;  353.000;  380.000
462.782;  340.900;  833.000;  572.000
462.901;  747.900;  545.000;  717.000
463.021;  408.000; 1702.000; 1638.000
463.141;   17.900;  337.000;  770.000
463.260;  -12.625;  614.000;  474.000
463.380;   19.775;  902.000;  884.000
463.499;  -36.325;  342.000;  332.000
463.619;  -23.375;  581.000;  559.000
463.738;   98.875; 1644.000;  903.000
463.858;   14.475;  657.000;  811.000
463.978;  -17.350;  542.000;  396.000
464.097;   53.800;  921.000; 1114.000
464.217;  165.175; 1196.000; 1143.000
464.336;  149.600; 1068.000; 1130.000
464.455;  -23.875;  328.000;  659.000
464.575;   -6.900;  597.000;  602.000
464.694;  124.275; 1204.000; 1179.000
464.814;  160.625; 1190.000; 1138.000
464.933;   75.125; 1095.000; 1027.000
465.052;   92.475; 1412.000; 1054.000
465.172;   62.150;  922.000;  799.000
465.291;  117.975; 1376.000; 1320.000
465.410;   11.300;  462.000;  735.000
465.530;   88.825; 1355.000; 1310.000
465.649;   52.875; 1209.000; 1273.000
465.768;  127.500; 1673.000; 1508.000
465.888;   68.250;  941.000; 1174.000
466.007;   93.625; 1335.000; 1440.000
466.126;   -7.150;  721.000;  641.000
466.245;   41.900; 1176.000; 1187.000
466.364;   16.775;  950.000; 1060.000
466.484;   38.150; 1024.000; 1213.000
466.603;   37.050; 1101.000; 1222.000
466.722;   85.325; 1490.000; 1769.000
466.841;   67.475; 1151.000; 1401.000
466.960;   27.750; 1069.000;  972.000
467.079;  129.700; 1971.000; 1786.000
467.198;   42.425; 1238.000; 1181.000
467.317;   76.800; 1768.000; 1162.000
467.436;   63.050; 1709.000; 1261.000
467.555;  131.150; 1796.000; 1746.000
467.674;   52.350; 1227.000; 1329.000
467.793;   52.800; 1376.000; 1374.000
467.912;   91.950; 1658.000; 1539.000
468.031;  143.350; 2038.000; 1930.000
468.150;  144.375; 1842.000; 1837.000
468.269;  177.875; 2313.000; 2090.000
468.388;  177.250; 2168.000; 2339.000
468.507;  251.400; 2884.000; 2903.000
468.626;  227.450; 2555.000; 2541.000
468.744;  135.625; 2018.000; 2174.000
468.863;  193.850; 2312.000; 2523.000
468.982;   90.075; 1503.000; 1555.000
469.101;  231.100; 2788.000; 2692.000
469.220;  156.375; 2333.000; 2176.000
469.338;  244.400; 2935.000; 3051.000
469.457;  205.750; 2719.000; 2545.000
469.576;  329.700; 3953.000; 3784.000
469.695;  230.800; 2877.000; 3066.000
469.813;  406.850; 4148.000; 4192.000
469.932;  398.325; 4255.000; 4485.000
470.051;  441.600; 4075.000; 4161.000
470.169; 1046.900; 4470.000; 4338.000
470.288; 2001.550; 4700.000; 4809.000
470.406; 1206.775; 5059.000; 5194.000
470.525;  685.850; 6101.000; 5787.000
470.644;  654.025; 6847.000; 6794.000
470.762;  809.325; 8397.000; 7873.000
470.881;  922.200; 8651.000; 8464.000
470.999; 1080.000; 9685.000; 9151.000
471.118; 1130.700;11174.000;10711.000

