
Integration time [ms]: 200.000
Averaging Nr. [scans]: 10
Smoothing Nr. [pixels]: 0
Data measured with spectrometer [name]: 2101012U2
Wave   ;Sample   ;Dark     ;Reference
[nm]   ;[counts] ;[counts] ;[counts] 

197.733;  125.900;  516.000;  404.000
197.879; -149.600; -610.000; -634.000
198.025;  -88.500; -475.000; -420.000
198.171; -126.600; -602.000; -612.000
198.317;  -69.100; -401.000; -316.000
198.463; -110.300; -655.000; -404.000
198.609;   19.500;  181.000; -137.000
198.755; -209.100; -644.000; -410.000
198.901; -122.100; -505.000; -424.000
199.047; -129.300; -615.000; -488.000
199.193;  -57.600; -230.000; -468.000
199.339;  -66.800; -222.000; -369.000
199.485;  101.300;  330.000;  271.000
199.631;   49.800;  227.000;  310.000
199.777; -110.600; -466.000; -398.000
199.923; -119.700; -610.000; -424.000
200.069;   18.200; -141.000;  -58.000
200.215;  126.300;  128.000;  453.000
200.361;   88.300;  243.000;  477.000
200.507; -140.300; -600.000; -373.000
200.653;  -61.100; -371.000; -194.000
200.798;  -65.100; -215.000; -125.000
200.944;  -11.600; -146.000;  -41.000
201.090;   71.600;   61.000;  222.000
201.236;   -1.100; -116.000; -158.000
201.382;  255.400;  874.000;  903.000
201.528;  -38.400;  -58.000;  -48.000
201.674; -125.900; -386.000; -293.000
201.819; -140.200; -540.000; -439.000
201.965; -170.700; -699.000; -447.000
202.111;  -46.500; -273.000; -226.000
202.257;  -82.700; -250.000; -238.000
202.402;   20.800;   13.000;  -36.000
202.548;  -67.200; -169.000; -116.000
202.694;  189.300;  410.000; -183.000
202.840; -150.100; -603.000; -531.000
202.985; -154.500; -681.000; -639.000
203.131; -227.100; -832.000; -666.000
203.277;  -32.100; -199.000; -262.000
203.423; -114.600; -434.000; -520.000
203.568; -112.500; -462.000; -237.000
203.714; -147.000; -535.000; -542.000
203.860; -152.900; -682.000; -641.000
204.005;   17.100;  112.000;  167.000
204.151;  169.000;  561.000;  556.000
204.296;  -94.000; -354.000; -221.000
204.442; -156.700; -600.000; -547.000
204.588; -166.500; -592.000; -579.000
204.733;   51.500;  178.000;  168.000
204.879; -276.500;-1018.000; -822.000
205.025;   24.500;  -99.000;  126.000
205.170;   21.800;  -17.000;   94.000
205.316;  181.500;  438.000;  661.000
205.461; -157.000; -698.000; -554.000
205.607;  180.800;  609.000;  665.000
205.752; -160.800; -626.000; -551.000
205.898; -106.700; -501.000; -391.000
206.043; -120.400; -578.000; -506.000
206.189; -106.000; -243.000; -285.000
206.334;  133.700;  554.000;  606.000
206.480;  192.700;  409.000;  239.000
206.625; -144.800; -529.000; -552.000
206.771; -104.500; -451.000; -373.000
206.916;  -88.800; -210.000; -537.000
207.062; -137.800; -545.000; -591.000
207.207; -107.500; -546.000; -443.000
207.353;  107.900;  185.000;  460.000
207.498;   36.400;  196.000;   85.000
207.643; -123.500; -501.000; -370.000
207.789; -268.200;-1069.000; -910.000
207.934; -197.400; -665.000; -713.000
208.080;  -65.700; -154.000;   66.000
208.225;   11.700;  -22.000;  -57.000
208.370; -180.200; -727.000; -619.000
208.516; -167.100; -741.000; -487.000
208.661;  -57.600; -127.000;  -69.000
208.806;  -26.700; -165.000; -171.000
208.952; -264.000;-1044.000; -731.000
209.097;  178.800;  378.000;  349.000
209.242; -102.700; -307.000; -382.000
209.387;  128.100;  392.000;  350.000
209.533; -122.300; -321.000; -350.000
209.678;  148.600;  472.000;  543.000
209.823; -108.900; -408.000; -310.000
209.969; -195.900; -860.000; -757.000
210.114; -220.800; -907.000; -719.000
210.259; -233.900; -939.000; -889.000
210.404;   -1.500; -171.000;  103.000
210.549;   14.400;  108.000;    3.000
210.695;  -42.900;   -3.000;  -95.000
210.840;   89.300;   94.000;   67.000
210.985; -122.800; -484.000; -303.000
211.130;  159.100;  268.000;  406.000
211.275;   64.500;  207.000;  199.000
211.420; -124.600; -300.000; -289.000
211.566; -135.100; -536.000; -489.000
211.711;   51.900;  218.000;  157.000
211.856; -129.400; -545.000; -519.000
212.001;   24.400;  151.000;   44.000
212.146;   -3.400;  153.000;   49.000
212.291;  -34.500; -210.000; -186.000
212.436;  -49.700; -280.000;   -6.000
212.581; -181.200; -685.000; -653.000
212.726; -141.600; -487.000; -538.000
212.871;  -98.000; -552.000; -217.000
213.016; -305.900;-1172.000;-1029.000
213.161;  123.700;  406.000;  291.000
213.306; -155.700; -435.000; -577.000
213.451; -183.100; -778.000; -689.000
213.596;  -84.900; -455.000; -347.000
213.741; -109.700; -448.000; -538.000
213.886; -147.300; -498.000; -517.000
214.031;  -63.700; -294.000; -124.000
214.176; -111.900; -408.000; -341.000
214.321;  -23.900; -296.000; -157.000
214.466;  -65.300; -163.000;  -43.000
214.611;    5.300;  -61.000;  -10.000
214.756; -223.900; -948.000; -858.000
214.901;  -70.100; -388.000; -226.000
215.046; -233.500; -797.000; -825.000
215.191;   31.800;  128.000;   35.000
215.336;  -31.400; -157.000;  -19.000
215.480; -126.400; -684.000; -505.000
215.625;    3.800; -175.000;  -19.000
215.770; -170.500; -757.000; -662.000
215.915;  -14.400;   -5.000;  -97.000
216.060;  -14.200; -113.000;  -21.000
216.205; -226.800; -731.000; -779.000
216.349; -128.800; -470.000; -533.000
216.494; -264.400; -939.000; -867.000
216.639; -222.900; -823.000; -888.000
216.784; -193.700; -577.000; -525.000
216.929;   95.100;  392.000;  281.000
217.073;  -50.500; -244.000;  -31.000
217.218;   24.700;   78.000;  -47.000
217.363; -201.500; -656.000; -618.000
217.507; -183.500; -623.000; -588.000
217.652; -251.300; -845.000; -874.000
217.797; -208.300; -708.000; -659.000
217.942; -208.500; -856.000; -720.000
218.086;  194.900;  608.000;  539.000
218.231;  -38.500; -174.000;  -26.000
218.376;  -58.600; -337.000; -229.000
218.520;   -7.800;  -41.000;   96.000
218.665;  -45.800; -338.000; -204.000
218.810;  -76.700; -275.000; -233.000
218.954;   27.400;  201.000;   35.000
219.099; -237.300; -713.000; -963.000
219.243; -139.300; -589.000; -554.000
219.388;  -59.400; -264.000; -136.000
219.532;  -25.900; -116.000; -116.000
219.677; -146.700; -564.000; -521.000
219.822;   14.600;   33.000;   89.000
219.966;  -10.600;   17.000;  -99.000
220.111;  -72.600; -328.000;  -40.000
220.255; -188.100; -797.000; -750.000
220.400;  -52.500; -180.000; -146.000
220.544; -143.700; -516.000; -450.000
220.689; -120.100; -422.000; -451.000
220.833;  -26.100; -123.000;  -58.000
220.978;  -84.900; -393.000; -563.000
221.122;   79.100;  319.000;  307.000
221.267; -234.900; -906.000; -837.000
221.411; -108.500; -478.000; -394.000
221.555;  -16.000; -104.000;  -23.000
221.700;  -78.200; -329.000; -222.000
221.844;   98.200;  255.000;  272.000
221.989; -106.000; -328.000; -311.000
222.133;  -78.700; -289.000; -307.000
222.277;  -29.800;    5.000;   78.000
222.422;   30.300;  227.000;  113.000
222.566;  -75.300; -381.000; -214.000
222.711; -117.500; -414.000; -479.000
222.855; -158.700; -643.000; -586.000
222.999; -174.700; -642.000; -717.000
223.144;  -77.600; -195.000; -194.000
223.288;   94.800;  423.000;  251.000
223.432;   -2.600;  184.000;  230.000
223.576;   69.200;  152.000;  -21.000
223.721;   73.600;  364.000;  273.000
223.865;  -86.700; -472.000; -475.000
224.009;  579.900; 1673.000; 1631.000
224.153; -146.100; -660.000; -671.000
224.298; -140.700; -531.000; -489.000
224.442;  -20.500;  -74.000;  -33.000
224.586;   -7.300; -169.000; -106.000
224.730; -212.200; -858.000; -670.000
224.875; -186.200; -739.000; -688.000
225.019;   35.600;  102.000;  188.000
225.163;  112.300;  208.000;  341.000
225.307;   63.800;   97.000;  -91.000
225.451;  112.900;  360.000;  481.000
225.595;   76.200;  264.000;  176.000
225.739;  -44.700; -170.000;  -94.000
225.884;   10.000;   86.000;    5.000
226.028; -196.700; -760.000; -626.000
226.172;  -90.500; -260.000; -273.000
226.316; -233.200; -941.000; -902.000
226.460; -155.800; -645.000; -493.000
226.604;  -67.200; -406.000; -400.000
226.748; -196.500; -836.000; -733.000
226.892;  -90.700; -227.000; -181.000
227.036;  -94.200; -537.000; -447.000
227.180; -116.400; -551.000; -375.000
227.324; -110.800; -561.000; -580.000
227.468; -246.700; -819.000; -717.000
227.612;   38.300;  242.000;  -28.000
227.756; -241.700; -845.000; -698.000
227.900;  109.400;  342.000;  441.000
228.044; -139.400; -509.000; -290.000
228.188;  123.800;  448.000;  568.000
228.332; -181.000; -546.000; -472.000
228.476;  -60.900; -223.000; -149.000
228.620;  -54.400; -210.000; -150.000
228.764;  137.200;  431.000;  349.000
228.908;  -32.400; -155.000;   30.000
229.052; -116.000; -615.000; -528.000
229.195;  -33.000; -172.000;   13.000
229.339;  -41.100; -235.000; -305.000
229.483;  -47.500;    5.000; -162.000
229.627;   13.600; -156.000;  139.000
229.771;  -90.800; -218.000; -294.000
229.915;    6.800;  230.000;   79.000
230.059; -167.000; -648.000; -663.000
230.202;  -74.100; -370.000; -317.000
230.346;  -36.400; -107.000;  107.000
230.490; -143.600; -489.000; -521.000
230.634; -201.800; -736.000; -553.000
230.777;  166.000;  478.000;  509.000
230.921; -133.600; -450.000; -359.000
231.065;  -97.000; -246.000; -286.000
231.209;   71.800;  261.000;  265.000
231.352;   45.000;   54.000;   40.000
231.496;   18.700;  568.000;  188.000
231.640; -143.600; -693.000; -621.000
231.783;  162.700;  546.000;  525.000
231.927;  -77.900; -294.000; -365.000
232.071; -258.000; -962.000; -736.000
232.214; -255.300; -980.000; -764.000
232.358; -184.900; -683.000; -599.000
232.502;   14.200;  -19.000;    7.000
232.645; -290.400;-1090.000; -927.000
232.789;  -63.700; -257.000; -218.000
232.933; -100.000; -407.000; -224.000
233.076; -237.600;-1038.000; -897.000
233.220; -211.300; -752.000; -777.000
233.363; -165.000; -669.000; -477.000
233.507;  109.100;  371.000;  129.000
233.650; -171.700; -764.000; -834.000
233.794;  101.400;  438.000;  461.000
233.938; -113.100; -530.000; -362.000
234.081;  -15.100;  -93.000;   31.000
234.225; -138.500; -631.000; -539.000
234.368; -220.300; -773.000; -723.000
234.512;  -87.700; -385.000; -299.000
234.655; -186.800; -582.000; -555.000
234.798; -124.900; -493.000; -466.000
234.942; -260.800; -884.000;-1002.000
235.085; -143.700; -651.000; -443.000
235.229; -143.100; -405.000; -410.000
235.372;  -96.300; -247.000; -191.000
235.516; -105.900; -397.000; -321.000
235.659;   59.500;   92.000;  121.000
235.802;  -17.200;  -38.000;  -22.000
235.946;   69.500;  335.000;  215.000
236.089;   69.100;  126.000;  250.000
236.233;  123.900;  275.000;  298.000
236.376;  -81.500; -235.000; -378.000
236.519;  -84.700; -297.000; -319.000
236.663;  -68.000; -215.000; -117.000
236.806; -275.100;-1029.000; -999.000
236.949;  121.100;  543.000;  431.000
237.092;  139.900;  412.000;  391.000
237.236; -168.100; -589.000; -502.000
237.379;  114.400;  352.000;  428.000
237.522; -229.900; -879.000; -768.000
237.666;  -27.900; -271.000;   18.000
237.809; -258.600; -851.000; -823.000
237.952;   88.700;  469.000;  271.000
238.095; -125.600; -447.000; -442.000
238.238;  184.400;  688.000;  700.000
238.382;   -3.500;  166.000;  103.000
238.525; -179.200; -598.000; -511.000
238.668; -288.300;-1060.000; -985.000
238.811; -166.100; -638.000; -643.000
238.954; -135.800; -483.000; -334.000
239.097;  206.100;  617.000;  664.000
239.241;  101.300;  394.000;  326.000
239.384;  -41.200; -254.000; -214.000
239.527;  -93.500; -424.000; -224.000
239.670; -276.500; -994.000;-1091.000
239.813; -194.200; -696.000; -658.000
239.956;  156.500;  579.000;  473.000
240.099; -224.300; -778.000; -725.000
240.242;  135.200;  428.000;  432.000
240.385;  141.300;  466.000;  450.000
240.528; -121.600; -706.000; -473.000
240.671;   58.900;  189.000;  134.000
240.814;  -78.500; -441.000; -158.000
240.957; -206.500; -767.000; -578.000
241.100; -188.100; -779.000; -755.000
241.243; -247.400;-1234.000; -893.000
241.386; -132.700; -508.000; -379.000
241.529; -171.700; -735.000; -547.000
241.672; -113.500; -566.000; -495.000
241.815; -231.400; -832.000; -808.000
241.958;  -44.900; -125.000; -182.000
242.101; -145.100; -545.000; -390.000
242.244;  -77.700; -270.000; -325.000
242.387;  -61.500; -304.000; -246.000
242.530;  152.300;  470.000;  134.000
242.673;  -73.900; -381.000; -309.000
242.815; -231.900; -925.000; -899.000
242.958; -159.100; -482.000; -381.000
243.101;   57.300;  132.000;  187.000
243.244; -160.500; -564.000; -521.000
243.387; -111.100; -313.000; -316.000
243.530; -219.300; -657.000; -674.000
243.672;   12.400;   43.000;  -92.000
243.815; -101.000; -355.000; -283.000
243.958;    9.100;   98.000;  -26.000
244.101;   -6.800;   59.000;  -16.000
244.243;  -20.300;  -47.000;  101.000
244.386; -221.400; -761.000; -630.000
244.529;  -53.100; -132.000; -139.000
244.672; -314.700;-1154.000; -951.000
244.814; -188.000; -621.000; -794.000
244.957; -109.600; -380.000; -304.000
245.100; -152.700; -489.000; -489.000
245.242; -114.900; -387.000; -374.000
245.385;   13.800;  -59.000;  -39.000
245.528; -209.100; -871.000; -705.000
245.670;  176.300;  612.000;  634.000
245.813; -154.700; -599.000; -547.000
245.956;  -48.700; -324.000; -275.000
246.098; -130.900; -508.000; -650.000
246.241;   35.700;  194.000;   48.000
246.383;   -5.100; -119.000;  -73.000
246.526; -145.500; -454.000; -525.000
246.669; -226.300; -889.000; -780.000
246.811;   49.800;  172.000;   -1.000
246.954; -119.200; -512.000; -426.000
247.096;  -30.700;  -84.000;   -6.000
247.239; -127.300; -482.000; -445.000
247.381; -144.000; -647.000; -488.000
247.524;  195.400;  645.000;  679.000
247.666;  -44.000;   58.000;   11.000
247.809; -234.900; -887.000; -691.000
247.951;  -26.300;  -75.000;  138.000
248.094;   36.800;  432.000;  308.000
248.236; -344.100;-1262.000;-1238.000
248.378;  -29.000; -356.000;  -81.000
248.521;  -44.100; -334.000; -337.000
248.663;  -75.700; -236.000; -267.000
248.806;  -28.300; -300.000; -266.000
248.948; -209.800; -886.000; -763.000
249.090;  -98.900; -428.000; -398.000
249.233;  -90.700; -344.000; -381.000
249.375; -133.900; -474.000; -451.000
249.518;  -13.100;  -83.000; -133.000
249.660;   -5.700; -103.000;    3.000
249.802; -349.500;-1303.000;-1189.000
249.945; -140.200; -612.000; -540.000
250.087; -236.400; -834.000; -768.000
250.229;  -96.700; -362.000; -480.000
250.371; -178.800; -494.000; -439.000
250.514;  -82.300; -310.000; -244.000
250.656;   22.800;   69.000;  102.000
250.798; -236.400; -849.000; -800.000
250.940;  -88.800; -322.000; -322.000
251.083;  -53.000; -335.000; -111.000
251.225;  132.900;  338.000;  310.000
251.367;  -74.700; -274.000; -373.000
251.509;  -46.800; -265.000; -210.000
251.651; -189.200; -731.000; -671.000
251.794;  115.700;  538.000;  632.000
251.936; -200.200; -821.000; -747.000
252.078; -161.600; -540.000; -461.000
252.220; -151.900; -645.000; -477.000
252.362;  155.100;  344.000;  462.000
252.504; -104.000; -677.000; -584.000
252.646; -238.900; -875.000; -722.000
252.788;  -18.300;   14.000; -128.000
252.931;  -89.700; -257.000; -253.000
253.073;  -94.000; -376.000; -317.000
253.215;  -30.600;  141.000;  122.000
253.357;  -34.500;   82.000; -153.000
253.499;  -79.300; -374.000; -234.000
253.641; -173.600; -749.000; -594.000
253.783; -180.400; -609.000; -527.000
253.925; -169.900; -586.000; -591.000
254.067; -219.600; -744.000; -667.000
254.209;  -51.100; -391.000; -259.000
254.351; -267.000; -865.000; -883.000
254.493; -142.600; -441.000; -417.000
254.635; -238.700; -936.000; -818.000
254.777; -171.400; -752.000; -687.000
254.918; -149.300; -512.000; -430.000
255.060;  -95.300; -551.000; -395.000
255.202; -129.500; -473.000; -261.000
255.344; -169.300; -658.000; -455.000
255.486; -145.600; -471.000; -406.000
255.628; -243.300; -780.000; -781.000
255.770; -175.100; -676.000; -536.000
255.912;  -96.500; -559.000; -468.000
256.053; -158.200; -730.000; -508.000
256.195;  326.600; 1008.000;  903.000
256.337; -204.600; -861.000; -595.000
256.479;  155.900;  532.000;  416.000
256.621;  -77.400; -394.000; -212.000
256.762; -188.500; -789.000; -742.000
256.904;  101.800;  485.000;  487.000
257.046;  -46.100; -381.000; -271.000
257.188;  -78.900; -351.000; -264.000
257.329; -121.000; -525.000; -464.000
257.471; -253.800; -939.000; -807.000
257.613; -125.100; -584.000; -498.000
257.755; -307.700;-1073.000; -982.000
257.896;  102.500;  286.000;  392.000
258.038; -143.400; -403.000; -352.000
258.180;  -90.300; -354.000; -279.000
258.321; -167.600; -581.000; -457.000
258.463;   -9.100;  -71.000;  133.000
258.605; -169.800; -562.000; -570.000
258.746; -207.300; -886.000; -772.000
258.888; -288.700;-1026.000;-1020.000
259.029;   57.400;  121.000;   -8.000
259.171; -169.200; -614.000; -550.000
259.313;    3.600;  -49.000;  -47.000
259.454; -156.800; -536.000; -414.000
259.596; -115.600; -483.000; -390.000
259.737; -136.300; -590.000; -474.000
259.879;   97.800;  217.000;  311.000
260.020;  153.000;  901.000;  636.000
260.162;  -51.200; -146.000; -253.000
260.303; -240.700; -768.000; -687.000
260.445; -187.700; -609.000; -613.000
260.586;   86.400;  392.000;  157.000
260.728;  -88.100; -360.000; -248.000
260.869; -129.400; -350.000; -343.000
261.011;  169.400;  706.000;  537.000
261.152; -104.600; -479.000; -319.000
261.293; -144.300; -576.000; -595.000
261.435;  -71.800; -219.000; -184.000
261.576;  -79.600; -455.000; -325.000
261.718;  126.000;  420.000;  470.000
261.859; -214.800; -940.000; -949.000
262.000; -262.500; -951.000;-1016.000
262.142;  -42.700;  -52.000;  -60.000
262.283; -230.800; -808.000; -691.000
262.424; -193.000; -666.000; -625.000
262.566; -314.300;-1161.000; -983.000
262.707; -236.300; -840.000; -830.000
262.848; -246.800; -769.000; -726.000
262.990;  -87.900; -362.000; -345.000
263.131;  158.100;  650.000;  681.000
263.272;   23.200;  -61.000;  -41.000
263.413; -185.800; -589.000; -561.000
263.555; -115.000; -669.000; -143.000
263.696; -177.500; -550.000; -641.000
263.837;  -89.900; -449.000; -551.000
263.978;   -0.200;   -5.000;  -77.000
264.119;  -70.900; -283.000; -264.000
264.261; -212.600; -847.000; -630.000
264.402;   23.800;   33.000;   40.000
264.543; -128.300; -509.000; -524.000
264.684;  -29.700;   61.000;  -50.000
264.825; -110.800; -816.000; -538.000
264.966;   -0.300;  -84.000;  -67.000
265.107; -223.200; -646.000; -670.000
265.248; -221.200; -825.000; -812.000
265.390;  -34.900;  152.000;   -9.000
265.531;  -16.200; -238.000; -107.000
265.672; -180.900; -557.000; -630.000
265.813;  137.200;  563.000;  439.000
265.954; -271.500; -959.000; -940.000
266.095;   -6.500; -372.000; -322.000
266.236; -187.100; -686.000; -548.000
266.377; -107.500; -243.000; -297.000
266.518; -122.200; -619.000; -547.000
266.659;   63.600;  170.000;  268.000
266.800;   38.800;   83.000;   85.000
266.941; -147.600; -487.000; -478.000
267.082;   25.900;  354.000;   99.000
267.223;  -94.500; -344.000; -273.000
267.364; -246.200; -892.000; -686.000
267.504;  -10.900;    3.000;  135.000
267.645;   -9.300;  160.000;   67.000
267.786;  -35.200; -147.000;  -86.000
267.927; -139.500; -473.000; -379.000
268.068;  -14.300; -186.000;  -61.000
268.209;  -86.800; -175.000; -413.000
268.350;  -89.900; -388.000; -532.000
268.490; -166.500; -648.000; -521.000
268.631;   71.500;  127.000;  225.000
268.772; -220.800; -874.000; -647.000
268.913; -100.400; -328.000; -476.000
269.054;  -15.400; -117.000;   12.000
269.194;  -94.900; -418.000; -402.000
269.335; -299.000;-1137.000;-1074.000
269.476;  -35.500;   33.000;  -35.000
269.617;  -90.800; -347.000; -392.000
269.757; -169.400; -713.000; -646.000
269.898; -193.400; -856.000; -613.000
270.039; -133.100; -415.000; -405.000
270.180; -272.600; -952.000; -816.000
270.320;  -22.400; -190.000; -250.000
270.461;  -70.900; -277.000; -249.000
270.602;  -24.100; -186.000; -156.000
270.742; -234.900; -868.000; -943.000
270.883; -123.900; -442.000; -390.000
271.023; -115.500; -358.000; -357.000
271.164; -150.500; -607.000; -528.000
271.305; -177.900; -666.000; -654.000
271.445; -175.100; -722.000; -683.000
271.586; -158.900; -462.000; -283.000
271.726;  -93.200; -397.000; -322.000
271.867; -162.400; -594.000; -534.000
272.008;  193.000; -473.000; -285.000
272.148;  191.400;  462.000;  468.000
272.289;    9.200; -113.000; -181.000
272.429;   51.900;   19.000;  185.000
272.570; -196.800; -633.000; -737.000
272.710; -203.400; -825.000; -775.000
272.851;  -17.900;  113.000; -130.000
272.991; -324.000;-1173.000;-1077.000
273.131; -123.800; -419.000; -459.000
273.272; -216.100; -683.000; -723.000
273.412;  -11.100; -143.000;  -31.000
273.553; -121.900; -488.000; -507.000
273.693;  277.000;  913.000;  858.000
273.834; -213.000; -894.000; -692.000
273.974; -152.300; -664.000; -615.000
274.114; -209.500; -772.000; -560.000
274.255;  147.100;  414.000;  373.000
274.395;  -16.100; -180.000; -125.000
274.535;   66.500;  199.000;  350.000
274.676;   65.900;  225.000;   94.000
274.816;   16.800;  110.000;   34.000
274.956; -164.400; -624.000; -690.000
275.097; -187.200;-1014.000; -922.000
275.237; -240.300; -913.000; -803.000
275.377; -201.700; -778.000; -689.000
275.517; -285.000; -878.000; -937.000
275.658; -117.500; -590.000; -555.000
275.798; -138.500; -606.000; -413.000
275.938;   69.900;  215.000;  323.000
276.078; -205.900; -626.000; -395.000
276.218;   32.300;   99.000;  104.000
276.359; -272.300;-1026.000;-1024.000
276.499; -155.600; -605.000; -446.000
276.639;  -46.600; -305.000; -151.000
276.779; -142.200; -475.000; -357.000
276.919; -209.400; -783.000; -624.000
277.059;  -57.900; -261.000; -212.000
277.199;  -65.200; -357.000; -259.000
277.340;  129.200;  287.000;  175.000
277.480; -231.300; -840.000; -693.000
277.620;   59.500;  192.000;   16.000
277.760; -404.300;-1533.000;-1294.000
277.900;   50.000;  113.000;   33.000
278.040;   76.200;  137.000;  159.000
278.180;   88.400;  270.000;  170.000
278.320;   10.200;   21.000;   56.000
278.460; -118.600; -443.000; -469.000
278.600; -162.300; -708.000; -598.000
278.740;  152.300;  448.000;  224.000
278.880; -167.500; -768.000; -791.000
279.020;   -3.600; -194.000; -144.000
279.160; -157.100; -672.000; -595.000
279.300; -223.700; -926.000; -873.000
279.440; -182.100; -709.000; -622.000
279.579; -130.600;-1014.000; -929.000
279.719;  -78.200; -410.000; -394.000
279.859;  122.000;   -4.000;   41.000
279.999;   40.900; -208.000;  101.000
280.139;  -54.400; -435.000; -387.000
280.279; -163.500; -708.000; -745.000
280.419;    4.900; -229.000; -147.000
280.559;  -78.700; -259.000; -180.000
280.698; -157.400; -790.000; -639.000
280.838; -180.400; -778.000; -800.000
280.978; -187.200; -846.000; -790.000
281.118; -204.000; -811.000; -704.000
281.257;   17.800;   24.000;    6.000
281.397; -273.300;-1094.000; -960.000
281.537; -172.900; -599.000; -712.000
281.677;  -38.600; -150.000; -101.000
281.816; -161.200; -700.000; -630.000
281.956;  -46.000; -193.000; -257.000
282.096; -128.200; -539.000; -396.000
282.235; -217.700; -672.000; -638.000
282.375;  -62.500; -243.000;  -98.000
282.515; -212.800; -715.000; -707.000
282.654;   59.400;   29.000;  106.000
282.794;   46.600;  388.000;  244.000
282.934;  -99.000; -530.000; -491.000
283.073; -278.600;-1030.000; -857.000
283.213; -109.700; -460.000; -467.000
283.353; -105.600; -408.000; -349.000
283.492;  -49.900; -264.000; -296.000
283.632;  -74.400; -254.000; -168.000
283.771; -214.600; -859.000; -730.000
283.911;  -76.400; -369.000; -260.000
284.050; -197.000; -794.000; -748.000
284.190; -336.100;-1229.000;-1096.000
284.329; -287.500;-1055.000; -964.000
284.469; -151.800; -516.000; -591.000
284.608;  -76.400; -559.000; -598.000
284.748; -142.900; -614.000; -570.000
284.887;   -6.600;  -87.000;  -20.000
285.027; -232.200; -844.000; -892.000
285.166;  -90.300; -192.000; -249.000
285.306;   16.200; -116.000;  -33.000
285.445;  -56.200; -229.000; -343.000
285.584; -165.900; -630.000; -494.000
285.724;  -64.000; -282.000; -322.000
285.863; -194.200; -857.000; -507.000
286.002;  -54.700; -366.000; -276.000
286.142; -183.100; -715.000; -622.000
286.281; -100.600; -525.000; -493.000
286.420; -165.700; -554.000; -417.000
286.560;  192.200;  653.000;  623.000
286.699; -256.400; -958.000; -912.000
286.838; -169.500; -590.000; -591.000
286.978; -171.600; -533.000; -537.000
287.117; -259.700;-1085.000; -950.000
287.256;  -48.400; -228.000; -211.000
287.395;  -95.000; -197.000; -378.000
287.535;  -97.700; -370.000; -298.000
287.674; -157.200; -509.000; -484.000
287.813;  146.100;  661.000;  533.000
287.952; -258.100;-1010.000; -871.000
288.091; -304.300;-1049.000; -915.000
288.231;   28.100;   13.000;   15.000
288.370; -339.500;-1217.000;-1200.000
288.509; -166.900; -728.000; -645.000
288.648; -144.900; -770.000; -548.000
288.787;  -57.500; -243.000;  -87.000
288.926; -120.900; -454.000; -475.000
289.065;  276.500;  859.000;  672.000
289.204;  -88.600; -377.000; -217.000
289.344; -182.100; -791.000; -690.000
289.483;   66.900;  416.000;  304.000
289.622;  -35.200; -291.000; -149.000
289.761;  -47.900; -309.000; -166.000
289.900; -190.700; -785.000; -626.000
290.039;  -16.900;  -12.000;  -95.000
290.178;  -67.200; -274.000; -180.000
290.317; -145.200; -618.000; -479.000
290.456; -105.100; -463.000; -451.000
290.595; -268.700; -961.000; -833.000
290.734; -277.500; -904.000; -891.000
290.873; -132.200; -456.000; -420.000
291.011; -237.900; -833.000; -843.000
291.150; -224.400; -770.000; -682.000
291.289;  -45.500; -343.000; -110.000
291.428; -203.900; -599.000; -480.000
291.567; -104.100; -370.000; -442.000
291.706;   13.500;  109.000;  154.000
291.845; -171.100; -597.000; -505.000
291.984; -325.500;-1234.000;-1061.000
292.122;  181.100;  602.000;  582.000
292.261;  100.800;  620.000;  463.000
292.400;   26.300; -144.000;  211.000
292.539; -224.300; -959.000; -813.000
292.678;  -49.700; -325.000; -300.000
292.816; -324.100;-1136.000; -965.000
292.955; -185.300; -844.000; -684.000
293.094;  -43.200; -173.000; -337.000
293.233;  -83.200; -556.000; -400.000
293.371;  -61.000; -225.000;  -84.000
293.510; -193.500; -866.000; -780.000
293.649; -281.600; -959.000; -924.000
293.787; -170.000;-1083.000;-1012.000
293.926;  -18.200; -113.000;  -32.000
294.065;  -70.700; -379.000; -290.000
294.203;  109.200;  298.000;  406.000
294.342;   59.600;   74.000;  156.000
294.481;11950.500;51180.000; -836.000
294.619;  -62.000; -425.000; -582.000
294.758; -290.700;-1230.000;-1137.000
294.896;   90.100; -125.000;    5.000
295.035; -259.900;-1040.000;-1006.000
295.174; -241.700;-1082.000; -954.000
295.312;  -96.800; -323.000; -203.000
295.451;  -15.500; -307.000; -428.000
295.589; -101.300; -389.000; -518.000
295.728;   34.600; -292.000; -165.000
295.866;   -3.300;  -36.000;  -51.000
296.005; -121.100; -584.000; -341.000
296.143; -119.600; -558.000; -596.000
296.282; -198.800; -957.000; -881.000
296.420; -161.000; -657.000; -557.000
296.559; -159.800; -892.000; -633.000
296.697;  -52.500; -847.000; -665.000
296.835;    0.100;-1141.000;-1002.000
296.974;   41.200;  -23.000;   39.000
297.112;  -29.200; -443.000; -504.000
297.251; -151.300; -815.000; -755.000
297.389;   50.300; -576.000; -438.000
297.527;   30.300; -145.000;  -83.000
297.666; -109.300; -486.000; -438.000
297.804;  -94.800; -404.000; -264.000
297.942;   11.100; -136.000; -161.000
298.081;  -14.600; -183.000;   63.000
298.219;  103.300;  -17.000;  -19.000
298.357;   24.200; -144.000;  -71.000
298.495;  -19.700; -810.000; -812.000
298.634;  125.700;  245.000;  219.000
298.772;   37.100; -220.000; -338.000
298.910;  -78.900; -309.000; -182.000
299.048;    4.500; -130.000; -153.000
299.187;  -70.900; -350.000; -250.000
299.325;   29.200;   52.000;  122.000
299.463;   21.400; -389.000; -299.000
299.601;  132.500; -327.000; -271.000
299.739; -253.800; -908.000; -883.000
299.877; -157.600; -791.000; -703.000
300.016; -179.100;-1095.000; -935.000
300.154;  196.200;  -19.000; -161.000
300.292;   15.100; -428.000; -348.000
300.430;   26.200; -408.000; -291.000
300.568; -240.200; -940.000; -874.000
300.706;  -81.300; -366.000; -469.000
300.844; -234.600;-1108.000; -979.000
300.982;  226.700;  246.000;  282.000
301.120; -197.600; -965.000; -866.000
301.258; -133.600; -812.000; -705.000
301.396;   55.400;  104.000;  -41.000
301.534;   58.600; -218.000; -293.000
301.672;  -46.100; -664.000; -521.000
301.810;  -31.600; -613.000; -545.000
301.948;  207.500;   53.000;  149.000
302.086;  704.700; -250.000;  -32.000
302.224; 1136.100; -610.000; -585.000
302.362;   -6.200; -558.000; -622.000
302.500;  -96.000; -923.000; -893.000
302.638;  146.500;  128.000;  245.000
302.776;  -14.900; -352.000; -408.000
302.913;  109.300;  447.000;  236.000
303.051;  -29.700;  -86.000;  -23.000
303.189;   71.700;   90.000;  118.000
303.327;  -55.200; -341.000; -256.000
303.465; -139.800; -832.000; -588.000
303.603; -188.700; -805.000; -604.000
303.740;  167.300;  417.000;  241.000
303.878;  -35.500; -800.000; -759.000
304.016; -177.800; -915.000; -790.000
304.154; -292.600;-1123.000;-1152.000
304.291;  -66.100; -505.000; -554.000
304.429;   16.600;  102.000;   74.000
304.567; -261.300; -908.000; -893.000
304.705; -116.200; -408.000; -515.000
304.842;   44.500; -616.000; -540.000
304.980;  132.000;  215.000;   35.000
305.118;   25.900; -367.000; -365.000
305.255; -179.800; -945.000; -927.000
305.393;  103.800;  178.000;  239.000
305.531; -266.400;-1173.000; -956.000
305.668; -139.700; -663.000; -582.000
305.806;   77.000; -358.000; -439.000
305.943;   74.800; -629.000; -637.000
306.081;   68.900; -378.000; -267.000
306.219; -199.700; -863.000; -748.000
306.356;   82.800;  158.000;   27.000
306.494;  260.200;  981.000;  761.000
306.631;   20.500;  -11.000;  -55.000
306.769;  -12.400; -613.000; -485.000
306.906;  -44.400; -284.000; -258.000
307.044;  -94.600; -473.000; -488.000
307.181;  -93.200; -410.000; -332.000
307.319;   44.700;  112.000;   87.000
307.456; -326.300;-1191.000;-1153.000
307.594; -196.000; -980.000; -727.000
307.731;  -33.800; -371.000; -164.000
307.868;   47.400;  -15.000;   20.000
308.006; -238.800; -961.000; -847.000
308.143; -136.200; -618.000; -330.000
308.281;  293.200;  -37.000; -254.000
308.418;  -12.900; -748.000; -640.000
308.555; -126.800; -400.000; -250.000
308.693; -129.600; -577.000; -573.000
308.830; -159.900; -712.000; -657.000
308.967;  -13.900; -215.000;  -95.000
309.105;  -35.100; -507.000; -396.000
309.242;   63.600; -468.000; -367.000
309.379;  578.700; -577.000; -655.000
309.517; -118.400; -936.000; -948.000
309.654; -183.700; -910.000; -734.000
309.791; -101.100; -662.000; -580.000
309.928; -244.700; -977.000; -914.000
310.065;  335.600;  819.000;  697.000
310.203;  -99.100; -825.000; -850.000
310.340;   -5.800; -465.000; -321.000
310.477; -154.000; -412.000; -516.000
310.614; -122.700; -383.000; -473.000
310.751; -155.200; -427.000; -518.000
310.889;   -1.600;    1.000;   11.000
311.026; -274.300;-1161.000; -939.000
311.163;  -94.900; -386.000; -380.000
311.300; -111.700; -512.000; -479.000
311.437; -125.200; -658.000; -619.000
311.574; -315.900;-1226.000; -985.000
311.711; -105.700; -595.000; -433.000
311.848;  -87.100; -380.000; -388.000
311.985;   41.800;  270.000;   93.000
312.122; -190.200; -932.000; -762.000
312.259; -206.000; -941.000; -994.000
312.396; -135.500; -508.000; -551.000
312.533; -161.800; -812.000; -790.000
312.670; -253.600;-1070.000; -898.000
312.807;  -82.100; -352.000; -367.000
312.944; -134.200; -513.000; -611.000
313.081;  -63.000; -150.000; -415.000
313.218; -234.300;-1111.000; -867.000
313.355;   11.000; -531.000; -449.000
313.492;  -21.100; -455.000; -292.000
313.629;  245.700;  815.000;  735.000
313.766; -322.300;-1176.000;-1008.000
313.902;   -0.300; -186.000;   21.000
314.039;  -96.300; -372.000; -289.000
314.176;   80.800;  286.000;  192.000
314.313; -136.000; -569.000; -473.000
314.450; -145.000; -788.000; -684.000
314.587; -119.900; -468.000; -480.000
314.723;   17.700;  -78.000;  130.000
314.860;   61.600;  318.000;  332.000
314.997;   79.200;  223.000;  142.000
315.134;  -66.200; -385.000; -368.000
315.270;  -90.800; -480.000; -496.000
315.407; -252.400;-1094.000; -967.000
315.544; -112.300; -657.000; -538.000
315.681; -164.500; -681.000; -565.000
315.817;   22.500; -133.000; -176.000
315.954;  -74.700; -613.000; -392.000
316.091; -250.500;-1045.000;-1023.000
316.227;   14.500;  -71.000; -179.000
316.364;   12.300;   23.000;    6.000
316.500;  -40.800; -113.000; -300.000
316.637;  -57.500; -181.000; -302.000
316.774; -149.000; -625.000; -358.000
316.910; -169.100; -598.000; -629.000
317.047; -125.500; -487.000; -351.000
317.183;  -92.400; -435.000; -566.000
317.320;  -31.400; -367.000; -321.000
317.456; -152.600; -733.000; -805.000
317.593; -175.800; -598.000; -641.000
317.729;   34.200;  168.000;  -67.000
317.866; -380.900;-1434.000;-1285.000
318.002; -196.200; -708.000; -948.000
318.139; -184.800; -883.000; -867.000
318.275; -203.700;-1003.000; -738.000
318.412; -135.700; -517.000; -336.000
318.548;  -89.600; -751.000; -720.000
318.685; -208.600; -985.000; -888.000
318.821; -164.400; -762.000; -735.000
318.957;  -18.100;   34.000;  -23.000
319.094;  108.500;  297.000;  154.000
319.230; -135.500; -756.000; -742.000
319.367;  173.700; -471.000; -520.000
319.503;   74.400; -538.000; -436.000
319.639; -182.700; -877.000; -793.000
319.775; -153.400; -750.000; -685.000
319.912;  -96.600; -424.000; -519.000
320.048; -231.100;-1184.000;-1184.000
320.184;  147.500;   59.000;   70.000
320.321; -128.400; -497.000; -467.000
320.457;  139.200;  475.000;  662.000
320.593;  -73.700; -375.000; -382.000
320.729; -183.500; -732.000; -734.000
320.866; -135.800; -577.000; -635.000
321.002; -174.500; -759.000; -809.000
321.138;  -18.500; -135.000; -211.000
321.274;  107.500; -148.000; -115.000
321.410;  -67.000; -585.000; -353.000
321.546; -117.500;-1011.000; -911.000
321.683;  147.800;  400.000;  185.000
321.819;   -2.800;  -48.000; -117.000
321.955; -201.200; -743.000; -722.000
322.091;  -96.800; -585.000; -540.000
322.227;  -22.800; -382.000; -202.000
322.363;  -50.700; -320.000; -215.000
322.499;  -74.400; -343.000; -331.000
322.635;  260.500;  636.000;  443.000
322.771;   19.600; -139.000;   12.000
322.907;  153.900;  129.000;  327.000
323.043;  -40.900; -115.000; -206.000
323.179;  -53.800; -394.000; -363.000
323.315;  -27.100; -401.000; -371.000
323.451;   97.200; -328.000; -236.000
323.587;   85.500;  -60.000;  -77.000
323.723;  -31.800; -682.000; -601.000
323.859;  -29.100; -258.000;  -76.000
323.995;  -75.500; -467.000; -409.000
324.131; -237.700; -967.000; -892.000
324.267;  -69.000; -254.000; -276.000
324.402; -271.800; -960.000; -983.000
324.538;  -18.300; -279.000; -104.000
324.674;   41.200;  164.000;   77.000
324.810;  223.900;  226.000;  308.000
324.946;   50.000; -810.000; -658.000
325.082; -104.900; -568.000; -475.000
325.217;   -8.500;  -62.000;   16.000
325.353; -180.600; -764.000; -659.000
325.489; -152.300; -540.000; -506.000
325.625; -153.400; -579.000; -525.000
325.760;   98.200;  517.000;  376.000
325.896;  -62.600; -515.000; -702.000
326.032;  -80.900; -403.000; -352.000
326.168; -107.900; -462.000; -369.000
326.303; -115.100; -352.000; -461.000
326.439;  -35.400; -336.000; -276.000
326.575;  -27.600; -190.000;  -29.000
326.710;  -20.000; -156.000;  -30.000
326.846;  -19.800;  146.000;  103.000
326.982; -165.300; -530.000; -548.000
327.117; -135.400; -481.000; -442.000
327.253; -164.600; -745.000; -742.000
327.388; -239.000;-1137.000;-1153.000
327.524;  -83.300; -811.000; -578.000
327.659;  -16.300;  -58.000;  -22.000
327.795;   10.200;   69.000;   45.000
327.931; -150.600; -723.000; -499.000
328.066;  -14.600; -417.000; -276.000
328.202;  -30.100;   12.000; -129.000
328.337;  281.700;  957.000;  713.000
328.473;  -13.500;  -12.000;  -74.000
328.608;  -46.400; -256.000; -267.000
328.743; -169.500; -799.000; -664.000
328.879;   50.800;  214.000;  114.000
329.014;  -70.400; -102.000; -122.000
329.150; -136.800; -358.000; -483.000
329.285; -136.800; -465.000; -466.000
329.421;  -74.800; -548.000; -246.000
329.556;   -8.800;  -36.000;   85.000
329.691; -138.000; -633.000; -615.000
329.827; -153.500; -626.000; -480.000
329.962;  -65.000;  131.000; -301.000
330.097; -148.300; -673.000; -585.000
330.233;  -95.100; -410.000; -223.000
330.368; -216.400; -839.000; -628.000
330.503;   -3.000;    3.000;   98.000
330.638;  -22.800;  -93.000; -125.000
330.774; -120.700; -609.000; -530.000
330.909;  -89.800; -434.000; -244.000
331.044; -169.600; -714.000; -708.000
331.179; -317.400;-1217.000;-1109.000
331.315;   28.800;   77.000;   20.000
331.450;   57.600;  157.000;  285.000
331.585; -178.200; -805.000; -706.000
331.720; -153.900; -510.000; -460.000
331.855;    7.400;  -35.000; -102.000
331.990;  289.500;   62.000;  138.000
332.126;  189.000; -110.000;   71.000
332.261;  -40.100; -379.000; -265.000
332.396;  -39.300; -135.000; -242.000
332.531; -240.100;-1074.000;-1031.000
332.666;  -14.700; -519.000; -363.000
332.801; -216.000; -726.000; -807.000
332.936;  -33.100; -192.000; -122.000
333.071; -275.800; -870.000; -817.000
333.206;   59.900;  307.000;  379.000
333.341;  104.500;  344.000;  418.000
333.476; -149.800; -627.000; -623.000
333.611;  -60.400; -251.000; -173.000
333.746;  -45.600; -381.000; -464.000
333.881; -222.900; -973.000; -935.000
334.016; -214.300; -936.000; -917.000
334.151; -217.800; -746.000; -702.000
334.286;   74.100;  152.000;  186.000
334.421;    0.900; -125.000; -178.000
334.556; -136.500; -611.000; -567.000
334.690; -173.000; -631.000; -577.000
334.825;  158.300;  381.000;   83.000
334.960; -136.000; -285.000; -413.000
335.095;   18.000;  135.000;  -91.000
335.230; -195.200; -722.000; -738.000
335.365; -280.500;-1084.000; -990.000
335.499; -243.200;-1108.000;-1037.000
335.634;   70.900;    9.000;  534.000
335.769; -206.600; -755.000; -720.000
335.904; -125.300; -603.000; -561.000
336.038; -134.600; -735.000; -657.000
336.173; -272.600;-1206.000;-1194.000
336.308;  -29.500; -116.000; -189.000
336.443;   25.100; -544.000; -634.000
336.577; -185.400; -936.000; -787.000
336.712;   83.600;   -4.000;  -12.000
336.847; -151.600; -724.000; -607.000
336.981;   59.000; -272.000; -208.000
337.116;  352.100;  615.000;  501.000
337.250;  105.100; -434.000; -421.000
337.385;  244.100; -297.000; -208.000
337.520;   29.600; -632.000; -603.000
337.654;  -42.000; -215.000; -126.000
337.789; -231.300; -989.000; -933.000
337.923;  -69.000; -104.000; -205.000
338.058; -175.700; -673.000; -738.000
338.192;  -93.400; -611.000; -488.000
338.327;   22.600;  -18.000; -155.000
338.461;  -97.100; -299.000; -469.000
338.596; -150.800; -780.000; -638.000
338.730; -181.600; -767.000; -803.000
338.865;  108.000;  -46.000; -140.000
338.999; -171.600; -846.000; -702.000
339.134;  -94.300; -634.000; -536.000
339.268;  -72.500; -741.000; -603.000
339.403;  286.600; -740.000; -775.000
339.537;    1.700; -894.000; -820.000
339.671; -219.800; -829.000; -813.000
339.806; -120.000; -556.000; -512.000
339.940;   13.700; -261.000; -235.000
340.074; -166.200; -685.000; -510.000
340.209;  -85.400; -351.000; -230.000
340.343; -150.200; -517.000; -573.000
340.477;  320.400;  998.000; 1036.000
340.612; -185.400;-1033.000; -900.000
340.746;  132.300; -199.000; -243.000
340.880; -186.100; -924.000; -785.000
341.014;  -17.600;  -45.000; -154.000
341.149; -211.000; -756.000; -718.000
341.283; -191.300; -839.000; -754.000
341.417; -213.500;-1124.000; -938.000
341.551;   99.100; -768.000; -708.000
341.685;  -95.300; -633.000; -611.000
341.820;  -93.800; -562.000; -493.000
341.954;  -81.700; -218.000; -349.000
342.088; -298.000;-1102.000;-1019.000
342.222;  114.400;  565.000;  618.000
342.356; -111.100; -395.000; -335.000
342.490; -201.700; -880.000; -841.000
342.624;  -59.200; -339.000; -242.000
342.758;  -32.300; -364.000; -312.000
342.892; -142.700; -710.000; -585.000
343.026;  -42.300;  -58.000; -116.000
343.160; -117.500; -426.000; -376.000
343.294; -111.800; -474.000; -337.000
343.428;  -59.700; -488.000; -448.000
343.562;  -35.300; -172.000;  -23.000
343.696;  -53.400; -385.000; -314.000
343.830;  -57.200; -362.000; -356.000
343.964;   36.100; -231.000; -168.000
344.098; 1232.200;  199.000;   70.000
344.232; 1000.300; -266.000; -127.000
344.366;   66.800; -567.000; -453.000
344.500;   27.200; -665.000; -744.000
344.634;   24.900; -324.000; -164.000
344.768;  -43.000; -531.000; -341.000
344.902;   66.900;  278.000;  256.000
345.035; -127.800; -556.000; -496.000
345.169; -256.700; -933.000; -656.000
345.303;  -80.100; -308.000; -482.000
345.437; -177.800; -826.000; -717.000
345.571; -153.500; -675.000; -594.000
345.704; -131.100; -309.000; -532.000
345.838;  -36.100; -331.000; -284.000
345.972;  -80.800; -543.000; -495.000
346.106;  207.900; -179.000; -190.000
346.239;  427.000; -312.000; -243.000
346.373;  -39.700; -343.000; -302.000
346.507; -276.900; -950.000; -962.000
346.640;  196.100;  -30.000;   13.000
346.774;  -86.400; -650.000; -797.000
346.908;  -30.900; -138.000;  -11.000
347.041; -171.900; -646.000; -593.000
347.175;   63.400;  259.000;   27.000
347.309; -163.600; -698.000; -628.000
347.442; -195.900; -883.000; -732.000
347.576;  447.300;  670.000;  668.000
347.709;  239.500; -123.000;  -52.000
347.843; -200.000; -933.000; -825.000
347.976;   56.800;  235.000;  294.000
348.110; -339.400;-1268.000;-1186.000
348.243; -177.900; -679.000; -772.000
348.377;    3.900;  -26.000;   60.000
348.510;  103.900;  403.000;  540.000
348.644;  -17.100;  -37.000; -159.000
348.777;   33.600;  180.000;  191.000
348.911;  -36.200; -142.000; -112.000
349.044;  280.300;  471.000;  448.000
349.178;   82.400;-1069.000;-1006.000
349.311;  171.200;  141.000;  255.000
349.444;  -93.300; -927.000; -813.000
349.578;  -25.000; -347.000; -200.000
349.711; -180.400; -959.000; -862.000
349.845;  -55.300; -661.000; -591.000
349.978; -298.900;-1224.000;-1137.000
350.111; -135.700; -546.000; -612.000
350.244; -147.000; -596.000; -700.000
350.378;   -6.900; -392.000; -393.000
350.511;  -98.000; -393.000; -426.000
350.644; -194.000; -808.000; -806.000
350.778;   17.000;  168.000;  104.000
350.911;   48.800;  134.000;  140.000
351.044; -154.400; -685.000; -615.000
351.177;  -61.800; -321.000; -281.000
351.310;  -20.000;    3.000; -131.000
351.444; -179.600; -888.000; -788.000
351.577;  169.700;  140.000;   90.000
351.710;  231.000;  593.000;  417.000
351.843;  -26.200; -165.000;  -77.000
351.976;    6.500;  149.000;  -79.000
352.109; -159.300; -621.000; -612.000
352.242;  -73.900; -464.000; -419.000
352.376; -122.300; -580.000; -636.000
352.509;  195.500; -437.000; -356.000
352.642;  -87.700; -654.000; -604.000
352.775;   93.700; -141.000;  -98.000
352.908; -231.200; -933.000; -904.000
353.041; -198.800; -814.000; -824.000
353.174; -101.200; -551.000; -424.000
353.307; -171.900; -753.000; -764.000
353.440;  145.000;  541.000;  453.000
353.573; -232.700; -957.000;-1008.000
353.706;  -79.800; -384.000; -558.000
353.839;  -42.500; -264.000; -220.000
353.971; -158.700; -657.000; -512.000
354.104; -217.500; -896.000; -835.000
354.237;  -94.100; -627.000; -662.000
354.370; -177.500; -846.000; -879.000
354.503; -357.600;-1231.000;-1308.000
354.636;  -70.900; -529.000; -348.000
354.769; -256.900; -937.000; -860.000
354.902;   -9.100; -230.000; -139.000
355.034;  -33.600; -164.000; -220.000
355.167;  -24.000; -262.000; -162.000
355.300; -188.500;-1061.000; -880.000
355.433;  967.500;  -71.000;  -14.000
355.565; 1439.900; -402.000; -384.000
355.698;  380.500; -356.000; -296.000
355.831;  -99.600; -882.000; -801.000
355.964;  119.400; -285.000; -170.000
356.096; -223.800; -856.000; -843.000
356.229;  -50.800; -523.000; -530.000
356.362;  301.300; -373.000; -266.000
356.494;  593.800; -229.000; -162.000
356.627;  606.200;  269.000;  377.000
356.760;  668.800;  120.000;   53.000
356.892;  795.700; -286.000; -601.000
357.025;  833.400;  403.000;  389.000
357.157;  687.500; -167.000; -179.000
357.290;  649.300; -856.000; -713.000
357.423;  146.200; -667.000; -556.000
357.555;  107.700; -217.000; -228.000
357.688;   78.300; -483.000; -364.000
357.820;  438.600; -870.000; -877.000
357.953; 4661.400; -563.000; -589.000
358.085;  918.000; -632.000; -612.000
358.218; 1273.900;-1131.000; -932.000
358.350;  285.400;  -58.000;  312.000
358.483; -279.200;-1300.000;-1187.000
358.615; -146.900;-1182.000;-1078.000
358.747; -204.000;-1187.000;-1058.000
358.880;  -48.000; -810.000; -744.000
359.012;  -30.600; -376.000; -202.000
359.145; -122.900; -480.000; -511.000
359.277;  -33.800; -962.000; -913.000
359.409; 3996.700;  536.000;  231.000
359.542;  896.300; -738.000; -688.000
359.674;  113.800;   46.000;   13.000
359.806; -139.000; -565.000; -438.000
359.939;  -83.100; -617.000; -516.000
360.071;  -84.800; -583.000; -579.000
360.203;  -49.700; -411.000; -364.000
360.335;   92.300;  164.000;  -16.000
360.468;  194.300; -249.000; -307.000
360.600; 2936.900; -547.000; -454.000
360.732; 2919.500; -546.000; -423.000
360.864;  196.600;-1216.000;-1044.000
360.996;  333.200; -516.000; -554.000
361.129;   -0.600; -389.000; -598.000
361.261;   72.300;  110.000; -113.000
361.393;  -47.900; -252.000; -214.000
361.525;   74.100;   94.000;  244.000
361.657; -104.300; -821.000; -703.000
361.789;   28.100; -139.000; -155.000
361.921;  210.800; -642.000; -593.000
362.053;  385.000;  524.000;  541.000
362.185;   67.300;  288.000;   72.000
362.318; -188.800; -709.000; -705.000
362.450;  208.900;  294.000;  444.000
362.582;   43.900; -913.000; -870.000
362.714;  -56.200; -353.000; -332.000
362.846; -157.900; -606.000; -490.000
362.978; -280.900; -941.000; -811.000
363.109;   45.600; -161.000; -260.000
363.241;  459.300; -739.000; -749.000
363.373;  368.800; -649.000; -564.000
363.505;  670.100; -186.000;  -91.000
363.637;  116.500; -787.000; -601.000
363.769; -290.000;-1067.000;-1080.000
363.901; -114.600; -596.000; -654.000
364.033; -273.800;-1103.000;-1062.000
364.165;  -24.800; -283.000; -283.000
364.296;   29.800; -316.000; -177.000
364.428;  -75.800;-1344.000;-1220.000
364.560; -164.900; -679.000; -661.000
364.692; -154.500; -738.000; -835.000
364.824;  268.000; -588.000; -456.000
364.955;  457.200; -402.000; -564.000
365.087;  745.700;-1097.000; -852.000
365.219;  -54.700; -686.000; -816.000
365.351; -133.600; -526.000; -572.000
365.482;   90.700;  300.000;  240.000
365.614;  -84.500; -402.000; -314.000
365.746; -202.300; -729.000; -752.000
365.877; -184.700; -706.000; -672.000
366.009;  282.100;  -35.000;  -62.000
366.141; -236.700;-1249.000;-1134.000
366.272; -208.800; -803.000; -719.000
366.404; -203.200;-1005.000; -874.000
366.535;    3.100; -139.000;  -12.000
366.667; -173.700; -644.000; -649.000
366.799;  130.200;  353.000;  203.000
366.930; -227.400; -862.000; -996.000
367.062;   84.700; -639.000; -613.000
367.193;   13.500; -872.000; -842.000
367.325; -118.900; -580.000; -684.000
367.456;   34.200; -246.000;   31.000
367.588;  152.600; -371.000; -318.000
367.719;   34.100;  -44.000;  -45.000
367.851;  -14.400; -222.000; -241.000
367.982; -123.300; -875.000; -732.000
368.113;  109.800; -475.000; -358.000
368.245; -232.700; -960.000; -841.000
368.376;  -18.100; -254.000; -302.000
368.508;  -55.100; -188.000; -263.000
368.639; -279.000;-1166.000;-1034.000
368.770;  -95.900; -670.000; -589.000
368.902;  -98.900; -836.000; -926.000
369.033; -211.500; -906.000; -855.000
369.164;  -95.600; -720.000; -653.000
369.296; -210.600; -452.000; -601.000
369.427;   34.700; -209.000; -144.000
369.558;  -95.000; -593.000; -377.000
369.689; -157.300; -721.000; -569.000
369.821; -250.400; -951.000; -845.000
369.952;    1.900;   42.000; -108.000
370.083;  -27.000; -229.000; -108.000
370.214; -137.800; -735.000; -650.000
370.345;   51.400;   65.000;   81.000
370.477; -161.200; -810.000; -790.000
370.608;  330.100; -328.000; -264.000
370.739; -165.300;-1233.000;-1292.000
370.870; -146.200;-1102.000; -923.000
371.001;   91.800; -378.000; -467.000
371.132; -182.200; -754.000; -735.000
371.263;   -5.900;  -42.000; -148.000
371.394; -244.400; -841.000; -748.000
371.525;   80.600;  345.000;  225.000
371.657; -194.900; -808.000; -670.000
371.788;  114.900;  103.000;  199.000
371.919;  197.000; -384.000; -304.000
372.050; 4923.200;  -91.000; -156.000
372.181; 1367.600; -188.000; -294.000
372.311;  499.100;   42.000; -127.000
372.442;   20.900; -457.000; -451.000
372.573;  -61.200; -444.000; -340.000
372.704; -236.200;-1008.000; -980.000
372.835;   98.400; -228.000; -289.000
372.966; -119.200; -646.000; -554.000
373.097; -117.900; -575.000; -711.000
373.228; -102.600; -717.000; -542.000
373.359;  120.300; -824.000; -536.000
373.490; 1082.600; -881.000; -727.000
373.620; 1325.400;-1001.000; -803.000
373.751; 2359.100; -332.000; -396.000
373.882;  981.400; -663.000; -733.000
374.013;   83.200; -449.000; -262.000
374.143; -102.400; -581.000; -659.000
374.274; -212.100; -987.000; -908.000
374.405;  210.700; -388.000; -276.000
374.536;  544.500; -526.000; -387.000
374.666; 1408.800; -759.000; -807.000
374.797;  220.900; -817.000; -868.000
374.928; 1083.200; -710.000; -560.000
375.058; 1058.600; -535.000; -500.000
375.189;   96.400;  -59.000;  -93.000
375.320; -185.200; -928.000;-1034.000
375.450; -113.300; -625.000; -616.000
375.581; -125.400; -526.000; -436.000
375.712;  -54.400; -574.000; -250.000
375.842;  370.900; -438.000; -415.000
375.973;  213.600; -554.000; -513.000
376.103; -139.100; -665.000; -648.000
376.234; -152.400; -531.000; -552.000
376.364; -123.000; -944.000; -867.000
376.495;  530.500;  925.000;  529.000
376.625;  -58.900; -472.000; -485.000
376.756;   45.300; -709.000; -678.000
376.886; -174.700;-1178.000;-1026.000
377.017;  -70.400;-1048.000;-1061.000
377.147;  261.000; -786.000; -782.000
377.278;  102.000;  174.000;  228.000
377.408; -226.600; -801.000; -815.000
377.538; -220.400; -707.000; -693.000
377.669; -145.100; -537.000; -613.000
377.799; -177.600; -645.000; -635.000
377.929; -106.100; -610.000; -428.000
378.060; -235.200; -781.000; -847.000
378.190; -173.500; -726.000; -531.000
378.320;  -94.000; -401.000; -406.000
378.451;   24.100; -131.000;  -22.000
378.581;    2.100;  -67.000; -110.000
378.711;  302.700; 1035.000;  866.000
378.841;  -70.900; -533.000; -675.000
378.972; -167.000; -871.000; -751.000
379.102;  -14.400; -652.000; -579.000
379.232;   -7.700; -126.000;  -73.000
379.362; -189.900;-1001.000; -885.000
379.492;  -10.400; -373.000; -424.000
379.623;  177.000;    0.000;  111.000
379.753; -204.900;-1107.000; -974.000
379.883;  335.400;   59.000;  156.000
380.013; -115.400;-1081.000;-1017.000
380.143; -214.600;-1097.000;-1056.000
380.273; -231.700; -985.000; -861.000
380.403;  -32.700; -344.000; -257.000
380.533; -111.400; -651.000; -664.000
380.663;  136.100;  173.000;  128.000
380.793; -266.600;-1027.000;-1074.000
380.923;  -29.200; -103.000;  -34.000
381.053; -174.200; -613.000; -623.000
381.183;  -33.200; -106.000; -248.000
381.313;   24.800; -656.000; -470.000
381.443;   17.900; -692.000; -473.000
381.573;  223.000; -402.000; -409.000
381.703;  247.500;-1249.000;-1095.000
381.833; -257.200;-1454.000;-1336.000
381.963;  196.200; -134.000;  -87.000
382.093; 1664.100; -925.000; -909.000
382.223;  434.200; -713.000; -602.000
382.353;  -45.300; -801.000; -608.000
382.482;  426.400;-1091.000; -964.000
382.612;  886.300; -872.000; -644.000
382.742;  419.700; -695.000; -622.000
382.872;  268.100; -565.000; -551.000
383.002;  100.800;  347.000; -132.000
383.131;  -41.200; -226.000; -160.000
383.261; -124.200; -706.000; -768.000
383.391;  254.900; -552.000; -377.000
383.521; 3291.700;  451.000;  263.000
383.650;  542.400; -947.000; -904.000
383.780;  -81.100; -783.000; -656.000
383.910;  224.000;  880.000;  802.000
384.039;  -21.100; -794.000; -656.000
384.169;  124.900;-1205.000;-1017.000
384.299;  -74.000; -650.000; -662.000
384.428; -169.700; -764.000; -680.000
384.558;  -73.200; -308.000; -275.000
384.687;  -88.000; -414.000; -334.000
384.817;  106.300;   75.000;   -2.000
384.947;   28.100; -234.000; -141.000
385.076;  511.500;  982.000;  912.000
385.206;  213.400;  369.000;  480.000
385.335;  -57.600; -549.000; -417.000
385.465; -201.800; -655.000; -663.000
385.594;  199.500;  -53.000;  -44.000
385.724;  461.600; -868.000; -838.000
385.853;  171.000; -296.000; -270.000
385.982; 1830.600; -743.000; -787.000
386.112; 2807.600;-1052.000; -871.000
386.241;  190.600; -307.000; -312.000
386.371;   34.000; -174.000;  -87.000
386.500;  -19.900; -825.000; -789.000
386.629;  -26.900; -874.000; -817.000
386.759;   55.600;  -43.000;   68.000
386.888;  -24.800; -170.000; -250.000
387.017; -131.100; -648.000; -620.000
387.147; -168.500; -771.000; -798.000
387.276;  -25.100; -410.000; -397.000
387.405;   25.200; -398.000; -342.000
387.535;  -67.100; -452.000; -361.000
387.664; -119.100; -692.000; -620.000
387.793;   96.800; -198.000; -113.000
387.922;  731.000;  255.000;  200.000
388.052;  -41.200; -576.000; -423.000
388.181;   -3.000; -342.000; -472.000
388.310;  -64.000; -889.000; -710.000
388.439; -109.800; -749.000; -742.000
388.568;  286.700;  365.000;  244.000
388.697; 1330.300; -756.000; -653.000
388.826;  241.000; -768.000; -666.000
388.956;   82.300; -285.000; -307.000
389.085;  -65.300; -347.000; -287.000
389.214; -218.500; -842.000; -872.000
389.343; -133.400; -645.000; -413.000
389.472;  456.800;  126.000;  149.000
389.601;  614.300;   91.000;    0.000
389.730;   -6.200; -568.000; -687.000
389.859;  136.300;  226.000;   46.000
389.988;  223.600; -423.000; -408.000
390.117;  176.000; -168.000; -146.000
390.246;   14.400; -331.000; -320.000
390.375;   96.300; -673.000; -626.000
390.504; -125.100; -703.000; -621.000
390.633; -193.900; -672.000; -726.000
390.761; -117.800; -732.000; -645.000
390.890;   44.000;   -4.000; -130.000
391.019;  -22.300; -421.000; -441.000
391.148; -246.900; -826.000; -855.000
391.277; -117.700; -576.000; -493.000
391.406; -191.600; -821.000; -805.000
391.534;   61.600;  574.000; -301.000
391.663; -119.300; -583.000; -645.000
391.792; -148.100; -673.000; -701.000
391.921;  165.300;   -3.000;   15.000
392.050;  251.000; -287.000; -228.000
392.178; -122.000;-1206.000;-1061.000
392.307;  163.000; -758.000; -712.000
392.436;   50.100; -427.000; -641.000
392.564;   58.500;  166.000;   -6.000
392.693; -163.000; -860.000; -682.000
392.822;  264.000; -529.000; -534.000
392.950;   32.300; -880.000; -714.000
393.079;  450.000; -188.000; -328.000
393.208;   13.400; -488.000; -511.000
393.336;  -11.000; -170.000; -145.000
393.465;  -77.600; -317.000; -199.000
393.593;   28.400;   62.000;   79.000
393.722; -288.000;-1121.000; -916.000
393.850;  -53.100; -188.000;  -61.000
393.979; -244.400; -926.000; -805.000
394.107;  -79.200; -517.000; -537.000
394.236;  -65.000; -570.000; -507.000
394.364;  411.000;  383.000;  206.000
394.493;  586.700; -911.000; -767.000
394.621;  -45.800; -955.000; -916.000
394.750;  639.000; -873.000; -923.000
394.878; 2909.800; -247.000; -149.000
395.007; 3638.200; -721.000; -807.000
395.135;  166.400; -790.000; -721.000
395.263; -196.000;-1038.000;-1040.000
395.392;   33.600;  -25.000; -107.000
395.520; -158.500; -818.000; -679.000
395.648; -198.200; -865.000; -915.000
395.777;  -65.300; -366.000; -405.000
395.905;  -91.300; -449.000; -564.000
396.033;   64.900;  217.000;  172.000
396.162; 1063.600; -399.000; -453.000
396.290;  887.900;  -17.000;   -2.000
396.418;   66.900; -555.000; -514.000
396.546; -165.900; -571.000; -466.000
396.674; -176.000; -850.000; -878.000
396.803;   16.100;  -72.000;  -23.000
396.931;  101.300; -179.000; -199.000
397.059;  -76.600;-1026.000; -989.000
397.187; -192.900;-1026.000; -975.000
397.315; -254.200; -884.000; -649.000
397.443; -162.500; -592.000; -443.000
397.572; -132.900; -578.000; -424.000
397.700;  -96.000; -607.000; -614.000
397.828;   56.300;  120.000;  -90.000
397.956;  -89.300; -508.000; -478.000
398.084; -176.100; -767.000; -626.000
398.212;  100.700;  137.000;  124.000
398.340;   56.000;  -56.000;  159.000
398.468;   10.500; -390.000; -169.000
398.596; -220.000; -993.000; -953.000
398.724; -206.700; -762.000; -767.000
398.852; -296.400;-1024.000; -976.000
398.980; -101.600; -560.000; -560.000
399.108; -110.900; -982.000; -735.000
399.236;   64.300;   13.000;    8.000
399.363;   54.000;  222.000;  196.000
399.491; -128.600; -404.000; -398.000
399.619; -231.700; -829.000; -800.000
399.747; -191.900; -859.000; -771.000
399.875;  173.300;  220.000;  234.000
400.003;  -42.900; -359.000; -284.000
400.130; -153.000; -421.000; -341.000
400.258;    3.400;  -83.000;   38.000
400.386; -101.300; -352.000; -168.000
400.514;  -87.100; -526.000; -587.000
400.641; -182.100; -928.000; -802.000
400.769; -250.700; -979.000; -888.000
400.897; -152.200; -838.000; -793.000
401.025;    5.500; -166.000; -152.000
401.152;   20.600;  220.000;   38.000
401.280; -124.300; -430.000; -429.000
401.408; -202.800; -712.000; -576.000
401.535; -181.400; -735.000; -758.000
401.663; -337.000;-1134.000;-1054.000
401.790; -130.100; -514.000; -525.000
401.918;   93.100;  436.000;  405.000
402.046;   -1.600;  134.000;  122.000
402.173;   -8.100;  -18.000;    7.000
402.301;  -93.200; -519.000; -397.000
402.428;  132.100;  528.000;  383.000
402.556; -269.200;-1188.000; -913.000
402.683;  -18.800;  -20.000;   -1.000
402.811;   32.900;  -37.000; -206.000
402.938;  -18.000;   20.000;   27.000
403.066;  222.000; -574.000; -558.000
403.193;  420.900;  299.000;  239.000
403.321;  291.200; -396.000; -574.000
403.448;  448.200;   83.000;   27.000
403.575;  195.500;  -90.000;  -46.000
403.703; -173.200; -732.000; -557.000
403.830; -101.700; -531.000; -496.000
403.957; -289.800;-1117.000;-1023.000
404.085;    9.800;  -61.000; -172.000
404.212;  130.600;  -50.000;   63.000
404.339;  264.100; -566.000; -306.000
404.467; 5611.600; -612.000; -524.000
404.594; 3699.000; -287.000; -227.000
404.721;  847.600; -869.000; -764.000
404.848;   86.900; -113.000; -202.000
404.976; -217.300; -856.000; -783.000
405.103;   41.000;  -14.000;  -82.000
405.230;   44.600;  190.000;  226.000
405.357;   70.600;  117.000;   44.000
405.484;  278.500;  -49.000;    5.000
405.612;  -14.700; -548.000; -563.000
405.739; -107.500; -488.000; -243.000
405.866;  211.100;  669.000;  385.000
405.993;  -45.500; -398.000; -102.000
406.120; -244.500; -801.000; -887.000
406.247;  -94.300; -323.000; -342.000
406.374;  664.700;  540.000;  629.000
406.501;   49.300; -632.000; -702.000
406.628; -142.200; -621.000; -589.000
406.755; -160.000; -803.000; -620.000
406.882;  -48.300; -228.000; -277.000
407.009; -192.200; -719.000; -628.000
407.136;   54.200; -480.000; -401.000
407.263;   59.700; -939.000; -829.000
407.390; -140.700; -692.000; -614.000
407.517; -312.600;-1139.000;-1187.000
407.644;  -82.800; -332.000; -256.000
407.771; -125.200; -249.000; -287.000
407.898;   35.300;  168.000;  328.000
408.025;  -95.400; -421.000; -313.000
408.151;    0.400;   82.000;  153.000
408.278; -100.600; -267.000; -216.000
408.405; -191.600; -931.000; -899.000
408.532; -131.400; -549.000; -542.000
408.659; -208.300; -677.000; -648.000
408.785; -365.500;-1298.000;-1170.000
408.912;  -84.300; -412.000; -296.000
409.039; -170.700; -610.000; -686.000
409.166; -150.700; -591.000; -555.000
409.292; -158.900; -571.000; -534.000
409.419; -191.200; -665.000; -649.000
409.546; -119.800; -431.000; -192.000
409.672; -187.500; -713.000; -545.000
409.799;  -15.100;  -36.000;   34.000
409.926;  -78.100; -180.000; -179.000
410.052; -346.500;-1127.000;-1091.000
410.179;  -67.400; -368.000; -392.000
410.305;  -90.300; -375.000; -493.000
410.432;  -86.200; -220.000; -333.000
410.558; -156.600; -305.000; -380.000
410.685; -168.400; -688.000; -431.000
410.812; -165.500; -409.000; -588.000
410.938; -220.700; -964.000; -808.000
411.065; -160.800; -671.000; -645.000
411.191;    1.700; -189.000; -174.000
411.317; -227.700; -823.000; -742.000
411.444;  -76.600; -317.000; -246.000
411.570;  -97.800; -339.000; -294.000
411.697; -222.400; -758.000; -752.000
411.823; -301.300; -989.000; -999.000
411.949;   -5.700;  -56.000;   17.000
412.076; -180.100; -539.000; -519.000
412.202; -195.600; -758.000; -757.000
412.329; -222.000; -798.000; -752.000
412.455; -202.700; -821.000; -657.000
412.581;  -41.600;  -15.000;  172.000
412.707; -125.600; -540.000; -457.000
412.834;   72.300;  156.000;  219.000
412.960; -161.800; -785.000; -784.000
413.086; -188.100; -743.000; -701.000
413.212;  260.400;  604.000;  578.000
413.339; -149.100; -685.000; -701.000
413.465;  -18.000; -364.000; -310.000
413.591; -200.000; -757.000; -474.000
413.717;  -64.600; -358.000; -366.000
413.843; -270.300; -839.000; -861.000
413.969;  -90.500;  -47.000; -292.000
414.096; -189.300; -679.000; -679.000
414.222;  -24.300;  -33.000;   85.000
414.348;  -86.600; -652.000; -385.000
414.474;  114.600;   38.000;  -52.000
414.600;   -2.200; -126.000; -144.000
414.726;   -2.800;  -96.000;  -55.000
414.852; -128.600; -365.000; -342.000
414.978;   81.400;  104.000;  -18.000
415.104;   50.200;   38.000;   80.000
415.230;  -25.500; -329.000; -330.000
415.356;  -30.500; -409.000; -514.000
415.482;  229.700;   13.000;  -35.000
415.608;  231.900; -247.000; -323.000
415.734; 1013.300;   67.000;   38.000
415.860;20731.000; -875.000; -767.000
415.986;13587.400; -685.000; -607.000
416.111; 1018.000; -798.000; -652.000
416.237;  150.400; -424.000; -571.000
416.363; 1143.300; -765.000; -733.000
416.489; 4010.800; -324.000; -251.000
416.615;  269.800; -707.000; -742.000
416.741; -115.200; -677.000; -784.000
416.866; -187.000; -673.000; -736.000
416.992; -223.100; -801.000; -818.000
417.118;  -32.600;  -41.000;  -80.000
417.244; -150.400; -798.000; -531.000
417.369; -209.800; -801.000; -612.000
417.495;  -53.900; -325.000; -254.000
417.621; -195.300;-1015.000; -803.000
417.746;   -1.100; -579.000; -572.000
417.872;   47.100; -254.000; -144.000
417.998;  -16.400; -515.000; -530.000
418.123; 1009.400;-1073.000; -845.000
418.249; 5138.000; -512.000; -601.000
418.374;  494.500; -916.000; -824.000
418.500;   29.300; -383.000; -482.000
418.626;  156.200;   70.000;  -59.000
418.751;   68.400; -549.000; -448.000
418.877;   90.400; -637.000; -643.000
419.002; 1881.100; -688.000; -560.000
419.128;12270.200; -930.000; -721.000
419.253; 2561.900; -967.000; -837.000
419.379;  288.900; -391.000; -338.000
419.504;  484.200;  325.000;  415.000
419.629;  474.700; -393.000; -212.000
419.755; 3617.000; -317.000; -254.000
419.880;20195.300;  -98.000;   67.000
420.006;11591.300; -280.000; -221.000
420.131;28870.400; -662.000; -775.000
420.256; 3850.200; -315.000; -316.000
420.382;  474.200; -665.000; -687.000
420.507;   -3.000; -649.000; -778.000
420.632;  150.100; -337.000; -339.000
420.758;  291.400; -251.000; -425.000
420.883; -162.600; -876.000; -672.000
421.008; -174.600; -775.000; -619.000
421.133; -135.200; -509.000; -467.000
421.259;  -21.200; -325.000; -259.000
421.384; -197.100; -834.000; -693.000
421.509; -133.000;-1052.000; -862.000
421.634; 1628.200; -936.000; -820.000
421.759;  663.600; -359.000; -327.000
421.885; -120.300; -717.000; -656.000
422.010; -102.400; -673.000; -542.000
422.135; -263.700; -695.000; -727.000
422.260;  115.700;  340.000;  280.000
422.385;  -27.900;   12.000;  -98.000
422.510;   38.800;  151.000;  -26.000
422.635;   22.400;  -87.000;  -43.000
422.760;  116.100; -766.000; -791.000
422.885;   69.700;  -57.000;  -80.000
423.010;   -7.600; -112.000; -169.000
423.135; -142.800; -481.000; -561.000
423.260;  -16.300; -150.000; -245.000
423.385;  193.200;  476.000;  222.000
423.510;   98.100;   71.000;  -22.000
423.635;  147.500;  133.000;   45.000
423.760;  143.000;  383.000;  328.000
423.885;  124.100;  336.000;  391.000
424.010;   27.700;  -68.000;  -13.000
424.135;    4.800;    5.000;  -33.000
424.259; -149.100; -654.000; -457.000
424.384;  -76.100; -279.000; -272.000
424.509;  -19.000; -260.000; -186.000
424.634; -180.000; -761.000; -623.000
424.759;  -99.900; -688.000; -544.000
424.883;  -58.800; -506.000; -527.000
425.008;  147.300; -502.000; -410.000
425.133; 2028.600; -679.000; -653.000
425.258;  818.800; -517.000; -381.000
425.382; 1320.800; -867.000; -774.000
425.507; 3167.500; -487.000; -543.000
425.632;  383.000; -802.000; -663.000
425.756;  424.300; -256.000; -146.000
425.881; 6488.800; -831.000; -857.000
426.006;16083.100; -604.000; -355.000
426.130; 2326.900; -696.000; -508.000
426.255;  251.200; -611.000; -491.000
426.379;  166.300; -189.000; -577.000
426.504;  464.500;  660.000;  544.000
426.629; 4037.500; -519.000; -466.000
426.753; 2604.700;   64.000;  -46.000
426.878;  292.100; -252.000; -288.000
427.002;   43.100; -651.000; -668.000
427.127; 1820.900;  -35.000; -158.000
427.251;11685.700;  372.000;  401.000
427.375; 2927.200; -191.000; -173.000
427.500; 2932.700; -616.000; -610.000
427.624;  898.700; -234.000; -400.000
427.749;   95.800; -216.000; -225.000
427.873;  -57.600; -499.000; -412.000
427.997;  -53.900; -222.000; -230.000
428.122;  193.200;  795.000;  703.000
428.246;  178.000;  433.000;  434.000
428.371; -213.300; -869.000; -773.000
428.495; -171.000; -624.000; -646.000
428.619;  -36.600; -186.000; -117.000
428.743;   46.200;   65.000;  132.000
428.868;  -45.100; -732.000; -643.000
428.992; 1827.900; -219.000; -326.000
429.116;  655.300; -329.000; -357.000
429.240;  410.500;  419.000;  426.000
429.365;  -40.400; -454.000; -574.000
429.489;  -83.100; -638.000; -647.000
429.613;   54.700; -236.000; -177.000
429.737;    3.100; -563.000; -432.000
429.861;  273.500; -247.000; -133.000
429.985; 5810.500; -425.000; -305.000
430.109; 5570.600; -770.000; -908.000
430.234;  709.100;   76.000;  -50.000
430.358;   41.700; -250.000; -160.000
430.482; -134.700; -672.000; -564.000
430.606; -112.200; -655.000; -375.000
430.730;   35.700; -437.000; -388.000
430.854;   84.500; -909.000; -835.000
430.978; -143.700; -795.000; -764.000
431.102; -139.700; -499.000; -422.000
431.226; -189.300; -874.000; -815.000
431.350;   84.700;  345.000;  422.000
431.474; -102.600; -661.000; -373.000
431.597; -259.200;-1060.000; -848.000
431.721; -127.000; -276.000; -267.000
431.845; -215.400; -704.000; -472.000
431.969; -125.900; -304.000; -349.000
432.093; -143.800; -395.000; -317.000
432.217;   31.300;   32.000;   82.000
432.341; -127.700; -523.000; -518.000
432.464;   32.200;   96.000;   40.000
432.588;  236.100; -401.000; -329.000
432.712;  117.100;  -52.000;  -52.000
432.836;  128.200;  213.000;  263.000
432.959;  -73.300; -372.000; -311.000
433.083;   90.100;   11.000;    2.000
433.207;  439.800;  285.000;  930.000
433.330; 5180.400; -391.000; -200.000
433.454; 5765.500; -654.000; -638.000
433.578; 3400.100;  583.000;  278.000
433.701;  494.000; -623.000; -675.000
433.825;  128.900; -292.000; -299.000
433.949;  230.100;   28.000;  -72.000
434.072;    2.900; -410.000; -323.000
434.196;  -24.200; -309.000; -117.000
434.319; 7778.000;25482.000;25124.000
434.443;  742.200; -656.000; -603.000
434.566; 2565.300;  281.000;   62.000
434.690;  285.400; -637.000; -383.000
434.813;   17.700; -251.000; -173.000
434.937; -160.800; -569.000; -696.000
435.060;  -93.100; -423.000; -332.000
435.184;  400.900; -492.000; -217.000
435.307;  220.700;  159.000;  102.000
435.431;   -2.700;  -40.000;   24.000
435.554;  -84.500; -399.000; -240.000
435.677; -108.900; -350.000; -258.000
435.801;  -68.300;  -25.000;   49.000
435.924;    4.100;    1.000;  -67.000
436.048; -231.800;-1019.000; -732.000
436.171;  -94.100; -240.000;  -66.000
436.294;  -44.000; -248.000; -229.000
436.417;  -25.500; -963.000; -849.000
436.541; -189.300; -814.000; -840.000
436.664;  -42.300; -242.000; -316.000
436.787;   -1.400;   13.000;  113.000
436.910; -171.200; -792.000; -422.000
437.034;   61.600;  142.000;  143.000
437.157;  110.600;  -11.000;    0.000
437.280;  -77.200; -392.000; -292.000
437.403; -153.900; -982.000; -869.000
437.526;  906.200; -903.000; -865.000
437.649; 3101.200; -505.000; -332.000
437.772;  353.800; -692.000; -540.000
437.896;  249.100;  700.000;  544.000
438.019; -179.600; -758.000; -503.000
438.142; -139.100; -596.000; -506.000
438.265;  -46.500; -639.000; -670.000
438.388;  635.900; -520.000; -410.000
438.511;   50.700; -597.000; -394.000
438.634;  -76.100; -247.000; -125.000
438.757; -233.800; -693.000; -619.000
438.880;    8.700;  -34.000;  -57.000
439.003; -141.200; -417.000; -437.000
439.126;  -30.000; -287.000; -167.000
439.248;  -72.100;  -98.000; -139.000
439.371;  -38.000;    9.000;  -53.000
439.494;  110.800;  510.000;  439.000
439.617;  -70.800;   65.000;  -88.000
439.740; -294.000; -968.000; -816.000
439.863; -257.500; -755.000; -595.000
439.986; -205.100; -476.000; -431.000
440.108;  -48.800; -161.000; -112.000
440.231; -292.500; -950.000; -836.000
440.354;  -34.300;  -64.000; -150.000
440.477;    1.000; -566.000; -542.000
440.599;    8.200; -200.000; -225.000
440.722; -196.900; -709.000; -586.000
440.845;  179.800;  751.000;  928.000
440.968; -153.900; -415.000; -311.000
441.090;  -92.600; -199.000;  -33.000
441.213; -272.700;-1021.000; -825.000
441.336;  -54.300; -159.000;   -5.000
441.458; -136.600; -549.000; -396.000
441.581; -150.100; -628.000; -629.000
441.703;  -70.400; -152.000;   13.000
441.826; -174.900; -557.000; -400.000
441.948;  -28.100;   56.000;   51.000
442.071;  126.500;  555.000;  424.000
442.193; -217.700; -531.000; -485.000
442.316;   47.000;  152.000;   97.000
442.438;   56.700; -233.000;  -10.000
442.561;  117.600;  272.000;  262.000
442.683;  766.400; -809.000; -522.000
442.806; 1548.100;   -8.000;   74.000
442.928;  -40.100; -859.000; -604.000
443.051; -126.100; -577.000; -373.000
443.173; -141.900; -341.000; -339.000
443.295; -150.000; -263.000; -371.000
443.418;  -96.900; -321.000;  -29.000
443.540;   22.300; -106.000;   -4.000
443.662; -194.200; -563.000; -465.000
443.785;   52.400;  335.000;  199.000
443.907; -163.200; -362.000; -208.000
444.029; -204.700; -767.000; -494.000
444.152; -240.500; -644.000; -554.000
444.274;  -12.300;  -18.000;  -24.000
444.396; -169.200; -461.000; -221.000
444.518; -221.200; -691.000; -454.000
444.640; -155.300; -268.000; -111.000
444.763;   27.400;  388.000;  249.000
444.885; -170.900; -432.000; -392.000
445.007;  -15.200;   35.000;   86.000
445.129; -197.100; -610.000; -515.000
445.251; -160.200; -372.000; -439.000
445.373; -222.700; -537.000; -386.000
445.495;   57.700;  242.000;  350.000
445.617;  154.200;  853.000;  753.000
445.739;  -72.000; -215.000;  -97.000
445.861;  -13.500; -245.000; -112.000
445.984;  -41.600; -267.000; -101.000
446.105;  280.900; -418.000; -251.000
446.227;  830.300; -176.000;  -19.000
446.349;  -15.300; -358.000; -249.000
446.471; -180.600; -615.000; -448.000
446.593;  -92.400; -316.000;   19.000
446.715;   28.400;  -67.000;   41.000
446.837;  161.800;  697.000;  832.000
446.959; -177.200; -457.000; -478.000
447.081; -202.000; -628.000; -518.000
447.203;  178.000;  862.000;  834.000
447.325; -123.300; -270.000;   42.000
447.446;   64.900;  286.000;  530.000
447.568; -276.800; -921.000; -803.000
447.690; -110.800; -236.000; -245.000
447.812; -260.200; -798.000; -519.000
447.933;    4.400;  155.000;  127.000
448.055;  -83.800; -306.000; -261.000
448.177;  254.300;   31.000;   79.000
448.299;   54.300; -935.000; -727.000
448.420;   56.800;  -25.000;  159.000
448.542;  -61.900;   -3.000;   33.000
448.664;   23.300;  109.000;  322.000
448.785;  -30.400;  265.000;   83.000
448.907; -130.100; -614.000; -353.000
449.028;  -58.000; -771.000; -471.000
449.150;  162.800;  492.000;  589.000
449.272; -290.400;-1044.000; -913.000
449.393;  113.200;  612.000;  694.000
449.515; -241.300; -634.000; -581.000
449.636;  -97.500; -264.000; -155.000
449.758;  165.100;  763.000;  622.000
449.879; -179.700; -498.000; -396.000
450.001;  -82.600; -149.000;  -49.000
450.122;   -0.600;  -95.000;  162.000
450.244;   15.500;   37.000;  364.000
450.365; -157.400; -495.000; -301.000
450.486;  -54.400;   80.000;  268.000
450.608;   52.700;  393.000;  326.000
450.729;  141.700;  578.000;  645.000
450.850;  -70.800; -574.000; -466.000
450.972;  696.800; -552.000; -389.000
451.093; 4880.700;  190.000;  588.000
451.214; 1785.300; -516.000; -337.000
451.336;  412.100;  773.000;  579.000
451.457;  106.900;  264.000;  393.000
451.578;  -58.900; -118.000;  -74.000
451.699; -200.800; -546.000; -540.000
451.821;  -79.300; -284.000;  -50.000
451.942;   22.600;  278.000;  285.000
452.063;   85.500;  228.000;  419.000
452.184;  542.600;  -54.000;  -49.000
452.305; 1029.800;  103.000;  170.000
452.427;   83.200; -549.000; -301.000
452.548;  -45.700;   23.000;   79.000
452.669;  -53.200; -257.000;  -89.000
452.790;  -46.800;    3.000;  -18.000
452.911;   41.900;  195.000;  259.000
453.032;  -78.100; -289.000;  -60.000
453.153;  -84.500;  -29.000;   81.000
453.274;  189.700;  737.000;  868.000
453.395;  -35.400;  -51.000;  175.000
453.516;  274.700; 1317.000; 1388.000
453.637; -100.800; -205.000; -150.000
453.758;  -60.300;   15.000;   69.000
453.879; -190.400; -462.000; -250.000
454.000;  217.800; 1086.000;  948.000
454.121; -198.100; -554.000; -326.000
454.242; -163.500; -599.000; -383.000
454.362;  -57.200;  -99.000;  114.000
454.483;  -80.700; -309.000; -229.000
454.604;  120.800;  512.000;  580.000
454.725; -216.600; -627.000; -555.000
454.846; -219.000; -474.000; -406.000
454.967;   33.900;  230.000;  539.000
455.087;  -36.200;  179.000;  153.000
455.208;   74.600;  554.000;  856.000
455.329;  -47.900;  -22.000;   82.000
455.450;  121.900;  473.000;  633.000
455.570; -108.700; -234.000; -211.000
455.691;  -49.600;  201.000;  407.000
455.812; -138.600; -270.000;  -92.000
455.932;  -50.300;  107.000;  -97.000
456.053; -121.800;   36.000;   24.000
456.173; -115.500; -433.000; -355.000
456.294; -209.800; -476.000; -303.000
456.415;  -92.600;  -73.000;   70.000
456.535;  -18.400;  297.000;  273.000
456.656;  -42.500;  132.000;  240.000
456.776;  -66.500;    3.000;  298.000
456.897;   72.400;  308.000;  513.000
457.017; -121.700; -153.000;   -3.000
457.138; -179.500; -402.000; -249.000
457.258;   12.000;  263.000;  224.000
457.379;   71.900;  509.000;  521.000
457.499;   46.200;  443.000;  432.000
457.620; -166.800; -407.000; -231.000
457.740; -154.700; -132.000;  -11.000
457.860;  -53.700;   87.000;   44.000
457.981;  -54.500;  132.000;  124.000
458.101; -103.400;  -89.000;   40.000
458.221;   41.600;  336.000;  402.000
458.342;  -26.800;   -4.000;  -37.000
458.462;   95.800;  617.000;  352.000
458.582;  -86.900; -302.000; -294.000
458.703;   38.900;  303.000;  154.000
458.823;   -9.400;   22.000;  163.000
458.943;   54.600;  341.000;  467.000
459.063;  -29.300; 1124.000;  192.000
459.183;  -36.400;  328.000;  313.000
459.304;   77.600;  315.000;  517.000
459.424;  -86.600; -246.000;  -89.000
459.544;  440.900;  388.000;  764.000
459.664;  887.500;  499.000;  506.000
459.784;  421.100; 1004.000; 1175.000
459.904;  143.500;  867.000;  744.000
460.024;  183.700;  867.000;  684.000
460.144;   55.400;  449.000;  554.000
460.264;   51.500;  515.000;  327.000
460.385; -128.900; -145.000; -119.000
460.505;  125.600;  905.000;  858.000
460.625; -109.200;  -17.000;  -68.000
460.745;    2.600;  396.000;  541.000
460.864;  -28.400;  153.000;  469.000
460.984;   67.800;  499.000;  573.000
461.104;  345.700; 1656.000; 1775.000
461.224;  109.600;  657.000;  650.000
461.344;   35.200;  431.000;  360.000
461.464;    5.100;  258.000;  513.000
461.584;   12.400;  283.000;  466.000
461.704;  -23.700;   58.000;  108.000
461.824;  -28.700;  238.000;  259.000
461.943;  -38.700;  191.000;  130.000
462.063;  -92.200;    2.000;  324.000
462.183;  116.200;  639.000;  717.000
462.303;  259.400; 1678.000; 1230.000
462.422;  102.000;  781.000;  840.000
462.542;  -21.100;  271.000;  391.000
462.662;  136.500;  353.000;  380.000
462.782;  339.600;  833.000;  572.000
462.901;  521.500;  545.000;  717.000
463.021;  461.900; 1702.000; 1638.000
463.141;   26.300;  337.000;  770.000
463.260;   21.600;  614.000;  474.000
463.380;   92.800;  902.000;  884.000
463.499;  -28.300;  342.000;  332.000
463.619;    5.500;  581.000;  559.000
463.738;  307.200; 1644.000;  903.000
463.858;  102.900;  657.000;  811.000
463.978;   12.700;  542.000;  396.000
464.097;  167.700;  921.000; 1114.000
464.217;  284.500; 1196.000; 1143.000
464.336;  259.200; 1068.000; 1130.000
464.455;   19.300;  328.000;  659.000
464.575;  126.200;  597.000;  602.000
464.694;  290.200; 1204.000; 1179.000
464.814;  221.400; 1190.000; 1138.000
464.933;  165.600; 1095.000; 1027.000
465.052;  256.500; 1412.000; 1054.000
465.172;  174.000;  922.000;  799.000
465.291;  312.600; 1376.000; 1320.000
465.410;   65.700;  462.000;  735.000
465.530;  236.500; 1355.000; 1310.000
465.649;  190.500; 1209.000; 1273.000
465.768;  338.800; 1673.000; 1508.000
465.888;  182.800;  941.000; 1174.000
466.007;  240.800; 1335.000; 1440.000
466.126;   57.700;  721.000;  641.000
466.245;  143.200; 1176.000; 1187.000
466.364;  138.900;  950.000; 1060.000
466.484;  150.100; 1024.000; 1213.000
466.603;  121.100; 1101.000; 1222.000
466.722;  288.000; 1490.000; 1769.000
466.841;  208.500; 1151.000; 1401.000
466.960;  191.200; 1069.000;  972.000
467.079;  337.300; 1971.000; 1786.000
467.198;  185.800; 1238.000; 1181.000
467.317;  203.100; 1768.000; 1162.000
467.436;  227.200; 1709.000; 1261.000
467.555;  319.300; 1796.000; 1746.000
467.674;  199.600; 1227.000; 1329.000
467.793;  133.700; 1376.000; 1374.000
467.912;  241.100; 1658.000; 1539.000
468.031;  337.300; 2038.000; 1930.000
468.150;  349.200; 1842.000; 1837.000
468.269;  449.200; 2313.000; 2090.000
468.388;  414.800; 2168.000; 2339.000
468.507;  580.000; 2884.000; 2903.000
468.626;  635.800; 2555.000; 2541.000
468.744;  332.600; 2018.000; 2174.000
468.863;  462.700; 2312.000; 2523.000
468.982;  261.400; 1503.000; 1555.000
469.101;  499.300; 2788.000; 2692.000
469.220;  377.800; 2333.000; 2176.000
469.338;  565.000; 2935.000; 3051.000
469.457;  464.500; 2719.000; 2545.000
469.576;  739.800; 3953.000; 3784.000
469.695;  552.400; 2877.000; 3066.000
469.813;  911.000; 4148.000; 4192.000
469.932;  882.200; 4255.000; 4485.000
470.051;  914.800; 4075.000; 4161.000
470.169; 1387.400; 4470.000; 4338.000
470.288; 1959.400; 4700.000; 4809.000
470.406; 1348.400; 5059.000; 5194.000
470.525; 1325.300; 6101.000; 5787.000
470.644; 1360.200; 6847.000; 6794.000
470.762; 1752.000; 8397.000; 7873.000
470.881; 1852.200; 8651.000; 8464.000
470.999; 2049.800; 9685.000; 9151.000
471.118; 2243.900;11174.000;10711.000

