
Integration time [ms]: 100.000
Averaging Nr. [scans]: 40
Smoothing Nr. [pixels]: 0
Data measured with spectrometer [name]: 2101012U2
Wave   ;Sample   ;Dark     ;Reference
[nm]   ;[counts] ;[counts] ;[counts] 

197.733;   57.300;  516.000;  404.000
197.879;  -70.400; -610.000; -634.000
198.025;  -48.300; -475.000; -420.000
198.171;  -61.825; -602.000; -612.000
198.317;  -26.450; -401.000; -316.000
198.463;  -50.425; -655.000; -404.000
198.609;   36.950;  181.000; -137.000
198.755;  -82.800; -644.000; -410.000
198.901;  -70.400; -505.000; -424.000
199.047;  -69.475; -615.000; -488.000
199.193;  -47.450; -230.000; -468.000
199.339;  -33.500; -222.000; -369.000
199.485;   34.675;  330.000;  271.000
199.631;   20.000;  227.000;  310.000
199.777;  -60.700; -466.000; -398.000
199.923;  -54.800; -610.000; -424.000
200.069;  -19.150; -141.000;  -58.000
200.215;   51.900;  128.000;  453.000
200.361;   42.800;  243.000;  477.000
200.507;  -57.925; -600.000; -373.000
200.653;  -33.450; -371.000; -194.000
200.798;  -29.900; -215.000; -125.000
200.944;  -16.700; -146.000;  -41.000
201.090;   38.675;   61.000;  222.000
201.236;  -12.500; -116.000; -158.000
201.382;  117.050;  874.000;  903.000
201.528;    1.625;  -58.000;  -48.000
201.674;  -45.300; -386.000; -293.000
201.819;  -64.550; -540.000; -439.000
201.965;  -83.925; -699.000; -447.000
202.111;  -12.200; -273.000; -226.000
202.257;  -37.150; -250.000; -238.000
202.402;   -4.875;   13.000;  -36.000
202.548;  -26.125; -169.000; -116.000
202.694;   77.625;  410.000; -183.000
202.840;  -81.275; -603.000; -531.000
202.985;  -60.775; -681.000; -639.000
203.131; -125.000; -832.000; -666.000
203.277;  -30.625; -199.000; -262.000
203.423;  -52.825; -434.000; -520.000
203.568;  -47.925; -462.000; -237.000
203.714;  -58.350; -535.000; -542.000
203.860;  -81.075; -682.000; -641.000
204.005;   18.025;  112.000;  167.000
204.151;   82.350;  561.000;  556.000
204.296;  -55.700; -354.000; -221.000
204.442;  -70.175; -600.000; -547.000
204.588;  -83.625; -592.000; -579.000
204.733;   12.825;  178.000;  168.000
204.879; -118.625;-1018.000; -822.000
205.025;    4.375;  -99.000;  126.000
205.170;   -0.525;  -17.000;   94.000
205.316;   70.025;  438.000;  661.000
205.461;  -83.975; -698.000; -554.000
205.607;   80.325;  609.000;  665.000
205.752;  -76.800; -626.000; -551.000
205.898;  -48.600; -501.000; -391.000
206.043;  -53.025; -578.000; -506.000
206.189;  -49.375; -243.000; -285.000
206.334;   82.400;  554.000;  606.000
206.480;   60.875;  409.000;  239.000
206.625;  -77.075; -529.000; -552.000
206.771;  -31.900; -451.000; -373.000
206.916;  -15.600; -210.000; -537.000
207.062;  -76.925; -545.000; -591.000
207.207;  -61.175; -546.000; -443.000
207.353;   59.925;  185.000;  460.000
207.498;   28.100;  196.000;   85.000
207.643;  -55.625; -501.000; -370.000
207.789; -126.000;-1069.000; -910.000
207.934;  -92.550; -665.000; -713.000
208.080;  -13.125; -154.000;   66.000
208.225;    1.075;  -22.000;  -57.000
208.370;  -76.125; -727.000; -619.000
208.516;  -78.625; -741.000; -487.000
208.661;  -20.225; -127.000;  -69.000
208.806;  -19.975; -165.000; -171.000
208.952; -132.700;-1044.000; -731.000
209.097;   92.400;  378.000;  349.000
209.242;  -49.725; -307.000; -382.000
209.387;   53.650;  392.000;  350.000
209.533;  -34.275; -321.000; -350.000
209.678;   84.975;  472.000;  543.000
209.823;  -42.825; -408.000; -310.000
209.969; -107.975; -860.000; -757.000
210.114;  -87.600; -907.000; -719.000
210.259; -112.925; -939.000; -889.000
210.404;   -3.150; -171.000;  103.000
210.549;    5.700;  108.000;    3.000
210.695;  -11.600;   -3.000;  -95.000
210.840;   22.625;   94.000;   67.000
210.985;  -58.250; -484.000; -303.000
211.130;   67.125;  268.000;  406.000
211.275;   22.625;  207.000;  199.000
211.420;  -40.150; -300.000; -289.000
211.566;  -69.700; -536.000; -489.000
211.711;   23.825;  218.000;  157.000
211.856;  -59.025; -545.000; -519.000
212.001;   20.225;  151.000;   44.000
212.146;   25.300;  153.000;   49.000
212.291;  -21.850; -210.000; -186.000
212.436;  -23.075; -280.000;   -6.000
212.581;  -88.675; -685.000; -653.000
212.726;  -71.100; -487.000; -538.000
212.871;  -55.975; -552.000; -217.000
213.016; -143.200;-1172.000;-1029.000
213.161;   53.975;  406.000;  291.000
213.306;  -72.950; -435.000; -577.000
213.451; -105.975; -778.000; -689.000
213.596;  -46.550; -455.000; -347.000
213.741;  -46.575; -448.000; -538.000
213.886;  -73.300; -498.000; -517.000
214.031;  -14.500; -294.000; -124.000
214.176;  -36.475; -408.000; -341.000
214.321;  -15.250; -296.000; -157.000
214.466;  -24.925; -163.000;  -43.000
214.611;    1.325;  -61.000;  -10.000
214.756; -117.550; -948.000; -858.000
214.901;  -22.575; -388.000; -226.000
215.046; -110.350; -797.000; -825.000
215.191;   32.000;  128.000;   35.000
215.336;  -13.750; -157.000;  -19.000
215.480;  -72.200; -684.000; -505.000
215.625;  -11.075; -175.000;  -19.000
215.770;  -82.350; -757.000; -662.000
215.915;   10.525;   -5.000;  -97.000
216.060;  -12.425; -113.000;  -21.000
216.205; -101.050; -731.000; -779.000
216.349;  -49.850; -470.000; -533.000
216.494; -121.950; -939.000; -867.000
216.639; -110.200; -823.000; -888.000
216.784;  -86.300; -577.000; -525.000
216.929;   52.600;  392.000;  281.000
217.073;  -23.600; -244.000;  -31.000
217.218;    3.225;   78.000;  -47.000
217.363;  -94.375; -656.000; -618.000
217.507;  -78.225; -623.000; -588.000
217.652; -119.300; -845.000; -874.000
217.797;  -94.575; -708.000; -659.000
217.942; -101.975; -856.000; -720.000
218.086;   83.325;  608.000;  539.000
218.231;  -22.300; -174.000;  -26.000
218.376;  -35.075; -337.000; -229.000
218.520;    5.850;  -41.000;   96.000
218.665;  -27.925; -338.000; -204.000
218.810;  -36.850; -275.000; -233.000
218.954;   28.225;  201.000;   35.000
219.099; -108.800; -713.000; -963.000
219.243;  -74.575; -589.000; -554.000
219.388;  -14.625; -264.000; -136.000
219.532;  -11.700; -116.000; -116.000
219.677;  -75.750; -564.000; -521.000
219.822;   -1.525;   33.000;   89.000
219.966;   14.175;   17.000;  -99.000
220.111;  -34.825; -328.000;  -40.000
220.255;  -97.525; -797.000; -750.000
220.400;  -29.750; -180.000; -146.000
220.544;  -68.900; -516.000; -450.000
220.689;  -52.950; -422.000; -451.000
220.833;  -25.400; -123.000;  -58.000
220.978;  -41.425; -393.000; -563.000
221.122;   19.425;  319.000;  307.000
221.267; -104.900; -906.000; -837.000
221.411;  -71.500; -478.000; -394.000
221.555;   -3.275; -104.000;  -23.000
221.700;  -51.050; -329.000; -222.000
221.844;   34.500;  255.000;  272.000
221.989;  -42.000; -328.000; -311.000
222.133;  -34.400; -289.000; -307.000
222.277;   -1.200;    5.000;   78.000
222.422;   23.600;  227.000;  113.000
222.566;  -38.925; -381.000; -214.000
222.711;  -62.225; -414.000; -479.000
222.855;  -84.700; -643.000; -586.000
222.999;  -85.025; -642.000; -717.000
223.144;  -31.250; -195.000; -194.000
223.288;   45.550;  423.000;  251.000
223.432;   29.725;  184.000;  230.000
223.576;   14.700;  152.000;  -21.000
223.721;   50.650;  364.000;  273.000
223.865;  -58.750; -472.000; -475.000
224.009;  231.775; 1673.000; 1631.000
224.153;  -88.300; -660.000; -671.000
224.298;  -68.150; -531.000; -489.000
224.442;  -12.875;  -74.000;  -33.000
224.586;    1.600; -169.000; -106.000
224.730; -103.525; -858.000; -670.000
224.875; -100.325; -739.000; -688.000
225.019;   13.625;  102.000;  188.000
225.163;   43.350;  208.000;  341.000
225.307;   25.825;   97.000;  -91.000
225.451;   56.125;  360.000;  481.000
225.595;   26.525;  264.000;  176.000
225.739;  -22.700; -170.000;  -94.000
225.884;   -4.900;   86.000;    5.000
226.028;  -91.525; -760.000; -626.000
226.172;  -47.425; -260.000; -273.000
226.316; -115.300; -941.000; -902.000
226.460;  -65.325; -645.000; -493.000
226.604;  -46.375; -406.000; -400.000
226.748; -103.475; -836.000; -733.000
226.892;  -20.725; -227.000; -181.000
227.036;  -45.600; -537.000; -447.000
227.180;  -63.150; -551.000; -375.000
227.324;  -63.175; -561.000; -580.000
227.468; -118.825; -819.000; -717.000
227.612;   17.175;  242.000;  -28.000
227.756;  -95.825; -845.000; -698.000
227.900;   46.150;  342.000;  441.000
228.044;  -64.075; -509.000; -290.000
228.188;   49.050;  448.000;  568.000
228.332;  -92.350; -546.000; -472.000
228.476;  -30.075; -223.000; -149.000
228.620;  -32.425; -210.000; -150.000
228.764;   67.750;  431.000;  349.000
228.908;  -18.200; -155.000;   30.000
229.052;  -62.900; -615.000; -528.000
229.195;   -9.875; -172.000;   13.000
229.339;  -23.450; -235.000; -305.000
229.483;  -29.925;    5.000; -162.000
229.627;  -15.525; -156.000;  139.000
229.771;  -46.425; -218.000; -294.000
229.915;   15.900;  230.000;   79.000
230.059;  -92.175; -648.000; -663.000
230.202;  -50.550; -370.000; -317.000
230.346;   -8.700; -107.000;  107.000
230.490;  -76.125; -489.000; -521.000
230.634; -105.300; -736.000; -553.000
230.777;   74.800;  478.000;  509.000
230.921;  -59.025; -450.000; -359.000
231.065;  -43.900; -246.000; -286.000
231.209;   30.675;  261.000;  265.000
231.352;   12.150;   54.000;   40.000
231.496;   21.125;  568.000;  188.000
231.640;  -82.675; -693.000; -621.000
231.783;   62.950;  546.000;  525.000
231.927;  -46.375; -294.000; -365.000
232.071; -114.950; -962.000; -736.000
232.214; -102.500; -980.000; -764.000
232.358;  -95.000; -683.000; -599.000
232.502;    4.275;  -19.000;    7.000
232.645; -137.300;-1090.000; -927.000
232.789;  -29.175; -257.000; -218.000
232.933;  -51.000; -407.000; -224.000
233.076; -132.500;-1038.000; -897.000
233.220; -109.475; -752.000; -777.000
233.363;  -83.500; -669.000; -477.000
233.507;   57.975;  371.000;  129.000
233.650; -105.025; -764.000; -834.000
233.794;   40.775;  438.000;  461.000
233.938;  -57.875; -530.000; -362.000
234.081;   -9.275;  -93.000;   31.000
234.225;  -69.675; -631.000; -539.000
234.368; -111.750; -773.000; -723.000
234.512;  -53.400; -385.000; -299.000
234.655;  -90.550; -582.000; -555.000
234.798;  -62.225; -493.000; -466.000
234.942; -122.675; -884.000;-1002.000
235.085;  -72.325; -651.000; -443.000
235.229;  -68.550; -405.000; -410.000
235.372;  -45.425; -247.000; -191.000
235.516;  -53.400; -397.000; -321.000
235.659;   17.350;   92.000;  121.000
235.802;    1.175;  -38.000;  -22.000
235.946;   22.050;  335.000;  215.000
236.089;   27.000;  126.000;  250.000
236.233;   44.375;  275.000;  298.000
236.376;  -44.975; -235.000; -378.000
236.519;  -52.725; -297.000; -319.000
236.663;  -24.350; -215.000; -117.000
236.806; -135.625;-1029.000; -999.000
236.949;   66.300;  543.000;  431.000
237.092;   60.975;  412.000;  391.000
237.236;  -74.175; -589.000; -502.000
237.379;   67.275;  352.000;  428.000
237.522; -130.850; -879.000; -768.000
237.666;  -12.550; -271.000;   18.000
237.809; -121.300; -851.000; -823.000
237.952;   21.000;  469.000;  271.000
238.095;  -68.950; -447.000; -442.000
238.238;   86.450;  688.000;  700.000
238.382;   -3.450;  166.000;  103.000
238.525;  -54.425; -598.000; -511.000
238.668; -134.400;-1060.000; -985.000
238.811;  -71.375; -638.000; -643.000
238.954;  -68.425; -483.000; -334.000
239.097;  104.275;  617.000;  664.000
239.241;    4.675;  394.000;  326.000
239.384;  -26.775; -254.000; -214.000
239.527;  -56.250; -424.000; -224.000
239.670; -147.300; -994.000;-1091.000
239.813; -109.750; -696.000; -658.000
239.956;   69.325;  579.000;  473.000
240.099; -121.800; -778.000; -725.000
240.242;   53.350;  428.000;  432.000
240.385;   49.925;  466.000;  450.000
240.528;  -73.900; -706.000; -473.000
240.671;    9.000;  189.000;  134.000
240.814;  -37.200; -441.000; -158.000
240.957;  -98.000; -767.000; -578.000
241.100;  -94.775; -779.000; -755.000
241.243; -146.625;-1234.000; -893.000
241.386;  -72.125; -508.000; -379.000
241.529;  -90.725; -735.000; -547.000
241.672;  -70.450; -566.000; -495.000
241.815; -110.875; -832.000; -808.000
241.958;  -26.350; -125.000; -182.000
242.101;  -75.875; -545.000; -390.000
242.244;  -35.650; -270.000; -325.000
242.387;  -41.175; -304.000; -246.000
242.530;   60.025;  470.000;  134.000
242.673;  -43.300; -381.000; -309.000
242.815; -132.700; -925.000; -899.000
242.958;  -64.800; -482.000; -381.000
243.101;   13.950;  132.000;  187.000
243.244;  -77.525; -564.000; -521.000
243.387;  -44.875; -313.000; -316.000
243.530;  -93.525; -657.000; -674.000
243.672;    7.425;   43.000;  -92.000
243.815;  -64.875; -355.000; -283.000
243.958;  -13.150;   98.000;  -26.000
244.101;    6.175;   59.000;  -16.000
244.243;  -22.000;  -47.000;  101.000
244.386; -107.950; -761.000; -630.000
244.529;  -20.450; -132.000; -139.000
244.672; -147.125;-1154.000; -951.000
244.814; -102.500; -621.000; -794.000
244.957;  -57.925; -380.000; -304.000
245.100;  -80.900; -489.000; -489.000
245.242;  -59.250; -387.000; -374.000
245.385;   -3.100;  -59.000;  -39.000
245.528; -117.450; -871.000; -705.000
245.670;   80.225;  612.000;  634.000
245.813;  -87.975; -599.000; -547.000
245.956;  -40.400; -324.000; -275.000
246.098;  -71.150; -508.000; -650.000
246.241;    5.475;  194.000;   48.000
246.383;  -13.300; -119.000;  -73.000
246.526;  -75.150; -454.000; -525.000
246.669; -109.950; -889.000; -780.000
246.811;   24.475;  172.000;   -1.000
246.954;  -67.375; -512.000; -426.000
247.096;  -32.100;  -84.000;   -6.000
247.239;  -58.975; -482.000; -445.000
247.381;  -63.900; -647.000; -488.000
247.524;   83.125;  645.000;  679.000
247.666;    2.200;   58.000;   11.000
247.809; -115.700; -887.000; -691.000
247.951;   -0.125;  -75.000;  138.000
248.094;   28.500;  432.000;  308.000
248.236; -163.650;-1262.000;-1238.000
248.378;   25.775; -356.000;  -81.000
248.521;  -21.750; -334.000; -337.000
248.663;  -46.225; -236.000; -267.000
248.806;  -30.900; -300.000; -266.000
248.948;  -93.050; -886.000; -763.000
249.090;  -47.775; -428.000; -398.000
249.233;  -40.700; -344.000; -381.000
249.375;  -71.125; -474.000; -451.000
249.518;  -18.625;  -83.000; -133.000
249.660;   -8.025; -103.000;    3.000
249.802; -160.650;-1303.000;-1189.000
249.945;  -76.150; -612.000; -540.000
250.087; -107.850; -834.000; -768.000
250.229;  -50.075; -362.000; -480.000
250.371;  -75.775; -494.000; -439.000
250.514;  -60.450; -310.000; -244.000
250.656;  -66.800;   69.000;  102.000
250.798; -116.650; -849.000; -800.000
250.940;  -43.025; -322.000; -322.000
251.083;  -35.425; -335.000; -111.000
251.225;   66.625;  338.000;  310.000
251.367;  -38.425; -274.000; -373.000
251.509;  -21.725; -265.000; -210.000
251.651;  -93.375; -731.000; -671.000
251.794;   76.600;  538.000;  632.000
251.936; -110.000; -821.000; -747.000
252.078;  -67.475; -540.000; -461.000
252.220;  -59.675; -645.000; -477.000
252.362;   93.575;  344.000;  462.000
252.504;  -72.550; -677.000; -584.000
252.646; -112.375; -875.000; -722.000
252.788;   -3.000;   14.000; -128.000
252.931;  -40.000; -257.000; -253.000
253.073;  -32.450; -376.000; -317.000
253.215;   -2.650;  141.000;  122.000
253.357;  -18.450;   82.000; -153.000
253.499;  -46.150; -374.000; -234.000
253.641;  -84.725; -749.000; -594.000
253.783;  -93.750; -609.000; -527.000
253.925;  -93.250; -586.000; -591.000
254.067; -105.700; -744.000; -667.000
254.209;  -26.300; -391.000; -259.000
254.351; -129.000; -865.000; -883.000
254.493;  -53.625; -441.000; -417.000
254.635; -134.525; -936.000; -818.000
254.777;  -78.475; -752.000; -687.000
254.918;  -63.150; -512.000; -430.000
255.060;  -58.200; -551.000; -395.000
255.202;  -60.975; -473.000; -261.000
255.344;  -73.950; -658.000; -455.000
255.486;  -69.950; -471.000; -406.000
255.628; -111.600; -780.000; -781.000
255.770;  -83.125; -676.000; -536.000
255.912;  -65.250; -559.000; -468.000
256.053;  -90.625; -730.000; -508.000
256.195;  146.850; 1008.000;  903.000
256.337;  -94.475; -861.000; -595.000
256.479;   57.875;  532.000;  416.000
256.621;  -48.475; -394.000; -212.000
256.762;  -89.950; -789.000; -742.000
256.904;   52.125;  485.000;  487.000
257.046;  -36.525; -381.000; -271.000
257.188;  -45.800; -351.000; -264.000
257.329;  -78.875; -525.000; -464.000
257.471; -110.775; -939.000; -807.000
257.613;  -61.650; -584.000; -498.000
257.755; -134.100;-1073.000; -982.000
257.896;   33.100;  286.000;  392.000
258.038;  -51.350; -403.000; -352.000
258.180;  -31.200; -354.000; -279.000
258.321;  -76.875; -581.000; -457.000
258.463;   -9.075;  -71.000;  133.000
258.605;  -84.675; -562.000; -570.000
258.746; -100.450; -886.000; -772.000
258.888; -140.800;-1026.000;-1020.000
259.029;   17.225;  121.000;   -8.000
259.171;  -97.100; -614.000; -550.000
259.313;    1.950;  -49.000;  -47.000
259.454;  -82.400; -536.000; -414.000
259.596;  -65.575; -483.000; -390.000
259.737;  -72.850; -590.000; -474.000
259.879;   31.000;  217.000;  311.000
260.020;   99.175;  901.000;  636.000
260.162;  -27.375; -146.000; -253.000
260.303; -120.675; -768.000; -687.000
260.445;  -92.075; -609.000; -613.000
260.586;   29.075;  392.000;  157.000
260.728;  -48.375; -360.000; -248.000
260.869; -108.800; -350.000; -343.000
261.011;   74.450;  706.000;  537.000
261.152;  -58.375; -479.000; -319.000
261.293;  -83.175; -576.000; -595.000
261.435;  -27.400; -219.000; -184.000
261.576;  -56.700; -455.000; -325.000
261.718;   46.600;  420.000;  470.000
261.859; -139.450; -940.000; -949.000
262.000; -139.100; -951.000;-1016.000
262.142;  -13.375;  -52.000;  -60.000
262.283; -105.675; -808.000; -691.000
262.424;  -86.875; -666.000; -625.000
262.566; -151.750;-1161.000; -983.000
262.707; -107.100; -840.000; -830.000
262.848; -117.875; -769.000; -726.000
262.990;  -45.325; -362.000; -345.000
263.131;   79.325;  650.000;  681.000
263.272;   -9.800;  -61.000;  -41.000
263.413;  -89.700; -589.000; -561.000
263.555;  -61.175; -669.000; -143.000
263.696;  -76.175; -550.000; -641.000
263.837;  -67.325; -449.000; -551.000
263.978;   -4.300;   -5.000;  -77.000
264.119;  -37.050; -283.000; -264.000
264.261; -100.525; -847.000; -630.000
264.402;    0.700;   33.000;   40.000
264.543;  -80.225; -509.000; -524.000
264.684;   -7.650;   61.000;  -50.000
264.825;  -72.550; -816.000; -538.000
264.966;  -16.375;  -84.000;  -67.000
265.107; -112.825; -646.000; -670.000
265.248; -106.850; -825.000; -812.000
265.390;   -7.300;  152.000;   -9.000
265.531;  -38.850; -238.000; -107.000
265.672;  -85.050; -557.000; -630.000
265.813;   69.850;  563.000;  439.000
265.954; -140.175; -959.000; -940.000
266.095;  -13.850; -372.000; -322.000
266.236;  -96.400; -686.000; -548.000
266.377;  -53.400; -243.000; -297.000
266.518;  -67.850; -619.000; -547.000
266.659;   29.875;  170.000;  268.000
266.800;   14.600;   83.000;   85.000
266.941;  -72.100; -487.000; -478.000
267.082;   15.450;  354.000;   99.000
267.223;  -60.500; -344.000; -273.000
267.364; -118.725; -892.000; -686.000
267.504;   -6.625;    3.000;  135.000
267.645;   -7.250;  160.000;   67.000
267.786;  -35.500; -147.000;  -86.000
267.927;  -72.725; -473.000; -379.000
268.068;  -24.525; -186.000;  -61.000
268.209;  -49.550; -175.000; -413.000
268.350;  -66.875; -388.000; -532.000
268.490;  -92.300; -648.000; -521.000
268.631;   28.550;  127.000;  225.000
268.772; -110.525; -874.000; -647.000
268.913;  -37.025; -328.000; -476.000
269.054;   -8.450; -117.000;   12.000
269.194;  -56.625; -418.000; -402.000
269.335; -165.175;-1137.000;-1074.000
269.476;  -17.150;   33.000;  -35.000
269.617;  -43.925; -347.000; -392.000
269.757;  -99.350; -713.000; -646.000
269.898; -101.875; -856.000; -613.000
270.039;  -66.175; -415.000; -405.000
270.180; -135.300; -952.000; -816.000
270.320;  -15.525; -190.000; -250.000
270.461;  -37.500; -277.000; -249.000
270.602;  -17.050; -186.000; -156.000
270.742; -122.025; -868.000; -943.000
270.883;  -52.950; -442.000; -390.000
271.023;  -61.125; -358.000; -357.000
271.164;  -78.950; -607.000; -528.000
271.305; -111.475; -666.000; -654.000
271.445;  -95.525; -722.000; -683.000
271.586;  -72.850; -462.000; -283.000
271.726;  -51.125; -397.000; -322.000
271.867;  -45.825; -594.000; -534.000
272.008;  182.000; -473.000; -285.000
272.148;  133.925;  462.000;  468.000
272.289;    9.325; -113.000; -181.000
272.429;   19.775;   19.000;  185.000
272.570; -105.325; -633.000; -737.000
272.710; -106.525; -825.000; -775.000
272.851;  -29.850;  113.000; -130.000
272.991; -156.250;-1173.000;-1077.000
273.131;  -59.625; -419.000; -459.000
273.272;  -98.975; -683.000; -723.000
273.412;    8.175; -143.000;  -31.000
273.553;  -55.100; -488.000; -507.000
273.693;  131.075;  913.000;  858.000
273.834;  -78.025; -894.000; -692.000
273.974;  -66.725; -664.000; -615.000
274.114;  -77.350; -772.000; -560.000
274.255;   89.550;  414.000;  373.000
274.395;   26.500; -180.000; -125.000
274.535;   55.225;  199.000;  350.000
274.676;   49.425;  225.000;   94.000
274.816;   -0.825;  110.000;   34.000
274.956;  -74.275; -624.000; -690.000
275.097;  -40.625;-1014.000; -922.000
275.237; -109.025; -913.000; -803.000
275.377; -100.075; -778.000; -689.000
275.517; -129.000; -878.000; -937.000
275.658;  -53.275; -590.000; -555.000
275.798;  -61.375; -606.000; -413.000
275.938;   26.750;  215.000;  323.000
276.078;  -96.100; -626.000; -395.000
276.218;    9.075;   99.000;  104.000
276.359; -125.200;-1026.000;-1024.000
276.499;  -71.200; -605.000; -446.000
276.639;  -37.150; -305.000; -151.000
276.779;  -52.625; -475.000; -357.000
276.919; -100.375; -783.000; -624.000
277.059;  -19.200; -261.000; -212.000
277.199;  -40.200; -357.000; -259.000
277.340;   38.300;  287.000;  175.000
277.480; -103.550; -840.000; -693.000
277.620;   35.350;  192.000;   16.000
277.760; -192.100;-1533.000;-1294.000
277.900;   23.350;  113.000;   33.000
278.040;   34.375;  137.000;  159.000
278.180;   47.425;  270.000;  170.000
278.320;   -2.375;   21.000;   56.000
278.460;  -68.025; -443.000; -469.000
278.600;  -87.050; -708.000; -598.000
278.740;   54.875;  448.000;  224.000
278.880;  -47.525; -768.000; -791.000
279.020;   -8.225; -194.000; -144.000
279.160;  -81.150; -672.000; -595.000
279.300; -114.825; -926.000; -873.000
279.440;  -84.325; -709.000; -622.000
279.579;  -16.725;-1014.000; -929.000
279.719;  -45.450; -410.000; -394.000
279.859;   59.500;   -4.000;   41.000
279.999;   33.400; -208.000;  101.000
280.139;  -12.025; -435.000; -387.000
280.279;  -58.900; -708.000; -745.000
280.419;   -9.950; -229.000; -147.000
280.559;  -37.575; -259.000; -180.000
280.698;  -86.375; -790.000; -639.000
280.838;  -98.675; -778.000; -800.000
280.978; -105.425; -846.000; -790.000
281.118; -123.200; -811.000; -704.000
281.257;   15.100;   24.000;    6.000
281.397; -110.750;-1094.000; -960.000
281.537;  -70.025; -599.000; -712.000
281.677;  -24.100; -150.000; -101.000
281.816;  -90.225; -700.000; -630.000
281.956;  -44.125; -193.000; -257.000
282.096;  -55.450; -539.000; -396.000
282.235;  -98.800; -672.000; -638.000
282.375;  -19.375; -243.000;  -98.000
282.515;  -91.475; -715.000; -707.000
282.654;   32.600;   29.000;  106.000
282.794;   18.850;  388.000;  244.000
282.934;  -46.600; -530.000; -491.000
283.073; -128.950;-1030.000; -857.000
283.213;  -56.500; -460.000; -467.000
283.353;  -28.925; -408.000; -349.000
283.492;  -35.075; -264.000; -296.000
283.632;  -31.925; -254.000; -168.000
283.771; -106.100; -859.000; -730.000
283.911;  -38.950; -369.000; -260.000
284.050; -118.775; -794.000; -748.000
284.190; -158.750;-1229.000;-1096.000
284.329; -146.400;-1055.000; -964.000
284.469;  -61.400; -516.000; -591.000
284.608;  -49.750; -559.000; -598.000
284.748;  -80.325; -614.000; -570.000
284.887;    6.700;  -87.000;  -20.000
285.027; -125.375; -844.000; -892.000
285.166;  -33.375; -192.000; -249.000
285.306;   25.500; -116.000;  -33.000
285.445;  -52.175; -229.000; -343.000
285.584;  -95.750; -630.000; -494.000
285.724;  -50.125; -282.000; -322.000
285.863; -114.200; -857.000; -507.000
286.002;  -63.900; -366.000; -276.000
286.142; -112.275; -715.000; -622.000
286.281;  -65.675; -525.000; -493.000
286.420;  -75.900; -554.000; -417.000
286.560;  100.650;  653.000;  623.000
286.699; -148.550; -958.000; -912.000
286.838;  -74.600; -590.000; -591.000
286.978;  -88.200; -533.000; -537.000
287.117; -144.225;-1085.000; -950.000
287.256;  -32.325; -228.000; -211.000
287.395;  -40.275; -197.000; -378.000
287.535;  -57.150; -370.000; -298.000
287.674;  -78.725; -509.000; -484.000
287.813;   55.600;  661.000;  533.000
287.952; -119.125;-1010.000; -871.000
288.091; -144.650;-1049.000; -915.000
288.231;    9.575;   13.000;   15.000
288.370; -170.775;-1217.000;-1200.000
288.509;  -80.225; -728.000; -645.000
288.648;  -89.150; -770.000; -548.000
288.787;  -30.500; -243.000;  -87.000
288.926;  -62.450; -454.000; -475.000
289.065;  118.575;  859.000;  672.000
289.204;  -53.825; -377.000; -217.000
289.344;  -92.750; -791.000; -690.000
289.483;   17.475;  416.000;  304.000
289.622;  -28.050; -291.000; -149.000
289.761;  -11.900; -309.000; -166.000
289.900; -106.325; -785.000; -626.000
290.039;  -11.725;  -12.000;  -95.000
290.178;  -34.400; -274.000; -180.000
290.317;  -86.600; -618.000; -479.000
290.456;  -76.900; -463.000; -451.000
290.595; -144.750; -961.000; -833.000
290.734; -133.225; -904.000; -891.000
290.873;  -77.450; -456.000; -420.000
291.011; -104.350; -833.000; -843.000
291.150; -106.650; -770.000; -682.000
291.289;  -33.300; -343.000; -110.000
291.428;  -82.525; -599.000; -480.000
291.567;  -55.000; -370.000; -442.000
291.706;   -7.300;  109.000;  154.000
291.845;  -87.150; -597.000; -505.000
291.984; -166.200;-1234.000;-1061.000
292.122;   68.800;  602.000;  582.000
292.261;   48.400;  620.000;  463.000
292.400;   19.375; -144.000;  211.000
292.539; -117.175; -959.000; -813.000
292.678;  -34.300; -325.000; -300.000
292.816; -140.525;-1136.000; -965.000
292.955;  -85.425; -844.000; -684.000
293.094;  -23.850; -173.000; -337.000
293.233;  -40.825; -556.000; -400.000
293.371;  -34.000; -225.000;  -84.000
293.510; -107.800; -866.000; -780.000
293.649; -124.525; -959.000; -924.000
293.787;  -48.900;-1083.000;-1012.000
293.926;    7.725; -113.000;  -32.000
294.065;  -45.775; -379.000; -290.000
294.203;   62.850;  298.000;  406.000
294.342;   17.975;   74.000;  156.000
294.481; 5413.600;51180.000; -836.000
294.619;  -31.875; -425.000; -582.000
294.758; -133.075;-1230.000;-1137.000
294.896;   66.300; -125.000;    5.000
295.035; -108.175;-1040.000;-1006.000
295.174; -116.275;-1082.000; -954.000
295.312;  -36.925; -323.000; -203.000
295.451;   -8.900; -307.000; -428.000
295.589;  -32.400; -389.000; -518.000
295.728;   16.575; -292.000; -165.000
295.866;    5.675;  -36.000;  -51.000
296.005;  -64.175; -584.000; -341.000
296.143;  -62.275; -558.000; -596.000
296.282; -105.275; -957.000; -881.000
296.420;  -92.700; -657.000; -557.000
296.559;  -85.025; -892.000; -633.000
296.697;   43.025; -847.000; -665.000
296.835;   72.475;-1141.000;-1002.000
296.974;   62.750;  -23.000;   39.000
297.112;   20.925; -443.000; -504.000
297.251;  -87.125; -815.000; -755.000
297.389;   96.675; -576.000; -438.000
297.527;   54.900; -145.000;  -83.000
297.666;  -61.600; -486.000; -438.000
297.804;  -52.775; -404.000; -264.000
297.942;  -11.775; -136.000; -161.000
298.081;   -5.025; -183.000;   63.000
298.219;   90.425;  -17.000;  -19.000
298.357;   74.500; -144.000;  -71.000
298.495;   49.200; -810.000; -812.000
298.634;  108.700;  245.000;  219.000
298.772;   81.675; -220.000; -338.000
298.910;  -28.400; -309.000; -182.000
299.048;   -4.150; -130.000; -153.000
299.187;  -20.325; -350.000; -250.000
299.325;   19.325;   52.000;  122.000
299.463;   52.800; -389.000; -299.000
299.601;  133.025; -327.000; -271.000
299.739;  -92.475; -908.000; -883.000
299.877;  -82.350; -791.000; -703.000
300.016;  -23.300;-1095.000; -935.000
300.154;  178.275;  -19.000; -161.000
300.292;   64.925; -428.000; -348.000
300.430;   39.450; -408.000; -291.000
300.568; -102.250; -940.000; -874.000
300.706;  -48.800; -366.000; -469.000
300.844;  -59.575;-1108.000; -979.000
300.982;  124.800;  246.000;  282.000
301.120; -100.650; -965.000; -866.000
301.258;  -61.875; -812.000; -705.000
301.396;   40.100;  104.000;  -41.000
301.534;   91.800; -218.000; -293.000
301.672;    9.200; -664.000; -521.000
301.810;   60.800; -613.000; -545.000
301.948;  128.725;   53.000;  149.000
302.086;  691.275; -250.000;  -32.000
302.224; 1061.175; -610.000; -585.000
302.362;   41.450; -558.000; -622.000
302.500;   -3.975; -923.000; -893.000
302.638;  121.775;  128.000;  245.000
302.776;   13.625; -352.000; -408.000
302.913;   42.225;  447.000;  236.000
303.051;    8.600;  -86.000;  -23.000
303.189;   72.275;   90.000;  118.000
303.327;  -49.300; -341.000; -256.000
303.465;  -69.275; -832.000; -588.000
303.603;  -83.850; -805.000; -604.000
303.740;  110.700;  417.000;  241.000
303.878;   38.150; -800.000; -759.000
304.016;  -79.325; -915.000; -790.000
304.154; -120.625;-1123.000;-1152.000
304.291;  -32.825; -505.000; -554.000
304.429;    5.125;  102.000;   74.000
304.567; -136.525; -908.000; -893.000
304.705;  -51.800; -408.000; -515.000
304.842;  109.225; -616.000; -540.000
304.980;   65.600;  215.000;   35.000
305.118;   57.950; -367.000; -365.000
305.255;  -60.500; -945.000; -927.000
305.393;   57.200;  178.000;  239.000
305.531;  -99.575;-1173.000; -956.000
305.668;  -62.175; -663.000; -582.000
305.806;  131.950; -358.000; -439.000
305.943;  114.325; -629.000; -637.000
306.081;   64.500; -378.000; -267.000
306.219;  -97.325; -863.000; -748.000
306.356;   -1.050;  158.000;   27.000
306.494;  120.350;  981.000;  761.000
306.631;    4.850;  -11.000;  -55.000
306.769;    4.125; -613.000; -485.000
306.906;  -27.000; -284.000; -258.000
307.044;  -62.400; -473.000; -488.000
307.181;  -61.800; -410.000; -332.000
307.319;   19.450;  112.000;   87.000
307.456; -169.625;-1191.000;-1153.000
307.594; -104.075; -980.000; -727.000
307.731;  -11.850; -371.000; -164.000
307.868;   -1.475;  -15.000;   20.000
308.006; -132.850; -961.000; -847.000
308.143;  -61.275; -618.000; -330.000
308.281;  176.650;  -37.000; -254.000
308.418;   -6.975; -748.000; -640.000
308.555;  -61.900; -400.000; -250.000
308.693;  -75.550; -577.000; -573.000
308.830;  -95.075; -712.000; -657.000
308.967;  -21.225; -215.000;  -95.000
309.105;  -43.900; -507.000; -396.000
309.242;   34.600; -468.000; -367.000
309.379;  314.100; -577.000; -655.000
309.517;  -57.275; -936.000; -948.000
309.654; -107.600; -910.000; -734.000
309.791;  -72.000; -662.000; -580.000
309.928;  -95.775; -977.000; -914.000
310.065;  193.325;  819.000;  697.000
310.203;    4.150; -825.000; -850.000
310.340;   14.775; -465.000; -321.000
310.477;  -71.750; -412.000; -516.000
310.614;  -74.050; -383.000; -473.000
310.751;  -83.025; -427.000; -518.000
310.889;  -24.125;    1.000;   11.000
311.026; -149.600;-1161.000; -939.000
311.163;  -45.650; -386.000; -380.000
311.300;  -78.400; -512.000; -479.000
311.437;  -84.550; -658.000; -619.000
311.574; -149.800;-1226.000; -985.000
311.711;  -63.175; -595.000; -433.000
311.848;  -36.125; -380.000; -388.000
311.985;   -1.700;  270.000;   93.000
312.122; -101.825; -932.000; -762.000
312.259; -128.300; -941.000; -994.000
312.396;  -68.300; -508.000; -551.000
312.533;  -87.000; -812.000; -790.000
312.670; -130.425;-1070.000; -898.000
312.807;  -44.675; -352.000; -367.000
312.944;  -68.675; -513.000; -611.000
313.081;  -31.350; -150.000; -415.000
313.218; -114.825;-1111.000; -867.000
313.355;   11.375; -531.000; -449.000
313.492;   13.900; -455.000; -292.000
313.629;  141.625;  815.000;  735.000
313.766; -158.175;-1176.000;-1008.000
313.902;    0.450; -186.000;   21.000
314.039;  -56.575; -372.000; -289.000
314.176;   26.300;  286.000;  192.000
314.313;  -73.150; -569.000; -473.000
314.450;  -81.325; -788.000; -684.000
314.587;  -51.925; -468.000; -480.000
314.723;    7.500;  -78.000;  130.000
314.860;   34.000;  318.000;  332.000
314.997;   23.075;  223.000;  142.000
315.134;  -35.775; -385.000; -368.000
315.270;  -23.400; -480.000; -496.000
315.407; -114.025;-1094.000; -967.000
315.544;  -47.400; -657.000; -538.000
315.681;  -54.200; -681.000; -565.000
315.817;   29.950; -133.000; -176.000
315.954;   27.550; -613.000; -392.000
316.091; -124.700;-1045.000;-1023.000
316.227;  -25.875;  -71.000; -179.000
316.364;    5.775;   23.000;    6.000
316.500;  -40.575; -113.000; -300.000
316.637;  -41.725; -181.000; -302.000
316.774;  -81.175; -625.000; -358.000
316.910; -104.075; -598.000; -629.000
317.047;  -66.525; -487.000; -351.000
317.183;  -34.900; -435.000; -566.000
317.320;  -20.875; -367.000; -321.000
317.456;  -73.225; -733.000; -805.000
317.593;  -91.800; -598.000; -641.000
317.729;    5.825;  168.000;  -67.000
317.866; -201.550;-1434.000;-1285.000
318.002;  -98.225; -708.000; -948.000
318.139;  -84.350; -883.000; -867.000
318.275; -106.825;-1003.000; -738.000
318.412;  -63.925; -517.000; -336.000
318.548;  -13.600; -751.000; -720.000
318.685; -102.075; -985.000; -888.000
318.821;  -92.500; -762.000; -735.000
318.957;  -21.925;   34.000;  -23.000
319.094;   39.775;  297.000;  154.000
319.230;  -51.100; -756.000; -742.000
319.367;  151.750; -471.000; -520.000
319.503;   72.550; -538.000; -436.000
319.639;  -94.475; -877.000; -793.000
319.775;  -48.225; -750.000; -685.000
319.912;  -46.675; -424.000; -519.000
320.048;  -74.975;-1184.000;-1184.000
320.184;   81.900;   59.000;   70.000
320.321;  -60.075; -497.000; -467.000
320.457;   61.525;  475.000;  662.000
320.593;  -59.825; -375.000; -382.000
320.729; -104.575; -732.000; -734.000
320.866;  -69.150; -577.000; -635.000
321.002;  -71.200; -759.000; -809.000
321.138;   -8.100; -135.000; -211.000
321.274;   68.650; -148.000; -115.000
321.410;  -22.475; -585.000; -353.000
321.546;   -6.875;-1011.000; -911.000
321.683;   65.425;  400.000;  185.000
321.819;    0.450;  -48.000; -117.000
321.955; -113.550; -743.000; -722.000
322.091;  -44.725; -585.000; -540.000
322.227;  -10.825; -382.000; -202.000
322.363;   -9.950; -320.000; -215.000
322.499;  -46.600; -343.000; -331.000
322.635;  163.150;  636.000;  443.000
322.771;   41.900; -139.000;   12.000
322.907;  103.000;  129.000;  327.000
323.043;  -25.875; -115.000; -206.000
323.179;  -23.800; -394.000; -363.000
323.315;   39.225; -401.000; -371.000
323.451;  102.175; -328.000; -236.000
323.587;   69.750;  -60.000;  -77.000
323.723;   39.475; -682.000; -601.000
323.859;    1.000; -258.000;  -76.000
323.995;  -23.350; -467.000; -409.000
324.131; -118.050; -967.000; -892.000
324.267;  -56.075; -254.000; -276.000
324.402; -121.450; -960.000; -983.000
324.538;  -19.300; -279.000; -104.000
324.674;   19.350;  164.000;   77.000
324.810;  141.150;  226.000;  308.000
324.946;   20.350; -810.000; -658.000
325.082;  -73.475; -568.000; -475.000
325.217;   -8.500;  -62.000;   16.000
325.353; -114.375; -764.000; -659.000
325.489;  -67.900; -540.000; -506.000
325.625;  -84.300; -579.000; -525.000
325.760;   66.375;  517.000;  376.000
325.896;  -39.425; -515.000; -702.000
326.032;  -50.800; -403.000; -352.000
326.168;  -65.725; -462.000; -369.000
326.303;  -51.900; -352.000; -461.000
326.439;  -24.525; -336.000; -276.000
326.575;    8.375; -190.000;  -29.000
326.710;  -13.475; -156.000;  -30.000
326.846;   -5.050;  146.000;  103.000
326.982; -100.075; -530.000; -548.000
327.117;  -74.950; -481.000; -442.000
327.253;  -86.150; -745.000; -742.000
327.388; -133.775;-1137.000;-1153.000
327.524;  -53.825; -811.000; -578.000
327.659;  -27.600;  -58.000;  -22.000
327.795;  -22.225;   69.000;   45.000
327.931;  -86.875; -723.000; -499.000
328.066;  -33.500; -417.000; -276.000
328.202;  -16.425;   12.000; -129.000
328.337;   84.900;  957.000;  713.000
328.473;   31.450;  -12.000;  -74.000
328.608;  -32.625; -256.000; -267.000
328.743;  -74.225; -799.000; -664.000
328.879;   16.250;  214.000;  114.000
329.014;  -39.375; -102.000; -122.000
329.150;  -74.975; -358.000; -483.000
329.285;  -82.800; -465.000; -466.000
329.421;  -51.950; -548.000; -246.000
329.556;  -23.225;  -36.000;   85.000
329.691;  -87.550; -633.000; -615.000
329.827;  -89.100; -626.000; -480.000
329.962;  -48.675;  131.000; -301.000
330.097;  -93.500; -673.000; -585.000
330.233;  -39.925; -410.000; -223.000
330.368; -118.275; -839.000; -628.000
330.503;  -34.500;    3.000;   98.000
330.638;    7.675;  -93.000; -125.000
330.774;  -42.275; -609.000; -530.000
330.909;  -38.325; -434.000; -244.000
331.044;  -98.075; -714.000; -708.000
331.179; -169.775;-1217.000;-1109.000
331.315;    4.650;   77.000;   20.000
331.450;    7.575;  157.000;  285.000
331.585;  -84.575; -805.000; -706.000
331.720;  -97.650; -510.000; -460.000
331.855;   -9.575;  -35.000; -102.000
331.990;  218.225;   62.000;  138.000
332.126;  119.575; -110.000;   71.000
332.261;  -26.275; -379.000; -265.000
332.396;   -6.800; -135.000; -242.000
332.531; -101.275;-1074.000;-1031.000
332.666;   11.575; -519.000; -363.000
332.801;  -98.875; -726.000; -807.000
332.936;  -25.225; -192.000; -122.000
333.071; -153.475; -870.000; -817.000
333.206;   15.300;  307.000;  379.000
333.341;   36.125;  344.000;  418.000
333.476;  -83.425; -627.000; -623.000
333.611;  -29.625; -251.000; -173.000
333.746;  -46.475; -381.000; -464.000
333.881; -104.950; -973.000; -935.000
334.016; -126.675; -936.000; -917.000
334.151; -118.325; -746.000; -702.000
334.286;   29.600;  152.000;  186.000
334.421;  -10.125; -125.000; -178.000
334.556;  -80.775; -611.000; -567.000
334.690;  -78.575; -631.000; -577.000
334.825;   63.275;  381.000;   83.000
334.960;  -57.825; -285.000; -413.000
335.095;   16.150;  135.000;  -91.000
335.230; -104.975; -722.000; -738.000
335.365; -136.550;-1084.000; -990.000
335.499; -116.675;-1108.000;-1037.000
335.634;   40.925;    9.000;  534.000
335.769;  -93.750; -755.000; -720.000
335.904;  -49.875; -603.000; -561.000
336.038;  -40.975; -735.000; -657.000
336.173;  -99.200;-1206.000;-1194.000
336.308;   12.425; -116.000; -189.000
336.443;   31.525; -544.000; -634.000
336.577;  -76.100; -936.000; -787.000
336.712;   82.925;   -4.000;  -12.000
336.847;  -21.950; -724.000; -607.000
336.981;   72.325; -272.000; -208.000
337.116;  313.375;  615.000;  501.000
337.250;  176.775; -434.000; -421.000
337.385;  223.175; -297.000; -208.000
337.520;   55.475; -632.000; -603.000
337.654;  -40.500; -215.000; -126.000
337.789; -122.675; -989.000; -933.000
337.923;  -29.775; -104.000; -205.000
338.058;  -89.850; -673.000; -738.000
338.192;  -27.125; -611.000; -488.000
338.327;   -9.600;  -18.000; -155.000
338.461;  -64.100; -299.000; -469.000
338.596;  -87.375; -780.000; -638.000
338.730; -102.125; -767.000; -803.000
338.865;   84.725;  -46.000; -140.000
338.999;  -50.275; -846.000; -702.000
339.134;  -28.175; -634.000; -536.000
339.268;   12.075; -741.000; -603.000
339.403;  337.775; -740.000; -775.000
339.537;  112.875; -894.000; -820.000
339.671; -115.975; -829.000; -813.000
339.806;  -67.300; -556.000; -512.000
339.940;    4.100; -261.000; -235.000
340.074;  -85.025; -685.000; -510.000
340.209;  -51.150; -351.000; -230.000
340.343;  -91.225; -517.000; -573.000
340.477;  155.175;  998.000; 1036.000
340.612;  -56.100;-1033.000; -900.000
340.746;  132.025; -199.000; -243.000
340.880;  -61.125; -924.000; -785.000
341.014;  -20.975;  -45.000; -154.000
341.149; -115.075; -756.000; -718.000
341.283; -103.800; -839.000; -754.000
341.417;  -83.575;-1124.000; -938.000
341.551;  177.425; -768.000; -708.000
341.685;  -35.650; -633.000; -611.000
341.820;  -57.350; -562.000; -493.000
341.954;  -50.475; -218.000; -349.000
342.088; -145.225;-1102.000;-1019.000
342.222;   61.175;  565.000;  618.000
342.356;  -66.775; -395.000; -335.000
342.490;  -88.625; -880.000; -841.000
342.624;  -39.375; -339.000; -242.000
342.758;   -4.650; -364.000; -312.000
342.892;  -67.950; -710.000; -585.000
343.026;  -42.975;  -58.000; -116.000
343.160;  -66.075; -426.000; -376.000
343.294;  -75.400; -474.000; -337.000
343.428;  -14.775; -488.000; -448.000
343.562;   -4.825; -172.000;  -23.000
343.696;  -20.475; -385.000; -314.000
343.830;  -15.775; -362.000; -356.000
343.964;   14.350; -231.000; -168.000
344.098; 1033.025;  199.000;   70.000
344.232;  847.700; -266.000; -127.000
344.366;  107.925; -567.000; -453.000
344.500;   84.075; -665.000; -744.000
344.634;   40.825; -324.000; -164.000
344.768;   -2.400; -531.000; -341.000
344.902;   32.775;  278.000;  256.000
345.035;  -69.850; -556.000; -496.000
345.169; -136.350; -933.000; -656.000
345.303;  -28.775; -308.000; -482.000
345.437;  -61.825; -826.000; -717.000
345.571;  -86.475; -675.000; -594.000
345.704;  -63.200; -309.000; -532.000
345.838;  -13.100; -331.000; -284.000
345.972;  -27.525; -543.000; -495.000
346.106;  159.400; -179.000; -190.000
346.239;  435.675; -312.000; -243.000
346.373;   12.625; -343.000; -302.000
346.507; -132.775; -950.000; -962.000
346.640;  164.250;  -30.000;   13.000
346.774;  -42.175; -650.000; -797.000
346.908;  -25.300; -138.000;  -11.000
347.041;  -79.925; -646.000; -593.000
347.175;   10.650;  259.000;   27.000
347.309;  -65.850; -698.000; -628.000
347.442;  -88.875; -883.000; -732.000
347.576;  312.900;  670.000;  668.000
347.709;  215.800; -123.000;  -52.000
347.843;  -87.475; -933.000; -825.000
347.976;   18.400;  235.000;  294.000
348.110; -176.775;-1268.000;-1186.000
348.243; -104.075; -679.000; -772.000
348.377;  -10.900;  -26.000;   60.000
348.510;   60.500;  403.000;  540.000
348.644;  -19.950;  -37.000; -159.000
348.777;   -6.500;  180.000;  191.000
348.911;  -44.325; -142.000; -112.000
349.044;  187.925;  471.000;  448.000
349.178;  182.400;-1069.000;-1006.000
349.311;  125.025;  141.000;  255.000
349.444;   -5.250; -927.000; -813.000
349.578;  -14.350; -347.000; -200.000
349.711;  -80.025; -959.000; -862.000
349.845;   14.700; -661.000; -591.000
349.978; -132.350;-1224.000;-1137.000
350.111;  -91.100; -546.000; -612.000
350.244;  -76.625; -596.000; -700.000
350.378;   15.475; -392.000; -393.000
350.511;  -75.525; -393.000; -426.000
350.644; -104.125; -808.000; -806.000
350.778;   11.825;  168.000;  104.000
350.911;    6.525;  134.000;  140.000
351.044;  -83.100; -685.000; -615.000
351.177;  -23.025; -321.000; -281.000
351.310;  -20.175;    3.000; -131.000
351.444;  -71.450; -888.000; -788.000
351.577;  133.700;  140.000;   90.000
351.710;  100.325;  593.000;  417.000
351.843;  -34.050; -165.000;  -77.000
351.976;    4.800;  149.000;  -79.000
352.109;  -86.575; -621.000; -612.000
352.242;  -32.775; -464.000; -419.000
352.376;  -59.950; -580.000; -636.000
352.509;  189.125; -437.000; -356.000
352.642;   34.075; -654.000; -604.000
352.775;   84.475; -141.000;  -98.000
352.908; -108.775; -933.000; -904.000
353.041; -108.300; -814.000; -824.000
353.174;  -50.300; -551.000; -424.000
353.307;  -71.450; -753.000; -764.000
353.440;   68.000;  541.000;  453.000
353.573; -106.625; -957.000;-1008.000
353.706;  -18.275; -384.000; -558.000
353.839;  -23.625; -264.000; -220.000
353.971;  -78.150; -657.000; -512.000
354.104;  -82.375; -896.000; -835.000
354.237;  -32.475; -627.000; -662.000
354.370;  -84.575; -846.000; -879.000
354.503; -173.300;-1231.000;-1308.000
354.636;  -35.725; -529.000; -348.000
354.769; -131.425; -937.000; -860.000
354.902;   -2.775; -230.000; -139.000
355.034;   -4.925; -164.000; -220.000
355.167;  -14.100; -262.000; -162.000
355.300;  -96.075;-1061.000; -880.000
355.433;  913.125;  -71.000;  -14.000
355.565; 1433.275; -402.000; -384.000
355.698;  360.900; -356.000; -296.000
355.831;   11.775; -882.000; -801.000
355.964;   83.500; -285.000; -170.000
356.096;  -82.500; -856.000; -843.000
356.229;   21.500; -523.000; -530.000
356.362;  303.275; -373.000; -266.000
356.494;  569.550; -229.000; -162.000
356.627;  518.550;  269.000;  377.000
356.760;  642.600;  120.000;   53.000
356.892;  908.300; -286.000; -601.000
357.025;  726.325;  403.000;  389.000
357.157;  683.675; -167.000; -179.000
357.290;  618.750; -856.000; -713.000
357.423;  184.450; -667.000; -556.000
357.555;  132.125; -217.000; -228.000
357.688;  139.325; -483.000; -364.000
357.820;  496.100; -870.000; -877.000
357.953; 4047.975; -563.000; -589.000
358.085;  915.850; -632.000; -612.000
358.218; 1324.175;-1131.000; -932.000
358.350;  237.475;  -58.000;  312.000
358.483; -112.600;-1300.000;-1187.000
358.615;   -9.600;-1182.000;-1078.000
358.747;  -29.875;-1187.000;-1058.000
358.880;   53.400; -810.000; -744.000
359.012;   -2.725; -376.000; -202.000
359.145;  -29.100; -480.000; -511.000
359.277;   76.700; -962.000; -913.000
359.409; 3327.025;  536.000;  231.000
359.542;  879.125; -738.000; -688.000
359.674;   90.350;   46.000;   13.000
359.806;  -66.625; -565.000; -438.000
359.939;  -37.550; -617.000; -516.000
360.071;  -16.250; -583.000; -579.000
360.203;  -23.175; -411.000; -364.000
360.335;   45.150;  164.000;  -16.000
360.468;  214.125; -249.000; -307.000
360.600; 2652.100; -547.000; -454.000
360.732; 2687.725; -546.000; -423.000
360.864;  376.375;-1216.000;-1044.000
360.996;  330.850; -516.000; -554.000
361.129;   65.050; -389.000; -598.000
361.261;   23.525;  110.000; -113.000
361.393;  -26.325; -252.000; -214.000
361.525;   43.600;   94.000;  244.000
361.657;  -33.825; -821.000; -703.000
361.789;   25.975; -139.000; -155.000
361.921;  277.450; -642.000; -593.000
362.053;  305.550;  524.000;  541.000
362.185;   51.675;  288.000;   72.000
362.318;  -67.025; -709.000; -705.000
362.450;  137.900;  294.000;  444.000
362.582;  158.175; -913.000; -870.000
362.714;  -18.875; -353.000; -332.000
362.846;  -72.850; -606.000; -490.000
362.978; -124.925; -941.000; -811.000
363.109;   57.625; -161.000; -260.000
363.241;  478.025; -739.000; -749.000
363.373;  412.100; -649.000; -564.000
363.505;  633.800; -186.000;  -91.000
363.637;  151.950; -787.000; -601.000
363.769; -116.375;-1067.000;-1080.000
363.901;  -72.675; -596.000; -654.000
364.033; -112.950;-1103.000;-1062.000
364.165;   20.175; -283.000; -283.000
364.296;   72.400; -316.000; -177.000
364.428;   74.575;-1344.000;-1220.000
364.560;  -63.775; -679.000; -661.000
364.692;  -57.125; -738.000; -835.000
364.824;  319.125; -588.000; -456.000
364.955;  438.550; -402.000; -564.000
365.087;  831.925;-1097.000; -852.000
365.219;   30.900; -686.000; -816.000
365.351;  -65.325; -526.000; -572.000
365.482;   58.775;  300.000;  240.000
365.614;  -46.625; -402.000; -314.000
365.746;  -93.925; -729.000; -752.000
365.877;  -86.475; -706.000; -672.000
366.009;  238.525;  -35.000;  -62.000
366.141;  -95.600;-1249.000;-1134.000
366.272; -117.500; -803.000; -719.000
366.404; -117.600;-1005.000; -874.000
366.535;   -7.550; -139.000;  -12.000
366.667; -102.650; -644.000; -649.000
366.799;   34.300;  353.000;  203.000
366.930; -109.525; -862.000; -996.000
367.062;  118.025; -639.000; -613.000
367.193;  144.000; -872.000; -842.000
367.325;  -57.250; -580.000; -684.000
367.456;   70.225; -246.000;   31.000
367.588;  152.650; -371.000; -318.000
367.719;   28.775;  -44.000;  -45.000
367.851;   -2.050; -222.000; -241.000
367.982;  -29.075; -875.000; -732.000
368.113;  141.650; -475.000; -358.000
368.245;  -96.900; -960.000; -841.000
368.376;  -17.775; -254.000; -302.000
368.508;  -28.500; -188.000; -263.000
368.639; -130.625;-1166.000;-1034.000
368.770;    8.925; -670.000; -589.000
368.902;  -60.875; -836.000; -926.000
369.033; -100.150; -906.000; -855.000
369.164;  -60.600; -720.000; -653.000
369.296;  -98.000; -452.000; -601.000
369.427;   -8.475; -209.000; -144.000
369.558;  -48.175; -593.000; -377.000
369.689;  -84.525; -721.000; -569.000
369.821; -130.150; -951.000; -845.000
369.952;  -27.850;   42.000; -108.000
370.083;  -45.225; -229.000; -108.000
370.214;  -81.650; -735.000; -650.000
370.345;    0.475;   65.000;   81.000
370.477;  -84.275; -810.000; -790.000
370.608;  276.350; -328.000; -264.000
370.739;  -31.350;-1233.000;-1292.000
370.870;  -29.800;-1102.000; -923.000
371.001;  107.100; -378.000; -467.000
371.132;  -72.325; -754.000; -735.000
371.263;  -22.925;  -42.000; -148.000
371.394; -140.975; -841.000; -748.000
371.525;   42.850;  345.000;  225.000
371.657;  -77.775; -808.000; -670.000
371.788;   69.600;  103.000;  199.000
371.919;  181.300; -384.000; -304.000
372.050; 4065.400;  -91.000; -156.000
372.181; 1229.450; -188.000; -294.000
372.311;  421.350;   42.000; -127.000
372.442;   52.400; -457.000; -451.000
372.573;  -23.900; -444.000; -340.000
372.704; -112.000;-1008.000; -980.000
372.835;  110.650; -228.000; -289.000
372.966;  -54.525; -646.000; -554.000
373.097;  -61.925; -575.000; -711.000
373.228;  -16.650; -717.000; -542.000
373.359;  161.475; -824.000; -536.000
373.490; 1060.875; -881.000; -727.000
373.620; 1310.700;-1001.000; -803.000
373.751; 2050.450; -332.000; -396.000
373.882;  926.475; -663.000; -733.000
374.013;   91.400; -449.000; -262.000
374.143;  -38.600; -581.000; -659.000
374.274;  -97.100; -987.000; -908.000
374.405;  184.050; -388.000; -276.000
374.536;  514.875; -526.000; -387.000
374.666; 1301.000; -759.000; -807.000
374.797;  258.825; -817.000; -868.000
374.928;  998.050; -710.000; -560.000
375.058; 1039.325; -535.000; -500.000
375.189;   84.175;  -59.000;  -93.000
375.320;  -97.425; -928.000;-1034.000
375.450;  -33.725; -625.000; -616.000
375.581;  -44.225; -526.000; -436.000
375.712;  -17.875; -574.000; -250.000
375.842;  359.700; -438.000; -415.000
375.973;  260.400; -554.000; -513.000
376.103;  -23.925; -665.000; -648.000
376.234;  -76.175; -531.000; -552.000
376.364;  -15.275; -944.000; -867.000
376.495;  359.125;  925.000;  529.000
376.625;   14.300; -472.000; -485.000
376.756;   85.375; -709.000; -678.000
376.886;  -60.875;-1178.000;-1026.000
377.017;   28.775;-1048.000;-1061.000
377.147;  323.350; -786.000; -782.000
377.278;   59.075;  174.000;  228.000
377.408; -136.400; -801.000; -815.000
377.538; -100.975; -707.000; -693.000
377.669;  -66.450; -537.000; -613.000
377.799;  -87.000; -645.000; -635.000
377.929;  -51.500; -610.000; -428.000
378.060; -123.275; -781.000; -847.000
378.190;  -54.300; -726.000; -531.000
378.320;  -42.475; -401.000; -406.000
378.451;    0.975; -131.000;  -22.000
378.581;  -14.675;  -67.000; -110.000
378.711;  168.200; 1035.000;  866.000
378.841;   -1.000; -533.000; -675.000
378.972;  -66.925; -871.000; -751.000
379.102;   -1.950; -652.000; -579.000
379.232;   -8.150; -126.000;  -73.000
379.362; -100.875;-1001.000; -885.000
379.492;   30.950; -373.000; -424.000
379.623;  114.125;    0.000;  111.000
379.753; -101.175;-1107.000; -974.000
379.883;  211.100;   59.000;  156.000
380.013;   39.350;-1081.000;-1017.000
380.143; -100.025;-1097.000;-1056.000
380.273;  -97.150; -985.000; -861.000
380.403;    3.800; -344.000; -257.000
380.533;  -20.250; -651.000; -664.000
380.663;   88.625;  173.000;  128.000
380.793;  -81.300;-1027.000;-1074.000
380.923;   -9.150; -103.000;  -34.000
381.053;  -85.125; -613.000; -623.000
381.183;  -28.250; -106.000; -248.000
381.313;   46.725; -656.000; -470.000
381.443;   59.550; -692.000; -473.000
381.573;  233.050; -402.000; -409.000
381.703;  349.550;-1249.000;-1095.000
381.833; -105.425;-1454.000;-1336.000
381.963;  124.675; -134.000;  -87.000
382.093; 1554.375; -925.000; -909.000
382.223;  489.775; -713.000; -602.000
382.353;   -5.275; -801.000; -608.000
382.482;  456.400;-1091.000; -964.000
382.612;  884.775; -872.000; -644.000
382.742;  478.225; -695.000; -622.000
382.872;  324.600; -565.000; -551.000
383.002;   71.225;  347.000; -132.000
383.131;   -7.675; -226.000; -160.000
383.261;  -27.625; -706.000; -768.000
383.391;  286.500; -552.000; -377.000
383.521; 3017.500;  451.000;  263.000
383.650;  710.475; -947.000; -904.000
383.780;  -17.375; -783.000; -656.000
383.910;  120.175;  880.000;  802.000
384.039;   45.575; -794.000; -656.000
384.169;  273.350;-1205.000;-1017.000
384.299;  -12.500; -650.000; -662.000
384.428;  -80.525; -764.000; -680.000
384.558;  -46.900; -308.000; -275.000
384.687;  -30.400; -414.000; -334.000
384.817;   13.100;   75.000;   -2.000
384.947;   39.000; -234.000; -141.000
385.076;  309.225;  982.000;  912.000
385.206;  108.825;  369.000;  480.000
385.335;  -27.500; -549.000; -417.000
385.465;  -57.825; -655.000; -663.000
385.594;  155.225;  -53.000;  -44.000
385.724;  509.725; -868.000; -838.000
385.853;  146.925; -296.000; -270.000
385.982; 1559.175; -743.000; -787.000
386.112; 2444.100;-1052.000; -871.000
386.241;  161.800; -307.000; -312.000
386.371;   34.400; -174.000;  -87.000
386.500;    4.825; -825.000; -789.000
386.629;   19.250; -874.000; -817.000
386.759;   64.700;  -43.000;   68.000
386.888;   -7.625; -170.000; -250.000
387.017;  -80.050; -648.000; -620.000
387.147;  -96.050; -771.000; -798.000
387.276;   20.025; -410.000; -397.000
387.405;   26.025; -398.000; -342.000
387.535;  -40.175; -452.000; -361.000
387.664;  -63.450; -692.000; -620.000
387.793;   80.025; -198.000; -113.000
387.922;  597.350;  255.000;  200.000
388.052;   23.450; -576.000; -423.000
388.181;   28.325; -342.000; -472.000
388.310;   32.725; -889.000; -710.000
388.439;  -21.925; -749.000; -742.000
388.568;  208.650;  365.000;  244.000
388.697; 1220.225; -756.000; -653.000
388.826;  257.725; -768.000; -666.000
388.956;   67.350; -285.000; -307.000
389.085;  -31.300; -347.000; -287.000
389.214; -112.950; -842.000; -872.000
389.343;  -70.550; -645.000; -413.000
389.472;  364.325;  126.000;  149.000
389.601;  521.125;   91.000;    0.000
389.730;   32.625; -568.000; -687.000
389.859;   59.375;  226.000;   46.000
389.988;  224.475; -423.000; -408.000
390.117;  157.525; -168.000; -146.000
390.246;   -2.950; -331.000; -320.000
390.375;  124.700; -673.000; -626.000
390.504;  -60.150; -703.000; -621.000
390.633;  -93.125; -672.000; -726.000
390.761;  -64.850; -732.000; -645.000
390.890;   40.125;   -4.000; -130.000
391.019;  -20.625; -421.000; -441.000
391.148; -112.450; -826.000; -855.000
391.277;  -58.300; -576.000; -493.000
391.406;  -66.200; -821.000; -805.000
391.534;   28.125;  574.000; -301.000
391.663;  -60.975; -583.000; -645.000
391.792;  -84.975; -673.000; -701.000
391.921;  120.300;   -3.000;   15.000
392.050;  212.800; -287.000; -228.000
392.178;   -1.975;-1206.000;-1061.000
392.307;  176.000; -758.000; -712.000
392.436;   96.600; -427.000; -641.000
392.564;   20.450;  166.000;   -6.000
392.693;  -86.375; -860.000; -682.000
392.822;  242.475; -529.000; -534.000
392.950;  108.625; -880.000; -714.000
393.079;  383.250; -188.000; -328.000
393.208;   51.400; -488.000; -511.000
393.336;  -16.400; -170.000; -145.000
393.465;  -37.800; -317.000; -199.000
393.593;   14.625;   62.000;   79.000
393.722; -148.500;-1121.000; -916.000
393.850;  -40.125; -188.000;  -61.000
393.979; -157.175; -926.000; -805.000
394.107;  -61.850; -517.000; -537.000
394.236;  -19.550; -570.000; -507.000
394.364;  227.450;  383.000;  206.000
394.493;  348.800; -911.000; -767.000
394.621;   -5.550; -955.000; -916.000
394.750;  665.300; -873.000; -923.000
394.878; 2780.900; -247.000; -149.000
395.007; 3836.775; -721.000; -807.000
395.135;  279.575; -790.000; -721.000
395.263; -100.075;-1038.000;-1040.000
395.392;    6.500;  -25.000; -107.000
395.520; -153.750; -818.000; -679.000
395.648;  -91.600; -865.000; -915.000
395.777;    4.250; -366.000; -405.000
395.905;  -41.650; -449.000; -564.000
396.033;    8.800;  217.000;  172.000
396.162;  582.400; -399.000; -453.000
396.290;  513.775;  -17.000;   -2.000
396.418;  109.600; -555.000; -514.000
396.546;  -64.325; -571.000; -466.000
396.674;  -97.500; -850.000; -878.000
396.803;    4.625;  -72.000;  -23.000
396.931;  110.025; -179.000; -199.000
397.059;   91.200;-1026.000; -989.000
397.187;  -94.650;-1026.000; -975.000
397.315; -152.475; -884.000; -649.000
397.443;  -87.775; -592.000; -443.000
397.572;  -89.475; -578.000; -424.000
397.700;   -8.075; -607.000; -614.000
397.828;   23.550;  120.000;  -90.000
397.956;  -45.250; -508.000; -478.000
398.084;  -70.350; -767.000; -626.000
398.212;   28.100;  137.000;  124.000
398.340;   11.000;  -56.000;  159.000
398.468;   42.100; -390.000; -169.000
398.596; -122.075; -993.000; -953.000
398.724; -114.725; -762.000; -767.000
398.852; -158.925;-1024.000; -976.000
398.980;  -57.125; -560.000; -560.000
399.108;  -53.650; -982.000; -735.000
399.236;   37.525;   13.000;    8.000
399.363;   14.450;  222.000;  196.000
399.491;  -61.650; -404.000; -398.000
399.619; -123.400; -829.000; -800.000
399.747;  -98.125; -859.000; -771.000
399.875;   85.475;  220.000;  234.000
400.003;  -56.500; -359.000; -284.000
400.130; -100.725; -421.000; -341.000
400.258;  -25.950;  -83.000;   38.000
400.386;  -65.100; -352.000; -168.000
400.514;  -32.025; -526.000; -587.000
400.641;  -87.750; -928.000; -802.000
400.769; -142.750; -979.000; -888.000
400.897; -108.650; -838.000; -793.000
401.025;  -18.125; -166.000; -152.000
401.152;  -15.175;  220.000;   38.000
401.280;  -84.675; -430.000; -429.000
401.408; -110.400; -712.000; -576.000
401.535;  -95.150; -735.000; -758.000
401.663; -180.950;-1134.000;-1054.000
401.790;  -85.275; -514.000; -525.000
401.918;   51.450;  436.000;  405.000
402.046;   -9.075;  134.000;  122.000
402.173;  -30.650;  -18.000;    7.000
402.301;  -66.525; -519.000; -397.000
402.428;   36.750;  528.000;  383.000
402.556; -146.600;-1188.000; -913.000
402.683;  -27.100;  -20.000;   -1.000
402.811;  -17.725;  -37.000; -206.000
402.938;   -3.225;   20.000;   27.000
403.066;  232.550; -574.000; -558.000
403.193;  385.175;  299.000;  239.000
403.321;  300.375; -396.000; -574.000
403.448;  370.325;   83.000;   27.000
403.575;  154.475;  -90.000;  -46.000
403.703; -104.100; -732.000; -557.000
403.830;  -81.750; -531.000; -496.000
403.957; -141.100;-1117.000;-1023.000
404.085;    6.800;  -61.000; -172.000
404.212;   98.550;  -50.000;   63.000
404.339;  277.550; -566.000; -306.000
404.467; 5466.750; -612.000; -524.000
404.594; 3791.300; -287.000; -227.000
404.721;  948.675; -869.000; -764.000
404.848;   80.650; -113.000; -202.000
404.976;  -94.800; -856.000; -783.000
405.103;   -6.400;  -14.000;  -82.000
405.230;   -4.450;  190.000;  226.000
405.357;   36.925;  117.000;   44.000
405.484;  246.750;  -49.000;    5.000
405.612;   45.800; -548.000; -563.000
405.739;  -55.450; -488.000; -243.000
405.866;   82.575;  669.000;  385.000
405.993;  -41.075; -398.000; -102.000
406.120; -145.675; -801.000; -887.000
406.247;  -56.200; -323.000; -342.000
406.374;  511.575;  540.000;  629.000
406.501;  132.000; -632.000; -702.000
406.628;  -91.450; -621.000; -589.000
406.755;  -88.300; -803.000; -620.000
406.882;  -32.675; -228.000; -277.000
407.009; -101.275; -719.000; -628.000
407.136;   69.575; -480.000; -401.000
407.263;  176.625; -939.000; -829.000
407.390;  -77.225; -692.000; -614.000
407.517; -161.950;-1139.000;-1187.000
407.644;  -46.575; -332.000; -256.000
407.771;  -57.925; -249.000; -287.000
407.898;    9.550;  168.000;  328.000
408.025;  -70.225; -421.000; -313.000
408.151;  -10.500;   82.000;  153.000
408.278;  -65.425; -267.000; -216.000
408.405; -122.825; -931.000; -899.000
408.532;  -68.850; -549.000; -542.000
408.659; -124.950; -677.000; -648.000
408.785; -204.800;-1298.000;-1170.000
408.912;  -55.350; -412.000; -296.000
409.039; -108.250; -610.000; -686.000
409.166; -106.725; -591.000; -555.000
409.292; -106.100; -571.000; -534.000
409.419; -119.175; -665.000; -649.000
409.546;  -88.700; -431.000; -192.000
409.672; -119.850; -713.000; -545.000
409.799;  -14.700;  -36.000;   34.000
409.926;  -44.500; -180.000; -179.000
410.052; -171.625;-1127.000;-1091.000
410.179;  -48.275; -368.000; -392.000
410.305;  -86.250; -375.000; -493.000
410.432;  -51.475; -220.000; -333.000
410.558;  -79.625; -305.000; -380.000
410.685; -116.925; -688.000; -431.000
410.812; -101.225; -409.000; -588.000
410.938; -132.400; -964.000; -808.000
411.065;  -94.300; -671.000; -645.000
411.191;  -26.975; -189.000; -174.000
411.317; -109.325; -823.000; -742.000
411.444;  -60.250; -317.000; -246.000
411.570;  -61.400; -339.000; -294.000
411.697; -128.975; -758.000; -752.000
411.823; -169.575; -989.000; -999.000
411.949;  -36.500;  -56.000;   17.000
412.076; -117.425; -539.000; -519.000
412.202; -122.650; -758.000; -757.000
412.329; -142.450; -798.000; -752.000
412.455; -114.875; -821.000; -657.000
412.581;  -15.300;  -15.000;  172.000
412.707;  -70.925; -540.000; -457.000
412.834;   16.200;  156.000;  219.000
412.960;  -91.750; -785.000; -784.000
413.086;  -87.475; -743.000; -701.000
413.212;  159.375;  604.000;  578.000
413.339;  -56.125; -685.000; -701.000
413.465;    6.750; -364.000; -310.000
413.591;  -84.025; -757.000; -474.000
413.717;  -64.100; -358.000; -366.000
413.843; -135.800; -839.000; -861.000
413.969;  -65.775;  -47.000; -292.000
414.096; -106.450; -679.000; -679.000
414.222;   -2.225;  -33.000;   85.000
414.348;  -26.850; -652.000; -385.000
414.474;  118.275;   38.000;  -52.000
414.600;  -28.150; -126.000; -144.000
414.726;   -7.075;  -96.000;  -55.000
414.852;  -70.925; -365.000; -342.000
414.978;   37.600;  104.000;  -18.000
415.104;   32.625;   38.000;   80.000
415.230;   28.625; -329.000; -330.000
415.356;   58.675; -409.000; -514.000
415.482;  193.750;   13.000;  -35.000
415.608;  270.200; -247.000; -323.000
415.734;  946.975;   67.000;   38.000
415.860;19311.475; -875.000; -767.000
415.986;14181.250; -685.000; -607.000
416.111; 1209.300; -798.000; -652.000
416.237;  255.100; -424.000; -571.000
416.363; 1056.275; -765.000; -733.000
416.489; 3996.100; -324.000; -251.000
416.615;  432.275; -707.000; -742.000
416.741;  -35.075; -677.000; -784.000
416.866;  -96.075; -673.000; -736.000
416.992; -117.100; -801.000; -818.000
417.118;  -21.400;  -41.000;  -80.000
417.244;  -53.450; -798.000; -531.000
417.369;  -86.900; -801.000; -612.000
417.495;    9.200; -325.000; -254.000
417.621;  -75.425;-1015.000; -803.000
417.746;    1.675; -579.000; -572.000
417.872;   42.725; -254.000; -144.000
417.998;   51.775; -515.000; -530.000
418.123; 1000.600;-1073.000; -845.000
418.249; 5191.950; -512.000; -601.000
418.374;  713.300; -916.000; -824.000
418.500;  109.425; -383.000; -482.000
418.626;  110.750;   70.000;  -59.000
418.751;  124.175; -549.000; -448.000
418.877;  189.050; -637.000; -643.000
419.002; 1716.300; -688.000; -560.000
419.128;12002.850; -930.000; -721.000
419.253; 2946.175; -967.000; -837.000
419.379;  398.400; -391.000; -338.000
419.504;  373.125;  325.000;  415.000
419.629;  490.300; -393.000; -212.000
419.755; 3338.650; -317.000; -254.000
419.880;19946.600;  -98.000;   67.000
420.006;10979.800; -280.000; -221.000
420.131;28444.925; -662.000; -775.000
420.256; 4143.375; -315.000; -316.000
420.382;  524.050; -665.000; -687.000
420.507;   70.450; -649.000; -778.000
420.632;  161.550; -337.000; -339.000
420.758;  297.975; -251.000; -425.000
420.883;  -79.950; -876.000; -672.000
421.008;  -89.950; -775.000; -619.000
421.133;  -83.900; -509.000; -467.000
421.259;  -48.300; -325.000; -259.000
421.384; -114.675; -834.000; -693.000
421.509;  -26.450;-1052.000; -862.000
421.634; 1375.250; -936.000; -820.000
421.759;  607.425; -359.000; -327.000
421.885;  -43.950; -717.000; -656.000
422.010;  -73.850; -673.000; -542.000
422.135; -144.025; -695.000; -727.000
422.260;   37.850;  340.000;  280.000
422.385;  -31.950;   12.000;  -98.000
422.510;    2.125;  151.000;  -26.000
422.635;   35.500;  -87.000;  -43.000
422.760;  111.025; -766.000; -791.000
422.885;   61.350;  -57.000;  -80.000
423.010;  -37.900; -112.000; -169.000
423.135;  -97.275; -481.000; -561.000
423.260;  -22.200; -150.000; -245.000
423.385;   85.950;  476.000;  222.000
423.510;   31.650;   71.000;  -22.000
423.635;   90.775;  133.000;   45.000
423.760;   51.175;  383.000;  328.000
423.885;   69.350;  336.000;  391.000
424.010;    3.125;  -68.000;  -13.000
424.135;  -15.200;    5.000;  -33.000
424.259;  -84.825; -654.000; -457.000
424.384;  -41.575; -279.000; -272.000
424.509;  -33.475; -260.000; -186.000
424.634; -104.775; -761.000; -623.000
424.759;  -34.675; -688.000; -544.000
424.883;  -13.775; -506.000; -527.000
425.008;  163.875; -502.000; -410.000
425.133; 1922.225; -679.000; -653.000
425.258;  904.675; -517.000; -381.000
425.382; 1100.175; -867.000; -774.000
425.507; 2918.200; -487.000; -543.000
425.632;  476.500; -802.000; -663.000
425.756;  435.675; -256.000; -146.000
425.881; 6029.975; -831.000; -857.000
426.006;16501.025; -604.000; -355.000
426.130; 2681.725; -696.000; -508.000
426.255;  322.450; -611.000; -491.000
426.379;  156.000; -189.000; -577.000
426.504;  338.300;  660.000;  544.000
426.629; 3923.575; -519.000; -466.000
426.753; 2752.775;   64.000;  -46.000
426.878;  316.150; -252.000; -288.000
427.002;  140.550; -651.000; -668.000
427.127; 1526.775;  -35.000; -158.000
427.251;10890.050;  372.000;  401.000
427.375; 3194.675; -191.000; -173.000
427.500; 2527.025; -616.000; -610.000
427.624;  859.225; -234.000; -400.000
427.749;  109.675; -216.000; -225.000
427.873;  -32.575; -499.000; -412.000
427.997;  -34.375; -222.000; -230.000
428.122;   82.225;  795.000;  703.000
428.246;   62.500;  433.000;  434.000
428.371; -124.900; -869.000; -773.000
428.495;  -95.575; -624.000; -646.000
428.619;  -24.500; -186.000; -117.000
428.743;   19.700;   65.000;  132.000
428.868;   39.075; -732.000; -643.000
428.992; 1564.750; -219.000; -326.000
429.116;  680.400; -329.000; -357.000
429.240;  306.400;  419.000;  426.000
429.365;  -17.600; -454.000; -574.000
429.489;  -38.150; -638.000; -647.000
429.613;   13.175; -236.000; -177.000
429.737;   19.100; -563.000; -432.000
429.861;  270.275; -247.000; -133.000
429.985; 5284.875; -425.000; -305.000
430.109; 5930.600; -770.000; -908.000
430.234;  699.575;   76.000;  -50.000
430.358;   59.000; -250.000; -160.000
430.482;  -75.575; -672.000; -564.000
430.606;  -62.375; -655.000; -375.000
430.730;   25.975; -437.000; -388.000
430.854;  162.925; -909.000; -835.000
430.978;  -66.300; -795.000; -764.000
431.102;  -77.200; -499.000; -422.000
431.226; -114.675; -874.000; -815.000
431.350;   36.825;  345.000;  422.000
431.474;  -67.075; -661.000; -373.000
431.597; -152.575;-1060.000; -848.000
431.721;  -92.875; -276.000; -267.000
431.845; -129.875; -704.000; -472.000
431.969;  -83.550; -304.000; -349.000
432.093;  -96.875; -395.000; -317.000
432.217;  -23.575;   32.000;   82.000
432.341; -101.450; -523.000; -518.000
432.464;    0.425;   96.000;   40.000
432.588;  231.650; -401.000; -329.000
432.712;  114.575;  -52.000;  -52.000
432.836;   43.525;  213.000;  263.000
432.959;  -34.425; -372.000; -311.000
433.083;   65.550;   11.000;    2.000
433.207;  371.600;  285.000;  930.000
433.330; 4799.975; -391.000; -200.000
433.454; 6010.750; -654.000; -638.000
433.578; 3461.775;  583.000;  278.000
433.701;  655.000; -623.000; -675.000
433.825;  144.850; -292.000; -299.000
433.949;  214.325;   28.000;  -72.000
434.072;   88.600; -410.000; -323.000
434.196;  -21.600; -309.000; -117.000
434.319; 3705.525;25482.000;25124.000
434.443;  723.375; -656.000; -603.000
434.566; 2572.625;  281.000;   62.000
434.690;  442.900; -637.000; -383.000
434.813;   55.625; -251.000; -173.000
434.937;  -89.775; -569.000; -696.000
435.060;  -44.025; -423.000; -332.000
435.184;  371.775; -492.000; -217.000
435.307;  201.500;  159.000;  102.000
435.431;    5.250;  -40.000;   24.000
435.554;  -83.125; -399.000; -240.000
435.677;  -84.650; -350.000; -258.000
435.801;  -37.300;  -25.000;   49.000
435.924;   -0.750;    1.000;  -67.000
436.048; -114.775;-1019.000; -732.000
436.171;  -73.575; -240.000;  -66.000
436.294;  -39.750; -248.000; -229.000
436.417;   83.800; -963.000; -849.000
436.541;  -72.325; -814.000; -840.000
436.664;  -53.875; -242.000; -316.000
436.787;  -12.825;   13.000;  113.000
436.910; -131.575; -792.000; -422.000
437.034;    3.375;  142.000;  143.000
437.157;   68.600;  -11.000;    0.000
437.280;  -45.150; -392.000; -292.000
437.403;  -89.700; -982.000; -869.000
437.526;  743.675; -903.000; -865.000
437.649; 2674.275; -505.000; -332.000
437.772;  410.250; -692.000; -540.000
437.896;  144.075;  700.000;  544.000
438.019;  -88.400; -758.000; -503.000
438.142;  -72.150; -596.000; -506.000
438.265;   -9.375; -639.000; -670.000
438.388;  635.875; -520.000; -410.000
438.511;  130.175; -597.000; -394.000
438.634;  -34.750; -247.000; -125.000
438.757; -129.750; -693.000; -619.000
438.880;  -21.100;  -34.000;  -57.000
439.003;  -86.275; -417.000; -437.000
439.126;  -63.150; -287.000; -167.000
439.248;  -58.075;  -98.000; -139.000
439.371;  -44.600;    9.000;  -53.000
439.494;   20.300;  510.000;  439.000
439.617;  -53.425;   65.000;  -88.000
439.740; -181.825; -968.000; -816.000
439.863; -143.750; -755.000; -595.000
439.986; -115.300; -476.000; -431.000
440.108;  -49.450; -161.000; -112.000
440.231; -162.150; -950.000; -836.000
440.354;  -34.450;  -64.000; -150.000
440.477;   62.375; -566.000; -542.000
440.599;   10.075; -200.000; -225.000
440.722; -118.950; -709.000; -586.000
440.845;   74.525;  751.000;  928.000
440.968; -106.475; -415.000; -311.000
441.090;  -70.700; -199.000;  -33.000
441.213; -162.400;-1021.000; -825.000
441.336;  -55.000; -159.000;   -5.000
441.458;  -78.350; -549.000; -396.000
441.581;  -77.900; -628.000; -629.000
441.703;  -65.100; -152.000;   13.000
441.826; -119.375; -557.000; -400.000
441.948;  -50.850;   56.000;   51.000
442.071;   24.150;  555.000;  424.000
442.193; -121.525; -531.000; -485.000
442.316;   23.425;  152.000;   97.000
442.438;   44.000; -233.000;  -10.000
442.561;   76.725;  272.000;  262.000
442.683;  626.450; -809.000; -522.000
442.806; 1376.900;   -8.000;   74.000
442.928;   54.025; -859.000; -604.000
443.051;  -70.075; -577.000; -373.000
443.173;  -89.200; -341.000; -339.000
443.295;  -84.200; -263.000; -371.000
443.418;  -68.575; -321.000;  -29.000
443.540;   -0.425; -106.000;   -4.000
443.662; -121.025; -563.000; -465.000
443.785;  -26.425;  335.000;  199.000
443.907;  -99.200; -362.000; -208.000
444.029; -143.800; -767.000; -494.000
444.152; -145.175; -644.000; -554.000
444.274;  -44.075;  -18.000;  -24.000
444.396; -101.175; -461.000; -221.000
444.518; -149.950; -691.000; -454.000
444.640; -108.575; -268.000; -111.000
444.763;  -24.325;  388.000;  249.000
444.885; -125.275; -432.000; -392.000
445.007;  -52.900;   35.000;   86.000
445.129; -120.775; -610.000; -515.000
445.251;  -97.975; -372.000; -439.000
445.373; -136.100; -537.000; -386.000
445.495;    1.075;  242.000;  350.000
445.617;   55.025;  853.000;  753.000
445.739;  -64.150; -215.000;  -97.000
445.861;  -56.575; -245.000; -112.000
445.984;  -32.050; -267.000; -101.000
446.105;  235.675; -418.000; -251.000
446.227;  708.150; -176.000;  -19.000
446.349;   32.350; -358.000; -249.000
446.471;  -96.375; -615.000; -448.000
446.593;  -57.100; -316.000;   19.000
446.715;    5.250;  -67.000;   41.000
446.837;   55.075;  697.000;  832.000
446.959; -106.450; -457.000; -478.000
447.081; -133.800; -628.000; -518.000
447.203;   58.000;  862.000;  834.000
447.325;  -93.775; -270.000;   42.000
447.446;  -10.125;  286.000;  530.000
447.568; -150.000; -921.000; -803.000
447.690;  -84.400; -236.000; -245.000
447.812; -142.125; -798.000; -519.000
447.933;  -41.425;  155.000;  127.000
448.055;  -72.425; -306.000; -261.000
448.177;  184.125;   31.000;   79.000
448.299;  101.575; -935.000; -727.000
448.420;   24.075;  -25.000;  159.000
448.542;  -38.225;   -3.000;   33.000
448.664;  -20.400;  109.000;  322.000
448.785;  -34.450;  265.000;   83.000
448.907;  -64.950; -614.000; -353.000
449.028;  -11.775; -771.000; -471.000
449.150;   53.875;  492.000;  589.000
449.272; -175.375;-1044.000; -913.000
449.393;   21.575;  612.000;  694.000
449.515; -142.775; -634.000; -581.000
449.636;  -60.475; -264.000; -155.000
449.758;   58.625;  763.000;  622.000
449.879;  -87.600; -498.000; -396.000
450.001;  -71.350; -149.000;  -49.000
450.122;  -47.850;  -95.000;  162.000
450.244;  -28.225;   37.000;  364.000
450.365; -105.650; -495.000; -301.000
450.486;  -42.025;   80.000;  268.000
450.608;   18.700;  393.000;  326.000
450.729;   71.650;  578.000;  645.000
450.850;    1.725; -574.000; -466.000
450.972;  688.875; -552.000; -389.000
451.093; 4653.525;  190.000;  588.000
451.214; 2018.525; -516.000; -337.000
451.336;  364.900;  773.000;  579.000
451.457;   50.700;  264.000;  393.000
451.578;  -44.050; -118.000;  -74.000
451.699; -105.550; -546.000; -540.000
451.821;  -70.550; -284.000;  -50.000
451.942;    0.300;  278.000;  285.000
452.063;   25.325;  228.000;  419.000
452.184;  516.875;  -54.000;  -49.000
452.305; 1052.725;  103.000;  170.000
452.427;  123.575; -549.000; -301.000
452.548;  -21.800;   23.000;   79.000
452.669;  -34.100; -257.000;  -89.000
452.790;  -52.900;    3.000;  -18.000
452.911;   -3.350;  195.000;  259.000
453.032;  -61.425; -289.000;  -60.000
453.153;  -48.050;  -29.000;   81.000
453.274;   53.450;  737.000;  868.000
453.395;  -62.675;  -51.000;  175.000
453.516;   23.125; 1317.000; 1388.000
453.637;  -58.250; -205.000; -150.000
453.758;  -56.250;   15.000;   69.000
453.879; -122.475; -462.000; -250.000
454.000;   76.750; 1086.000;  948.000
454.121; -110.150; -554.000; -326.000
454.242; -120.900; -599.000; -383.000
454.362;  -58.475;  -99.000;  114.000
454.483;  -39.025; -309.000; -229.000
454.604;   59.025;  512.000;  580.000
454.725; -136.650; -627.000; -555.000
454.846; -131.100; -474.000; -406.000
454.967;  -37.200;  230.000;  539.000
455.087;  -52.425;  179.000;  153.000
455.208;    3.550;  554.000;  856.000
455.329;  -68.650;  -22.000;   82.000
455.450;   38.650;  473.000;  633.000
455.570;  -91.275; -234.000; -211.000
455.691;  -46.050;  201.000;  407.000
455.812; -108.475; -270.000;  -92.000
455.932;  -73.875;  107.000;  -97.000
456.053;  -83.325;   36.000;   24.000
456.173; -116.950; -433.000; -355.000
456.294; -138.775; -476.000; -303.000
456.415;  -58.000;  -73.000;   70.000
456.535;  -35.375;  297.000;  273.000
456.656;  -45.175;  132.000;  240.000
456.776;  -65.075;    3.000;  298.000
456.897;  -12.650;  308.000;  513.000
457.017;  -83.600; -153.000;   -3.000
457.138; -113.050; -402.000; -249.000
457.258;  -30.050;  263.000;  224.000
457.379;  -18.200;  509.000;  521.000
457.499;  -31.850;  443.000;  432.000
457.620; -125.600; -407.000; -231.000
457.740; -108.600; -132.000;  -11.000
457.860;  -51.575;   87.000;   44.000
457.981;  -42.475;  132.000;  124.000
458.101;  -61.600;  -89.000;   40.000
458.221;  -23.500;  336.000;  402.000
458.342;  -64.675;   -4.000;  -37.000
458.462;   11.650;  617.000;  352.000
458.582;  -50.625; -302.000; -294.000
458.703;   11.000;  303.000;  154.000
458.823;  -32.550;   22.000;  163.000
458.943;   12.375;  341.000;  467.000
459.063;  -41.200; 1124.000;  192.000
459.183;  -25.750;  328.000;  313.000
459.304;    1.525;  315.000;  517.000
459.424;  -75.250; -246.000;  -89.000
459.544;  321.800;  388.000;  764.000
459.664;  796.850;  499.000;  506.000
459.784;  300.350; 1004.000; 1175.000
459.904;   41.975;  867.000;  744.000
460.024;   62.125;  867.000;  684.000
460.144;   10.225;  449.000;  554.000
460.264;  -14.425;  515.000;  327.000
460.385;  -99.675; -145.000; -119.000
460.505;   45.050;  905.000;  858.000
460.625;  -83.950;  -17.000;  -68.000
460.745;  -21.725;  396.000;  541.000
460.864;  -67.450;  153.000;  469.000
460.984;   24.025;  499.000;  573.000
461.104;  142.175; 1656.000; 1775.000
461.224;   19.200;  657.000;  650.000
461.344;  -25.100;  431.000;  360.000
461.464;  -38.425;  258.000;  513.000
461.584;  -21.325;  283.000;  466.000
461.704;  -43.625;   58.000;  108.000
461.824;  -63.075;  238.000;  259.000
461.943;  -52.825;  191.000;  130.000
462.063;  -67.375;    2.000;  324.000
462.183;   15.375;  639.000;  717.000
462.303;   94.650; 1678.000; 1230.000
462.422;   23.875;  781.000;  840.000
462.542;  -39.150;  271.000;  391.000
462.662;   29.900;  353.000;  380.000
462.782;  228.750;  833.000;  572.000
462.901;  470.525;  545.000;  717.000
463.021;  275.725; 1702.000; 1638.000
463.141;   -8.500;  337.000;  770.000
463.260;  -28.250;  614.000;  474.000
463.380;   20.375;  902.000;  884.000
463.499;  -43.025;  342.000;  332.000
463.619;  -45.200;  581.000;  559.000
463.738;  105.725; 1644.000;  903.000
463.858;   12.225;  657.000;  811.000
463.978;  -34.400;  542.000;  396.000
464.097;   28.175;  921.000; 1114.000
464.217;  116.050; 1196.000; 1143.000
464.336;  102.700; 1068.000; 1130.000
464.455;  -26.775;  328.000;  659.000
464.575;   33.875;  597.000;  602.000
464.694;  176.975; 1204.000; 1179.000
464.814;  109.375; 1190.000; 1138.000
464.933;   84.150; 1095.000; 1027.000
465.052;   92.225; 1412.000; 1054.000
465.172;   85.250;  922.000;  799.000
465.291;  147.325; 1376.000; 1320.000
465.410;   26.600;  462.000;  735.000
465.530;   81.400; 1355.000; 1310.000
465.649;   71.450; 1209.000; 1273.000
465.768;  129.225; 1673.000; 1508.000
465.888;   46.950;  941.000; 1174.000
466.007;   96.175; 1335.000; 1440.000
466.126;   -8.600;  721.000;  641.000
466.245;   46.375; 1176.000; 1187.000
466.364;   16.575;  950.000; 1060.000
466.484;   48.975; 1024.000; 1213.000
466.603;   50.525; 1101.000; 1222.000
466.722;  124.075; 1490.000; 1769.000
466.841;   66.850; 1151.000; 1401.000
466.960;   42.975; 1069.000;  972.000
467.079;  130.225; 1971.000; 1786.000
467.198;   47.950; 1238.000; 1181.000
467.317;   83.800; 1768.000; 1162.000
467.436;   70.275; 1709.000; 1261.000
467.555;  121.400; 1796.000; 1746.000
467.674;   62.775; 1227.000; 1329.000
467.793;   37.750; 1376.000; 1374.000
467.912;   76.400; 1658.000; 1539.000
468.031;  135.100; 2038.000; 1930.000
468.150;  139.725; 1842.000; 1837.000
468.269;  181.500; 2313.000; 2090.000
468.388;  182.300; 2168.000; 2339.000
468.507;  250.075; 2884.000; 2903.000
468.626;  234.500; 2555.000; 2541.000
468.744;  130.450; 2018.000; 2174.000
468.863;  178.300; 2312.000; 2523.000
468.982;   87.625; 1503.000; 1555.000
469.101;  219.800; 2788.000; 2692.000
469.220;  165.025; 2333.000; 2176.000
469.338;  244.075; 2935.000; 3051.000
469.457;  191.300; 2719.000; 2545.000
469.576;  358.775; 3953.000; 3784.000
469.695;  249.275; 2877.000; 3066.000
469.813;  412.975; 4148.000; 4192.000
469.932;  413.800; 4255.000; 4485.000
470.051;  410.075; 4075.000; 4161.000
470.169;  820.825; 4470.000; 4338.000
470.288; 1422.450; 4700.000; 4809.000
470.406;  847.350; 5059.000; 5194.000
470.525;  638.025; 6101.000; 5787.000
470.644;  663.700; 6847.000; 6794.000
470.762;  811.400; 8397.000; 7873.000
470.881;  900.075; 8651.000; 8464.000
470.999; 1044.475; 9685.000; 9151.000
471.118; 1127.475;11174.000;10711.000

