
Integration time [ms]: 100.000
Averaging Nr. [scans]: 40
Smoothing Nr. [pixels]: 0
Data measured with spectrometer [name]: 2101012U2
Wave   ;Sample   ;Dark     ;Reference
[nm]   ;[counts] ;[counts] ;[counts] 

197.733;   59.425;  516.000;  404.000
197.879;  -88.500; -610.000; -634.000
198.025;  -35.375; -475.000; -420.000
198.171;  -65.350; -602.000; -612.000
198.317;  -26.125; -401.000; -316.000
198.463;  -65.675; -655.000; -404.000
198.609;   13.900;  181.000; -137.000
198.755;  -83.025; -644.000; -410.000
198.901;  -65.475; -505.000; -424.000
199.047;  -44.425; -615.000; -488.000
199.193;  -50.825; -230.000; -468.000
199.339;  -43.700; -222.000; -369.000
199.485;   36.175;  330.000;  271.000
199.631;   14.000;  227.000;  310.000
199.777;  -52.375; -466.000; -398.000
199.923;  -62.075; -610.000; -424.000
200.069;    5.325; -141.000;  -58.000
200.215;   74.025;  128.000;  453.000
200.361;   44.050;  243.000;  477.000
200.507;  -71.575; -600.000; -373.000
200.653;  -26.275; -371.000; -194.000
200.798;  -43.450; -215.000; -125.000
200.944;    1.025; -146.000;  -41.000
201.090;   33.425;   61.000;  222.000
201.236;   -3.625; -116.000; -158.000
201.382;  140.675;  874.000;  903.000
201.528;   -2.925;  -58.000;  -48.000
201.674;  -59.450; -386.000; -293.000
201.819;  -65.350; -540.000; -439.000
201.965;  -93.250; -699.000; -447.000
202.111;  -20.600; -273.000; -226.000
202.257;  -50.675; -250.000; -238.000
202.402;    2.650;   13.000;  -36.000
202.548;  -15.325; -169.000; -116.000
202.694;   87.600;  410.000; -183.000
202.840;  -81.025; -603.000; -531.000
202.985;  -70.325; -681.000; -639.000
203.131; -101.000; -832.000; -666.000
203.277;   -7.525; -199.000; -262.000
203.423;  -46.050; -434.000; -520.000
203.568;  -37.775; -462.000; -237.000
203.714;  -55.050; -535.000; -542.000
203.860;  -78.400; -682.000; -641.000
204.005;   18.400;  112.000;  167.000
204.151;   71.700;  561.000;  556.000
204.296;  -39.300; -354.000; -221.000
204.442;  -74.775; -600.000; -547.000
204.588;  -83.250; -592.000; -579.000
204.733;   20.250;  178.000;  168.000
204.879; -142.175;-1018.000; -822.000
205.025;   24.225;  -99.000;  126.000
205.170;   -3.075;  -17.000;   94.000
205.316;   78.500;  438.000;  661.000
205.461;  -77.175; -698.000; -554.000
205.607;   94.550;  609.000;  665.000
205.752;  -83.625; -626.000; -551.000
205.898;  -58.775; -501.000; -391.000
206.043;  -56.625; -578.000; -506.000
206.189;  -39.700; -243.000; -285.000
206.334;   75.150;  554.000;  606.000
206.480;   81.650;  409.000;  239.000
206.625;  -74.575; -529.000; -552.000
206.771;  -49.675; -451.000; -373.000
206.916;  -28.425; -210.000; -537.000
207.062;  -68.600; -545.000; -591.000
207.207;  -52.725; -546.000; -443.000
207.353;   60.050;  185.000;  460.000
207.498;   14.150;  196.000;   85.000
207.643;  -49.275; -501.000; -370.000
207.789; -127.150;-1069.000; -910.000
207.934; -104.400; -665.000; -713.000
208.080;  -18.600; -154.000;   66.000
208.225;    8.525;  -22.000;  -57.000
208.370;  -93.325; -727.000; -619.000
208.516;  -81.275; -741.000; -487.000
208.661;  -34.700; -127.000;  -69.000
208.806;  -30.875; -165.000; -171.000
208.952; -129.625;-1044.000; -731.000
209.097;   84.450;  378.000;  349.000
209.242;  -51.975; -307.000; -382.000
209.387;   63.225;  392.000;  350.000
209.533;  -52.825; -321.000; -350.000
209.678;  101.825;  472.000;  543.000
209.823;  -62.675; -408.000; -310.000
209.969;  -97.275; -860.000; -757.000
210.114; -119.575; -907.000; -719.000
210.259; -128.925; -939.000; -889.000
210.404;  -16.400; -171.000;  103.000
210.549;   16.575;  108.000;    3.000
210.695;    2.100;   -3.000;  -95.000
210.840;   33.650;   94.000;   67.000
210.985;  -67.150; -484.000; -303.000
211.130;   74.600;  268.000;  406.000
211.275;   14.225;  207.000;  199.000
211.420;  -40.275; -300.000; -289.000
211.566;  -73.025; -536.000; -489.000
211.711;   37.625;  218.000;  157.000
211.856;  -71.575; -545.000; -519.000
212.001;    8.100;  151.000;   44.000
212.146;   13.900;  153.000;   49.000
212.291;  -29.550; -210.000; -186.000
212.436;  -30.050; -280.000;   -6.000
212.581;  -86.750; -685.000; -653.000
212.726;  -78.875; -487.000; -538.000
212.871;  -38.500; -552.000; -217.000
213.016; -144.700;-1172.000;-1029.000
213.161;   78.350;  406.000;  291.000
213.306;  -69.200; -435.000; -577.000
213.451; -101.950; -778.000; -689.000
213.596;  -54.325; -455.000; -347.000
213.741;  -51.150; -448.000; -538.000
213.886;  -78.775; -498.000; -517.000
214.031;  -24.600; -294.000; -124.000
214.176;  -60.475; -408.000; -341.000
214.321;  -25.350; -296.000; -157.000
214.466;  -30.625; -163.000;  -43.000
214.611;   11.325;  -61.000;  -10.000
214.756; -120.925; -948.000; -858.000
214.901;  -34.100; -388.000; -226.000
215.046; -112.100; -797.000; -825.000
215.191;   27.325;  128.000;   35.000
215.336;  -21.725; -157.000;  -19.000
215.480;  -66.925; -684.000; -505.000
215.625;  -15.550; -175.000;  -19.000
215.770;  -83.150; -757.000; -662.000
215.915;    2.325;   -5.000;  -97.000
216.060;    3.600; -113.000;  -21.000
216.205; -116.350; -731.000; -779.000
216.349;  -82.575; -470.000; -533.000
216.494; -142.100; -939.000; -867.000
216.639; -122.900; -823.000; -888.000
216.784;  -93.425; -577.000; -525.000
216.929;   52.100;  392.000;  281.000
217.073;   -8.775; -244.000;  -31.000
217.218;    7.125;   78.000;  -47.000
217.363;  -89.475; -656.000; -618.000
217.507;  -81.075; -623.000; -588.000
217.652; -107.175; -845.000; -874.000
217.797;  -93.900; -708.000; -659.000
217.942; -114.075; -856.000; -720.000
218.086;   65.975;  608.000;  539.000
218.231;   -9.975; -174.000;  -26.000
218.376;  -28.450; -337.000; -229.000
218.520;   -3.975;  -41.000;   96.000
218.665;  -16.875; -338.000; -204.000
218.810;  -46.725; -275.000; -233.000
218.954;   27.625;  201.000;   35.000
219.099; -119.400; -713.000; -963.000
219.243;  -65.200; -589.000; -554.000
219.388;  -38.600; -264.000; -136.000
219.532;  -11.650; -116.000; -116.000
219.677;  -76.050; -564.000; -521.000
219.822;    6.050;   33.000;   89.000
219.966;    4.450;   17.000;  -99.000
220.111;  -46.600; -328.000;  -40.000
220.255;  -97.225; -797.000; -750.000
220.400;  -17.200; -180.000; -146.000
220.544;  -79.375; -516.000; -450.000
220.689;  -59.600; -422.000; -451.000
220.833;  -24.650; -123.000;  -58.000
220.978;  -48.575; -393.000; -563.000
221.122;   18.350;  319.000;  307.000
221.267; -109.850; -906.000; -837.000
221.411;  -70.125; -478.000; -394.000
221.555;  -16.225; -104.000;  -23.000
221.700;  -43.150; -329.000; -222.000
221.844;   44.000;  255.000;  272.000
221.989;  -40.175; -328.000; -311.000
222.133;  -45.200; -289.000; -307.000
222.277;   -3.975;    5.000;   78.000
222.422;   35.175;  227.000;  113.000
222.566;  -29.125; -381.000; -214.000
222.711;  -48.250; -414.000; -479.000
222.855;  -77.550; -643.000; -586.000
222.999;  -78.500; -642.000; -717.000
223.144;  -28.500; -195.000; -194.000
223.288;   46.150;  423.000;  251.000
223.432;   39.575;  184.000;  230.000
223.576;   18.800;  152.000;  -21.000
223.721;   36.275;  364.000;  273.000
223.865;  -67.225; -472.000; -475.000
224.009;  289.550; 1673.000; 1631.000
224.153;  -85.600; -660.000; -671.000
224.298;  -69.450; -531.000; -489.000
224.442;  -15.450;  -74.000;  -33.000
224.586;  -16.550; -169.000; -106.000
224.730;  -99.525; -858.000; -670.000
224.875; -115.800; -739.000; -688.000
225.019;   25.625;  102.000;  188.000
225.163;   47.700;  208.000;  341.000
225.307;   26.450;   97.000;  -91.000
225.451;   45.425;  360.000;  481.000
225.595;   33.600;  264.000;  176.000
225.739;  -13.325; -170.000;  -94.000
225.884;   -7.425;   86.000;    5.000
226.028; -111.125; -760.000; -626.000
226.172;  -41.225; -260.000; -273.000
226.316; -120.650; -941.000; -902.000
226.460;  -67.600; -645.000; -493.000
226.604;  -55.575; -406.000; -400.000
226.748; -102.500; -836.000; -733.000
226.892;  -39.225; -227.000; -181.000
227.036;  -49.550; -537.000; -447.000
227.180;  -54.700; -551.000; -375.000
227.324;  -64.625; -561.000; -580.000
227.468; -118.925; -819.000; -717.000
227.612;   18.800;  242.000;  -28.000
227.756;  -86.150; -845.000; -698.000
227.900;   54.075;  342.000;  441.000
228.044;  -50.300; -509.000; -290.000
228.188;   58.025;  448.000;  568.000
228.332;  -90.125; -546.000; -472.000
228.476;  -23.200; -223.000; -149.000
228.620;  -33.800; -210.000; -150.000
228.764;   60.400;  431.000;  349.000
228.908;  -30.775; -155.000;   30.000
229.052;  -69.650; -615.000; -528.000
229.195;   -9.025; -172.000;   13.000
229.339;  -33.150; -235.000; -305.000
229.483;  -29.025;    5.000; -162.000
229.627;    3.175; -156.000;  139.000
229.771;  -51.950; -218.000; -294.000
229.915;    5.000;  230.000;   79.000
230.059;  -92.975; -648.000; -663.000
230.202;  -32.925; -370.000; -317.000
230.346;  -21.250; -107.000;  107.000
230.490;  -74.750; -489.000; -521.000
230.634; -106.825; -736.000; -553.000
230.777;   77.250;  478.000;  509.000
230.921;  -50.825; -450.000; -359.000
231.065;  -55.550; -246.000; -286.000
231.209;   22.450;  261.000;  265.000
231.352;   27.475;   54.000;   40.000
231.496;   19.950;  568.000;  188.000
231.640;  -89.900; -693.000; -621.000
231.783;   55.925;  546.000;  525.000
231.927;  -39.375; -294.000; -365.000
232.071; -123.225; -962.000; -736.000
232.214; -107.700; -980.000; -764.000
232.358; -103.375; -683.000; -599.000
232.502;    4.275;  -19.000;    7.000
232.645; -148.775;-1090.000; -927.000
232.789;  -28.650; -257.000; -218.000
232.933;  -41.500; -407.000; -224.000
233.076; -128.925;-1038.000; -897.000
233.220; -105.250; -752.000; -777.000
233.363;  -68.325; -669.000; -477.000
233.507;   67.500;  371.000;  129.000
233.650; -106.925; -764.000; -834.000
233.794;   50.350;  438.000;  461.000
233.938;  -66.950; -530.000; -362.000
234.081;  -14.025;  -93.000;   31.000
234.225;  -68.125; -631.000; -539.000
234.368; -119.800; -773.000; -723.000
234.512;  -36.600; -385.000; -299.000
234.655;  -95.050; -582.000; -555.000
234.798;  -71.300; -493.000; -466.000
234.942; -125.850; -884.000;-1002.000
235.085;  -76.275; -651.000; -443.000
235.229;  -86.325; -405.000; -410.000
235.372;  -54.675; -247.000; -191.000
235.516;  -70.600; -397.000; -321.000
235.659;   26.450;   92.000;  121.000
235.802;  -17.175;  -38.000;  -22.000
235.946;   25.725;  335.000;  215.000
236.089;   28.075;  126.000;  250.000
236.233;   56.550;  275.000;  298.000
236.376;  -51.750; -235.000; -378.000
236.519;  -38.775; -297.000; -319.000
236.663;  -19.825; -215.000; -117.000
236.806; -137.025;-1029.000; -999.000
236.949;   68.075;  543.000;  431.000
237.092;   68.200;  412.000;  391.000
237.236;  -82.050; -589.000; -502.000
237.379;   80.975;  352.000;  428.000
237.522; -121.550; -879.000; -768.000
237.666;  -11.575; -271.000;   18.000
237.809; -137.075; -851.000; -823.000
237.952;   40.350;  469.000;  271.000
238.095;  -76.350; -447.000; -442.000
238.238;   88.925;  688.000;  700.000
238.382;    3.875;  166.000;  103.000
238.525;  -82.875; -598.000; -511.000
238.668; -159.025;-1060.000; -985.000
238.811;  -74.275; -638.000; -643.000
238.954;  -60.450; -483.000; -334.000
239.097;   91.525;  617.000;  664.000
239.241;   17.725;  394.000;  326.000
239.384;  -33.225; -254.000; -214.000
239.527;  -57.125; -424.000; -224.000
239.670; -156.450; -994.000;-1091.000
239.813; -106.325; -696.000; -658.000
239.956;   90.725;  579.000;  473.000
240.099; -113.650; -778.000; -725.000
240.242;   62.875;  428.000;  432.000
240.385;   46.925;  466.000;  450.000
240.528;  -66.500; -706.000; -473.000
240.671;   14.400;  189.000;  134.000
240.814;  -43.225; -441.000; -158.000
240.957; -105.600; -767.000; -578.000
241.100; -101.200; -779.000; -755.000
241.243; -137.575;-1234.000; -893.000
241.386;  -61.950; -508.000; -379.000
241.529;  -92.275; -735.000; -547.000
241.672;  -61.275; -566.000; -495.000
241.815; -133.600; -832.000; -808.000
241.958;  -31.400; -125.000; -182.000
242.101;  -70.075; -545.000; -390.000
242.244;  -30.350; -270.000; -325.000
242.387;  -31.750; -304.000; -246.000
242.530;   70.925;  470.000;  134.000
242.673;  -30.950; -381.000; -309.000
242.815; -114.775; -925.000; -899.000
242.958;  -62.000; -482.000; -381.000
243.101;   10.700;  132.000;  187.000
243.244;  -76.250; -564.000; -521.000
243.387;  -52.200; -313.000; -316.000
243.530; -109.250; -657.000; -674.000
243.672;   -9.150;   43.000;  -92.000
243.815;  -63.275; -355.000; -283.000
243.958;   -0.900;   98.000;  -26.000
244.101;    9.500;   59.000;  -16.000
244.243;   -0.750;  -47.000;  101.000
244.386; -119.350; -761.000; -630.000
244.529;  -21.750; -132.000; -139.000
244.672; -152.025;-1154.000; -951.000
244.814; -105.950; -621.000; -794.000
244.957;  -41.450; -380.000; -304.000
245.100;  -62.425; -489.000; -489.000
245.242;  -73.150; -387.000; -374.000
245.385;  -11.100;  -59.000;  -39.000
245.528; -133.800; -871.000; -705.000
245.670;  113.200;  612.000;  634.000
245.813;  -91.650; -599.000; -547.000
245.956;  -30.175; -324.000; -275.000
246.098;  -73.325; -508.000; -650.000
246.241;    1.250;  194.000;   48.000
246.383;  -25.825; -119.000;  -73.000
246.526;  -80.400; -454.000; -525.000
246.669; -116.500; -889.000; -780.000
246.811;   18.600;  172.000;   -1.000
246.954;  -69.075; -512.000; -426.000
247.096;  -32.900;  -84.000;   -6.000
247.239;  -68.200; -482.000; -445.000
247.381;  -85.025; -647.000; -488.000
247.524;   87.200;  645.000;  679.000
247.666;   -4.550;   58.000;   11.000
247.809; -111.775; -887.000; -691.000
247.951;   -7.800;  -75.000;  138.000
248.094;   10.750;  432.000;  308.000
248.236; -156.150;-1262.000;-1238.000
248.378;  -40.100; -356.000;  -81.000
248.521;  -42.800; -334.000; -337.000
248.663;  -35.025; -236.000; -267.000
248.806;  -32.800; -300.000; -266.000
248.948; -134.450; -886.000; -763.000
249.090;  -58.675; -428.000; -398.000
249.233;  -75.175; -344.000; -381.000
249.375;  -67.500; -474.000; -451.000
249.518;  -24.600;  -83.000; -133.000
249.660;  -28.625; -103.000;    3.000
249.802; -197.800;-1303.000;-1189.000
249.945;  -83.225; -612.000; -540.000
250.087; -117.925; -834.000; -768.000
250.229;  -58.350; -362.000; -480.000
250.371;  -71.800; -494.000; -439.000
250.514;  -65.650; -310.000; -244.000
250.656;  -67.350;   69.000;  102.000
250.798; -127.600; -849.000; -800.000
250.940;  -64.550; -322.000; -322.000
251.083;  -44.700; -335.000; -111.000
251.225;   50.200;  338.000;  310.000
251.367;  -55.825; -274.000; -373.000
251.509;  -40.750; -265.000; -210.000
251.651; -103.950; -731.000; -671.000
251.794;   53.025;  538.000;  632.000
251.936; -109.950; -821.000; -747.000
252.078;  -75.850; -540.000; -461.000
252.220;  -80.250; -645.000; -477.000
252.362;   37.225;  344.000;  462.000
252.504;  -93.850; -677.000; -584.000
252.646; -124.925; -875.000; -722.000
252.788;  -12.250;   14.000; -128.000
252.931;  -54.200; -257.000; -253.000
253.073;  -63.975; -376.000; -317.000
253.215;  -14.850;  141.000;  122.000
253.357;  -12.950;   82.000; -153.000
253.499;  -57.425; -374.000; -234.000
253.641;  -99.525; -749.000; -594.000
253.783; -103.550; -609.000; -527.000
253.925;  -92.250; -586.000; -591.000
254.067; -131.150; -744.000; -667.000
254.209;  -37.150; -391.000; -259.000
254.351; -158.350; -865.000; -883.000
254.493;  -59.525; -441.000; -417.000
254.635; -141.450; -936.000; -818.000
254.777; -112.150; -752.000; -687.000
254.918;  -69.050; -512.000; -430.000
255.060;  -82.650; -551.000; -395.000
255.202;  -75.100; -473.000; -261.000
255.344;  -79.575; -658.000; -455.000
255.486;  -73.975; -471.000; -406.000
255.628; -122.150; -780.000; -781.000
255.770; -102.475; -676.000; -536.000
255.912;  -75.275; -559.000; -468.000
256.053;  -94.000; -730.000; -508.000
256.195;  160.500; 1008.000;  903.000
256.337; -100.850; -861.000; -595.000
256.479;   55.500;  532.000;  416.000
256.621;  -49.350; -394.000; -212.000
256.762;  -98.025; -789.000; -742.000
256.904;   48.250;  485.000;  487.000
257.046;  -48.575; -381.000; -271.000
257.188;  -50.225; -351.000; -264.000
257.329;  -74.800; -525.000; -464.000
257.471; -131.300; -939.000; -807.000
257.613;  -72.375; -584.000; -498.000
257.755; -152.350;-1073.000; -982.000
257.896;   33.600;  286.000;  392.000
258.038;  -72.425; -403.000; -352.000
258.180;  -55.450; -354.000; -279.000
258.321;  -82.050; -581.000; -457.000
258.463;   -5.175;  -71.000;  133.000
258.605;  -93.975; -562.000; -570.000
258.746; -110.500; -886.000; -772.000
258.888; -158.200;-1026.000;-1020.000
259.029;   17.150;  121.000;   -8.000
259.171;  -86.700; -614.000; -550.000
259.313;  -11.925;  -49.000;  -47.000
259.454;  -84.325; -536.000; -414.000
259.596;  -53.250; -483.000; -390.000
259.737;  -83.850; -590.000; -474.000
259.879;   35.475;  217.000;  311.000
260.020;   67.750;  901.000;  636.000
260.162;  -35.075; -146.000; -253.000
260.303; -132.050; -768.000; -687.000
260.445;  -87.350; -609.000; -613.000
260.586;   22.725;  392.000;  157.000
260.728;  -45.150; -360.000; -248.000
260.869; -128.200; -350.000; -343.000
261.011;   77.500;  706.000;  537.000
261.152;  -64.100; -479.000; -319.000
261.293;  -78.250; -576.000; -595.000
261.435;  -39.000; -219.000; -184.000
261.576;  -54.700; -455.000; -325.000
261.718;   53.575;  420.000;  470.000
261.859; -140.400; -940.000; -949.000
262.000; -140.175; -951.000;-1016.000
262.142;  -26.575;  -52.000;  -60.000
262.283; -132.950; -808.000; -691.000
262.424;  -93.125; -666.000; -625.000
262.566; -173.075;-1161.000; -983.000
262.707; -120.400; -840.000; -830.000
262.848; -136.525; -769.000; -726.000
262.990;  -53.700; -362.000; -345.000
263.131;   67.800;  650.000;  681.000
263.272;  -18.325;  -61.000;  -41.000
263.413; -106.275; -589.000; -561.000
263.555;  -59.700; -669.000; -143.000
263.696;  -89.750; -550.000; -641.000
263.837;  -77.200; -449.000; -551.000
263.978;   -6.800;   -5.000;  -77.000
264.119;  -47.325; -283.000; -264.000
264.261; -117.750; -847.000; -630.000
264.402;    4.950;   33.000;   40.000
264.543;  -88.500; -509.000; -524.000
264.684;   -8.850;   61.000;  -50.000
264.825;  -79.275; -816.000; -538.000
264.966;   -1.300;  -84.000;  -67.000
265.107; -115.525; -646.000; -670.000
265.248; -127.500; -825.000; -812.000
265.390;  -22.900;  152.000;   -9.000
265.531;  -27.700; -238.000; -107.000
265.672;  -81.750; -557.000; -630.000
265.813;   49.650;  563.000;  439.000
265.954; -157.850; -959.000; -940.000
266.095;  -25.925; -372.000; -322.000
266.236; -110.850; -686.000; -548.000
266.377;  -44.750; -243.000; -297.000
266.518;  -80.375; -619.000; -547.000
266.659;   19.150;  170.000;  268.000
266.800;   -0.875;   83.000;   85.000
266.941;  -78.775; -487.000; -478.000
267.082;    5.850;  354.000;   99.000
267.223;  -57.125; -344.000; -273.000
267.364; -124.150; -892.000; -686.000
267.504;  -11.050;    3.000;  135.000
267.645;   11.525;  160.000;   67.000
267.786;  -48.650; -147.000;  -86.000
267.927;  -87.775; -473.000; -379.000
268.068;  -28.000; -186.000;  -61.000
268.209;  -43.525; -175.000; -413.000
268.350;  -71.925; -388.000; -532.000
268.490; -101.750; -648.000; -521.000
268.631;   33.225;  127.000;  225.000
268.772; -111.700; -874.000; -647.000
268.913;  -69.350; -328.000; -476.000
269.054;  -12.600; -117.000;   12.000
269.194;  -51.475; -418.000; -402.000
269.335; -160.400;-1137.000;-1074.000
269.476;  -33.300;   33.000;  -35.000
269.617;  -65.100; -347.000; -392.000
269.757; -116.200; -713.000; -646.000
269.898; -119.975; -856.000; -613.000
270.039;  -73.800; -415.000; -405.000
270.180; -142.300; -952.000; -816.000
270.320;  -33.100; -190.000; -250.000
270.461;  -51.275; -277.000; -249.000
270.602;  -27.500; -186.000; -156.000
270.742; -136.400; -868.000; -943.000
270.883;  -64.000; -442.000; -390.000
271.023;  -68.925; -358.000; -357.000
271.164;  -78.625; -607.000; -528.000
271.305; -118.825; -666.000; -654.000
271.445;  -94.350; -722.000; -683.000
271.586;  -80.250; -462.000; -283.000
271.726;  -62.100; -397.000; -322.000
271.867;  -88.375; -594.000; -534.000
272.008;  -52.650; -473.000; -285.000
272.148;   36.675;  462.000;  468.000
272.289;  -19.975; -113.000; -181.000
272.429;  -14.200;   19.000;  185.000
272.570; -111.550; -633.000; -737.000
272.710; -118.525; -825.000; -775.000
272.851;  -28.250;  113.000; -130.000
272.991; -178.325;-1173.000;-1077.000
273.131;  -72.450; -419.000; -459.000
273.272; -110.600; -683.000; -723.000
273.412;  -39.425; -143.000;  -31.000
273.553;  -80.425; -488.000; -507.000
273.693;  117.200;  913.000;  858.000
273.834; -140.750; -894.000; -692.000
273.974; -100.325; -664.000; -615.000
274.114; -113.525; -772.000; -560.000
274.255;   46.475;  414.000;  373.000
274.395;  -48.225; -180.000; -125.000
274.535;   17.625;  199.000;  350.000
274.676;    9.475;  225.000;   94.000
274.816;  -11.625;  110.000;   34.000
274.956; -115.575; -624.000; -690.000
275.097; -148.850;-1014.000; -922.000
275.237; -138.275; -913.000; -803.000
275.377; -106.300; -778.000; -689.000
275.517; -169.000; -878.000; -937.000
275.658;  -75.725; -590.000; -555.000
275.798;  -95.000; -606.000; -413.000
275.938;   14.750;  215.000;  323.000
276.078;  -84.625; -626.000; -395.000
276.218;   -6.625;   99.000;  104.000
276.359; -152.100;-1026.000;-1024.000
276.499;  -93.750; -605.000; -446.000
276.639;  -56.475; -305.000; -151.000
276.779;  -62.650; -475.000; -357.000
276.919; -119.025; -783.000; -624.000
277.059;  -38.150; -261.000; -212.000
277.199;  -50.825; -357.000; -259.000
277.340;   32.425;  287.000;  175.000
277.480; -116.900; -840.000; -693.000
277.620;   20.050;  192.000;   16.000
277.760; -220.100;-1533.000;-1294.000
277.900;   -3.900;  113.000;   33.000
278.040;   -5.150;  137.000;  159.000
278.180;   25.325;  270.000;  170.000
278.320;  -13.050;   21.000;   56.000
278.460;  -82.125; -443.000; -469.000
278.600;  -94.450; -708.000; -598.000
278.740;   42.350;  448.000;  224.000
278.880; -140.250; -768.000; -791.000
279.020;  -37.950; -194.000; -144.000
279.160; -109.000; -672.000; -595.000
279.300; -141.125; -926.000; -873.000
279.440; -125.250; -709.000; -622.000
279.579; -149.625;-1014.000; -929.000
279.719;  -74.000; -410.000; -394.000
279.859;   -8.600;   -4.000;   41.000
279.999;  -31.425; -208.000;  101.000
280.139;  -53.675; -435.000; -387.000
280.279; -120.375; -708.000; -745.000
280.419;  -28.200; -229.000; -147.000
280.559;  -49.750; -259.000; -180.000
280.698; -103.475; -790.000; -639.000
280.838; -118.775; -778.000; -800.000
280.978; -107.100; -846.000; -790.000
281.118; -137.300; -811.000; -704.000
281.257;   -0.675;   24.000;    6.000
281.397; -170.900;-1094.000; -960.000
281.537; -105.775; -599.000; -712.000
281.677;  -31.225; -150.000; -101.000
281.816; -103.250; -700.000; -630.000
281.956;  -55.975; -193.000; -257.000
282.096;  -75.750; -539.000; -396.000
282.235; -122.900; -672.000; -638.000
282.375;  -32.875; -243.000;  -98.000
282.515; -117.400; -715.000; -707.000
282.654;    4.125;   29.000;  106.000
282.794;    5.625;  388.000;  244.000
282.934;  -79.000; -530.000; -491.000
283.073; -141.150;-1030.000; -857.000
283.213;  -78.925; -460.000; -467.000
283.353;  -66.225; -408.000; -349.000
283.492;  -45.975; -264.000; -296.000
283.632;  -67.725; -254.000; -168.000
283.771; -111.250; -859.000; -730.000
283.911;  -65.475; -369.000; -260.000
284.050; -109.700; -794.000; -748.000
284.190; -164.625;-1229.000;-1096.000
284.329; -153.500;-1055.000; -964.000
284.469; -109.350; -516.000; -591.000
284.608;  -80.225; -559.000; -598.000
284.748;  -94.600; -614.000; -570.000
284.887;  -15.000;  -87.000;  -20.000
285.027; -122.850; -844.000; -892.000
285.166;  -50.675; -192.000; -249.000
285.306;  -38.150; -116.000;  -33.000
285.445;  -52.700; -229.000; -343.000
285.584; -109.850; -630.000; -494.000
285.724;  -43.325; -282.000; -322.000
285.863; -130.000; -857.000; -507.000
286.002;  -60.700; -366.000; -276.000
286.142; -127.675; -715.000; -622.000
286.281;  -83.450; -525.000; -493.000
286.420; -100.025; -554.000; -417.000
286.560;   98.225;  653.000;  623.000
286.699; -152.850; -958.000; -912.000
286.838;  -90.525; -590.000; -591.000
286.978; -110.850; -533.000; -537.000
287.117; -151.725;-1085.000; -950.000
287.256;  -49.825; -228.000; -211.000
287.395;  -66.025; -197.000; -378.000
287.535;  -61.050; -370.000; -298.000
287.674;  -94.750; -509.000; -484.000
287.813;   46.050;  661.000;  533.000
287.952; -143.550;-1010.000; -871.000
288.091; -168.275;-1049.000; -915.000
288.231;   -6.225;   13.000;   15.000
288.370; -190.300;-1217.000;-1200.000
288.509; -113.500; -728.000; -645.000
288.648;  -91.825; -770.000; -548.000
288.787;  -36.175; -243.000;  -87.000
288.926;  -78.950; -454.000; -475.000
289.065;   95.600;  859.000;  672.000
289.204;  -61.800; -377.000; -217.000
289.344; -120.600; -791.000; -690.000
289.483;    9.975;  416.000;  304.000
289.622;  -31.700; -291.000; -149.000
289.761;  -41.600; -309.000; -166.000
289.900; -107.400; -785.000; -626.000
290.039;  -26.325;  -12.000;  -95.000
290.178;  -54.875; -274.000; -180.000
290.317; -100.350; -618.000; -479.000
290.456;  -83.125; -463.000; -451.000
290.595; -153.275; -961.000; -833.000
290.734; -154.225; -904.000; -891.000
290.873;  -84.225; -456.000; -420.000
291.011; -122.200; -833.000; -843.000
291.150; -133.625; -770.000; -682.000
291.289;  -49.825; -343.000; -110.000
291.428; -112.700; -599.000; -480.000
291.567;  -68.325; -370.000; -442.000
291.706;   -4.650;  109.000;  154.000
291.845; -101.325; -597.000; -505.000
291.984; -190.600;-1234.000;-1061.000
292.122;   56.225;  602.000;  582.000
292.261;   23.075;  620.000;  463.000
292.400;   -1.950; -144.000;  211.000
292.539; -145.425; -959.000; -813.000
292.678;  -46.200; -325.000; -300.000
292.816; -170.650;-1136.000; -965.000
292.955; -112.825; -844.000; -684.000
293.094;  -38.875; -173.000; -337.000
293.233;  -63.675; -556.000; -400.000
293.371;  -47.000; -225.000;  -84.000
293.510; -131.450; -866.000; -780.000
293.649; -147.700; -959.000; -924.000
293.787; -155.525;-1083.000;-1012.000
293.926;  -40.650; -113.000;  -32.000
294.065;  -68.525; -379.000; -290.000
294.203;   17.350;  298.000;  406.000
294.342;    1.300;   74.000;  156.000
294.481; 6274.850;51180.000; -836.000
294.619;  -46.550; -425.000; -582.000
294.758; -184.225;-1230.000;-1137.000
294.896;  -15.975; -125.000;    5.000
295.035; -172.675;-1040.000;-1006.000
295.174; -148.125;-1082.000; -954.000
295.312;  -70.800; -323.000; -203.000
295.451;  -65.350; -307.000; -428.000
295.589;  -95.350; -389.000; -518.000
295.728;  -15.125; -292.000; -165.000
295.866;  -33.200;  -36.000;  -51.000
296.005;  -90.200; -584.000; -341.000
296.143;  -95.525; -558.000; -596.000
296.282; -126.125; -957.000; -881.000
296.420; -108.525; -657.000; -557.000
296.559; -114.575; -892.000; -633.000
296.697; -125.925; -847.000; -665.000
296.835; -162.825;-1141.000;-1002.000
296.974;  -11.950;  -23.000;   39.000
297.112;  -88.025; -443.000; -504.000
297.251; -134.725; -815.000; -755.000
297.389;  -80.550; -576.000; -438.000
297.527;  -31.625; -145.000;  -83.000
297.666;  -95.350; -486.000; -438.000
297.804;  -75.775; -404.000; -264.000
297.942;  -32.475; -136.000; -161.000
298.081;  -30.525; -183.000;   63.000
298.219;  -31.950;  -17.000;  -19.000
298.357;  -44.025; -144.000;  -71.000
298.495; -138.025; -810.000; -812.000
298.634;  -21.225;  245.000;  219.000
298.772;  -64.975; -220.000; -338.000
298.910;  -81.400; -309.000; -182.000
299.048;  -31.700; -130.000; -153.000
299.187;  -53.850; -350.000; -250.000
299.325;  -15.525;   52.000;  122.000
299.463;  -76.725; -389.000; -299.000
299.601;  -56.200; -327.000; -271.000
299.739; -151.550; -908.000; -883.000
299.877; -119.050; -791.000; -703.000
300.016; -184.375;-1095.000; -935.000
300.154;  -19.600;  -19.000; -161.000
300.292;  -95.600; -428.000; -348.000
300.430;  -64.050; -408.000; -291.000
300.568; -145.250; -940.000; -874.000
300.706;  -85.375; -366.000; -469.000
300.844; -167.825;-1108.000; -979.000
300.982;   29.750;  246.000;  282.000
301.120; -162.225; -965.000; -866.000
301.258; -112.875; -812.000; -705.000
301.396;  -19.950;  104.000;  -41.000
301.534;  -56.400; -218.000; -293.000
301.672;  -99.675; -664.000; -521.000
301.810; -103.900; -613.000; -545.000
301.948;  -18.425;   53.000;  149.000
302.086;  -46.175; -250.000;  -32.000
302.224; -120.925; -610.000; -585.000
302.362; -103.725; -558.000; -622.000
302.500; -158.975; -923.000; -893.000
302.638;   -0.650;  128.000;  245.000
302.776;  -59.725; -352.000; -408.000
302.913;   24.525;  447.000;  236.000
303.051;  -50.375;  -86.000;  -23.000
303.189;    5.000;   90.000;  118.000
303.327;  -60.650; -341.000; -256.000
303.465;  -98.375; -832.000; -588.000
303.603; -127.100; -805.000; -604.000
303.740;   29.375;  417.000;  241.000
303.878; -134.425; -800.000; -759.000
304.016; -122.700; -915.000; -790.000
304.154; -178.500;-1123.000;-1152.000
304.291;  -81.150; -505.000; -554.000
304.429;    2.950;  102.000;   74.000
304.567; -150.125; -908.000; -893.000
304.705;  -87.450; -408.000; -515.000
304.842; -111.150; -616.000; -540.000
304.980;  -15.175;  215.000;   35.000
305.118;  -68.350; -367.000; -365.000
305.255; -160.275; -945.000; -927.000
305.393;    7.800;  178.000;  239.000
305.531; -176.550;-1173.000; -956.000
305.668; -105.025; -663.000; -582.000
305.806;  -87.550; -358.000; -439.000
305.943;  -97.150; -629.000; -637.000
306.081;  -56.525; -378.000; -267.000
306.219; -136.975; -863.000; -748.000
306.356;  -20.475;  158.000;   27.000
306.494;   87.100;  981.000;  761.000
306.631;  -27.100;  -11.000;  -55.000
306.769;  -77.725; -613.000; -485.000
306.906;  -92.050; -284.000; -258.000
307.044;  -83.200; -473.000; -488.000
307.181;  -81.775; -410.000; -332.000
307.319;    6.825;  112.000;   87.000
307.456; -191.700;-1191.000;-1153.000
307.594; -123.175; -980.000; -727.000
307.731;  -44.650; -371.000; -164.000
307.868;  -14.750;  -15.000;   20.000
308.006; -152.600; -961.000; -847.000
308.143;  -98.350; -618.000; -330.000
308.281;  -42.475;  -37.000; -254.000
308.418; -103.175; -748.000; -640.000
308.555; -102.100; -400.000; -250.000
308.693;  -99.700; -577.000; -573.000
308.830; -134.200; -712.000; -657.000
308.967;  -37.450; -215.000;  -95.000
309.105;  -84.800; -507.000; -396.000
309.242;  -72.675; -468.000; -367.000
309.379; -112.425; -577.000; -655.000
309.517; -144.575; -936.000; -948.000
309.654; -141.425; -910.000; -734.000
309.791;  -95.500; -662.000; -580.000
309.928; -161.100; -977.000; -914.000
310.065;   53.500;  819.000;  697.000
310.203; -125.550; -825.000; -850.000
310.340; -101.875; -465.000; -321.000
310.477;  -95.600; -412.000; -516.000
310.614;  -68.750; -383.000; -473.000
310.751;  -88.025; -427.000; -518.000
310.889;  -29.850;    1.000;   11.000
311.026; -191.175;-1161.000; -939.000
311.163;  -72.950; -386.000; -380.000
311.300; -100.425; -512.000; -479.000
311.437;  -90.575; -658.000; -619.000
311.574; -175.050;-1226.000; -985.000
311.711;  -95.525; -595.000; -433.000
311.848;  -58.625; -380.000; -388.000
311.985;   -5.600;  270.000;   93.000
312.122; -155.600; -932.000; -762.000
312.259; -156.625; -941.000; -994.000
312.396; -112.475; -508.000; -551.000
312.533; -104.475; -812.000; -790.000
312.670; -165.450;-1070.000; -898.000
312.807;  -71.725; -352.000; -367.000
312.944; -109.225; -513.000; -611.000
313.081;  -60.775; -150.000; -415.000
313.218; -158.150;-1111.000; -867.000
313.355;  -81.875; -531.000; -449.000
313.492;  -73.400; -455.000; -292.000
313.629;   78.750;  815.000;  735.000
313.766; -184.400;-1176.000;-1008.000
313.902;  -43.400; -186.000;   21.000
314.039;  -80.725; -372.000; -289.000
314.176;    0.925;  286.000;  192.000
314.313; -104.325; -569.000; -473.000
314.450; -112.300; -788.000; -684.000
314.587; -101.150; -468.000; -480.000
314.723;  -26.850;  -78.000;  130.000
314.860;   -0.400;  318.000;  332.000
314.997;   -0.750;  223.000;  142.000
315.134;  -94.675; -385.000; -368.000
315.270;  -92.150; -480.000; -496.000
315.407; -185.025;-1094.000; -967.000
315.544;  -91.175; -657.000; -538.000
315.681; -107.825; -681.000; -565.000
315.817;  -55.050; -133.000; -176.000
315.954;  -89.200; -613.000; -392.000
316.091; -165.125;-1045.000;-1023.000
316.227;  -54.525;  -71.000; -179.000
316.364;  -17.600;   23.000;    6.000
316.500;  -75.575; -113.000; -300.000
316.637;  -48.350; -181.000; -302.000
316.774; -104.025; -625.000; -358.000
316.910; -111.000; -598.000; -629.000
317.047; -111.075; -487.000; -351.000
317.183;  -97.225; -435.000; -566.000
317.320;  -79.675; -367.000; -321.000
317.456; -139.325; -733.000; -805.000
317.593; -124.725; -598.000; -641.000
317.729;   -9.775;  168.000;  -67.000
317.866; -223.050;-1434.000;-1285.000
318.002; -109.350; -708.000; -948.000
318.139; -153.325; -883.000; -867.000
318.275; -137.550;-1003.000; -738.000
318.412;  -93.875; -517.000; -336.000
318.548; -117.100; -751.000; -720.000
318.685; -160.825; -985.000; -888.000
318.821; -132.075; -762.000; -735.000
318.957;  -46.475;   34.000;  -23.000
319.094;   18.650;  297.000;  154.000
319.230; -136.075; -756.000; -742.000
319.367;  -77.750; -471.000; -520.000
319.503;  -96.600; -538.000; -436.000
319.639; -131.275; -877.000; -793.000
319.775; -129.275; -750.000; -685.000
319.912;  -76.675; -424.000; -519.000
320.048; -187.275;-1184.000;-1184.000
320.184;   -2.000;   59.000;   70.000
320.321;  -87.425; -497.000; -467.000
320.457;   26.700;  475.000;  662.000
320.593;  -90.700; -375.000; -382.000
320.729; -123.500; -732.000; -734.000
320.866; -105.525; -577.000; -635.000
321.002; -132.875; -759.000; -809.000
321.138;  -76.650; -135.000; -211.000
321.274;  -29.200; -148.000; -115.000
321.410; -110.375; -585.000; -353.000
321.546; -143.425;-1011.000; -911.000
321.683;    8.125;  400.000;  185.000
321.819;  -36.800;  -48.000; -117.000
321.955; -135.975; -743.000; -722.000
322.091;  -92.875; -585.000; -540.000
322.227;  -80.400; -382.000; -202.000
322.363;  -67.325; -320.000; -215.000
322.499;  -80.600; -343.000; -331.000
322.635;   54.400;  636.000;  443.000
322.771;  -49.025; -139.000;   12.000
322.907;   14.575;  129.000;  327.000
323.043;  -61.000; -115.000; -206.000
323.179;  -78.375; -394.000; -363.000
323.315;  -86.550; -401.000; -371.000
323.451;  -56.525; -328.000; -236.000
323.587;  -47.100;  -60.000;  -77.000
323.723; -113.075; -682.000; -601.000
323.859;  -39.525; -258.000;  -76.000
323.995;  -86.675; -467.000; -409.000
324.131; -146.300; -967.000; -892.000
324.267;  -55.275; -254.000; -276.000
324.402; -157.950; -960.000; -983.000
324.538;  -59.375; -279.000; -104.000
324.674;  -25.575;  164.000;   77.000
324.810;    2.225;  226.000;  308.000
324.946;  -91.600; -810.000; -658.000
325.082;  -98.950; -568.000; -475.000
325.217;  -35.300;  -62.000;   16.000
325.353; -125.500; -764.000; -659.000
325.489; -114.225; -540.000; -506.000
325.625;  -90.000; -579.000; -525.000
325.760;    3.350;  517.000;  376.000
325.896; -113.475; -515.000; -702.000
326.032;  -73.500; -403.000; -352.000
326.168;  -79.800; -462.000; -369.000
326.303;  -72.975; -352.000; -461.000
326.439;  -44.875; -336.000; -276.000
326.575;  -44.375; -190.000;  -29.000
326.710;  -30.675; -156.000;  -30.000
326.846;  -16.500;  146.000;  103.000
326.982;  -99.375; -530.000; -548.000
327.117; -107.575; -481.000; -442.000
327.253; -135.150; -745.000; -742.000
327.388; -206.525;-1137.000;-1153.000
327.524; -116.925; -811.000; -578.000
327.659;  -43.400;  -58.000;  -22.000
327.795;  -39.025;   69.000;   45.000
327.931; -107.375; -723.000; -499.000
328.066;  -55.425; -417.000; -276.000
328.202;  -55.425;   12.000; -129.000
328.337;   84.650;  957.000;  713.000
328.473;   17.225;  -12.000;  -74.000
328.608;  -63.800; -256.000; -267.000
328.743; -140.850; -799.000; -664.000
328.879;   -8.450;  214.000;  114.000
329.014;  -59.400; -102.000; -122.000
329.150; -108.400; -358.000; -483.000
329.285; -107.850; -465.000; -466.000
329.421;  -68.575; -548.000; -246.000
329.556;  -42.025;  -36.000;   85.000
329.691; -116.450; -633.000; -615.000
329.827; -105.025; -626.000; -480.000
329.962;  -67.300;  131.000; -301.000
330.097; -120.950; -673.000; -585.000
330.233;  -59.100; -410.000; -223.000
330.368; -154.750; -839.000; -628.000
330.503;  -18.700;    3.000;   98.000
330.638;  -53.000;  -93.000; -125.000
330.774; -104.100; -609.000; -530.000
330.909;  -60.250; -434.000; -244.000
331.044; -112.775; -714.000; -708.000
331.179; -202.150;-1217.000;-1109.000
331.315;  -20.375;   77.000;   20.000
331.450;  -15.500;  157.000;  285.000
331.585; -131.575; -805.000; -706.000
331.720; -105.650; -510.000; -460.000
331.855;  -43.125;  -35.000; -102.000
331.990;  -24.200;   62.000;  138.000
332.126;  -32.800; -110.000;   71.000
332.261;  -82.650; -379.000; -265.000
332.396;  -57.725; -135.000; -242.000
332.531; -177.525;-1074.000;-1031.000
332.666;  -80.200; -519.000; -363.000
332.801; -137.550; -726.000; -807.000
332.936;  -37.675; -192.000; -122.000
333.071; -171.200; -870.000; -817.000
333.206;   -9.225;  307.000;  379.000
333.341;   18.350;  344.000;  418.000
333.476; -102.550; -627.000; -623.000
333.611;  -67.850; -251.000; -173.000
333.746;  -61.050; -381.000; -464.000
333.881; -145.800; -973.000; -935.000
334.016; -158.125; -936.000; -917.000
334.151; -155.000; -746.000; -702.000
334.286;  -11.525;  152.000;  186.000
334.421;  -39.125; -125.000; -178.000
334.556; -105.775; -611.000; -567.000
334.690; -125.675; -631.000; -577.000
334.825;   25.925;  381.000;   83.000
334.960;  -96.825; -285.000; -413.000
335.095;  -25.000;  135.000;  -91.000
335.230; -142.275; -722.000; -738.000
335.365; -165.525;-1084.000; -990.000
335.499; -174.175;-1108.000;-1037.000
335.634;  -28.850;    9.000;  534.000
335.769; -146.575; -755.000; -720.000
335.904; -121.400; -603.000; -561.000
336.038; -127.550; -735.000; -657.000
336.173; -198.175;-1206.000;-1194.000
336.308;  -72.925; -116.000; -189.000
336.443;  -80.700; -544.000; -634.000
336.577; -150.625; -936.000; -787.000
336.712;  -24.350;   -4.000;  -12.000
336.847; -117.050; -724.000; -607.000
336.981;  -58.075; -272.000; -208.000
337.116;   37.650;  615.000;  501.000
337.250;  -89.975; -434.000; -421.000
337.385;  -81.200; -297.000; -208.000
337.520; -117.275; -632.000; -603.000
337.654;  -77.650; -215.000; -126.000
337.789; -166.000; -989.000; -933.000
337.923;  -47.100; -104.000; -205.000
338.058; -131.125; -673.000; -738.000
338.192; -114.050; -611.000; -488.000
338.327;  -36.950;  -18.000; -155.000
338.461; -104.975; -299.000; -469.000
338.596; -120.975; -780.000; -638.000
338.730; -126.250; -767.000; -803.000
338.865;  -35.675;  -46.000; -140.000
338.999; -149.050; -846.000; -702.000
339.134; -120.800; -634.000; -536.000
339.268; -127.225; -741.000; -603.000
339.403; -135.650; -740.000; -775.000
339.537; -138.600; -894.000; -820.000
339.671; -142.775; -829.000; -813.000
339.806; -117.900; -556.000; -512.000
339.940;  -60.950; -261.000; -235.000
340.074; -128.850; -685.000; -510.000
340.209;  -65.425; -351.000; -230.000
340.343; -119.475; -517.000; -573.000
340.477;  122.575;  998.000; 1036.000
340.612; -167.325;-1033.000; -900.000
340.746;  -59.250; -199.000; -243.000
340.880; -159.025; -924.000; -785.000
341.014;  -38.025;  -45.000; -154.000
341.149; -134.500; -756.000; -718.000
341.283; -135.400; -839.000; -754.000
341.417; -180.500;-1124.000; -938.000
341.551; -128.275; -768.000; -708.000
341.685; -110.250; -633.000; -611.000
341.820;  -99.250; -562.000; -493.000
341.954;  -80.575; -218.000; -349.000
342.088; -172.900;-1102.000;-1019.000
342.222;   47.450;  565.000;  618.000
342.356;  -98.000; -395.000; -335.000
342.490; -147.850; -880.000; -841.000
342.624;  -70.750; -339.000; -242.000
342.758;  -77.100; -364.000; -312.000
342.892; -112.750; -710.000; -585.000
343.026;  -58.425;  -58.000; -116.000
343.160;  -79.875; -426.000; -376.000
343.294; -102.325; -474.000; -337.000
343.428;  -92.225; -488.000; -448.000
343.562;  -52.950; -172.000;  -23.000
343.696;  -82.975; -385.000; -314.000
343.830;  -77.900; -362.000; -356.000
343.964;  -58.050; -231.000; -168.000
344.098;  -43.800;  199.000;   70.000
344.232;  -60.425; -266.000; -127.000
344.366; -118.725; -567.000; -453.000
344.500; -122.825; -665.000; -744.000
344.634;  -77.850; -324.000; -164.000
344.768;  -91.650; -531.000; -341.000
344.902;   -2.500;  278.000;  256.000
345.035;  -95.450; -556.000; -496.000
345.169; -168.450; -933.000; -656.000
345.303;  -87.375; -308.000; -482.000
345.437; -146.800; -826.000; -717.000
345.571; -120.400; -675.000; -594.000
345.704;  -93.900; -309.000; -532.000
345.838;  -58.300; -331.000; -284.000
345.972; -114.025; -543.000; -495.000
346.106;  -30.275; -179.000; -190.000
346.239;  -67.825; -312.000; -243.000
346.373;  -71.050; -343.000; -302.000
346.507; -180.575; -950.000; -962.000
346.640;  -32.050;  -30.000;   13.000
346.774; -134.825; -650.000; -797.000
346.908;  -52.050; -138.000;  -11.000
347.041; -119.825; -646.000; -593.000
347.175;  -17.375;  259.000;   27.000
347.309; -133.675; -698.000; -628.000
347.442; -157.225; -883.000; -732.000
347.576;   47.825;  670.000;  668.000
347.709;  -38.525; -123.000;  -52.000
347.843; -164.825; -933.000; -825.000
347.976;    9.600;  235.000;  294.000
348.110; -207.500;-1268.000;-1186.000
348.243; -125.825; -679.000; -772.000
348.377;  -29.350;  -26.000;   60.000
348.510;   26.350;  403.000;  540.000
348.644;  -62.525;  -37.000; -159.000
348.777;  -28.500;  180.000;  191.000
348.911;  -81.975; -142.000; -112.000
349.044;   30.725;  471.000;  448.000
349.178; -192.225;-1069.000;-1006.000
349.311;  -12.025;  141.000;  255.000
349.444; -155.850; -927.000; -813.000
349.578;  -66.775; -347.000; -200.000
349.711; -173.325; -959.000; -862.000
349.845; -118.025; -661.000; -591.000
349.978; -194.725;-1224.000;-1137.000
350.111; -110.150; -546.000; -612.000
350.244; -132.275; -596.000; -700.000
350.378;  -94.650; -392.000; -393.000
350.511;  -98.150; -393.000; -426.000
350.644; -139.300; -808.000; -806.000
350.778;  -34.200;  168.000;  104.000
350.911;  -13.925;  134.000;  140.000
351.044; -110.675; -685.000; -615.000
351.177;  -71.650; -321.000; -281.000
351.310;  -46.300;    3.000; -131.000
351.444; -147.600; -888.000; -788.000
351.577;  -25.250;  140.000;   90.000
351.710;   57.350;  593.000;  417.000
351.843;  -57.875; -165.000;  -77.000
351.976;  -34.100;  149.000;  -79.000
352.109; -133.025; -621.000; -612.000
352.242;  -90.650; -464.000; -419.000
352.376; -141.675; -580.000; -636.000
352.509;  -97.650; -437.000; -356.000
352.642; -190.350; -654.000; -604.000
352.775;  -47.325; -141.000;  -98.000
352.908; -151.100; -933.000; -904.000
353.041; -148.875; -814.000; -824.000
353.174; -111.750; -551.000; -424.000
353.307; -138.775; -753.000; -764.000
353.440;   29.300;  541.000;  453.000
353.573; -162.375; -957.000;-1008.000
353.706; -111.750; -384.000; -558.000
353.839;  -68.225; -264.000; -220.000
353.971; -117.375; -657.000; -512.000
354.104; -148.700; -896.000; -835.000
354.237; -126.275; -627.000; -662.000
354.370; -140.275; -846.000; -879.000
354.503; -216.050;-1231.000;-1308.000
354.636;  -80.100; -529.000; -348.000
354.769; -174.425; -937.000; -860.000
354.902;  -59.150; -230.000; -139.000
355.034;  -48.875; -164.000; -220.000
355.167;  -72.925; -262.000; -162.000
355.300; -174.925;-1061.000; -880.000
355.433;  -30.925;  -71.000;  -14.000
355.565;  -96.400; -402.000; -384.000
355.698;  -83.700; -356.000; -296.000
355.831; -165.800; -882.000; -801.000
355.964;  -52.725; -285.000; -170.000
356.096; -161.525; -856.000; -843.000
356.229; -116.875; -523.000; -530.000
356.362;  -80.175; -373.000; -266.000
356.494;  -64.625; -229.000; -162.000
356.627;   -1.975;  269.000;  377.000
356.760;  -22.575;  120.000;   53.000
356.892; -128.250; -286.000; -601.000
357.025;    5.900;  403.000;  389.000
357.157;  -60.000; -167.000; -179.000
357.290; -148.850; -856.000; -713.000
357.423; -139.950; -667.000; -556.000
357.555;  -67.325; -217.000; -228.000
357.688; -104.950; -483.000; -364.000
357.820; -153.900; -870.000; -877.000
357.953; -122.425; -563.000; -589.000
358.085; -127.800; -632.000; -612.000
358.218; -186.675;-1131.000; -932.000
358.350;  -39.550;  -58.000;  312.000
358.483; -216.825;-1300.000;-1187.000
358.615; -172.825;-1182.000;-1078.000
358.747; -214.475;-1187.000;-1058.000
358.880; -137.675; -810.000; -744.000
359.012;  -75.675; -376.000; -202.000
359.145; -103.725; -480.000; -511.000
359.277; -182.000; -962.000; -913.000
359.409;   21.900;  536.000;  231.000
359.542; -147.400; -738.000; -688.000
359.674;  -23.750;   46.000;   13.000
359.806; -107.925; -565.000; -438.000
359.939;  -92.525; -617.000; -516.000
360.071; -116.725; -583.000; -579.000
360.203;  -90.050; -411.000; -364.000
360.335;  -41.950;  164.000;  -16.000
360.468;  -54.875; -249.000; -307.000
360.600; -113.400; -547.000; -454.000
360.732; -112.600; -546.000; -423.000
360.864; -205.100;-1216.000;-1044.000
360.996;  -92.350; -516.000; -554.000
361.129; -108.775; -389.000; -598.000
361.261;  -36.075;  110.000; -113.000
361.393;  -77.325; -252.000; -214.000
361.525;  -29.300;   94.000;  244.000
361.657; -140.025; -821.000; -703.000
361.789;  -46.800; -139.000; -155.000
361.921; -128.450; -642.000; -593.000
362.053;   34.150;  524.000;  541.000
362.185;  -32.625;  288.000;   72.000
362.318; -137.875; -709.000; -705.000
362.450;   -3.675;  294.000;  444.000
362.582; -166.600; -913.000; -870.000
362.714;  -89.625; -353.000; -332.000
362.846; -120.975; -606.000; -490.000
362.978; -168.425; -941.000; -811.000
363.109;  -79.725; -161.000; -260.000
363.241; -147.025; -739.000; -749.000
363.373; -110.050; -649.000; -564.000
363.505;  -60.900; -186.000;  -91.000
363.637; -121.200; -787.000; -601.000
363.769; -207.375;-1067.000;-1080.000
363.901; -113.950; -596.000; -654.000
364.033; -187.525;-1103.000;-1062.000
364.165;  -64.925; -283.000; -283.000
364.296;  -86.925; -316.000; -177.000
364.428; -217.775;-1344.000;-1220.000
364.560; -125.300; -679.000; -661.000
364.692; -113.225; -738.000; -835.000
364.824; -114.350; -588.000; -456.000
364.955;  -81.325; -402.000; -564.000
365.087; -184.325;-1097.000; -852.000
365.219; -148.025; -686.000; -816.000
365.351; -121.975; -526.000; -572.000
365.482;   -6.325;  300.000;  240.000
365.614;  -86.550; -402.000; -314.000
365.746; -133.250; -729.000; -752.000
365.877; -140.225; -706.000; -672.000
366.009;  -41.550;  -35.000;  -62.000
366.141; -214.550;-1249.000;-1134.000
366.272; -137.125; -803.000; -719.000
366.404; -155.675;-1005.000; -874.000
366.535;  -41.125; -139.000;  -12.000
366.667; -149.125; -644.000; -649.000
366.799;   17.000;  353.000;  203.000
366.930; -175.425; -862.000; -996.000
367.062; -116.450; -639.000; -613.000
367.193; -167.925; -872.000; -842.000
367.325; -104.550; -580.000; -684.000
367.456;  -76.475; -246.000;   31.000
367.588;  -77.150; -371.000; -318.000
367.719;  -63.725;  -44.000;  -45.000
367.851;  -70.125; -222.000; -241.000
367.982; -162.950; -875.000; -732.000
368.113;  -81.375; -475.000; -358.000
368.245; -187.650; -960.000; -841.000
368.376;  -73.000; -254.000; -302.000
368.508;  -80.625; -188.000; -263.000
368.639; -180.875;-1166.000;-1034.000
368.770; -125.500; -670.000; -589.000
368.902; -145.350; -836.000; -926.000
369.033; -164.400; -906.000; -855.000
369.164; -137.050; -720.000; -653.000
369.296; -135.475; -452.000; -601.000
369.427;  -62.425; -209.000; -144.000
369.558; -114.800; -593.000; -377.000
369.689; -120.475; -721.000; -569.000
369.821; -182.450; -951.000; -845.000
369.952;  -41.025;   42.000; -108.000
370.083;  -86.075; -229.000; -108.000
370.214; -137.475; -735.000; -650.000
370.345;  -42.475;   65.000;   81.000
370.477; -142.075; -810.000; -790.000
370.608;  -85.125; -328.000; -264.000
370.739; -197.100;-1233.000;-1292.000
370.870; -189.800;-1102.000; -923.000
371.001; -101.000; -378.000; -467.000
371.132; -144.125; -754.000; -735.000
371.263;  -49.650;  -42.000; -148.000
371.394; -161.000; -841.000; -748.000
371.525;   -7.725;  345.000;  225.000
371.657; -145.350; -808.000; -670.000
371.788;   -2.275;  103.000;  199.000
371.919;  -97.325; -384.000; -304.000
372.050;  -39.000;  -91.000; -156.000
372.181;  -54.275; -188.000; -294.000
372.311;  -36.825;   42.000; -127.000
372.442; -101.050; -457.000; -451.000
372.573;  -73.000; -444.000; -340.000
372.704; -173.025;-1008.000; -980.000
372.835;  -77.675; -228.000; -289.000
372.966; -137.800; -646.000; -554.000
373.097; -141.625; -575.000; -711.000
373.228; -141.650; -717.000; -542.000
373.359; -135.050; -824.000; -536.000
373.490; -176.100; -881.000; -727.000
373.620; -169.375;-1001.000; -803.000
373.751; -108.025; -332.000; -396.000
373.882; -115.275; -663.000; -733.000
374.013;  -82.725; -449.000; -262.000
374.143; -120.500; -581.000; -659.000
374.274; -183.100; -987.000; -908.000
374.405;  -91.300; -388.000; -276.000
374.536; -119.400; -526.000; -387.000
374.666; -145.575; -759.000; -807.000
374.797; -156.850; -817.000; -868.000
374.928; -121.650; -710.000; -560.000
375.058; -120.900; -535.000; -500.000
375.189;  -58.500;  -59.000;  -93.000
375.320; -177.100; -928.000;-1034.000
375.450; -131.525; -625.000; -616.000
375.581; -118.300; -526.000; -436.000
375.712;  -81.525; -574.000; -250.000
375.842; -116.950; -438.000; -415.000
375.973; -115.750; -554.000; -513.000
376.103; -134.775; -665.000; -648.000
376.234; -117.100; -531.000; -552.000
376.364; -164.975; -944.000; -867.000
376.495;   75.575;  925.000;  529.000
376.625; -120.825; -472.000; -485.000
376.756; -143.575; -709.000; -678.000
376.886; -204.600;-1178.000;-1026.000
377.017; -189.275;-1048.000;-1061.000
377.147; -160.275; -786.000; -782.000
377.278;   -3.775;  174.000;  228.000
377.408; -165.600; -801.000; -815.000
377.538; -141.625; -707.000; -693.000
377.669; -114.900; -537.000; -613.000
377.799; -142.650; -645.000; -635.000
377.929; -126.925; -610.000; -428.000
378.060; -154.450; -781.000; -847.000
378.190; -132.450; -726.000; -531.000
378.320; -101.425; -401.000; -406.000
378.451;  -42.300; -131.000;  -22.000
378.581;  -38.375;  -67.000; -110.000
378.711;   71.525; 1035.000;  866.000
378.841; -127.200; -533.000; -675.000
378.972; -162.200; -871.000; -751.000
379.102; -124.350; -652.000; -579.000
379.232;  -82.425; -126.000;  -73.000
379.362; -162.450;-1001.000; -885.000
379.492; -117.075; -373.000; -424.000
379.623;  -22.600;    0.000;  111.000
379.753; -178.325;-1107.000; -974.000
379.883;  -30.650;   59.000;  156.000
380.013; -202.050;-1081.000;-1017.000
380.143; -193.575;-1097.000;-1056.000
380.273; -168.625; -985.000; -861.000
380.403;  -68.250; -344.000; -257.000
380.533; -145.875; -651.000; -664.000
380.663;  -28.650;  173.000;  128.000
380.793; -197.950;-1027.000;-1074.000
380.923;  -65.650; -103.000;  -34.000
381.053; -138.350; -613.000; -623.000
381.183;  -73.900; -106.000; -248.000
381.313; -127.050; -656.000; -470.000
381.443; -110.425; -692.000; -473.000
381.573; -116.350; -402.000; -409.000
381.703; -209.550;-1249.000;-1095.000
381.833; -222.825;-1454.000;-1336.000
381.963;  -37.725; -134.000;  -87.000
382.093; -181.325; -925.000; -909.000
382.223; -113.600; -713.000; -602.000
382.353; -144.925; -801.000; -608.000
382.482; -177.175;-1091.000; -964.000
382.612; -149.175; -872.000; -644.000
382.742; -114.375; -695.000; -622.000
382.872; -111.300; -565.000; -551.000
383.002;  -20.300;  347.000; -132.000
383.131;  -82.875; -226.000; -160.000
383.261; -124.200; -706.000; -768.000
383.391; -121.750; -552.000; -377.000
383.521;   10.425;  451.000;  263.000
383.650; -176.350; -947.000; -904.000
383.780; -138.175; -783.000; -656.000
383.910;   50.400;  880.000;  802.000
384.039; -148.000; -794.000; -656.000
384.169; -205.950;-1205.000;-1017.000
384.299; -119.675; -650.000; -662.000
384.428; -140.350; -764.000; -680.000
384.558;  -86.400; -308.000; -275.000
384.687;  -97.000; -414.000; -334.000
384.817;  -40.075;   75.000;   -2.000
384.947;  -65.325; -234.000; -141.000
385.076;   83.525;  982.000;  912.000
385.206;   -2.950;  369.000;  480.000
385.335; -104.950; -549.000; -417.000
385.465; -156.475; -655.000; -663.000
385.594;  -47.300;  -53.000;  -44.000
385.724; -181.925; -868.000; -838.000
385.853;  -94.375; -296.000; -270.000
385.982; -150.200; -743.000; -787.000
386.112; -169.200;-1052.000; -871.000
386.241; -103.700; -307.000; -312.000
386.371;  -71.350; -174.000;  -87.000
386.500; -173.100; -825.000; -789.000
386.629; -138.325; -874.000; -817.000
386.759;  -51.425;  -43.000;   68.000
386.888;  -64.950; -170.000; -250.000
387.017; -136.225; -648.000; -620.000
387.147; -156.875; -771.000; -798.000
387.276; -119.850; -410.000; -397.000
387.405;  -85.250; -398.000; -342.000
387.535; -119.125; -452.000; -361.000
387.664; -132.325; -692.000; -620.000
387.793;  -66.475; -198.000; -113.000
387.922;  -24.975;  255.000;  200.000
388.052; -129.825; -576.000; -423.000
388.181;  -82.225; -342.000; -472.000
388.310; -154.650; -889.000; -710.000
388.439; -161.100; -749.000; -742.000
388.568;  -26.625;  365.000;  244.000
388.697; -133.150; -756.000; -653.000
388.826; -119.350; -768.000; -666.000
388.956;  -84.875; -285.000; -307.000
389.085;  -90.575; -347.000; -287.000
389.214; -154.950; -842.000; -872.000
389.343; -130.600; -645.000; -413.000
389.472;   -6.525;  126.000;  149.000
389.601;  -30.775;   91.000;    0.000
389.730; -118.550; -568.000; -687.000
389.859;  -12.950;  226.000;   46.000
389.988;  -86.500; -423.000; -408.000
390.117;  -80.150; -168.000; -146.000
390.246;  -78.675; -331.000; -320.000
390.375; -135.350; -673.000; -626.000
390.504; -140.075; -703.000; -621.000
390.633; -155.475; -672.000; -726.000
390.761; -129.500; -732.000; -645.000
390.890;  -56.600;   -4.000; -130.000
391.019; -108.500; -421.000; -441.000
391.148; -169.275; -826.000; -855.000
391.277; -128.925; -576.000; -493.000
391.406; -163.950; -821.000; -805.000
391.534;  -22.950;  574.000; -301.000
391.663; -136.100; -583.000; -645.000
391.792; -138.950; -673.000; -701.000
391.921;  -35.775;   -3.000;   15.000
392.050;  -92.400; -287.000; -228.000
392.178; -207.825;-1206.000;-1061.000
392.307; -153.450; -758.000; -712.000
392.436; -142.375; -427.000; -641.000
392.564;  -34.100;  166.000;   -6.000
392.693; -156.275; -860.000; -682.000
392.822; -117.575; -529.000; -534.000
392.950; -148.050; -880.000; -714.000
393.079;  -90.475; -188.000; -328.000
393.208; -116.350; -488.000; -511.000
393.336;  -62.675; -170.000; -145.000
393.465;  -84.100; -317.000; -199.000
393.593;  -23.750;   62.000;   79.000
393.722; -195.025;-1121.000; -916.000
393.850;  -58.375; -188.000;  -61.000
393.979; -185.525; -926.000; -805.000
394.107; -131.025; -517.000; -537.000
394.236; -114.900; -570.000; -507.000
394.364;    2.025;  383.000;  206.000
394.493; -159.325; -911.000; -767.000
394.621; -169.800; -955.000; -916.000
394.750; -173.375; -873.000; -923.000
394.878;  -77.050; -247.000; -149.000
395.007; -149.925; -721.000; -807.000
395.135; -143.025; -790.000; -721.000
395.263; -181.925;-1038.000;-1040.000
395.392;  -33.625;  -25.000; -107.000
395.520; -174.325; -818.000; -679.000
395.648; -156.150; -865.000; -915.000
395.777; -103.800; -366.000; -405.000
395.905; -120.850; -449.000; -564.000
396.033;  -55.225;  217.000;  172.000
396.162;  -91.725; -399.000; -453.000
396.290;  -87.175;  -17.000;   -2.000
396.418; -106.800; -555.000; -514.000
396.546; -169.800; -571.000; -466.000
396.674; -169.975; -850.000; -878.000
396.803;  -53.925;  -72.000;  -23.000
396.931;  -74.800; -179.000; -199.000
397.059; -201.575;-1026.000; -989.000
397.187; -166.050;-1026.000; -975.000
397.315; -171.950; -884.000; -649.000
397.443; -128.400; -592.000; -443.000
397.572; -123.600; -578.000; -424.000
397.700; -134.025; -607.000; -614.000
397.828;  -69.525;  120.000;  -90.000
397.956; -107.950; -508.000; -478.000
398.084; -137.125; -767.000; -626.000
398.212;  -32.000;  137.000;  124.000
398.340;  -50.100;  -56.000;  159.000
398.468;  -93.875; -390.000; -169.000
398.596; -173.475; -993.000; -953.000
398.724; -153.775; -762.000; -767.000
398.852; -205.075;-1024.000; -976.000
398.980; -125.975; -560.000; -560.000
399.108; -139.675; -982.000; -735.000
399.236;  -42.825;   13.000;    8.000
399.363;  -32.575;  222.000;  196.000
399.491; -100.400; -404.000; -398.000
399.619; -163.125; -829.000; -800.000
399.747; -162.150; -859.000; -771.000
399.875;  -11.100;  220.000;  234.000
400.003;  -88.925; -359.000; -284.000
400.130; -115.150; -421.000; -341.000
400.258;  -42.925;  -83.000;   38.000
400.386;  -81.000; -352.000; -168.000
400.514; -120.525; -526.000; -587.000
400.641; -182.125; -928.000; -802.000
400.769; -165.650; -979.000; -888.000
400.897; -157.900; -838.000; -793.000
401.025;  -61.125; -166.000; -152.000
401.152;  -20.300;  220.000;   38.000
401.280; -106.850; -430.000; -429.000
401.408; -143.675; -712.000; -576.000
401.535; -142.675; -735.000; -758.000
401.663; -208.850;-1134.000;-1054.000
401.790; -116.550; -514.000; -525.000
401.918;   -0.400;  436.000;  405.000
402.046;  -35.750;  134.000;  122.000
402.173;  -67.050;  -18.000;    7.000
402.301; -102.625; -519.000; -397.000
402.428;    5.550;  528.000;  383.000
402.556; -196.825;-1188.000; -913.000
402.683;  -72.500;  -20.000;   -1.000
402.811;  -49.100;  -37.000; -206.000
402.938;  -50.450;   20.000;   27.000
403.066; -127.425; -574.000; -558.000
403.193;  -49.675;  299.000;  239.000
403.321; -114.925; -396.000; -574.000
403.448;  -45.350;   83.000;   27.000
403.575;  -54.950;  -90.000;  -46.000
403.703; -161.475; -732.000; -557.000
403.830; -115.250; -531.000; -496.000
403.957; -204.400;-1117.000;-1023.000
404.085;  -76.800;  -61.000; -172.000
404.212;  -47.350;  -50.000;   63.000
404.339;  -89.475; -566.000; -306.000
404.467; -122.050; -612.000; -524.000
404.594;  -76.425; -287.000; -227.000
404.721; -151.525; -869.000; -764.000
404.848;  -53.450; -113.000; -202.000
404.976; -173.850; -856.000; -783.000
405.103;  -53.775;  -14.000;  -82.000
405.230;  -50.250;  190.000;  226.000
405.357;  -39.775;  117.000;   44.000
405.484;  -68.125;  -49.000;    5.000
405.612; -117.550; -548.000; -563.000
405.739; -118.125; -488.000; -243.000
405.866;   25.025;  669.000;  385.000
405.993;  -94.825; -398.000; -102.000
406.120; -165.025; -801.000; -887.000
406.247; -102.725; -323.000; -342.000
406.374;   39.225;  540.000;  629.000
406.501; -147.750; -632.000; -702.000
406.628; -110.200; -621.000; -589.000
406.755; -161.100; -803.000; -620.000
406.882;  -90.025; -228.000; -277.000
407.009; -154.150; -719.000; -628.000
407.136; -109.025; -480.000; -401.000
407.263; -177.300; -939.000; -829.000
407.390; -140.225; -692.000; -614.000
407.517; -215.250;-1139.000;-1187.000
407.644; -110.200; -332.000; -256.000
407.771; -114.625; -249.000; -287.000
407.898;  -30.350;  168.000;  328.000
408.025; -129.750; -421.000; -313.000
408.151;  -33.175;   82.000;  153.000
408.278;  -87.750; -267.000; -216.000
408.405; -172.200; -931.000; -899.000
408.532; -140.900; -549.000; -542.000
408.659; -159.250; -677.000; -648.000
408.785; -220.975;-1298.000;-1170.000
408.912;  -75.100; -412.000; -296.000
409.039; -139.300; -610.000; -686.000
409.166; -109.450; -591.000; -555.000
409.292; -128.175; -571.000; -534.000
409.419; -145.575; -665.000; -649.000
409.546; -116.675; -431.000; -192.000
409.672; -131.325; -713.000; -545.000
409.799;  -60.600;  -36.000;   34.000
409.926;  -76.225; -180.000; -179.000
410.052; -201.775;-1127.000;-1091.000
410.179;  -93.075; -368.000; -392.000
410.305; -111.825; -375.000; -493.000
410.432;  -92.300; -220.000; -333.000
410.558; -116.850; -305.000; -380.000
410.685; -133.850; -688.000; -431.000
410.812; -131.750; -409.000; -588.000
410.938; -168.750; -964.000; -808.000
411.065; -136.400; -671.000; -645.000
411.191;  -82.300; -189.000; -174.000
411.317; -161.525; -823.000; -742.000
411.444;  -84.400; -317.000; -246.000
411.570;  -99.775; -339.000; -294.000
411.697; -137.950; -758.000; -752.000
411.823; -206.000; -989.000; -999.000
411.949;  -79.525;  -56.000;   17.000
412.076; -148.475; -539.000; -519.000
412.202; -156.275; -758.000; -757.000
412.329; -167.525; -798.000; -752.000
412.455; -151.850; -821.000; -657.000
412.581;  -48.725;  -15.000;  172.000
412.707; -116.150; -540.000; -457.000
412.834;  -34.050;  156.000;  219.000
412.960; -164.375; -785.000; -784.000
413.086; -169.800; -743.000; -701.000
413.212;   24.725;  604.000;  578.000
413.339; -170.675; -685.000; -701.000
413.465; -108.625; -364.000; -310.000
413.591; -143.100; -757.000; -474.000
413.717;  -91.050; -358.000; -366.000
413.843; -178.300; -839.000; -861.000
413.969;  -94.050;  -47.000; -292.000
414.096; -140.225; -679.000; -679.000
414.222;  -54.250;  -33.000;   85.000
414.348; -140.475; -652.000; -385.000
414.474;  -51.525;   38.000;  -52.000
414.600;  -71.750; -126.000; -144.000
414.726;  -62.350;  -96.000;  -55.000
414.852; -121.725; -365.000; -342.000
414.978;  -35.925;  104.000;  -18.000
415.104;  -51.100;   38.000;   80.000
415.230;  -96.075; -329.000; -330.000
415.356; -124.500; -409.000; -514.000
415.482;  -62.275;   13.000;  -35.000
415.608;  -89.800; -247.000; -323.000
415.734;  -53.900;   67.000;   38.000
415.860; -168.700; -875.000; -767.000
415.986; -142.525; -685.000; -607.000
416.111; -164.750; -798.000; -652.000
416.237; -129.625; -424.000; -571.000
416.363; -165.225; -765.000; -733.000
416.489; -113.525; -324.000; -251.000
416.615; -173.725; -707.000; -742.000
416.741; -145.200; -677.000; -784.000
416.866; -153.475; -673.000; -736.000
416.992; -170.350; -801.000; -818.000
417.118;  -89.525;  -41.000;  -80.000
417.244; -144.900; -798.000; -531.000
417.369; -159.450; -801.000; -612.000
417.495; -104.325; -325.000; -254.000
417.621; -196.200;-1015.000; -803.000
417.746; -113.075; -579.000; -572.000
417.872;  -84.550; -254.000; -144.000
417.998; -120.450; -515.000; -530.000
418.123; -191.925;-1073.000; -845.000
418.249; -123.225; -512.000; -601.000
418.374; -189.375; -916.000; -824.000
418.500; -124.200; -383.000; -482.000
418.626;  -55.025;   70.000;  -59.000
418.751; -115.775; -549.000; -448.000
418.877; -159.650; -637.000; -643.000
419.002; -133.775; -688.000; -560.000
419.128; -170.400; -930.000; -721.000
419.253; -177.625; -967.000; -837.000
419.379; -122.350; -391.000; -338.000
419.504;   -7.225;  325.000;  415.000
419.629;  -99.250; -393.000; -212.000
419.755; -104.325; -317.000; -254.000
419.880;  -89.525;  -98.000;   67.000
420.006;  -85.775; -280.000; -221.000
420.131; -146.050; -662.000; -775.000
420.256; -106.000; -315.000; -316.000
420.382; -136.950; -665.000; -687.000
420.507; -153.625; -649.000; -778.000
420.632; -108.325; -337.000; -339.000
420.758;  -92.000; -251.000; -425.000
420.883; -163.500; -876.000; -672.000
421.008; -152.625; -775.000; -619.000
421.133; -129.975; -509.000; -467.000
421.259;  -84.725; -325.000; -259.000
421.384; -158.650; -834.000; -693.000
421.509; -171.600;-1052.000; -862.000
421.634; -181.550; -936.000; -820.000
421.759; -101.750; -359.000; -327.000
421.885; -147.175; -717.000; -656.000
422.010; -129.675; -673.000; -542.000
422.135; -183.325; -695.000; -727.000
422.260;   -1.425;  340.000;  280.000
422.385;  -84.025;   12.000;  -98.000
422.510;  -39.975;  151.000;  -26.000
422.635;  -78.750;  -87.000;  -43.000
422.760; -143.125; -766.000; -791.000
422.885;  -53.925;  -57.000;  -80.000
423.010;  -68.475; -112.000; -169.000
423.135; -129.875; -481.000; -561.000
423.260;  -68.175; -150.000; -245.000
423.385;  -19.775;  476.000;  222.000
423.510;  -25.950;   71.000;  -22.000
423.635;  -62.775;  133.000;   45.000
423.760;   -2.050;  383.000;  328.000
423.885;  -11.825;  336.000;  391.000
424.010;  -62.625;  -68.000;  -13.000
424.135;  -54.325;    5.000;  -33.000
424.259; -136.875; -654.000; -457.000
424.384; -116.175; -279.000; -272.000
424.509;  -80.900; -260.000; -186.000
424.634; -149.975; -761.000; -623.000
424.759; -141.325; -688.000; -544.000
424.883; -140.225; -506.000; -527.000
425.008; -130.400; -502.000; -410.000
425.133; -154.650; -679.000; -653.000
425.258; -135.600; -517.000; -381.000
425.382; -158.875; -867.000; -774.000
425.507; -126.400; -487.000; -543.000
425.632; -160.850; -802.000; -663.000
425.756;  -81.975; -256.000; -146.000
425.881; -157.900; -831.000; -857.000
426.006; -112.550; -604.000; -355.000
426.130; -168.050; -696.000; -508.000
426.255; -128.575; -611.000; -491.000
426.379;  -88.300; -189.000; -577.000
426.504;   23.525;  660.000;  544.000
426.629; -135.875; -519.000; -466.000
426.753;  -66.350;   64.000;  -46.000
426.878; -104.675; -252.000; -288.000
427.002; -167.000; -651.000; -668.000
427.127;  -84.900;  -35.000; -158.000
427.251;   -9.025;  372.000;  401.000
427.375; -105.900; -191.000; -173.000
427.500; -150.050; -616.000; -610.000
427.624; -111.025; -234.000; -400.000
427.749;  -81.975; -216.000; -225.000
427.873; -131.125; -499.000; -412.000
427.997;  -99.125; -222.000; -230.000
428.122;   36.275;  795.000;  703.000
428.246;   11.600;  433.000;  434.000
428.371; -188.700; -869.000; -773.000
428.495; -145.300; -624.000; -646.000
428.619;  -77.600; -186.000; -117.000
428.743;  -42.250;   65.000;  132.000
428.868; -162.825; -732.000; -643.000
428.992; -100.325; -219.000; -326.000
429.116; -108.150; -329.000; -357.000
429.240;   -4.025;  419.000;  426.000
429.365; -124.250; -454.000; -574.000
429.489; -141.550; -638.000; -647.000
429.613;  -84.750; -236.000; -177.000
429.737; -124.825; -563.000; -432.000
429.861; -101.000; -247.000; -133.000
429.985; -125.750; -425.000; -305.000
430.109; -186.650; -770.000; -908.000
430.234;  -40.700;   76.000;  -50.000
430.358;  -93.750; -250.000; -160.000
430.482; -149.725; -672.000; -564.000
430.606; -144.375; -655.000; -375.000
430.730; -125.150; -437.000; -388.000
430.854; -184.700; -909.000; -835.000
430.978; -159.525; -795.000; -764.000
431.102; -132.825; -499.000; -422.000
431.226; -174.525; -874.000; -815.000
431.350;  -26.500;  345.000;  422.000
431.474; -132.750; -661.000; -373.000
431.597; -202.575;-1060.000; -848.000
431.721; -114.825; -276.000; -267.000
431.845; -167.400; -704.000; -472.000
431.969; -107.100; -304.000; -349.000
432.093; -134.725; -395.000; -317.000
432.217;  -54.600;   32.000;   82.000
432.341; -126.075; -523.000; -518.000
432.464;  -51.675;   96.000;   40.000
432.588; -135.450; -401.000; -329.000
432.712;  -70.350;  -52.000;  -52.000
432.836;  -34.875;  213.000;  263.000
432.959; -123.550; -372.000; -311.000
433.083;  -67.400;   11.000;    2.000
433.207;   12.825;  285.000;  930.000
433.330;  -91.325; -391.000; -200.000
433.454; -142.350; -654.000; -638.000
433.578;   11.675;  583.000;  278.000
433.701; -154.150; -623.000; -675.000
433.825; -118.175; -292.000; -299.000
433.949;  -65.475;   28.000;  -72.000
434.072; -110.375; -410.000; -323.000
434.196;  -88.375; -309.000; -117.000
434.319; 3721.600;25482.000;25124.000
434.443; -149.125; -656.000; -603.000
434.566;  -37.850;  281.000;   62.000
434.690; -143.475; -637.000; -383.000
434.813; -102.650; -251.000; -173.000
434.937; -138.450; -569.000; -696.000
435.060; -117.675; -423.000; -332.000
435.184; -118.850; -492.000; -217.000
435.307;  -55.250;  159.000;  102.000
435.431;  -54.575;  -40.000;   24.000
435.554; -113.450; -399.000; -240.000
435.677; -111.250; -350.000; -258.000
435.801;  -50.900;  -25.000;   49.000
435.924;  -68.800;    1.000;  -67.000
436.048; -194.625;-1019.000; -732.000
436.171;  -93.450; -240.000;  -66.000
436.294; -105.900; -248.000; -229.000
436.417; -198.075; -963.000; -849.000
436.541; -183.575; -814.000; -840.000
436.664;  -79.450; -242.000; -316.000
436.787;  -63.575;   13.000;  113.000
436.910; -149.800; -792.000; -422.000
437.034;  -45.325;  142.000;  143.000
437.157;  -55.750;  -11.000;    0.000
437.280; -126.175; -392.000; -292.000
437.403; -189.775; -982.000; -869.000
437.526; -185.525; -903.000; -865.000
437.649; -120.500; -505.000; -332.000
437.772; -161.200; -692.000; -540.000
437.896;   37.200;  700.000;  544.000
438.019; -161.950; -758.000; -503.000
438.142; -133.450; -596.000; -506.000
438.265; -163.650; -639.000; -670.000
438.388; -121.850; -520.000; -410.000
438.511; -133.525; -597.000; -394.000
438.634; -109.250; -247.000; -125.000
438.757; -175.875; -693.000; -619.000
438.880;  -71.100;  -34.000;  -57.000
439.003; -123.500; -417.000; -437.000
439.126;  -74.650; -287.000; -167.000
439.248;  -88.625;  -98.000; -139.000
439.371;  -60.450;    9.000;  -53.000
439.494;   18.500;  510.000;  439.000
439.617;  -61.975;   65.000;  -88.000
439.740; -203.325; -968.000; -816.000
439.863; -154.475; -755.000; -595.000
439.986; -143.925; -476.000; -431.000
440.108;  -80.650; -161.000; -112.000
440.231; -200.925; -950.000; -836.000
440.354;  -74.175;  -64.000; -150.000
440.477; -171.875; -566.000; -542.000
440.599; -121.025; -200.000; -225.000
440.722; -155.450; -709.000; -586.000
440.845;   65.000;  751.000;  928.000
440.968; -126.850; -415.000; -311.000
441.090;  -92.150; -199.000;  -33.000
441.213; -191.225;-1021.000; -825.000
441.336;  -82.350; -159.000;   -5.000
441.458; -122.425; -549.000; -396.000
441.581; -165.025; -628.000; -629.000
441.703; -109.300; -152.000;   13.000
441.826; -134.475; -557.000; -400.000
441.948;  -71.575;   56.000;   51.000
442.071;   19.750;  555.000;  424.000
442.193; -145.000; -531.000; -485.000
442.316;  -50.550;  152.000;   97.000
442.438;  -99.625; -233.000;  -10.000
442.561;  -27.375;  272.000;  262.000
442.683; -163.900; -809.000; -522.000
442.806;  -60.425;   -8.000;   74.000
442.928; -173.200; -859.000; -604.000
443.051; -134.150; -577.000; -373.000
443.173; -142.075; -341.000; -339.000
443.295; -119.350; -263.000; -371.000
443.418; -113.775; -321.000;  -29.000
443.540;  -74.225; -106.000;   -4.000
443.662; -155.725; -563.000; -465.000
443.785;  -26.750;  335.000;  199.000
443.907; -145.425; -362.000; -208.000
444.029; -158.800; -767.000; -494.000
444.152; -156.025; -644.000; -554.000
444.274;  -51.750;  -18.000;  -24.000
444.396; -150.200; -461.000; -221.000
444.518; -144.500; -691.000; -454.000
444.640; -130.750; -268.000; -111.000
444.763;  -34.600;  388.000;  249.000
444.885; -147.075; -432.000; -392.000
445.007;  -50.125;   35.000;   86.000
445.129; -141.675; -610.000; -515.000
445.251; -131.575; -372.000; -439.000
445.373; -159.150; -537.000; -386.000
445.495;  -12.750;  242.000;  350.000
445.617;   38.975;  853.000;  753.000
445.739; -110.300; -215.000;  -97.000
445.861;  -86.050; -245.000; -112.000
445.984;  -87.650; -267.000; -101.000
446.105; -122.875; -418.000; -251.000
446.227;  -93.650; -176.000;  -19.000
446.349; -136.325; -358.000; -249.000
446.471; -141.075; -615.000; -448.000
446.593; -116.000; -316.000;   19.000
446.715;  -81.725;  -67.000;   41.000
446.837;   44.575;  697.000;  832.000
446.959; -128.225; -457.000; -478.000
447.081; -160.900; -628.000; -518.000
447.203;   49.975;  862.000;  834.000
447.325; -121.250; -270.000;   42.000
447.446;  -30.100;  286.000;  530.000
447.568; -195.275; -921.000; -803.000
447.690; -117.475; -236.000; -245.000
447.812; -171.375; -798.000; -519.000
447.933;  -38.450;  155.000;  127.000
448.055; -107.325; -306.000; -261.000
448.177;  -51.025;   31.000;   79.000
448.299; -198.250; -935.000; -727.000
448.420;  -44.050;  -25.000;  159.000
448.542;  -71.450;   -3.000;   33.000
448.664;  -39.875;  109.000;  322.000
448.785;  -48.625;  265.000;   83.000
448.907; -143.950; -614.000; -353.000
449.028; -171.675; -771.000; -471.000
449.150;   20.050;  492.000;  589.000
449.272; -207.200;-1044.000; -913.000
449.393;   10.350;  612.000;  694.000
449.515; -187.300; -634.000; -581.000
449.636; -113.375; -264.000; -155.000
449.758;    2.675;  763.000;  622.000
449.879; -122.550; -498.000; -396.000
450.001;  -99.375; -149.000;  -49.000
450.122;  -63.100;  -95.000;  162.000
450.244;  -68.050;   37.000;  364.000
450.365; -126.125; -495.000; -301.000
450.486;  -74.475;   80.000;  268.000
450.608;  -31.675;  393.000;  326.000
450.729;    0.000;  578.000;  645.000
450.850; -149.800; -574.000; -466.000
450.972; -162.650; -552.000; -389.000
451.093;  -22.825;  190.000;  588.000
451.214; -140.425; -516.000; -337.000
451.336;   14.975;  773.000;  579.000
451.457;  -39.325;  264.000;  393.000
451.578;  -85.850; -118.000;  -74.000
451.699; -160.550; -546.000; -540.000
451.821; -100.475; -284.000;  -50.000
451.942;  -40.600;  278.000;  285.000
452.063;  -30.175;  228.000;  419.000
452.184; -103.250;  -54.000;  -49.000
452.305;  -50.325;  103.000;  170.000
452.427; -130.175; -549.000; -301.000
452.548;  -79.900;   23.000;   79.000
452.669; -120.900; -257.000;  -89.000
452.790;  -78.525;    3.000;  -18.000
452.911;  -53.250;  195.000;  259.000
453.032; -104.200; -289.000;  -60.000
453.153;  -81.525;  -29.000;   81.000
453.274;   31.825;  737.000;  868.000
453.395;  -98.825;  -51.000;  175.000
453.516;   85.525; 1317.000; 1388.000
453.637; -117.575; -205.000; -150.000
453.758;  -84.725;   15.000;   69.000
453.879; -140.225; -462.000; -250.000
454.000;   53.575; 1086.000;  948.000
454.121; -149.600; -554.000; -326.000
454.242; -148.875; -599.000; -383.000
454.362;  -83.975;  -99.000;  114.000
454.483; -114.350; -309.000; -229.000
454.604;  -21.700;  512.000;  580.000
454.725; -153.525; -627.000; -555.000
454.846; -147.825; -474.000; -406.000
454.967;  -47.075;  230.000;  539.000
455.087;  -48.700;  179.000;  153.000
455.208;   -0.600;  554.000;  856.000
455.329;  -92.475;  -22.000;   82.000
455.450;   -9.000;  473.000;  633.000
455.570; -115.850; -234.000; -211.000
455.691;  -72.050;  201.000;  407.000
455.812; -134.000; -270.000;  -92.000
455.932;  -64.425;  107.000;  -97.000
456.053;  -89.825;   36.000;   24.000
456.173; -126.900; -433.000; -355.000
456.294; -169.000; -476.000; -303.000
456.415;  -88.650;  -73.000;   70.000
456.535;  -59.150;  297.000;  273.000
456.656;  -61.450;  132.000;  240.000
456.776;  -96.525;    3.000;  298.000
456.897;  -25.850;  308.000;  513.000
457.017; -117.950; -153.000;   -3.000
457.138; -136.050; -402.000; -249.000
457.258;  -49.975;  263.000;  224.000
457.379;  -20.400;  509.000;  521.000
457.499;  -41.625;  443.000;  432.000
457.620; -142.625; -407.000; -231.000
457.740; -119.825; -132.000;  -11.000
457.860;  -81.425;   87.000;   44.000
457.981;  -75.200;  132.000;  124.000
458.101; -115.850;  -89.000;   40.000
458.221;  -41.650;  336.000;  402.000
458.342;  -68.625;   -4.000;  -37.000
458.462;  -36.850;  617.000;  352.000
458.582; -134.225; -302.000; -294.000
458.703;  -82.775;  303.000;  154.000
458.823;  -75.250;   22.000;  163.000
458.943;  -48.625;  341.000;  467.000
459.063;  -71.725; 1124.000;  192.000
459.183;  -67.200;  328.000;  313.000
459.304;  -26.100;  315.000;  517.000
459.424; -111.125; -246.000;  -89.000
459.544;   -4.600;  388.000;  764.000
459.664;  -13.750;  499.000;  506.000
459.784;   51.425; 1004.000; 1175.000
459.904;   -3.525;  867.000;  744.000
460.024;   23.650;  867.000;  684.000
460.144;  -25.675;  449.000;  554.000
460.264;  -23.850;  515.000;  327.000
460.385; -104.975; -145.000; -119.000
460.505;   30.300;  905.000;  858.000
460.625; -111.675;  -17.000;  -68.000
460.745;  -39.575;  396.000;  541.000
460.864;  -74.025;  153.000;  469.000
460.984;  -32.825;  499.000;  573.000
461.104;  113.100; 1656.000; 1775.000
461.224;   -1.025;  657.000;  650.000
461.344;  -63.800;  431.000;  360.000
461.464;  -54.650;  258.000;  513.000
461.584;  -52.650;  283.000;  466.000
461.704;  -91.150;   58.000;  108.000
461.824;  -73.950;  238.000;  259.000
461.943;  -52.125;  191.000;  130.000
462.063; -101.650;    2.000;  324.000
462.183;    8.100;  639.000;  717.000
462.303;   69.000; 1678.000; 1230.000
462.422;   11.700;  781.000;  840.000
462.542;  -75.575;  271.000;  391.000
462.662;  -32.200;  353.000;  380.000
462.782;  -17.100;  833.000;  572.000
462.901;  -21.925;  545.000;  717.000
463.021;  103.425; 1702.000; 1638.000
463.141;  -35.225;  337.000;  770.000
463.260;  -33.525;  614.000;  474.000
463.380;   14.150;  902.000;  884.000
463.499;  -56.725;  342.000;  332.000
463.619;  -47.350;  581.000;  559.000
463.738;   97.475; 1644.000;  903.000
463.858;    3.600;  657.000;  811.000
463.978;  -53.225;  542.000;  396.000
464.097;   37.200;  921.000; 1114.000
464.217;   36.625; 1196.000; 1143.000
464.336;   47.100; 1068.000; 1130.000
464.455;  -67.900;  328.000;  659.000
464.575;  -31.525;  597.000;  602.000
464.694;   50.450; 1204.000; 1179.000
464.814;   27.250; 1190.000; 1138.000
464.933;   37.125; 1095.000; 1027.000
465.052;   65.050; 1412.000; 1054.000
465.172;    4.725;  922.000;  799.000
465.291;   80.950; 1376.000; 1320.000
465.410;  -20.050;  462.000;  735.000
465.530;   71.100; 1355.000; 1310.000
465.649;   37.575; 1209.000; 1273.000
465.768;  110.025; 1673.000; 1508.000
465.888;   15.500;  941.000; 1174.000
466.007;   65.175; 1335.000; 1440.000
466.126;  -27.650;  721.000;  641.000
466.245;   43.975; 1176.000; 1187.000
466.364;   -0.875;  950.000; 1060.000
466.484;   38.725; 1024.000; 1213.000
466.603;   10.925; 1101.000; 1222.000
466.722;   94.475; 1490.000; 1769.000
466.841;   46.825; 1151.000; 1401.000
466.960;    4.775; 1069.000;  972.000
467.079;  132.150; 1971.000; 1786.000
467.198;   51.350; 1238.000; 1181.000
467.317;   78.550; 1768.000; 1162.000
467.436;   49.950; 1709.000; 1261.000
467.555;  116.050; 1796.000; 1746.000
467.674;   64.900; 1227.000; 1329.000
467.793;   27.425; 1376.000; 1374.000
467.912;   66.775; 1658.000; 1539.000
468.031;  120.550; 2038.000; 1930.000
468.150;  125.425; 1842.000; 1837.000
468.269;  154.775; 2313.000; 2090.000
468.388;  176.525; 2168.000; 2339.000
468.507;  247.200; 2884.000; 2903.000
468.626;  226.800; 2555.000; 2541.000
468.744;  135.675; 2018.000; 2174.000
468.863;  181.775; 2312.000; 2523.000
468.982;   60.500; 1503.000; 1555.000
469.101;  213.575; 2788.000; 2692.000
469.220;  134.400; 2333.000; 2176.000
469.338;  230.150; 2935.000; 3051.000
469.457;  156.900; 2719.000; 2545.000
469.576;  325.050; 3953.000; 3784.000
469.695;  222.275; 2877.000; 3066.000
469.813;  407.575; 4148.000; 4192.000
469.932;  387.425; 4255.000; 4485.000
470.051;  357.350; 4075.000; 4161.000
470.169;  384.450; 4470.000; 4338.000
470.288;  426.450; 4700.000; 4809.000
470.406;  468.625; 5059.000; 5194.000
470.525;  564.425; 6101.000; 5787.000
470.644;  630.400; 6847.000; 6794.000
470.762;  792.700; 8397.000; 7873.000
470.881;  818.200; 8651.000; 8464.000
470.999;  970.325; 9685.000; 9151.000
471.118; 1093.825;11174.000;10711.000

