
Integration time [ms]: 100.000
Averaging Nr. [scans]: 40
Smoothing Nr. [pixels]: 0
Data measured with spectrometer [name]: 2101012U2
Wave   ;Sample   ;Dark     ;Reference
[nm]   ;[counts] ;[counts] ;[counts] 

197.733;   61.625;  516.000;  404.000
197.879;  -78.350; -610.000; -634.000
198.025;  -39.650; -475.000; -420.000
198.171;  -73.375; -602.000; -612.000
198.317;  -32.400; -401.000; -316.000
198.463;  -62.425; -655.000; -404.000
198.609;   43.275;  181.000; -137.000
198.755;  -83.525; -644.000; -410.000
198.901;  -62.750; -505.000; -424.000
199.047;  -56.025; -615.000; -488.000
199.193;  -43.275; -230.000; -468.000
199.339;  -48.750; -222.000; -369.000
199.485;   39.500;  330.000;  271.000
199.631;   18.800;  227.000;  310.000
199.777;  -37.600; -466.000; -398.000
199.923;  -60.800; -610.000; -424.000
200.069;    5.850; -141.000;  -58.000
200.215;   56.800;  128.000;  453.000
200.361;   54.550;  243.000;  477.000
200.507;  -58.800; -600.000; -373.000
200.653;  -15.550; -371.000; -194.000
200.798;  -36.900; -215.000; -125.000
200.944;   -0.300; -146.000;  -41.000
201.090;   36.450;   61.000;  222.000
201.236;   -7.350; -116.000; -158.000
201.382;  113.525;  874.000;  903.000
201.528;    8.475;  -58.000;  -48.000
201.674;  -48.450; -386.000; -293.000
201.819;  -50.575; -540.000; -439.000
201.965;  -91.700; -699.000; -447.000
202.111;  -20.200; -273.000; -226.000
202.257;  -27.825; -250.000; -238.000
202.402;    3.725;   13.000;  -36.000
202.548;  -27.975; -169.000; -116.000
202.694;   97.550;  410.000; -183.000
202.840;  -74.250; -603.000; -531.000
202.985;  -72.325; -681.000; -639.000
203.131; -103.925; -832.000; -666.000
203.277;  -32.275; -199.000; -262.000
203.423;  -43.425; -434.000; -520.000
203.568;  -44.175; -462.000; -237.000
203.714;  -62.625; -535.000; -542.000
203.860;  -76.075; -682.000; -641.000
204.005;    7.475;  112.000;  167.000
204.151;   79.725;  561.000;  556.000
204.296;  -46.175; -354.000; -221.000
204.442;  -75.625; -600.000; -547.000
204.588;  -74.650; -592.000; -579.000
204.733;   22.850;  178.000;  168.000
204.879; -125.875;-1018.000; -822.000
205.025;   18.975;  -99.000;  126.000
205.170;    3.700;  -17.000;   94.000
205.316;   85.175;  438.000;  661.000
205.461;  -86.225; -698.000; -554.000
205.607;   97.800;  609.000;  665.000
205.752;  -75.200; -626.000; -551.000
205.898;  -42.600; -501.000; -391.000
206.043;  -63.800; -578.000; -506.000
206.189;  -28.425; -243.000; -285.000
206.334;   72.350;  554.000;  606.000
206.480;   88.850;  409.000;  239.000
206.625;  -68.625; -529.000; -552.000
206.771;  -48.425; -451.000; -373.000
206.916;  -33.125; -210.000; -537.000
207.062;  -59.875; -545.000; -591.000
207.207;  -54.475; -546.000; -443.000
207.353;   41.975;  185.000;  460.000
207.498;   24.125;  196.000;   85.000
207.643;  -37.825; -501.000; -370.000
207.789; -118.850;-1069.000; -910.000
207.934;  -92.900; -665.000; -713.000
208.080;  -16.525; -154.000;   66.000
208.225;   -3.900;  -22.000;  -57.000
208.370;  -86.825; -727.000; -619.000
208.516;  -73.925; -741.000; -487.000
208.661;  -18.325; -127.000;  -69.000
208.806;  -29.675; -165.000; -171.000
208.952; -128.000;-1044.000; -731.000
209.097;   90.050;  378.000;  349.000
209.242;  -35.725; -307.000; -382.000
209.387;   61.850;  392.000;  350.000
209.533;  -39.525; -321.000; -350.000
209.678;   82.725;  472.000;  543.000
209.823;  -42.175; -408.000; -310.000
209.969;  -92.500; -860.000; -757.000
210.114;  -93.550; -907.000; -719.000
210.259; -103.225; -939.000; -889.000
210.404;  -19.225; -171.000;  103.000
210.549;   11.775;  108.000;    3.000
210.695;  -13.625;   -3.000;  -95.000
210.840;   44.275;   94.000;   67.000
210.985;  -62.050; -484.000; -303.000
211.130;   92.400;  268.000;  406.000
211.275;   17.075;  207.000;  199.000
211.420;  -45.975; -300.000; -289.000
211.566;  -54.100; -536.000; -489.000
211.711;   28.375;  218.000;  157.000
211.856;  -54.750; -545.000; -519.000
212.001;    8.025;  151.000;   44.000
212.146;   15.800;  153.000;   49.000
212.291;  -16.300; -210.000; -186.000
212.436;  -20.425; -280.000;   -6.000
212.581;  -69.925; -685.000; -653.000
212.726;  -63.250; -487.000; -538.000
212.871;  -31.325; -552.000; -217.000
213.016; -153.850;-1172.000;-1029.000
213.161;   54.150;  406.000;  291.000
213.306;  -67.450; -435.000; -577.000
213.451;  -82.475; -778.000; -689.000
213.596;  -50.200; -455.000; -347.000
213.741;  -55.050; -448.000; -538.000
213.886;  -68.525; -498.000; -517.000
214.031;  -23.275; -294.000; -124.000
214.176;  -51.500; -408.000; -341.000
214.321;  -19.400; -296.000; -157.000
214.466;  -25.675; -163.000;  -43.000
214.611;   11.100;  -61.000;  -10.000
214.756; -118.975; -948.000; -858.000
214.901;  -25.475; -388.000; -226.000
215.046; -111.800; -797.000; -825.000
215.191;   33.500;  128.000;   35.000
215.336;   -9.350; -157.000;  -19.000
215.480;  -60.575; -684.000; -505.000
215.625;   -3.875; -175.000;  -19.000
215.770;  -76.400; -757.000; -662.000
215.915;   -8.025;   -5.000;  -97.000
216.060;    4.675; -113.000;  -21.000
216.205; -102.150; -731.000; -779.000
216.349;  -60.475; -470.000; -533.000
216.494; -126.250; -939.000; -867.000
216.639; -112.550; -823.000; -888.000
216.784;  -83.525; -577.000; -525.000
216.929;   49.975;  392.000;  281.000
217.073;  -11.225; -244.000;  -31.000
217.218;    4.050;   78.000;  -47.000
217.363;  -91.575; -656.000; -618.000
217.507;  -63.350; -623.000; -588.000
217.652; -125.125; -845.000; -874.000
217.797;  -92.875; -708.000; -659.000
217.942; -109.050; -856.000; -720.000
218.086;   79.825;  608.000;  539.000
218.231;  -11.125; -174.000;  -26.000
218.376;  -27.100; -337.000; -229.000
218.520;   14.600;  -41.000;   96.000
218.665;  -23.950; -338.000; -204.000
218.810;  -37.300; -275.000; -233.000
218.954;   26.325;  201.000;   35.000
219.099; -109.475; -713.000; -963.000
219.243;  -77.725; -589.000; -554.000
219.388;  -31.475; -264.000; -136.000
219.532;   -9.975; -116.000; -116.000
219.677;  -75.800; -564.000; -521.000
219.822;   17.775;   33.000;   89.000
219.966;   12.625;   17.000;  -99.000
220.111;  -36.350; -328.000;  -40.000
220.255;  -80.750; -797.000; -750.000
220.400;  -16.100; -180.000; -146.000
220.544;  -76.275; -516.000; -450.000
220.689;  -62.500; -422.000; -451.000
220.833;  -19.000; -123.000;  -58.000
220.978;  -42.925; -393.000; -563.000
221.122;   28.575;  319.000;  307.000
221.267; -107.175; -906.000; -837.000
221.411;  -72.275; -478.000; -394.000
221.555;   -5.175; -104.000;  -23.000
221.700;  -50.400; -329.000; -222.000
221.844;   28.150;  255.000;  272.000
221.989;  -50.225; -328.000; -311.000
222.133;  -25.300; -289.000; -307.000
222.277;   -4.600;    5.000;   78.000
222.422;   36.750;  227.000;  113.000
222.566;  -46.425; -381.000; -214.000
222.711;  -52.425; -414.000; -479.000
222.855;  -73.600; -643.000; -586.000
222.999;  -82.025; -642.000; -717.000
223.144;  -18.525; -195.000; -194.000
223.288;   55.925;  423.000;  251.000
223.432;   27.250;  184.000;  230.000
223.576;   21.100;  152.000;  -21.000
223.721;   40.700;  364.000;  273.000
223.865;  -52.375; -472.000; -475.000
224.009;  220.225; 1673.000; 1631.000
224.153;  -81.425; -660.000; -671.000
224.298;  -73.700; -531.000; -489.000
224.442;   -8.400;  -74.000;  -33.000
224.586;  -14.025; -169.000; -106.000
224.730;  -84.425; -858.000; -670.000
224.875; -109.650; -739.000; -688.000
225.019;   17.950;  102.000;  188.000
225.163;   68.325;  208.000;  341.000
225.307;   11.175;   97.000;  -91.000
225.451;   42.175;  360.000;  481.000
225.595;   38.700;  264.000;  176.000
225.739;  -12.500; -170.000;  -94.000
225.884;    3.850;   86.000;    5.000
226.028;  -97.225; -760.000; -626.000
226.172;  -33.575; -260.000; -273.000
226.316; -136.725; -941.000; -902.000
226.460;  -76.400; -645.000; -493.000
226.604;  -56.050; -406.000; -400.000
226.748;  -97.450; -836.000; -733.000
226.892;  -32.900; -227.000; -181.000
227.036;  -39.950; -537.000; -447.000
227.180;  -60.250; -551.000; -375.000
227.324;  -65.950; -561.000; -580.000
227.468; -109.900; -819.000; -717.000
227.612;   25.600;  242.000;  -28.000
227.756; -110.225; -845.000; -698.000
227.900;   63.850;  342.000;  441.000
228.044;  -51.925; -509.000; -290.000
228.188;   73.150;  448.000;  568.000
228.332;  -84.025; -546.000; -472.000
228.476;  -27.750; -223.000; -149.000
228.620;  -20.850; -210.000; -150.000
228.764;   70.250;  431.000;  349.000
228.908;  -33.000; -155.000;   30.000
229.052;  -47.500; -615.000; -528.000
229.195;  -12.850; -172.000;   13.000
229.339;  -30.600; -235.000; -305.000
229.483;  -25.350;    5.000; -162.000
229.627;    4.350; -156.000;  139.000
229.771;  -58.850; -218.000; -294.000
229.915;    3.150;  230.000;   79.000
230.059;  -71.975; -648.000; -663.000
230.202;  -32.975; -370.000; -317.000
230.346;   -3.975; -107.000;  107.000
230.490;  -65.425; -489.000; -521.000
230.634;  -99.925; -736.000; -553.000
230.777;   69.025;  478.000;  509.000
230.921;  -67.850; -450.000; -359.000
231.065;  -30.125; -246.000; -286.000
231.209;   27.150;  261.000;  265.000
231.352;   18.950;   54.000;   40.000
231.496;   21.850;  568.000;  188.000
231.640;  -86.050; -693.000; -621.000
231.783;   66.775;  546.000;  525.000
231.927;  -40.750; -294.000; -365.000
232.071; -122.775; -962.000; -736.000
232.214; -106.525; -980.000; -764.000
232.358;  -80.825; -683.000; -599.000
232.502;    2.325;  -19.000;    7.000
232.645; -139.025;-1090.000; -927.000
232.789;   -9.475; -257.000; -218.000
232.933;  -38.275; -407.000; -224.000
233.076; -117.475;-1038.000; -897.000
233.220; -105.000; -752.000; -777.000
233.363;  -71.700; -669.000; -477.000
233.507;   45.900;  371.000;  129.000
233.650; -106.975; -764.000; -834.000
233.794;   42.175;  438.000;  461.000
233.938;  -64.175; -530.000; -362.000
234.081;  -10.300;  -93.000;   31.000
234.225;  -62.275; -631.000; -539.000
234.368;  -92.050; -773.000; -723.000
234.512;  -41.875; -385.000; -299.000
234.655;  -86.600; -582.000; -555.000
234.798;  -61.575; -493.000; -466.000
234.942; -140.000; -884.000;-1002.000
235.085;  -71.325; -651.000; -443.000
235.229;  -75.250; -405.000; -410.000
235.372;  -38.575; -247.000; -191.000
235.516;  -50.350; -397.000; -321.000
235.659;   22.175;   92.000;  121.000
235.802;   -3.325;  -38.000;  -22.000
235.946;   24.325;  335.000;  215.000
236.089;   31.175;  126.000;  250.000
236.233;   40.125;  275.000;  298.000
236.376;  -44.350; -235.000; -378.000
236.519;  -52.700; -297.000; -319.000
236.663;  -22.050; -215.000; -117.000
236.806; -128.900;-1029.000; -999.000
236.949;   70.750;  543.000;  431.000
237.092;   60.100;  412.000;  391.000
237.236;  -72.050; -589.000; -502.000
237.379;   74.675;  352.000;  428.000
237.522; -122.850; -879.000; -768.000
237.666;  -13.100; -271.000;   18.000
237.809; -124.150; -851.000; -823.000
237.952;   30.950;  469.000;  271.000
238.095;  -63.200; -447.000; -442.000
238.238;   90.700;  688.000;  700.000
238.382;    0.600;  166.000;  103.000
238.525;  -66.900; -598.000; -511.000
238.668; -131.800;-1060.000; -985.000
238.811;  -81.300; -638.000; -643.000
238.954;  -71.075; -483.000; -334.000
239.097;   91.750;  617.000;  664.000
239.241;   19.125;  394.000;  326.000
239.384;  -31.025; -254.000; -214.000
239.527;  -43.600; -424.000; -224.000
239.670; -148.500; -994.000;-1091.000
239.813;  -94.750; -696.000; -658.000
239.956;   83.475;  579.000;  473.000
240.099; -109.625; -778.000; -725.000
240.242;   61.725;  428.000;  432.000
240.385;   50.075;  466.000;  450.000
240.528;  -60.400; -706.000; -473.000
240.671;   20.425;  189.000;  134.000
240.814;  -35.275; -441.000; -158.000
240.957;  -86.750; -767.000; -578.000
241.100;  -85.875; -779.000; -755.000
241.243; -133.625;-1234.000; -893.000
241.386;  -60.575; -508.000; -379.000
241.529;  -87.475; -735.000; -547.000
241.672;  -76.075; -566.000; -495.000
241.815; -116.275; -832.000; -808.000
241.958;  -27.825; -125.000; -182.000
242.101;  -77.000; -545.000; -390.000
242.244;  -35.925; -270.000; -325.000
242.387;  -29.800; -304.000; -246.000
242.530;   64.775;  470.000;  134.000
242.673;  -44.225; -381.000; -309.000
242.815; -111.650; -925.000; -899.000
242.958;  -69.300; -482.000; -381.000
243.101;    4.150;  132.000;  187.000
243.244;  -90.550; -564.000; -521.000
243.387;  -39.800; -313.000; -316.000
243.530;  -97.675; -657.000; -674.000
243.672;    5.800;   43.000;  -92.000
243.815;  -52.725; -355.000; -283.000
243.958;   -1.925;   98.000;  -26.000
244.101;    5.175;   59.000;  -16.000
244.243;    0.475;  -47.000;  101.000
244.386; -115.675; -761.000; -630.000
244.529;  -28.750; -132.000; -139.000
244.672; -143.975;-1154.000; -951.000
244.814;  -88.875; -621.000; -794.000
244.957;  -45.875; -380.000; -304.000
245.100;  -69.475; -489.000; -489.000
245.242;  -64.550; -387.000; -374.000
245.385;   -4.725;  -59.000;  -39.000
245.528; -115.800; -871.000; -705.000
245.670;   88.800;  612.000;  634.000
245.813;  -75.825; -599.000; -547.000
245.956;  -20.475; -324.000; -275.000
246.098;  -79.100; -508.000; -650.000
246.241;    3.000;  194.000;   48.000
246.383;   -7.625; -119.000;  -73.000
246.526;  -60.425; -454.000; -525.000
246.669; -116.800; -889.000; -780.000
246.811;   22.025;  172.000;   -1.000
246.954;  -58.950; -512.000; -426.000
247.096;   -8.425;  -84.000;   -6.000
247.239;  -72.250; -482.000; -445.000
247.381;  -80.875; -647.000; -488.000
247.524;   84.425;  645.000;  679.000
247.666;    4.700;   58.000;   11.000
247.809; -121.075; -887.000; -691.000
247.951;  -15.725;  -75.000;  138.000
248.094;   31.300;  432.000;  308.000
248.236; -158.875;-1262.000;-1238.000
248.378;   11.250; -356.000;  -81.000
248.521;  -15.975; -334.000; -337.000
248.663;  -26.400; -236.000; -267.000
248.806;  -26.725; -300.000; -266.000
248.948;  -86.325; -886.000; -763.000
249.090;  -31.450; -428.000; -398.000
249.233;  -51.025; -344.000; -381.000
249.375;  -54.000; -474.000; -451.000
249.518;  -13.475;  -83.000; -133.000
249.660;    6.850; -103.000;    3.000
249.802; -177.025;-1303.000;-1189.000
249.945;  -66.875; -612.000; -540.000
250.087; -109.600; -834.000; -768.000
250.229;  -46.150; -362.000; -480.000
250.371;  -69.350; -494.000; -439.000
250.514;  -51.800; -310.000; -244.000
250.656;  -61.725;   69.000;  102.000
250.798; -109.425; -849.000; -800.000
250.940;  -60.125; -322.000; -322.000
251.083;  -24.725; -335.000; -111.000
251.225;   70.225;  338.000;  310.000
251.367;  -34.775; -274.000; -373.000
251.509;  -37.950; -265.000; -210.000
251.651; -101.450; -731.000; -671.000
251.794;   56.150;  538.000;  632.000
251.936; -102.150; -821.000; -747.000
252.078;  -69.975; -540.000; -461.000
252.220;  -67.425; -645.000; -477.000
252.362;   79.325;  344.000;  462.000
252.504;  -72.650; -677.000; -584.000
252.646; -100.800; -875.000; -722.000
252.788;    4.200;   14.000; -128.000
252.931;  -32.550; -257.000; -253.000
253.073;  -35.825; -376.000; -317.000
253.215;  -17.725;  141.000;  122.000
253.357;  -16.200;   82.000; -153.000
253.499;  -41.800; -374.000; -234.000
253.641;  -94.675; -749.000; -594.000
253.783; -101.850; -609.000; -527.000
253.925;  -82.450; -586.000; -591.000
254.067; -101.150; -744.000; -667.000
254.209;  -35.875; -391.000; -259.000
254.351; -133.575; -865.000; -883.000
254.493;  -63.375; -441.000; -417.000
254.635; -130.200; -936.000; -818.000
254.777;  -93.600; -752.000; -687.000
254.918;  -67.650; -512.000; -430.000
255.060;  -61.775; -551.000; -395.000
255.202;  -68.050; -473.000; -261.000
255.344;  -70.650; -658.000; -455.000
255.486;  -78.850; -471.000; -406.000
255.628;  -93.500; -780.000; -781.000
255.770;  -82.150; -676.000; -536.000
255.912;  -73.500; -559.000; -468.000
256.053;  -91.675; -730.000; -508.000
256.195;  144.400; 1008.000;  903.000
256.337;  -96.550; -861.000; -595.000
256.479;   64.275;  532.000;  416.000
256.621;  -61.600; -394.000; -212.000
256.762;  -94.475; -789.000; -742.000
256.904;   58.825;  485.000;  487.000
257.046;  -38.925; -381.000; -271.000
257.188;  -35.850; -351.000; -264.000
257.329;  -72.150; -525.000; -464.000
257.471; -116.950; -939.000; -807.000
257.613;  -57.200; -584.000; -498.000
257.755; -157.000;-1073.000; -982.000
257.896;   40.350;  286.000;  392.000
258.038;  -71.800; -403.000; -352.000
258.180;  -36.850; -354.000; -279.000
258.321;  -72.475; -581.000; -457.000
258.463;  -10.925;  -71.000;  133.000
258.605;  -95.350; -562.000; -570.000
258.746; -104.725; -886.000; -772.000
258.888; -152.425;-1026.000;-1020.000
259.029;   16.175;  121.000;   -8.000
259.171;  -95.800; -614.000; -550.000
259.313;   10.225;  -49.000;  -47.000
259.454;  -69.875; -536.000; -414.000
259.596;  -38.475; -483.000; -390.000
259.737;  -74.175; -590.000; -474.000
259.879;   35.100;  217.000;  311.000
260.020;   97.825;  901.000;  636.000
260.162;  -29.750; -146.000; -253.000
260.303; -107.550; -768.000; -687.000
260.445;  -93.250; -609.000; -613.000
260.586;   24.450;  392.000;  157.000
260.728;  -34.075; -360.000; -248.000
260.869;  -74.975; -350.000; -343.000
261.011;   84.525;  706.000;  537.000
261.152;  -70.425; -479.000; -319.000
261.293;  -73.025; -576.000; -595.000
261.435;  -17.950; -219.000; -184.000
261.576;  -52.950; -455.000; -325.000
261.718;   56.425;  420.000;  470.000
261.859; -131.525; -940.000; -949.000
262.000; -130.675; -951.000;-1016.000
262.142;  -30.550;  -52.000;  -60.000
262.283; -109.200; -808.000; -691.000
262.424;  -89.825; -666.000; -625.000
262.566; -151.025;-1161.000; -983.000
262.707; -111.300; -840.000; -830.000
262.848; -112.975; -769.000; -726.000
262.990;  -47.750; -362.000; -345.000
263.131;   86.625;  650.000;  681.000
263.272;   -3.750;  -61.000;  -41.000
263.413;  -89.525; -589.000; -561.000
263.555;  -68.000; -669.000; -143.000
263.696;  -85.875; -550.000; -641.000
263.837;  -50.450; -449.000; -551.000
263.978;   -0.550;   -5.000;  -77.000
264.119;  -37.300; -283.000; -264.000
264.261; -107.225; -847.000; -630.000
264.402;    4.825;   33.000;   40.000
264.543;  -81.850; -509.000; -524.000
264.684;  -15.600;   61.000;  -50.000
264.825;  -78.375; -816.000; -538.000
264.966;    5.050;  -84.000;  -67.000
265.107; -122.700; -646.000; -670.000
265.248; -109.650; -825.000; -812.000
265.390;  -19.300;  152.000;   -9.000
265.531;   -3.925; -238.000; -107.000
265.672;  -76.700; -557.000; -630.000
265.813;   64.675;  563.000;  439.000
265.954; -136.675; -959.000; -940.000
266.095;   -2.850; -372.000; -322.000
266.236; -101.450; -686.000; -548.000
266.377;  -32.650; -243.000; -297.000
266.518;  -63.350; -619.000; -547.000
266.659;   43.400;  170.000;  268.000
266.800;   -6.400;   83.000;   85.000
266.941;  -78.200; -487.000; -478.000
267.082;   38.975;  354.000;   99.000
267.223;  -53.750; -344.000; -273.000
267.364; -112.650; -892.000; -686.000
267.504;    0.500;    3.000;  135.000
267.645;   -3.375;  160.000;   67.000
267.786;  -34.850; -147.000;  -86.000
267.927;  -69.025; -473.000; -379.000
268.068;  -30.875; -186.000;  -61.000
268.209;  -42.925; -175.000; -413.000
268.350;  -55.950; -388.000; -532.000
268.490;  -86.575; -648.000; -521.000
268.631;   44.150;  127.000;  225.000
268.772; -120.275; -874.000; -647.000
268.913;  -37.950; -328.000; -476.000
269.054;   -9.925; -117.000;   12.000
269.194;  -47.775; -418.000; -402.000
269.335; -146.600;-1137.000;-1074.000
269.476;  -25.700;   33.000;  -35.000
269.617;  -49.975; -347.000; -392.000
269.757;  -93.375; -713.000; -646.000
269.898;  -93.875; -856.000; -613.000
270.039;  -59.625; -415.000; -405.000
270.180; -128.000; -952.000; -816.000
270.320;  -11.075; -190.000; -250.000
270.461;  -40.175; -277.000; -249.000
270.602;  -15.000; -186.000; -156.000
270.742; -116.350; -868.000; -943.000
270.883;  -51.125; -442.000; -390.000
271.023;  -54.100; -358.000; -357.000
271.164;  -77.175; -607.000; -528.000
271.305;  -86.450; -666.000; -654.000
271.445;  -93.150; -722.000; -683.000
271.586;  -70.625; -462.000; -283.000
271.726;  -49.350; -397.000; -322.000
271.867;  -69.800; -594.000; -534.000
272.008;  181.000; -473.000; -285.000
272.148;  125.500;  462.000;  468.000
272.289;   14.425; -113.000; -181.000
272.429;   11.725;   19.000;  185.000
272.570;  -82.000; -633.000; -737.000
272.710;  -99.825; -825.000; -775.000
272.851;  -17.050;  113.000; -130.000
272.991; -157.550;-1173.000;-1077.000
273.131;  -66.125; -419.000; -459.000
273.272; -105.500; -683.000; -723.000
273.412;   17.675; -143.000;  -31.000
273.553;  -47.425; -488.000; -507.000
273.693;  134.375;  913.000;  858.000
273.834;  -91.150; -894.000; -692.000
273.974;  -66.825; -664.000; -615.000
274.114; -102.075; -772.000; -560.000
274.255;   71.950;  414.000;  373.000
274.395;   -1.250; -180.000; -125.000
274.535;   35.325;  199.000;  350.000
274.676;   28.825;  225.000;   94.000
274.816;    6.275;  110.000;   34.000
274.956;  -77.925; -624.000; -690.000
275.097;  -51.450;-1014.000; -922.000
275.237; -118.675; -913.000; -803.000
275.377;  -81.150; -778.000; -689.000
275.517; -140.950; -878.000; -937.000
275.658;  -55.725; -590.000; -555.000
275.798;  -65.425; -606.000; -413.000
275.938;   25.550;  215.000;  323.000
276.078; -114.325; -626.000; -395.000
276.218;   10.075;   99.000;  104.000
276.359; -134.025;-1026.000;-1024.000
276.499;  -72.600; -605.000; -446.000
276.639;  -28.225; -305.000; -151.000
276.779;  -35.700; -475.000; -357.000
276.919; -103.100; -783.000; -624.000
277.059;  -26.775; -261.000; -212.000
277.199;  -45.075; -357.000; -259.000
277.340;   49.125;  287.000;  175.000
277.480; -103.300; -840.000; -693.000
277.620;   31.825;  192.000;   16.000
277.760; -202.250;-1533.000;-1294.000
277.900;   15.850;  113.000;   33.000
278.040;   29.925;  137.000;  159.000
278.180;   42.150;  270.000;  170.000
278.320;    2.575;   21.000;   56.000
278.460;  -68.400; -443.000; -469.000
278.600;  -81.625; -708.000; -598.000
278.740;   52.975;  448.000;  224.000
278.880;  -46.500; -768.000; -791.000
279.020;   -7.575; -194.000; -144.000
279.160;  -85.525; -672.000; -595.000
279.300; -118.675; -926.000; -873.000
279.440; -102.350; -709.000; -622.000
279.579;   -5.200;-1014.000; -929.000
279.719;  -52.025; -410.000; -394.000
279.859;   68.200;   -4.000;   41.000
279.999;   19.125; -208.000;  101.000
280.139;   -9.175; -435.000; -387.000
280.279;  -72.600; -708.000; -745.000
280.419;   -1.600; -229.000; -147.000
280.559;  -39.600; -259.000; -180.000
280.698;  -70.225; -790.000; -639.000
280.838;  -88.850; -778.000; -800.000
280.978;  -92.225; -846.000; -790.000
281.118; -114.125; -811.000; -704.000
281.257;    9.575;   24.000;    6.000
281.397; -113.850;-1094.000; -960.000
281.537;  -84.250; -599.000; -712.000
281.677;  -18.900; -150.000; -101.000
281.816;  -83.025; -700.000; -630.000
281.956;  -21.375; -193.000; -257.000
282.096;  -63.075; -539.000; -396.000
282.235; -102.725; -672.000; -638.000
282.375;  -27.650; -243.000;  -98.000
282.515; -105.500; -715.000; -707.000
282.654;   34.900;   29.000;  106.000
282.794;   13.625;  388.000;  244.000
282.934;  -44.175; -530.000; -491.000
283.073; -139.150;-1030.000; -857.000
283.213;  -62.725; -460.000; -467.000
283.353;  -49.275; -408.000; -349.000
283.492;  -15.050; -264.000; -296.000
283.632;  -35.300; -254.000; -168.000
283.771;  -93.250; -859.000; -730.000
283.911;  -57.225; -369.000; -260.000
284.050; -108.650; -794.000; -748.000
284.190; -158.875;-1229.000;-1096.000
284.329; -142.250;-1055.000; -964.000
284.469;  -69.000; -516.000; -591.000
284.608;  -60.000; -559.000; -598.000
284.748;  -92.950; -614.000; -570.000
284.887;    2.450;  -87.000;  -20.000
285.027; -120.750; -844.000; -892.000
285.166;  -24.800; -192.000; -249.000
285.306;   -7.775; -116.000;  -33.000
285.445;  -26.800; -229.000; -343.000
285.584;  -98.400; -630.000; -494.000
285.724;  -39.800; -282.000; -322.000
285.863; -121.000; -857.000; -507.000
286.002;  -56.350; -366.000; -276.000
286.142; -116.725; -715.000; -622.000
286.281;  -74.075; -525.000; -493.000
286.420;  -72.125; -554.000; -417.000
286.560;  106.375;  653.000;  623.000
286.699; -139.400; -958.000; -912.000
286.838;  -67.950; -590.000; -591.000
286.978;  -80.000; -533.000; -537.000
287.117; -137.025;-1085.000; -950.000
287.256;  -31.050; -228.000; -211.000
287.395;  -40.100; -197.000; -378.000
287.535;  -53.425; -370.000; -298.000
287.674;  -80.450; -509.000; -484.000
287.813;   58.825;  661.000;  533.000
287.952; -120.325;-1010.000; -871.000
288.091; -139.475;-1049.000; -915.000
288.231;    8.825;   13.000;   15.000
288.370; -180.350;-1217.000;-1200.000
288.509;  -96.975; -728.000; -645.000
288.648;  -87.875; -770.000; -548.000
288.787;  -22.800; -243.000;  -87.000
288.926;  -54.625; -454.000; -475.000
289.065;  115.875;  859.000;  672.000
289.204;  -35.300; -377.000; -217.000
289.344;  -85.600; -791.000; -690.000
289.483;   30.500;  416.000;  304.000
289.622;  -27.725; -291.000; -149.000
289.761;   -9.250; -309.000; -166.000
289.900; -104.400; -785.000; -626.000
290.039;  -20.500;  -12.000;  -95.000
290.178;  -32.000; -274.000; -180.000
290.317;  -76.925; -618.000; -479.000
290.456;  -63.925; -463.000; -451.000
290.595; -135.875; -961.000; -833.000
290.734; -137.625; -904.000; -891.000
290.873;  -77.300; -456.000; -420.000
291.011; -105.675; -833.000; -843.000
291.150;  -98.550; -770.000; -682.000
291.289;  -20.875; -343.000; -110.000
291.428;  -84.000; -599.000; -480.000
291.567;  -52.975; -370.000; -442.000
291.706;    4.275;  109.000;  154.000
291.845;  -81.425; -597.000; -505.000
291.984; -153.625;-1234.000;-1061.000
292.122;   81.325;  602.000;  582.000
292.261;   47.525;  620.000;  463.000
292.400;    7.900; -144.000;  211.000
292.539; -125.250; -959.000; -813.000
292.678;  -23.300; -325.000; -300.000
292.816; -161.725;-1136.000; -965.000
292.955;  -82.175; -844.000; -684.000
293.094;  -29.400; -173.000; -337.000
293.233;  -48.775; -556.000; -400.000
293.371;  -34.900; -225.000;  -84.000
293.510; -113.750; -866.000; -780.000
293.649; -125.300; -959.000; -924.000
293.787;  -57.525;-1083.000;-1012.000
293.926;   -9.400; -113.000;  -32.000
294.065;  -33.975; -379.000; -290.000
294.203;   50.150;  298.000;  406.000
294.342;   27.800;   74.000;  156.000
294.481; 6971.150;51180.000; -836.000
294.619;  -13.850; -425.000; -582.000
294.758; -150.575;-1230.000;-1137.000
294.896;   74.300; -125.000;    5.000
295.035; -123.325;-1040.000;-1006.000
295.174; -113.675;-1082.000; -954.000
295.312;  -40.725; -323.000; -203.000
295.451;    9.850; -307.000; -428.000
295.589;  -58.400; -389.000; -518.000
295.728;   23.400; -292.000; -165.000
295.866;   19.850;  -36.000;  -51.000
296.005;  -50.250; -584.000; -341.000
296.143;  -55.325; -558.000; -596.000
296.282; -104.425; -957.000; -881.000
296.420;  -80.900; -657.000; -557.000
296.559;  -74.725; -892.000; -633.000
296.697;   19.450; -847.000; -665.000
296.835;   54.000;-1141.000;-1002.000
296.974;   38.375;  -23.000;   39.000
297.112;    9.800; -443.000; -504.000
297.251;  -68.150; -815.000; -755.000
297.389;  107.075; -576.000; -438.000
297.527;   37.450; -145.000;  -83.000
297.666;  -46.375; -486.000; -438.000
297.804;  -57.200; -404.000; -264.000
297.942;    1.075; -136.000; -161.000
298.081;   -6.100; -183.000;   63.000
298.219;   81.375;  -17.000;  -19.000
298.357;   34.600; -144.000;  -71.000
298.495;   40.600; -810.000; -812.000
298.634;   83.300;  245.000;  219.000
298.772;   48.200; -220.000; -338.000
298.910;  -34.325; -309.000; -182.000
299.048;   -2.025; -130.000; -153.000
299.187;  -37.850; -350.000; -250.000
299.325;    7.950;   52.000;  122.000
299.463;   58.125; -389.000; -299.000
299.601;   96.175; -327.000; -271.000
299.739;  -96.000; -908.000; -883.000
299.877;  -73.625; -791.000; -703.000
300.016;  -44.675;-1095.000; -935.000
300.154;  183.125;  -19.000; -161.000
300.292;   70.375; -428.000; -348.000
300.430;   52.025; -408.000; -291.000
300.568; -116.675; -940.000; -874.000
300.706;  -47.450; -366.000; -469.000
300.844;  -70.900;-1108.000; -979.000
300.982;  125.000;  246.000;  282.000
301.120; -118.200; -965.000; -866.000
301.258;  -56.650; -812.000; -705.000
301.396;   36.050;  104.000;  -41.000
301.534;   77.675; -218.000; -293.000
301.672;    0.350; -664.000; -521.000
301.810;   31.125; -613.000; -545.000
301.948;  113.900;   53.000;  149.000
302.086;  615.200; -250.000;  -32.000
302.224;  955.325; -610.000; -585.000
302.362;   54.050; -558.000; -622.000
302.500;  -23.075; -923.000; -893.000
302.638;  120.150;  128.000;  245.000
302.776;    5.375; -352.000; -408.000
302.913;   31.425;  447.000;  236.000
303.051;   -9.275;  -86.000;  -23.000
303.189;   67.150;   90.000;  118.000
303.327;  -49.175; -341.000; -256.000
303.465;  -72.575; -832.000; -588.000
303.603;  -98.775; -805.000; -604.000
303.740;  107.050;  417.000;  241.000
303.878;   11.600; -800.000; -759.000
304.016;  -90.700; -915.000; -790.000
304.154; -112.575;-1123.000;-1152.000
304.291;  -31.675; -505.000; -554.000
304.429;   11.225;  102.000;   74.000
304.567; -115.150; -908.000; -893.000
304.705;  -55.125; -408.000; -515.000
304.842;   92.200; -616.000; -540.000
304.980;   63.700;  215.000;   35.000
305.118;   60.925; -367.000; -365.000
305.255;  -51.525; -945.000; -927.000
305.393;   65.825;  178.000;  239.000
305.531;  -98.500;-1173.000; -956.000
305.668;  -55.550; -663.000; -582.000
305.806;   94.950; -358.000; -439.000
305.943;  105.725; -629.000; -637.000
306.081;   49.850; -378.000; -267.000
306.219; -108.800; -863.000; -748.000
306.356;    8.675;  158.000;   27.000
306.494;  102.725;  981.000;  761.000
306.631;    5.150;  -11.000;  -55.000
306.769;    5.800; -613.000; -485.000
306.906;   -6.950; -284.000; -258.000
307.044;  -68.300; -473.000; -488.000
307.181;  -69.200; -410.000; -332.000
307.319;    7.000;  112.000;   87.000
307.456; -161.100;-1191.000;-1153.000
307.594;  -91.650; -980.000; -727.000
307.731;   -9.375; -371.000; -164.000
307.868;   -2.750;  -15.000;   20.000
308.006; -124.925; -961.000; -847.000
308.143;  -67.225; -618.000; -330.000
308.281;  134.800;  -37.000; -254.000
308.418;  -15.200; -748.000; -640.000
308.555;  -75.150; -400.000; -250.000
308.693;  -82.000; -577.000; -573.000
308.830;  -97.100; -712.000; -657.000
308.967;   -4.800; -215.000;  -95.000
309.105;  -42.125; -507.000; -396.000
309.242;   32.725; -468.000; -367.000
309.379;  269.525; -577.000; -655.000
309.517;  -63.800; -936.000; -948.000
309.654;  -93.925; -910.000; -734.000
309.791;  -73.200; -662.000; -580.000
309.928; -118.550; -977.000; -914.000
310.065;  192.475;  819.000;  697.000
310.203;   -4.775; -825.000; -850.000
310.340;  -11.275; -465.000; -321.000
310.477;  -73.025; -412.000; -516.000
310.614;  -62.375; -383.000; -473.000
310.751;  -62.750; -427.000; -518.000
310.889;  -17.575;    1.000;   11.000
311.026; -144.500;-1161.000; -939.000
311.163;  -26.925; -386.000; -380.000
311.300;  -77.475; -512.000; -479.000
311.437;  -75.350; -658.000; -619.000
311.574; -147.200;-1226.000; -985.000
311.711;  -55.275; -595.000; -433.000
311.848;  -33.525; -380.000; -388.000
311.985;   12.675;  270.000;   93.000
312.122; -115.700; -932.000; -762.000
312.259; -117.550; -941.000; -994.000
312.396;  -66.100; -508.000; -551.000
312.533;  -88.550; -812.000; -790.000
312.670; -135.525;-1070.000; -898.000
312.807;  -32.250; -352.000; -367.000
312.944;  -69.575; -513.000; -611.000
313.081;  -18.775; -150.000; -415.000
313.218; -104.700;-1111.000; -867.000
313.355;   13.900; -531.000; -449.000
313.492;    4.525; -455.000; -292.000
313.629;  144.375;  815.000;  735.000
313.766; -156.800;-1176.000;-1008.000
313.902;  -10.875; -186.000;   21.000
314.039;  -44.850; -372.000; -289.000
314.176;   32.700;  286.000;  192.000
314.313;  -67.375; -569.000; -473.000
314.450;  -64.375; -788.000; -684.000
314.587;  -55.050; -468.000; -480.000
314.723;   19.425;  -78.000;  130.000
314.860;   38.350;  318.000;  332.000
314.997;   48.650;  223.000;  142.000
315.134;  -31.900; -385.000; -368.000
315.270;  -19.850; -480.000; -496.000
315.407; -128.600;-1094.000; -967.000
315.544;  -56.775; -657.000; -538.000
315.681;  -74.950; -681.000; -565.000
315.817;   34.175; -133.000; -176.000
315.954;   24.950; -613.000; -392.000
316.091; -127.625;-1045.000;-1023.000
316.227;  -19.625;  -71.000; -179.000
316.364;    9.000;   23.000;    6.000
316.500;  -34.125; -113.000; -300.000
316.637;  -34.900; -181.000; -302.000
316.774;  -88.325; -625.000; -358.000
316.910;  -81.475; -598.000; -629.000
317.047;  -74.650; -487.000; -351.000
317.183;  -44.425; -435.000; -566.000
317.320;   -5.525; -367.000; -321.000
317.456;  -65.100; -733.000; -805.000
317.593;  -99.225; -598.000; -641.000
317.729;    4.575;  168.000;  -67.000
317.866; -191.200;-1434.000;-1285.000
318.002;  -86.175; -708.000; -948.000
318.139;  -91.750; -883.000; -867.000
318.275;  -96.775;-1003.000; -738.000
318.412;  -57.625; -517.000; -336.000
318.548;  -20.750; -751.000; -720.000
318.685;  -91.575; -985.000; -888.000
318.821;  -91.250; -762.000; -735.000
318.957;  -24.150;   34.000;  -23.000
319.094;   54.400;  297.000;  154.000
319.230;  -58.225; -756.000; -742.000
319.367;  124.825; -471.000; -520.000
319.503;   53.525; -538.000; -436.000
319.639;  -99.200; -877.000; -793.000
319.775;  -60.850; -750.000; -685.000
319.912;  -56.475; -424.000; -519.000
320.048;  -84.725;-1184.000;-1184.000
320.184;   81.825;   59.000;   70.000
320.321;  -57.175; -497.000; -467.000
320.457;   66.875;  475.000;  662.000
320.593;  -74.275; -375.000; -382.000
320.729; -113.775; -732.000; -734.000
320.866;  -70.175; -577.000; -635.000
321.002;  -78.575; -759.000; -809.000
321.138;  -15.550; -135.000; -211.000
321.274;   73.550; -148.000; -115.000
321.410;  -32.125; -585.000; -353.000
321.546;  -26.625;-1011.000; -911.000
321.683;   50.325;  400.000;  185.000
321.819;   17.800;  -48.000; -117.000
321.955; -104.825; -743.000; -722.000
322.091;  -31.600; -585.000; -540.000
322.227;  -16.150; -382.000; -202.000
322.363;  -12.850; -320.000; -215.000
322.499;  -38.450; -343.000; -331.000
322.635;  156.950;  636.000;  443.000
322.771;   20.750; -139.000;   12.000
322.907;   96.875;  129.000;  327.000
323.043;  -18.750; -115.000; -206.000
323.179;  -35.550; -394.000; -363.000
323.315;   23.525; -401.000; -371.000
323.451;  100.325; -328.000; -236.000
323.587;   58.225;  -60.000;  -77.000
323.723;   11.425; -682.000; -601.000
323.859;  -13.875; -258.000;  -76.000
323.995;  -41.525; -467.000; -409.000
324.131; -119.900; -967.000; -892.000
324.267;  -34.450; -254.000; -276.000
324.402; -120.125; -960.000; -983.000
324.538;   -9.950; -279.000; -104.000
324.674;   15.950;  164.000;   77.000
324.810;  135.550;  226.000;  308.000
324.946;    7.075; -810.000; -658.000
325.082;  -64.800; -568.000; -475.000
325.217;  -15.625;  -62.000;   16.000
325.353; -100.600; -764.000; -659.000
325.489;  -82.475; -540.000; -506.000
325.625;  -65.425; -579.000; -525.000
325.760;   65.075;  517.000;  376.000
325.896;  -31.950; -515.000; -702.000
326.032;  -61.575; -403.000; -352.000
326.168;  -53.975; -462.000; -369.000
326.303;  -66.375; -352.000; -461.000
326.439;  -26.450; -336.000; -276.000
326.575;    0.000; -190.000;  -29.000
326.710;   -8.825; -156.000;  -30.000
326.846;  -13.775;  146.000;  103.000
326.982;  -79.875; -530.000; -548.000
327.117;  -77.600; -481.000; -442.000
327.253;  -71.950; -745.000; -742.000
327.388; -154.425;-1137.000;-1153.000
327.524;  -52.575; -811.000; -578.000
327.659;  -17.625;  -58.000;  -22.000
327.795;  -19.400;   69.000;   45.000
327.931;  -75.650; -723.000; -499.000
328.066;  -20.725; -417.000; -276.000
328.202;   -4.400;   12.000; -129.000
328.337;  118.000;  957.000;  713.000
328.473;   38.550;  -12.000;  -74.000
328.608;  -35.275; -256.000; -267.000
328.743;  -86.500; -799.000; -664.000
328.879;   26.100;  214.000;  114.000
329.014;  -29.625; -102.000; -122.000
329.150;  -79.725; -358.000; -483.000
329.285;  -71.950; -465.000; -466.000
329.421;  -41.400; -548.000; -246.000
329.556;  -27.550;  -36.000;   85.000
329.691; -102.025; -633.000; -615.000
329.827;  -86.650; -626.000; -480.000
329.962;  -31.950;  131.000; -301.000
330.097;  -93.400; -673.000; -585.000
330.233;  -56.500; -410.000; -223.000
330.368; -118.625; -839.000; -628.000
330.503;   -7.700;    3.000;   98.000
330.638;   16.300;  -93.000; -125.000
330.774;  -55.750; -609.000; -530.000
330.909;  -37.800; -434.000; -244.000
331.044;  -76.075; -714.000; -708.000
331.179; -181.275;-1217.000;-1109.000
331.315;   10.975;   77.000;   20.000
331.450;   18.100;  157.000;  285.000
331.585;  -85.850; -805.000; -706.000
331.720;  -90.575; -510.000; -460.000
331.855;    8.775;  -35.000; -102.000
331.990;  218.775;   62.000;  138.000
332.126;  121.600; -110.000;   71.000
332.261;  -28.525; -379.000; -265.000
332.396;    7.600; -135.000; -242.000
332.531;  -96.700;-1074.000;-1031.000
332.666;   30.650; -519.000; -363.000
332.801; -101.025; -726.000; -807.000
332.936;  -14.075; -192.000; -122.000
333.071; -130.550; -870.000; -817.000
333.206;   10.075;  307.000;  379.000
333.341;   24.800;  344.000;  418.000
333.476;  -92.275; -627.000; -623.000
333.611;  -36.825; -251.000; -173.000
333.746;  -49.800; -381.000; -464.000
333.881; -113.625; -973.000; -935.000
334.016; -112.650; -936.000; -917.000
334.151; -124.950; -746.000; -702.000
334.286;   35.050;  152.000;  186.000
334.421;  -16.300; -125.000; -178.000
334.556;  -71.550; -611.000; -567.000
334.690;  -84.525; -631.000; -577.000
334.825;   69.700;  381.000;   83.000
334.960;  -60.800; -285.000; -413.000
335.095;   16.450;  135.000;  -91.000
335.230;  -93.225; -722.000; -738.000
335.365; -121.800;-1084.000; -990.000
335.499; -124.475;-1108.000;-1037.000
335.634;   27.200;    9.000;  534.000
335.769;  -95.850; -755.000; -720.000
335.904;  -53.700; -603.000; -561.000
336.038;  -50.075; -735.000; -657.000
336.173; -102.425;-1206.000;-1194.000
336.308;   19.150; -116.000; -189.000
336.443;   36.600; -544.000; -634.000
336.577;  -72.925; -936.000; -787.000
336.712;   62.775;   -4.000;  -12.000
336.847;  -30.625; -724.000; -607.000
336.981;   81.350; -272.000; -208.000
337.116;  282.075;  615.000;  501.000
337.250;  164.450; -434.000; -421.000
337.385;  234.325; -297.000; -208.000
337.520;   73.375; -632.000; -603.000
337.654;  -31.200; -215.000; -126.000
337.789; -123.075; -989.000; -933.000
337.923;  -30.375; -104.000; -205.000
338.058;  -80.800; -673.000; -738.000
338.192;  -18.250; -611.000; -488.000
338.327;   -1.975;  -18.000; -155.000
338.461;  -55.100; -299.000; -469.000
338.596;  -85.750; -780.000; -638.000
338.730;  -98.925; -767.000; -803.000
338.865;   85.250;  -46.000; -140.000
338.999;  -54.700; -846.000; -702.000
339.134;  -29.350; -634.000; -536.000
339.268;   18.225; -741.000; -603.000
339.403;  344.700; -740.000; -775.000
339.537;  102.975; -894.000; -820.000
339.671; -117.400; -829.000; -813.000
339.806;  -54.100; -556.000; -512.000
339.940;   18.750; -261.000; -235.000
340.074;  -87.425; -685.000; -510.000
340.209;  -46.250; -351.000; -230.000
340.343;  -89.500; -517.000; -573.000
340.477;  158.925;  998.000; 1036.000
340.612;  -46.025;-1033.000; -900.000
340.746;  127.475; -199.000; -243.000
340.880;  -63.175; -924.000; -785.000
341.014;  -12.975;  -45.000; -154.000
341.149; -108.800; -756.000; -718.000
341.283; -103.075; -839.000; -754.000
341.417;  -86.275;-1124.000; -938.000
341.551;  135.375; -768.000; -708.000
341.685;  -30.325; -633.000; -611.000
341.820;  -53.175; -562.000; -493.000
341.954;  -38.925; -218.000; -349.000
342.088; -153.350;-1102.000;-1019.000
342.222;   39.600;  565.000;  618.000
342.356;  -50.525; -395.000; -335.000
342.490;  -94.350; -880.000; -841.000
342.624;  -40.800; -339.000; -242.000
342.758;    3.125; -364.000; -312.000
342.892;  -53.750; -710.000; -585.000
343.026;  -46.150;  -58.000; -116.000
343.160;  -51.125; -426.000; -376.000
343.294;  -84.075; -474.000; -337.000
343.428;  -32.425; -488.000; -448.000
343.562;  -14.150; -172.000;  -23.000
343.696;  -16.500; -385.000; -314.000
343.830;  -23.275; -362.000; -356.000
343.964;   18.075; -231.000; -168.000
344.098;  904.150;  199.000;   70.000
344.232;  761.775; -266.000; -127.000
344.366;   98.325; -567.000; -453.000
344.500;   61.750; -665.000; -744.000
344.634;   41.125; -324.000; -164.000
344.768;   -4.375; -531.000; -341.000
344.902;   18.575;  278.000;  256.000
345.035;  -69.000; -556.000; -496.000
345.169; -129.800; -933.000; -656.000
345.303;  -48.125; -308.000; -482.000
345.437;  -71.825; -826.000; -717.000
345.571;  -71.725; -675.000; -594.000
345.704;  -76.025; -309.000; -532.000
345.838;  -16.075; -331.000; -284.000
345.972;  -32.625; -543.000; -495.000
346.106;  143.625; -179.000; -190.000
346.239;  416.650; -312.000; -243.000
346.373;    4.200; -343.000; -302.000
346.507; -136.500; -950.000; -962.000
346.640;  142.250;  -30.000;   13.000
346.774;  -35.675; -650.000; -797.000
346.908;   -9.950; -138.000;  -11.000
347.041;  -90.375; -646.000; -593.000
347.175;    7.275;  259.000;   27.000
347.309;  -67.175; -698.000; -628.000
347.442; -102.625; -883.000; -732.000
347.576;  268.375;  670.000;  668.000
347.709;  202.775; -123.000;  -52.000
347.843; -100.400; -933.000; -825.000
347.976;   50.650;  235.000;  294.000
348.110; -185.050;-1268.000;-1186.000
348.243; -105.675; -679.000; -772.000
348.377;   -4.300;  -26.000;   60.000
348.510;   65.100;  403.000;  540.000
348.644;  -25.775;  -37.000; -159.000
348.777;   -5.425;  180.000;  191.000
348.911;  -54.175; -142.000; -112.000
349.044;  176.975;  471.000;  448.000
349.178;  156.550;-1069.000;-1006.000
349.311;  115.800;  141.000;  255.000
349.444;   -1.650; -927.000; -813.000
349.578;  -13.325; -347.000; -200.000
349.711; -107.000; -959.000; -862.000
349.845;    1.525; -661.000; -591.000
349.978; -143.350;-1224.000;-1137.000
350.111;  -70.475; -546.000; -612.000
350.244;  -74.150; -596.000; -700.000
350.378;   -0.525; -392.000; -393.000
350.511;  -56.275; -393.000; -426.000
350.644; -103.975; -808.000; -806.000
350.778;    0.000;  168.000;  104.000
350.911;    7.950;  134.000;  140.000
351.044; -104.000; -685.000; -615.000
351.177;  -29.250; -321.000; -281.000
351.310;   -2.925;    3.000; -131.000
351.444;  -76.475; -888.000; -788.000
351.577;  122.775;  140.000;   90.000
351.710;  100.050;  593.000;  417.000
351.843;  -40.750; -165.000;  -77.000
351.976;    4.225;  149.000;  -79.000
352.109;  -86.950; -621.000; -612.000
352.242;  -18.050; -464.000; -419.000
352.376;  -62.350; -580.000; -636.000
352.509;  188.350; -437.000; -356.000
352.642;    7.425; -654.000; -604.000
352.775;   55.500; -141.000;  -98.000
352.908; -122.550; -933.000; -904.000
353.041;  -94.450; -814.000; -824.000
353.174;  -48.000; -551.000; -424.000
353.307;  -81.350; -753.000; -764.000
353.440;   69.175;  541.000;  453.000
353.573; -106.450; -957.000;-1008.000
353.706;  -50.500; -384.000; -558.000
353.839;  -24.700; -264.000; -220.000
353.971;  -84.000; -657.000; -512.000
354.104;  -88.975; -896.000; -835.000
354.237;  -44.050; -627.000; -662.000
354.370;  -81.050; -846.000; -879.000
354.503; -175.050;-1231.000;-1308.000
354.636;  -25.800; -529.000; -348.000
354.769; -130.100; -937.000; -860.000
354.902;   -4.825; -230.000; -139.000
355.034;  -27.675; -164.000; -220.000
355.167;  -23.325; -262.000; -162.000
355.300;  -90.200;-1061.000; -880.000
355.433;  944.375;  -71.000;  -14.000
355.565; 1442.500; -402.000; -384.000
355.698;  360.475; -356.000; -296.000
355.831;   12.675; -882.000; -801.000
355.964;   97.950; -285.000; -170.000
356.096;  -77.975; -856.000; -843.000
356.229;   11.075; -523.000; -530.000
356.362;  317.700; -373.000; -266.000
356.494;  572.175; -229.000; -162.000
356.627;  498.025;  269.000;  377.000
356.760;  627.500;  120.000;   53.000
356.892;  918.175; -286.000; -601.000
357.025;  649.850;  403.000;  389.000
357.157;  611.725; -167.000; -179.000
357.290;  642.925; -856.000; -713.000
357.423;  188.750; -667.000; -556.000
357.555;  111.175; -217.000; -228.000
357.688;  136.275; -483.000; -364.000
357.820;  458.850; -870.000; -877.000
357.953; 3626.850; -563.000; -589.000
358.085;  792.850; -632.000; -612.000
358.218; 1165.950;-1131.000; -932.000
358.350;  222.225;  -58.000;  312.000
358.483; -118.900;-1300.000;-1187.000
358.615;   -0.050;-1182.000;-1078.000
358.747;  -61.275;-1187.000;-1058.000
358.880;   39.575; -810.000; -744.000
359.012;  -22.625; -376.000; -202.000
359.145;  -47.525; -480.000; -511.000
359.277;   72.325; -962.000; -913.000
359.409; 3025.625;  536.000;  231.000
359.542;  791.625; -738.000; -688.000
359.674;   62.025;   46.000;   13.000
359.806;  -57.525; -565.000; -438.000
359.939;  -41.900; -617.000; -516.000
360.071;   -1.050; -583.000; -579.000
360.203;  -14.275; -411.000; -364.000
360.335;   56.825;  164.000;  -16.000
360.468;  194.525; -249.000; -307.000
360.600; 2424.775; -547.000; -454.000
360.732; 2680.025; -546.000; -423.000
360.864;  364.150;-1216.000;-1044.000
360.996;  280.600; -516.000; -554.000
361.129;   48.725; -389.000; -598.000
361.261;   13.700;  110.000; -113.000
361.393;  -38.525; -252.000; -214.000
361.525;   25.875;   94.000;  244.000
361.657;  -40.775; -821.000; -703.000
361.789;    3.200; -139.000; -155.000
361.921;  220.100; -642.000; -593.000
362.053;  267.375;  524.000;  541.000
362.185;   59.925;  288.000;   72.000
362.318;  -80.575; -709.000; -705.000
362.450;  129.225;  294.000;  444.000
362.582;  123.225; -913.000; -870.000
362.714;  -28.425; -353.000; -332.000
362.846;  -89.600; -606.000; -490.000
362.978; -131.150; -941.000; -811.000
363.109;   57.725; -161.000; -260.000
363.241;  452.300; -739.000; -749.000
363.373;  427.150; -649.000; -564.000
363.505;  631.575; -186.000;  -91.000
363.637;  164.525; -787.000; -601.000
363.769; -118.450;-1067.000;-1080.000
363.901;  -51.500; -596.000; -654.000
364.033; -127.475;-1103.000;-1062.000
364.165;   -2.025; -283.000; -283.000
364.296;   68.100; -316.000; -177.000
364.428;   66.775;-1344.000;-1220.000
364.560;  -70.750; -679.000; -661.000
364.692;  -61.600; -738.000; -835.000
364.824;  282.300; -588.000; -456.000
364.955;  432.425; -402.000; -564.000
365.087;  872.850;-1097.000; -852.000
365.219;   19.250; -686.000; -816.000
365.351;  -69.225; -526.000; -572.000
365.482;   52.975;  300.000;  240.000
365.614;  -47.775; -402.000; -314.000
365.746; -105.000; -729.000; -752.000
365.877;  -99.500; -706.000; -672.000
366.009;  244.325;  -35.000;  -62.000
366.141;  -92.125;-1249.000;-1134.000
366.272; -105.025; -803.000; -719.000
366.404; -117.175;-1005.000; -874.000
366.535;   -6.350; -139.000;  -12.000
366.667;  -90.875; -644.000; -649.000
366.799;   39.700;  353.000;  203.000
366.930; -113.325; -862.000; -996.000
367.062;  125.150; -639.000; -613.000
367.193;  147.025; -872.000; -842.000
367.325;  -55.575; -580.000; -684.000
367.456;   64.950; -246.000;   31.000
367.588;  144.375; -371.000; -318.000
367.719;   23.650;  -44.000;  -45.000
367.851;  -18.100; -222.000; -241.000
367.982;  -53.925; -875.000; -732.000
368.113;  112.425; -475.000; -358.000
368.245; -111.225; -960.000; -841.000
368.376;  -20.000; -254.000; -302.000
368.508;  -34.400; -188.000; -263.000
368.639; -133.650;-1166.000;-1034.000
368.770;  -27.550; -670.000; -589.000
368.902;  -57.325; -836.000; -926.000
369.033; -102.550; -906.000; -855.000
369.164;  -48.550; -720.000; -653.000
369.296; -102.875; -452.000; -601.000
369.427;    4.350; -209.000; -144.000
369.558;  -57.475; -593.000; -377.000
369.689;  -79.250; -721.000; -569.000
369.821; -133.800; -951.000; -845.000
369.952;  -24.350;   42.000; -108.000
370.083;  -55.900; -229.000; -108.000
370.214;  -82.475; -735.000; -650.000
370.345;   -9.525;   65.000;   81.000
370.477;  -81.975; -810.000; -790.000
370.608;  240.750; -328.000; -264.000
370.739;  -44.575;-1233.000;-1292.000
370.870;  -40.475;-1102.000; -923.000
371.001;   82.750; -378.000; -467.000
371.132;  -68.350; -754.000; -735.000
371.263;   -9.850;  -42.000; -148.000
371.394; -140.650; -841.000; -748.000
371.525;   23.650;  345.000;  225.000
371.657;  -85.675; -808.000; -670.000
371.788;   64.250;  103.000;  199.000
371.919;  162.275; -384.000; -304.000
372.050; 3619.975;  -91.000; -156.000
372.181; 1080.075; -188.000; -294.000
372.311;  387.325;   42.000; -127.000
372.442;   39.450; -457.000; -451.000
372.573;  -18.400; -444.000; -340.000
372.704; -121.125;-1008.000; -980.000
372.835;   92.950; -228.000; -289.000
372.966;  -49.025; -646.000; -554.000
373.097;  -60.300; -575.000; -711.000
373.228;  -41.600; -717.000; -542.000
373.359;  130.400; -824.000; -536.000
373.490;  914.450; -881.000; -727.000
373.620; 1169.725;-1001.000; -803.000
373.751; 1802.475; -332.000; -396.000
373.882;  798.875; -663.000; -733.000
374.013;   66.700; -449.000; -262.000
374.143;  -33.650; -581.000; -659.000
374.274;  -99.175; -987.000; -908.000
374.405;  190.425; -388.000; -276.000
374.536;  441.350; -526.000; -387.000
374.666; 1112.325; -759.000; -807.000
374.797;  229.150; -817.000; -868.000
374.928;  880.575; -710.000; -560.000
375.058;  888.600; -535.000; -500.000
375.189;   66.125;  -59.000;  -93.000
375.320;  -99.200; -928.000;-1034.000
375.450;  -39.400; -625.000; -616.000
375.581;  -49.075; -526.000; -436.000
375.712;  -40.225; -574.000; -250.000
375.842;  304.150; -438.000; -415.000
375.973;  220.750; -554.000; -513.000
376.103;  -37.625; -665.000; -648.000
376.234;  -87.400; -531.000; -552.000
376.364;  -33.925; -944.000; -867.000
376.495;  315.250;  925.000;  529.000
376.625;   -0.200; -472.000; -485.000
376.756;   77.900; -709.000; -678.000
376.886;  -82.950;-1178.000;-1026.000
377.017;   45.450;-1048.000;-1061.000
377.147;  345.075; -786.000; -782.000
377.278;   68.300;  174.000;  228.000
377.408; -115.825; -801.000; -815.000
377.538; -107.025; -707.000; -693.000
377.669;  -81.650; -537.000; -613.000
377.799;  -97.550; -645.000; -635.000
377.929;  -66.150; -610.000; -428.000
378.060; -120.800; -781.000; -847.000
378.190;  -71.550; -726.000; -531.000
378.320;  -57.225; -401.000; -406.000
378.451;   -4.025; -131.000;  -22.000
378.581;   -1.250;  -67.000; -110.000
378.711;  157.575; 1035.000;  866.000
378.841;  -12.300; -533.000; -675.000
378.972;  -70.075; -871.000; -751.000
379.102;   -5.225; -652.000; -579.000
379.232;  -18.900; -126.000;  -73.000
379.362; -103.550;-1001.000; -885.000
379.492;   16.275; -373.000; -424.000
379.623;  111.900;    0.000;  111.000
379.753;  -88.025;-1107.000; -974.000
379.883;  200.625;   59.000;  156.000
380.013;    9.650;-1081.000;-1017.000
380.143;  -92.375;-1097.000;-1056.000
380.273;  -83.050; -985.000; -861.000
380.403;    2.325; -344.000; -257.000
380.533;  -30.125; -651.000; -664.000
380.663;   70.750;  173.000;  128.000
380.793;  -86.450;-1027.000;-1074.000
380.923;  -19.575; -103.000;  -34.000
381.053;  -84.375; -613.000; -623.000
381.183;  -32.000; -106.000; -248.000
381.313;   38.850; -656.000; -470.000
381.443;   39.875; -692.000; -473.000
381.573;  202.275; -402.000; -409.000
381.703;  293.350;-1249.000;-1095.000
381.833; -123.300;-1454.000;-1336.000
381.963;  107.625; -134.000;  -87.000
382.093; 1380.875; -925.000; -909.000
382.223;  413.250; -713.000; -602.000
382.353;   -5.775; -801.000; -608.000
382.482;  385.775;-1091.000; -964.000
382.612;  783.000; -872.000; -644.000
382.742;  428.425; -695.000; -622.000
382.872;  268.125; -565.000; -551.000
383.002;   68.025;  347.000; -132.000
383.131;   -1.000; -226.000; -160.000
383.261;  -40.500; -706.000; -768.000
383.391;  280.225; -552.000; -377.000
383.521; 3062.775;  451.000;  263.000
383.650;  720.800; -947.000; -904.000
383.780;  -16.675; -783.000; -656.000
383.910;  100.700;  880.000;  802.000
384.039;   35.925; -794.000; -656.000
384.169;  208.700;-1205.000;-1017.000
384.299;  -11.475; -650.000; -662.000
384.428;  -94.250; -764.000; -680.000
384.558;  -52.725; -308.000; -275.000
384.687;  -33.050; -414.000; -334.000
384.817;   20.775;   75.000;   -2.000
384.947;   28.900; -234.000; -141.000
385.076;  291.475;  982.000;  912.000
385.206;  101.725;  369.000;  480.000
385.335;  -37.375; -549.000; -417.000
385.465;  -74.425; -655.000; -663.000
385.594;  127.325;  -53.000;  -44.000
385.724;  428.625; -868.000; -838.000
385.853;  132.800; -296.000; -270.000
385.982; 1356.000; -743.000; -787.000
386.112; 2154.650;-1052.000; -871.000
386.241;  152.925; -307.000; -312.000
386.371;    9.400; -174.000;  -87.000
386.500;    9.075; -825.000; -789.000
386.629;   23.425; -874.000; -817.000
386.759;   60.150;  -43.000;   68.000
386.888;    5.000; -170.000; -250.000
387.017;  -63.650; -648.000; -620.000
387.147;  -77.950; -771.000; -798.000
387.276;    9.100; -410.000; -397.000
387.405;   17.650; -398.000; -342.000
387.535;  -52.500; -452.000; -361.000
387.664;  -55.150; -692.000; -620.000
387.793;   67.350; -198.000; -113.000
387.922;  528.100;  255.000;  200.000
388.052;   26.725; -576.000; -423.000
388.181;   21.750; -342.000; -472.000
388.310;    9.125; -889.000; -710.000
388.439;  -32.975; -749.000; -742.000
388.568;  195.725;  365.000;  244.000
388.697; 1059.350; -756.000; -653.000
388.826;  226.500; -768.000; -666.000
388.956;   79.800; -285.000; -307.000
389.085;  -31.100; -347.000; -287.000
389.214; -114.575; -842.000; -872.000
389.343;  -64.050; -645.000; -413.000
389.472;  405.375;  126.000;  149.000
389.601;  503.975;   91.000;    0.000
389.730;   13.550; -568.000; -687.000
389.859;   73.150;  226.000;   46.000
389.988;  178.775; -423.000; -408.000
390.117;  137.425; -168.000; -146.000
390.246;  -17.025; -331.000; -320.000
390.375;  108.225; -673.000; -626.000
390.504;  -72.175; -703.000; -621.000
390.633; -100.975; -672.000; -726.000
390.761;  -63.575; -732.000; -645.000
390.890;   29.750;   -4.000; -130.000
391.019;  -22.925; -421.000; -441.000
391.148; -121.000; -826.000; -855.000
391.277;  -54.225; -576.000; -493.000
391.406;  -69.850; -821.000; -805.000
391.534;   19.350;  574.000; -301.000
391.663;  -62.150; -583.000; -645.000
391.792;  -72.500; -673.000; -701.000
391.921;  101.925;   -3.000;   15.000
392.050;  202.100; -287.000; -228.000
392.178;  -51.175;-1206.000;-1061.000
392.307;  147.900; -758.000; -712.000
392.436;   60.625; -427.000; -641.000
392.564;   22.775;  166.000;   -6.000
392.693;  -82.850; -860.000; -682.000
392.822;  211.075; -529.000; -534.000
392.950;   97.400; -880.000; -714.000
393.079;  342.750; -188.000; -328.000
393.208;   17.675; -488.000; -511.000
393.336;  -15.225; -170.000; -145.000
393.465;  -40.475; -317.000; -199.000
393.593;   -2.225;   62.000;   79.000
393.722; -147.850;-1121.000; -916.000
393.850;  -21.425; -188.000;  -61.000
393.979; -157.150; -926.000; -805.000
394.107;  -60.050; -517.000; -537.000
394.236;  -28.650; -570.000; -507.000
394.364;  194.425;  383.000;  206.000
394.493;  293.200; -911.000; -767.000
394.621;  -16.125; -955.000; -916.000
394.750;  676.000; -873.000; -923.000
394.878; 2872.475; -247.000; -149.000
395.007; 3797.650; -721.000; -807.000
395.135;  279.850; -790.000; -721.000
395.263;  -99.950;-1038.000;-1040.000
395.392;    0.925;  -25.000; -107.000
395.520; -146.275; -818.000; -679.000
395.648;  -80.125; -865.000; -915.000
395.777;  -16.750; -366.000; -405.000
395.905;  -46.825; -449.000; -564.000
396.033;   13.125;  217.000;  172.000
396.162;  465.700; -399.000; -453.000
396.290;  441.700;  -17.000;   -2.000
396.418;  107.525; -555.000; -514.000
396.546;  -66.150; -571.000; -466.000
396.674;  -87.625; -850.000; -878.000
396.803;    8.750;  -72.000;  -23.000
396.931;   80.125; -179.000; -199.000
397.059;   48.550;-1026.000; -989.000
397.187; -121.950;-1026.000; -975.000
397.315; -147.875; -884.000; -649.000
397.443;  -99.050; -592.000; -443.000
397.572;  -89.550; -578.000; -424.000
397.700;    0.550; -607.000; -614.000
397.828;   16.150;  120.000;  -90.000
397.956;  -57.675; -508.000; -478.000
398.084;  -51.000; -767.000; -626.000
398.212;   39.550;  137.000;  124.000
398.340;    4.550;  -56.000;  159.000
398.468;   27.150; -390.000; -169.000
398.596; -143.950; -993.000; -953.000
398.724; -132.425; -762.000; -767.000
398.852; -146.875;-1024.000; -976.000
398.980;  -58.625; -560.000; -560.000
399.108;  -48.550; -982.000; -735.000
399.236;   34.475;   13.000;    8.000
399.363;    5.225;  222.000;  196.000
399.491;  -80.150; -404.000; -398.000
399.619; -119.750; -829.000; -800.000
399.747; -101.550; -859.000; -771.000
399.875;   76.800;  220.000;  234.000
400.003;  -58.775; -359.000; -284.000
400.130; -104.375; -421.000; -341.000
400.258;  -25.825;  -83.000;   38.000
400.386;  -76.925; -352.000; -168.000
400.514;  -38.050; -526.000; -587.000
400.641;  -90.175; -928.000; -802.000
400.769; -133.600; -979.000; -888.000
400.897; -112.375; -838.000; -793.000
401.025;  -15.275; -166.000; -152.000
401.152;   -4.900;  220.000;   38.000
401.280;  -71.875; -430.000; -429.000
401.408; -122.525; -712.000; -576.000
401.535; -100.150; -735.000; -758.000
401.663; -181.450;-1134.000;-1054.000
401.790;  -79.100; -514.000; -525.000
401.918;   37.400;  436.000;  405.000
402.046;  -21.575;  134.000;  122.000
402.173;  -38.025;  -18.000;    7.000
402.301;  -73.325; -519.000; -397.000
402.428;   30.400;  528.000;  383.000
402.556; -136.350;-1188.000; -913.000
402.683;  -14.025;  -20.000;   -1.000
402.811;   -8.950;  -37.000; -206.000
402.938;   -7.100;   20.000;   27.000
403.066;  218.700; -574.000; -558.000
403.193;  353.475;  299.000;  239.000
403.321;  266.600; -396.000; -574.000
403.448;  319.425;   83.000;   27.000
403.575;  152.250;  -90.000;  -46.000
403.703;  -97.600; -732.000; -557.000
403.830;  -70.325; -531.000; -496.000
403.957; -138.075;-1117.000;-1023.000
404.085;    8.375;  -61.000; -172.000
404.212;  106.225;  -50.000;   63.000
404.339;  258.475; -566.000; -306.000
404.467; 5598.200; -612.000; -524.000
404.594; 3718.450; -287.000; -227.000
404.721;  877.825; -869.000; -764.000
404.848;   81.900; -113.000; -202.000
404.976; -106.900; -856.000; -783.000
405.103;  -11.100;  -14.000;  -82.000
405.230;  -10.900;  190.000;  226.000
405.357;   41.550;  117.000;   44.000
405.484;  245.675;  -49.000;    5.000
405.612;   39.375; -548.000; -563.000
405.739;  -57.925; -488.000; -243.000
405.866;   88.600;  669.000;  385.000
405.993;  -36.250; -398.000; -102.000
406.120; -138.175; -801.000; -887.000
406.247;  -42.200; -323.000; -342.000
406.374;  446.850;  540.000;  629.000
406.501;  108.675; -632.000; -702.000
406.628;  -69.075; -621.000; -589.000
406.755;  -90.650; -803.000; -620.000
406.882;  -35.750; -228.000; -277.000
407.009;  -96.775; -719.000; -628.000
407.136;   60.775; -480.000; -401.000
407.263;  140.850; -939.000; -829.000
407.390;  -73.000; -692.000; -614.000
407.517; -178.875;-1139.000;-1187.000
407.644;  -65.225; -332.000; -256.000
407.771;  -79.425; -249.000; -287.000
407.898;   17.950;  168.000;  328.000
408.025;  -70.375; -421.000; -313.000
408.151;  -13.575;   82.000;  153.000
408.278;  -77.450; -267.000; -216.000
408.405; -114.450; -931.000; -899.000
408.532;  -89.400; -549.000; -542.000
408.659; -114.100; -677.000; -648.000
408.785; -203.650;-1298.000;-1170.000
408.912;  -74.375; -412.000; -296.000
409.039; -109.275; -610.000; -686.000
409.166; -106.675; -591.000; -555.000
409.292; -119.675; -571.000; -534.000
409.419; -127.300; -665.000; -649.000
409.546;  -87.725; -431.000; -192.000
409.672; -110.950; -713.000; -545.000
409.799;  -38.875;  -36.000;   34.000
409.926;  -27.100; -180.000; -179.000
410.052; -180.125;-1127.000;-1091.000
410.179;  -65.400; -368.000; -392.000
410.305;  -93.325; -375.000; -493.000
410.432;  -45.900; -220.000; -333.000
410.558;  -87.850; -305.000; -380.000
410.685;  -95.500; -688.000; -431.000
410.812; -101.625; -409.000; -588.000
410.938; -137.525; -964.000; -808.000
411.065;  -91.425; -671.000; -645.000
411.191;  -14.150; -189.000; -174.000
411.317; -124.250; -823.000; -742.000
411.444;  -62.975; -317.000; -246.000
411.570;  -83.325; -339.000; -294.000
411.697; -125.700; -758.000; -752.000
411.823; -165.550; -989.000; -999.000
411.949;  -22.900;  -56.000;   17.000
412.076; -109.225; -539.000; -519.000
412.202; -126.750; -758.000; -757.000
412.329; -124.625; -798.000; -752.000
412.455; -109.100; -821.000; -657.000
412.581;  -25.850;  -15.000;  172.000
412.707;  -66.050; -540.000; -457.000
412.834;   20.200;  156.000;  219.000
412.960;  -81.650; -785.000; -784.000
413.086;  -98.450; -743.000; -701.000
413.212;  158.150;  604.000;  578.000
413.339;  -74.375; -685.000; -701.000
413.465;  -10.650; -364.000; -310.000
413.591;  -92.000; -757.000; -474.000
413.717;  -40.650; -358.000; -366.000
413.843; -130.650; -839.000; -861.000
413.969;  -46.400;  -47.000; -292.000
414.096;  -97.000; -679.000; -679.000
414.222;  -14.625;  -33.000;   85.000
414.348;  -36.100; -652.000; -385.000
414.474;   89.625;   38.000;  -52.000
414.600;  -30.500; -126.000; -144.000
414.726;   -7.800;  -96.000;  -55.000
414.852;  -68.100; -365.000; -342.000
414.978;   41.575;  104.000;  -18.000
415.104;   27.300;   38.000;   80.000
415.230;   23.750; -329.000; -330.000
415.356;   37.925; -409.000; -514.000
415.482;  189.450;   13.000;  -35.000
415.608;  267.525; -247.000; -323.000
415.734;  948.575;   67.000;   38.000
415.860;19692.025; -875.000; -767.000
415.986;14165.175; -685.000; -607.000
416.111; 1213.300; -798.000; -652.000
416.237;  253.775; -424.000; -571.000
416.363; 1073.375; -765.000; -733.000
416.489; 4046.800; -324.000; -251.000
416.615;  419.825; -707.000; -742.000
416.741;  -28.175; -677.000; -784.000
416.866; -100.325; -673.000; -736.000
416.992; -125.250; -801.000; -818.000
417.118;  -22.125;  -41.000;  -80.000
417.244;  -62.300; -798.000; -531.000
417.369;  -91.200; -801.000; -612.000
417.495;  -17.075; -325.000; -254.000
417.621;  -92.650;-1015.000; -803.000
417.746;    0.250; -579.000; -572.000
417.872;   41.275; -254.000; -144.000
417.998;   43.975; -515.000; -530.000
418.123; 1024.675;-1073.000; -845.000
418.249; 5240.625; -512.000; -601.000
418.374;  716.300; -916.000; -824.000
418.500;  114.725; -383.000; -482.000
418.626;   94.150;   70.000;  -59.000
418.751;  103.725; -549.000; -448.000
418.877;  197.350; -637.000; -643.000
419.002; 1757.625; -688.000; -560.000
419.128;12215.025; -930.000; -721.000
419.253; 2974.075; -967.000; -837.000
419.379;  395.275; -391.000; -338.000
419.504;  379.675;  325.000;  415.000
419.629;  502.250; -393.000; -212.000
419.755; 3453.950; -317.000; -254.000
419.880;20353.275;  -98.000;   67.000
420.006;11054.000; -280.000; -221.000
420.131;28751.625; -662.000; -775.000
420.256; 4103.175; -315.000; -316.000
420.382;  516.225; -665.000; -687.000
420.507;   81.375; -649.000; -778.000
420.632;  131.175; -337.000; -339.000
420.758;  254.000; -251.000; -425.000
420.883;  -76.750; -876.000; -672.000
421.008;  -87.775; -775.000; -619.000
421.133;  -85.250; -509.000; -467.000
421.259;  -46.825; -325.000; -259.000
421.384; -123.500; -834.000; -693.000
421.509;  -45.000;-1052.000; -862.000
421.634; 1172.700; -936.000; -820.000
421.759;  519.650; -359.000; -327.000
421.885;  -44.875; -717.000; -656.000
422.010;  -83.700; -673.000; -542.000
422.135; -145.375; -695.000; -727.000
422.260;   36.225;  340.000;  280.000
422.385;  -40.350;   12.000;  -98.000
422.510;    3.450;  151.000;  -26.000
422.635;   25.075;  -87.000;  -43.000
422.760;   93.625; -766.000; -791.000
422.885;   35.150;  -57.000;  -80.000
423.010;  -13.725; -112.000; -169.000
423.135;  -91.600; -481.000; -561.000
423.260;  -14.275; -150.000; -245.000
423.385;   57.975;  476.000;  222.000
423.510;   27.600;   71.000;  -22.000
423.635;   65.750;  133.000;   45.000
423.760;   49.275;  383.000;  328.000
423.885;   35.975;  336.000;  391.000
424.010;   15.450;  -68.000;  -13.000
424.135;  -20.700;    5.000;  -33.000
424.259;  -81.225; -654.000; -457.000
424.384;  -63.650; -279.000; -272.000
424.509;  -33.075; -260.000; -186.000
424.634;  -97.000; -761.000; -623.000
424.759;  -21.925; -688.000; -544.000
424.883;   -9.600; -506.000; -527.000
425.008;  158.075; -502.000; -410.000
425.133; 1968.825; -679.000; -653.000
425.258;  911.200; -517.000; -381.000
425.382; 1043.275; -867.000; -774.000
425.507; 2609.050; -487.000; -543.000
425.632;  420.125; -802.000; -663.000
425.756;  449.575; -256.000; -146.000
425.881; 6253.300; -831.000; -857.000
426.006;16910.050; -604.000; -355.000
426.130; 2674.225; -696.000; -508.000
426.255;  358.175; -611.000; -491.000
426.379;  137.400; -189.000; -577.000
426.504;  382.525;  660.000;  544.000
426.629; 3990.800; -519.000; -466.000
426.753; 2731.175;   64.000;  -46.000
426.878;  294.750; -252.000; -288.000
427.002;  165.775; -651.000; -668.000
427.127; 1552.325;  -35.000; -158.000
427.251;11073.300;  372.000;  401.000
427.375; 3113.350; -191.000; -173.000
427.500; 2300.750; -616.000; -610.000
427.624;  778.650; -234.000; -400.000
427.749;  107.550; -216.000; -225.000
427.873;  -34.975; -499.000; -412.000
427.997;  -47.725; -222.000; -230.000
428.122;   73.675;  795.000;  703.000
428.246;   70.900;  433.000;  434.000
428.371; -119.650; -869.000; -773.000
428.495;  -97.725; -624.000; -646.000
428.619;  -35.125; -186.000; -117.000
428.743;   30.050;   65.000;  132.000
428.868;    9.075; -732.000; -643.000
428.992; 1401.300; -219.000; -326.000
429.116;  571.925; -329.000; -357.000
429.240;  281.475;  419.000;  426.000
429.365;  -28.400; -454.000; -574.000
429.489;  -57.150; -638.000; -647.000
429.613;   20.650; -236.000; -177.000
429.737;   35.250; -563.000; -432.000
429.861;  268.825; -247.000; -133.000
429.985; 5421.575; -425.000; -305.000
430.109; 5928.650; -770.000; -908.000
430.234;  680.750;   76.000;  -50.000
430.358;   66.525; -250.000; -160.000
430.482;  -66.025; -672.000; -564.000
430.606;  -76.500; -655.000; -375.000
430.730;   23.200; -437.000; -388.000
430.854;  132.900; -909.000; -835.000
430.978;  -61.700; -795.000; -764.000
431.102;  -96.600; -499.000; -422.000
431.226; -116.775; -874.000; -815.000
431.350;   42.950;  345.000;  422.000
431.474;  -70.325; -661.000; -373.000
431.597; -152.425;-1060.000; -848.000
431.721;  -84.300; -276.000; -267.000
431.845; -129.300; -704.000; -472.000
431.969;  -85.825; -304.000; -349.000
432.093;  -87.825; -395.000; -317.000
432.217;  -25.050;   32.000;   82.000
432.341;  -84.950; -523.000; -518.000
432.464;    2.625;   96.000;   40.000
432.588;  209.050; -401.000; -329.000
432.712;  110.600;  -52.000;  -52.000
432.836;   42.275;  213.000;  263.000
432.959;  -16.800; -372.000; -311.000
433.083;   78.275;   11.000;    2.000
433.207;  352.650;  285.000;  930.000
433.330; 4905.425; -391.000; -200.000
433.454; 6046.400; -654.000; -638.000
433.578; 3483.850;  583.000;  278.000
433.701;  643.225; -623.000; -675.000
433.825;  119.075; -292.000; -299.000
433.949;  177.050;   28.000;  -72.000
434.072;   71.075; -410.000; -323.000
434.196;  -15.800; -309.000; -117.000
434.319; 3724.175;25482.000;25124.000
434.443;  693.925; -656.000; -603.000
434.566; 2580.450;  281.000;   62.000
434.690;  420.675; -637.000; -383.000
434.813;   42.900; -251.000; -173.000
434.937;  -81.825; -569.000; -696.000
435.060;  -44.200; -423.000; -332.000
435.184;  320.225; -492.000; -217.000
435.307;  167.275;  159.000;  102.000
435.431;  -11.875;  -40.000;   24.000
435.554;  -77.125; -399.000; -240.000
435.677;  -80.575; -350.000; -258.000
435.801;  -47.650;  -25.000;   49.000
435.924;   -9.050;    1.000;  -67.000
436.048; -122.600;-1019.000; -732.000
436.171;  -78.200; -240.000;  -66.000
436.294;  -31.375; -248.000; -229.000
436.417;   91.375; -963.000; -849.000
436.541;  -87.150; -814.000; -840.000
436.664;  -55.875; -242.000; -316.000
436.787;  -27.825;   13.000;  113.000
436.910; -120.100; -792.000; -422.000
437.034;   15.450;  142.000;  143.000
437.157;   51.575;  -11.000;    0.000
437.280;  -51.525; -392.000; -292.000
437.403;  -92.125; -982.000; -869.000
437.526;  642.250; -903.000; -865.000
437.649; 2322.050; -505.000; -332.000
437.772;  350.900; -692.000; -540.000
437.896;  130.050;  700.000;  544.000
438.019; -103.025; -758.000; -503.000
438.142;  -97.950; -596.000; -506.000
438.265;  -11.575; -639.000; -670.000
438.388;  565.575; -520.000; -410.000
438.511;   83.050; -597.000; -394.000
438.634;  -55.550; -247.000; -125.000
438.757; -132.550; -693.000; -619.000
438.880;  -27.675;  -34.000;  -57.000
439.003;  -74.000; -417.000; -437.000
439.126;  -51.150; -287.000; -167.000
439.248;  -77.725;  -98.000; -139.000
439.371;  -48.875;    9.000;  -53.000
439.494;   31.225;  510.000;  439.000
439.617;  -53.025;   65.000;  -88.000
439.740; -167.450; -968.000; -816.000
439.863; -147.275; -755.000; -595.000
439.986; -119.250; -476.000; -431.000
440.108;  -49.600; -161.000; -112.000
440.231; -166.600; -950.000; -836.000
440.354;  -33.050;  -64.000; -150.000
440.477;   33.000; -566.000; -542.000
440.599;    2.925; -200.000; -225.000
440.722; -127.950; -709.000; -586.000
440.845;   67.125;  751.000;  928.000
440.968; -119.900; -415.000; -311.000
441.090;  -67.975; -199.000;  -33.000
441.213; -167.025;-1021.000; -825.000
441.336;  -48.150; -159.000;   -5.000
441.458;  -77.850; -549.000; -396.000
441.581;  -88.950; -628.000; -629.000
441.703;  -69.725; -152.000;   13.000
441.826; -121.675; -557.000; -400.000
441.948;  -56.175;   56.000;   51.000
442.071;   23.800;  555.000;  424.000
442.193; -123.100; -531.000; -485.000
442.316;   12.475;  152.000;   97.000
442.438;   33.350; -233.000;  -10.000
442.561;   62.275;  272.000;  262.000
442.683;  572.000; -809.000; -522.000
442.806; 1209.975;   -8.000;   74.000
442.928;   19.450; -859.000; -604.000
443.051;  -75.725; -577.000; -373.000
443.173;  -96.825; -341.000; -339.000
443.295;  -88.750; -263.000; -371.000
443.418;  -73.125; -321.000;  -29.000
443.540;   -3.000; -106.000;   -4.000
443.662; -125.750; -563.000; -465.000
443.785;  -23.250;  335.000;  199.000
443.907;  -98.725; -362.000; -208.000
444.029; -136.625; -767.000; -494.000
444.152; -145.650; -644.000; -554.000
444.274;  -27.950;  -18.000;  -24.000
444.396; -111.300; -461.000; -221.000
444.518; -132.100; -691.000; -454.000
444.640; -103.350; -268.000; -111.000
444.763;  -33.450;  388.000;  249.000
444.885; -133.600; -432.000; -392.000
445.007;  -31.625;   35.000;   86.000
445.129; -116.175; -610.000; -515.000
445.251;  -94.800; -372.000; -439.000
445.373; -137.500; -537.000; -386.000
445.495;   -1.750;  242.000;  350.000
445.617;   60.600;  853.000;  753.000
445.739;  -72.600; -215.000;  -97.000
445.861;  -41.375; -245.000; -112.000
445.984;  -32.125; -267.000; -101.000
446.105;  183.825; -418.000; -251.000
446.227;  605.100; -176.000;  -19.000
446.349;   13.725; -358.000; -249.000
446.471;  -94.700; -615.000; -448.000
446.593;  -59.650; -316.000;   19.000
446.715;   -5.200;  -67.000;   41.000
446.837;   45.125;  697.000;  832.000
446.959; -100.000; -457.000; -478.000
447.081; -137.700; -628.000; -518.000
447.203;   53.225;  862.000;  834.000
447.325;  -88.025; -270.000;   42.000
447.446;  -19.775;  286.000;  530.000
447.568; -155.975; -921.000; -803.000
447.690;  -69.300; -236.000; -245.000
447.812; -155.300; -798.000; -519.000
447.933;  -29.475;  155.000;  127.000
448.055;  -73.250; -306.000; -261.000
448.177;  125.000;   31.000;   79.000
448.299;   82.525; -935.000; -727.000
448.420;   24.525;  -25.000;  159.000
448.542;  -55.950;   -3.000;   33.000
448.664;  -23.050;  109.000;  322.000
448.785;  -42.750;  265.000;   83.000
448.907;  -79.750; -614.000; -353.000
449.028;  -31.875; -771.000; -471.000
449.150;   77.200;  492.000;  589.000
449.272; -182.725;-1044.000; -913.000
449.393;   20.800;  612.000;  694.000
449.515; -155.050; -634.000; -581.000
449.636;  -65.425; -264.000; -155.000
449.758;   86.375;  763.000;  622.000
449.879;  -94.275; -498.000; -396.000
450.001;  -78.550; -149.000;  -49.000
450.122;  -23.050;  -95.000;  162.000
450.244;  -37.525;   37.000;  364.000
450.365;  -93.550; -495.000; -301.000
450.486;  -21.300;   80.000;  268.000
450.608;   26.275;  393.000;  326.000
450.729;   65.875;  578.000;  645.000
450.850;  -11.575; -574.000; -466.000
450.972;  720.575; -552.000; -389.000
451.093; 4705.150;  190.000;  588.000
451.214; 2017.925; -516.000; -337.000
451.336;  381.450;  773.000;  579.000
451.457;   55.250;  264.000;  393.000
451.578;  -44.375; -118.000;  -74.000
451.699; -132.900; -546.000; -540.000
451.821;  -67.275; -284.000;  -50.000
451.942;  -16.450;  278.000;  285.000
452.063;   37.600;  228.000;  419.000
452.184;  525.175;  -54.000;  -49.000
452.305; 1086.675;  103.000;  170.000
452.427;  127.500; -549.000; -301.000
452.548;  -33.250;   23.000;   79.000
452.669;  -57.000; -257.000;  -89.000
452.790;  -43.000;    3.000;  -18.000
452.911;   -7.425;  195.000;  259.000
453.032;  -67.775; -289.000;  -60.000
453.153;  -49.325;  -29.000;   81.000
453.274;   65.675;  737.000;  868.000
453.395;  -55.850;  -51.000;  175.000
453.516;  126.650; 1317.000; 1388.000
453.637;  -71.775; -205.000; -150.000
453.758;  -76.150;   15.000;   69.000
453.879; -128.875; -462.000; -250.000
454.000;   75.250; 1086.000;  948.000
454.121; -111.525; -554.000; -326.000
454.242; -111.575; -599.000; -383.000
454.362;  -58.375;  -99.000;  114.000
454.483;  -48.400; -309.000; -229.000
454.604;   55.100;  512.000;  580.000
454.725; -125.425; -627.000; -555.000
454.846; -122.175; -474.000; -406.000
454.967;  -27.450;  230.000;  539.000
455.087;  -43.525;  179.000;  153.000
455.208;    2.450;  554.000;  856.000
455.329;  -62.250;  -22.000;   82.000
455.450;   30.275;  473.000;  633.000
455.570;  -92.450; -234.000; -211.000
455.691;  -26.750;  201.000;  407.000
455.812; -102.500; -270.000;  -92.000
455.932;  -64.775;  107.000;  -97.000
456.053;  -88.700;   36.000;   24.000
456.173; -118.750; -433.000; -355.000
456.294; -140.025; -476.000; -303.000
456.415;  -64.325;  -73.000;   70.000
456.535;  -51.750;  297.000;  273.000
456.656;  -40.200;  132.000;  240.000
456.776;  -71.550;    3.000;  298.000
456.897;    4.525;  308.000;  513.000
457.017;  -80.950; -153.000;   -3.000
457.138; -101.000; -402.000; -249.000
457.258;  -26.000;  263.000;  224.000
457.379;  -18.775;  509.000;  521.000
457.499;  -29.050;  443.000;  432.000
457.620; -122.925; -407.000; -231.000
457.740; -106.675; -132.000;  -11.000
457.860;  -71.000;   87.000;   44.000
457.981;  -46.275;  132.000;  124.000
458.101;  -79.875;  -89.000;   40.000
458.221;  -26.975;  336.000;  402.000
458.342;  -47.925;   -4.000;  -37.000
458.462;   24.850;  617.000;  352.000
458.582;  -50.450; -302.000; -294.000
458.703;    6.075;  303.000;  154.000
458.823;  -35.025;   22.000;  163.000
458.943;    4.275;  341.000;  467.000
459.063;   -8.850; 1124.000;  192.000
459.183;  -37.925;  328.000;  313.000
459.304;   18.850;  315.000;  517.000
459.424;  -50.250; -246.000;  -89.000
459.544;  329.500;  388.000;  764.000
459.664;  810.925;  499.000;  506.000
459.784;  313.875; 1004.000; 1175.000
459.904;   57.000;  867.000;  744.000
460.024;   66.000;  867.000;  684.000
460.144;   13.375;  449.000;  554.000
460.264;    3.250;  515.000;  327.000
460.385;  -97.575; -145.000; -119.000
460.505;   48.775;  905.000;  858.000
460.625;  -90.725;  -17.000;  -68.000
460.745;  -26.325;  396.000;  541.000
460.864;  -49.350;  153.000;  469.000
460.984;   25.825;  499.000;  573.000
461.104;  124.550; 1656.000; 1775.000
461.224;   30.800;  657.000;  650.000
461.344;  -31.275;  431.000;  360.000
461.464;  -30.900;  258.000;  513.000
461.584;  -18.900;  283.000;  466.000
461.704;  -40.000;   58.000;  108.000
461.824;  -64.725;  238.000;  259.000
461.943;  -31.850;  191.000;  130.000
462.063;  -76.925;    2.000;  324.000
462.183;   32.500;  639.000;  717.000
462.303;  104.350; 1678.000; 1230.000
462.422;   42.550;  781.000;  840.000
462.542;  -47.775;  271.000;  391.000
462.662;   27.450;  353.000;  380.000
462.782;  249.325;  833.000;  572.000
462.901;  477.325;  545.000;  717.000
463.021;  274.100; 1702.000; 1638.000
463.141;   -2.075;  337.000;  770.000
463.260;  -23.800;  614.000;  474.000
463.380;   17.375;  902.000;  884.000
463.499;  -38.000;  342.000;  332.000
463.619;  -34.375;  581.000;  559.000
463.738;  110.050; 1644.000;  903.000
463.858;    8.625;  657.000;  811.000
463.978;  -42.225;  542.000;  396.000
464.097;   50.575;  921.000; 1114.000
464.217;  109.325; 1196.000; 1143.000
464.336;  104.650; 1068.000; 1130.000
464.455;  -42.000;  328.000;  659.000
464.575;   41.125;  597.000;  602.000
464.694;  180.400; 1204.000; 1179.000
464.814;  135.800; 1190.000; 1138.000
464.933;   75.025; 1095.000; 1027.000
465.052;  105.400; 1412.000; 1054.000
465.172;   75.400;  922.000;  799.000
465.291;  137.225; 1376.000; 1320.000
465.410;   15.950;  462.000;  735.000
465.530;   87.825; 1355.000; 1310.000
465.649;   69.975; 1209.000; 1273.000
465.768;  142.325; 1673.000; 1508.000
465.888;   52.250;  941.000; 1174.000
466.007;   77.800; 1335.000; 1440.000
466.126;  -12.050;  721.000;  641.000
466.245;   43.900; 1176.000; 1187.000
466.364;   17.250;  950.000; 1060.000
466.484;   55.500; 1024.000; 1213.000
466.603;   28.825; 1101.000; 1222.000
466.722;  112.000; 1490.000; 1769.000
466.841;   81.225; 1151.000; 1401.000
466.960;   41.450; 1069.000;  972.000
467.079;  116.900; 1971.000; 1786.000
467.198;   61.275; 1238.000; 1181.000
467.317;   95.175; 1768.000; 1162.000
467.436;   73.675; 1709.000; 1261.000
467.555;  135.925; 1796.000; 1746.000
467.674;   72.625; 1227.000; 1329.000
467.793;   41.825; 1376.000; 1374.000
467.912;   87.975; 1658.000; 1539.000
468.031;  127.125; 2038.000; 1930.000
468.150;  149.600; 1842.000; 1837.000
468.269;  184.575; 2313.000; 2090.000
468.388;  184.700; 2168.000; 2339.000
468.507;  256.900; 2884.000; 2903.000
468.626;  243.000; 2555.000; 2541.000
468.744;  138.350; 2018.000; 2174.000
468.863;  207.475; 2312.000; 2523.000
468.982;   89.725; 1503.000; 1555.000
469.101;  225.625; 2788.000; 2692.000
469.220;  147.650; 2333.000; 2176.000
469.338;  258.525; 2935.000; 3051.000
469.457;  203.200; 2719.000; 2545.000
469.576;  344.750; 3953.000; 3784.000
469.695;  246.725; 2877.000; 3066.000
469.813;  423.625; 4148.000; 4192.000
469.932;  399.800; 4255.000; 4485.000
470.051;  438.950; 4075.000; 4161.000
470.169;  839.375; 4470.000; 4338.000
470.288; 1451.075; 4700.000; 4809.000
470.406;  852.075; 5059.000; 5194.000
470.525;  646.925; 6101.000; 5787.000
470.644;  667.325; 6847.000; 6794.000
470.762;  817.350; 8397.000; 7873.000
470.881;  917.975; 8651.000; 8464.000
470.999; 1045.900; 9685.000; 9151.000
471.118; 1103.325;11174.000;10711.000

