
Integration time [ms]: 200.000
Averaging Nr. [scans]: 10
Smoothing Nr. [pixels]: 0
Data measured with spectrometer [name]: 2101012U2
Wave   ;Sample   ;Dark     ;Reference
[nm]   ;[counts] ;[counts] ;[counts] 

197.733;   76.400;  516.000;  404.000
197.879; -149.200; -610.000; -634.000
198.025; -119.500; -475.000; -420.000
198.171; -144.100; -602.000; -612.000
198.317;  -74.100; -401.000; -316.000
198.463; -153.500; -655.000; -404.000
198.609;   61.800;  181.000; -137.000
198.755; -156.400; -644.000; -410.000
198.901; -144.500; -505.000; -424.000
199.047; -143.700; -615.000; -488.000
199.193;  -67.500; -230.000; -468.000
199.339;  -50.600; -222.000; -369.000
199.485;   65.000;  330.000;  271.000
199.631;   31.600;  227.000;  310.000
199.777; -116.500; -466.000; -398.000
199.923; -168.600; -610.000; -424.000
200.069;  -44.700; -141.000;  -58.000
200.215;   94.600;  128.000;  453.000
200.361;  100.700;  243.000;  477.000
200.507; -127.800; -600.000; -373.000
200.653;  -67.800; -371.000; -194.000
200.798;  -55.400; -215.000; -125.000
200.944;    2.100; -146.000;  -41.000
201.090;   42.700;   61.000;  222.000
201.236;    4.900; -116.000; -158.000
201.382;  251.600;  874.000;  903.000
201.528;  -29.900;  -58.000;  -48.000
201.674; -100.300; -386.000; -293.000
201.819; -143.500; -540.000; -439.000
201.965; -186.200; -699.000; -447.000
202.111;  -61.600; -273.000; -226.000
202.257;  -70.400; -250.000; -238.000
202.402;   -4.300;   13.000;  -36.000
202.548;  -78.200; -169.000; -116.000
202.694;  188.500;  410.000; -183.000
202.840; -128.600; -603.000; -531.000
202.985; -162.100; -681.000; -639.000
203.131; -223.700; -832.000; -666.000
203.277;  -24.700; -199.000; -262.000
203.423; -109.000; -434.000; -520.000
203.568;  -60.900; -462.000; -237.000
203.714; -131.200; -535.000; -542.000
203.860; -177.000; -682.000; -641.000
204.005;   45.200;  112.000;  167.000
204.151;  156.300;  561.000;  556.000
204.296; -101.000; -354.000; -221.000
204.442; -166.300; -600.000; -547.000
204.588; -170.400; -592.000; -579.000
204.733;   26.000;  178.000;  168.000
204.879; -250.700;-1018.000; -822.000
205.025;   13.300;  -99.000;  126.000
205.170;   10.600;  -17.000;   94.000
205.316;  167.700;  438.000;  661.000
205.461; -181.200; -698.000; -554.000
205.607;  189.500;  609.000;  665.000
205.752; -180.100; -626.000; -551.000
205.898; -126.900; -501.000; -391.000
206.043; -114.000; -578.000; -506.000
206.189;  -98.500; -243.000; -285.000
206.334;  165.300;  554.000;  606.000
206.480;  151.500;  409.000;  239.000
206.625; -197.000; -529.000; -552.000
206.771;  -77.000; -451.000; -373.000
206.916;  -55.600; -210.000; -537.000
207.062; -136.800; -545.000; -591.000
207.207; -113.200; -546.000; -443.000
207.353;  102.900;  185.000;  460.000
207.498;   32.300;  196.000;   85.000
207.643;  -91.300; -501.000; -370.000
207.789; -260.600;-1069.000; -910.000
207.934; -210.600; -665.000; -713.000
208.080;  -48.300; -154.000;   66.000
208.225;  -34.300;  -22.000;  -57.000
208.370; -181.900; -727.000; -619.000
208.516; -160.200; -741.000; -487.000
208.661;  -36.000; -127.000;  -69.000
208.806;  -68.700; -165.000; -171.000
208.952; -278.700;-1044.000; -731.000
209.097;  137.700;  378.000;  349.000
209.242;  -82.800; -307.000; -382.000
209.387;  151.400;  392.000;  350.000
209.533; -116.700; -321.000; -350.000
209.678;  146.700;  472.000;  543.000
209.823; -125.200; -408.000; -310.000
209.969; -186.500; -860.000; -757.000
210.114; -220.400; -907.000; -719.000
210.259; -244.800; -939.000; -889.000
210.404;  -19.900; -171.000;  103.000
210.549;   37.900;  108.000;    3.000
210.695;  -42.800;   -3.000;  -95.000
210.840;   69.300;   94.000;   67.000
210.985; -113.000; -484.000; -303.000
211.130;  140.100;  268.000;  406.000
211.275;   73.700;  207.000;  199.000
211.420;  -83.700; -300.000; -289.000
211.566; -153.400; -536.000; -489.000
211.711;   44.300;  218.000;  157.000
211.856; -122.400; -545.000; -519.000
212.001;   10.000;  151.000;   44.000
212.146;  -15.400;  153.000;   49.000
212.291;  -45.500; -210.000; -186.000
212.436;  -53.600; -280.000;   -6.000
212.581; -165.500; -685.000; -653.000
212.726; -149.500; -487.000; -538.000
212.871; -106.500; -552.000; -217.000
213.016; -319.300;-1172.000;-1029.000
213.161;  152.800;  406.000;  291.000
213.306; -159.000; -435.000; -577.000
213.451; -174.200; -778.000; -689.000
213.596; -119.300; -455.000; -347.000
213.741; -113.300; -448.000; -538.000
213.886; -153.900; -498.000; -517.000
214.031;  -52.600; -294.000; -124.000
214.176; -118.400; -408.000; -341.000
214.321;  -16.900; -296.000; -157.000
214.466;  -63.300; -163.000;  -43.000
214.611;    7.700;  -61.000;  -10.000
214.756; -257.800; -948.000; -858.000
214.901;  -48.400; -388.000; -226.000
215.046; -236.800; -797.000; -825.000
215.191;   27.800;  128.000;   35.000
215.336;  -40.000; -157.000;  -19.000
215.480; -110.300; -684.000; -505.000
215.625;  -27.700; -175.000;  -19.000
215.770; -174.900; -757.000; -662.000
215.915;  -14.500;   -5.000;  -97.000
216.060;  -45.900; -113.000;  -21.000
216.205; -225.300; -731.000; -779.000
216.349; -137.300; -470.000; -533.000
216.494; -270.800; -939.000; -867.000
216.639; -228.100; -823.000; -888.000
216.784; -166.200; -577.000; -525.000
216.929;  118.700;  392.000;  281.000
217.073;  -19.000; -244.000;  -31.000
217.218;    7.100;   78.000;  -47.000
217.363; -191.400; -656.000; -618.000
217.507; -166.400; -623.000; -588.000
217.652; -240.000; -845.000; -874.000
217.797; -220.300; -708.000; -659.000
217.942; -201.200; -856.000; -720.000
218.086;  157.300;  608.000;  539.000
218.231;  -28.200; -174.000;  -26.000
218.376;  -60.600; -337.000; -229.000
218.520;   10.900;  -41.000;   96.000
218.665;  -46.300; -338.000; -204.000
218.810; -105.000; -275.000; -233.000
218.954;   49.100;  201.000;   35.000
219.099; -221.300; -713.000; -963.000
219.243; -143.000; -589.000; -554.000
219.388;  -63.500; -264.000; -136.000
219.532;    3.000; -116.000; -116.000
219.677; -183.200; -564.000; -521.000
219.822;   47.400;   33.000;   89.000
219.966;   14.400;   17.000;  -99.000
220.111;  -76.500; -328.000;  -40.000
220.255; -201.000; -797.000; -750.000
220.400;  -63.300; -180.000; -146.000
220.544; -131.000; -516.000; -450.000
220.689; -112.800; -422.000; -451.000
220.833;  -28.200; -123.000;  -58.000
220.978;  -77.100; -393.000; -563.000
221.122;   43.300;  319.000;  307.000
221.267; -244.700; -906.000; -837.000
221.411; -110.000; -478.000; -394.000
221.555;  -15.600; -104.000;  -23.000
221.700; -104.900; -329.000; -222.000
221.844;   80.300;  255.000;  272.000
221.989;  -80.300; -328.000; -311.000
222.133;  -84.000; -289.000; -307.000
222.277;  -27.900;    5.000;   78.000
222.422;   38.200;  227.000;  113.000
222.566;  -83.300; -381.000; -214.000
222.711; -125.500; -414.000; -479.000
222.855; -156.100; -643.000; -586.000
222.999; -187.500; -642.000; -717.000
223.144;  -83.700; -195.000; -194.000
223.288;   97.900;  423.000;  251.000
223.432;   28.500;  184.000;  230.000
223.576;   58.100;  152.000;  -21.000
223.721;   85.000;  364.000;  273.000
223.865; -127.800; -472.000; -475.000
224.009;  491.000; 1673.000; 1631.000
224.153; -157.500; -660.000; -671.000
224.298; -137.800; -531.000; -489.000
224.442;  -10.500;  -74.000;  -33.000
224.586;  -37.200; -169.000; -106.000
224.730; -168.900; -858.000; -670.000
224.875; -220.900; -739.000; -688.000
225.019;    9.700;  102.000;  188.000
225.163;  114.600;  208.000;  341.000
225.307;   35.300;   97.000;  -91.000
225.451;  133.300;  360.000;  481.000
225.595;   64.700;  264.000;  176.000
225.739;  -11.800; -170.000;  -94.000
225.884;   25.000;   86.000;    5.000
226.028; -202.400; -760.000; -626.000
226.172;  -64.200; -260.000; -273.000
226.316; -237.300; -941.000; -902.000
226.460; -129.000; -645.000; -493.000
226.604; -123.900; -406.000; -400.000
226.748; -178.400; -836.000; -733.000
226.892;  -49.200; -227.000; -181.000
227.036; -122.300; -537.000; -447.000
227.180; -130.200; -551.000; -375.000
227.324; -151.900; -561.000; -580.000
227.468; -245.300; -819.000; -717.000
227.612;   23.700;  242.000;  -28.000
227.756; -240.800; -845.000; -698.000
227.900;   99.100;  342.000;  441.000
228.044; -118.900; -509.000; -290.000
228.188;   89.900;  448.000;  568.000
228.332; -181.800; -546.000; -472.000
228.476;  -62.600; -223.000; -149.000
228.620;  -52.500; -210.000; -150.000
228.764;  150.500;  431.000;  349.000
228.908;  -22.800; -155.000;   30.000
229.052; -108.700; -615.000; -528.000
229.195;  -58.000; -172.000;   13.000
229.339;  -50.800; -235.000; -305.000
229.483;  -59.000;    5.000; -162.000
229.627;   -7.800; -156.000;  139.000
229.771; -118.400; -218.000; -294.000
229.915;   12.100;  230.000;   79.000
230.059; -179.300; -648.000; -663.000
230.202;  -92.000; -370.000; -317.000
230.346;  -29.100; -107.000;  107.000
230.490; -123.900; -489.000; -521.000
230.634; -229.900; -736.000; -553.000
230.777;  165.500;  478.000;  509.000
230.921; -100.000; -450.000; -359.000
231.065;  -79.400; -246.000; -286.000
231.209;   75.300;  261.000;  265.000
231.352;   27.700;   54.000;   40.000
231.496;   17.000;  568.000;  188.000
231.640; -158.100; -693.000; -621.000
231.783;  128.500;  546.000;  525.000
231.927;  -69.900; -294.000; -365.000
232.071; -256.900; -962.000; -736.000
232.214; -248.800; -980.000; -764.000
232.358; -214.200; -683.000; -599.000
232.502;    7.600;  -19.000;    7.000
232.645; -277.600;-1090.000; -927.000
232.789;  -17.600; -257.000; -218.000
232.933;  -69.900; -407.000; -224.000
233.076; -274.500;-1038.000; -897.000
233.220; -238.800; -752.000; -777.000
233.363; -168.000; -669.000; -477.000
233.507;  131.300;  371.000;  129.000
233.650; -214.400; -764.000; -834.000
233.794;   87.400;  438.000;  461.000
233.938; -126.800; -530.000; -362.000
234.081;  -25.600;  -93.000;   31.000
234.225; -117.900; -631.000; -539.000
234.368; -224.300; -773.000; -723.000
234.512;  -99.700; -385.000; -299.000
234.655; -166.300; -582.000; -555.000
234.798; -141.000; -493.000; -466.000
234.942; -258.700; -884.000;-1002.000
235.085; -138.500; -651.000; -443.000
235.229; -137.700; -405.000; -410.000
235.372; -103.900; -247.000; -191.000
235.516; -124.800; -397.000; -321.000
235.659;   13.300;   92.000;  121.000
235.802;  -26.500;  -38.000;  -22.000
235.946;   59.800;  335.000;  215.000
236.089;   44.600;  126.000;  250.000
236.233;   97.300;  275.000;  298.000
236.376;  -68.300; -235.000; -378.000
236.519;  -65.100; -297.000; -319.000
236.663;  -38.900; -215.000; -117.000
236.806; -280.600;-1029.000; -999.000
236.949;  107.500;  543.000;  431.000
237.092;  136.900;  412.000;  391.000
237.236; -201.300; -589.000; -502.000
237.379;  134.300;  352.000;  428.000
237.522; -245.600; -879.000; -768.000
237.666;  -44.100; -271.000;   18.000
237.809; -258.100; -851.000; -823.000
237.952;   88.100;  469.000;  271.000
238.095; -149.500; -447.000; -442.000
238.238;  198.400;  688.000;  700.000
238.382;   35.600;  166.000;  103.000
238.525; -140.800; -598.000; -511.000
238.668; -252.800;-1060.000; -985.000
238.811; -157.200; -638.000; -643.000
238.954; -120.700; -483.000; -334.000
239.097;  198.800;  617.000;  664.000
239.241;   78.800;  394.000;  326.000
239.384;  -15.000; -254.000; -214.000
239.527; -128.600; -424.000; -224.000
239.670; -287.700; -994.000;-1091.000
239.813; -203.700; -696.000; -658.000
239.956;  191.300;  579.000;  473.000
240.099; -225.300; -778.000; -725.000
240.242;  127.200;  428.000;  432.000
240.385;  103.200;  466.000;  450.000
240.528; -131.600; -706.000; -473.000
240.671;   50.600;  189.000;  134.000
240.814;  -92.000; -441.000; -158.000
240.957; -173.700; -767.000; -578.000
241.100; -177.500; -779.000; -755.000
241.243; -294.300;-1234.000; -893.000
241.386; -148.100; -508.000; -379.000
241.529; -177.800; -735.000; -547.000
241.672; -146.300; -566.000; -495.000
241.815; -205.700; -832.000; -808.000
241.958;  -63.400; -125.000; -182.000
242.101; -133.600; -545.000; -390.000
242.244;  -85.800; -270.000; -325.000
242.387;  -87.900; -304.000; -246.000
242.530;  111.300;  470.000;  134.000
242.673;  -67.300; -381.000; -309.000
242.815; -251.700; -925.000; -899.000
242.958; -146.200; -482.000; -381.000
243.101;    7.100;  132.000;  187.000
243.244; -142.500; -564.000; -521.000
243.387;  -67.700; -313.000; -316.000
243.530; -208.400; -657.000; -674.000
243.672;    4.100;   43.000;  -92.000
243.815; -105.300; -355.000; -283.000
243.958;   19.800;   98.000;  -26.000
244.101;   19.200;   59.000;  -16.000
244.243;  -16.500;  -47.000;  101.000
244.386; -234.400; -761.000; -630.000
244.529;  -42.800; -132.000; -139.000
244.672; -310.400;-1154.000; -951.000
244.814; -199.000; -621.000; -794.000
244.957;  -71.500; -380.000; -304.000
245.100; -149.800; -489.000; -489.000
245.242; -112.000; -387.000; -374.000
245.385;  -24.700;  -59.000;  -39.000
245.528; -236.800; -871.000; -705.000
245.670;  187.900;  612.000;  634.000
245.813; -156.400; -599.000; -547.000
245.956;  -53.200; -324.000; -275.000
246.098; -135.600; -508.000; -650.000
246.241;   29.600;  194.000;   48.000
246.383;  -11.900; -119.000;  -73.000
246.526; -158.100; -454.000; -525.000
246.669; -212.000; -889.000; -780.000
246.811;   40.200;  172.000;   -1.000
246.954; -100.300; -512.000; -426.000
247.096;   -1.400;  -84.000;   -6.000
247.239; -156.800; -482.000; -445.000
247.381; -138.400; -647.000; -488.000
247.524;  206.300;  645.000;  679.000
247.666;  -22.800;   58.000;   11.000
247.809; -210.600; -887.000; -691.000
247.951;  -19.800;  -75.000;  138.000
248.094;   62.800;  432.000;  308.000
248.236; -327.400;-1262.000;-1238.000
248.378;  -92.900; -356.000;  -81.000
248.521; -105.600; -334.000; -337.000
248.663;  -73.100; -236.000; -267.000
248.806;  -80.700; -300.000; -266.000
248.948; -216.400; -886.000; -763.000
249.090; -114.000; -428.000; -398.000
249.233; -104.400; -344.000; -381.000
249.375; -120.200; -474.000; -451.000
249.518;  -60.400;  -83.000; -133.000
249.660;  -31.700; -103.000;    3.000
249.802; -355.900;-1303.000;-1189.000
249.945; -160.700; -612.000; -540.000
250.087; -202.700; -834.000; -768.000
250.229; -121.400; -362.000; -480.000
250.371; -142.500; -494.000; -439.000
250.514; -123.500; -310.000; -244.000
250.656;  -18.600;   69.000;  102.000
250.798; -243.800; -849.000; -800.000
250.940; -111.900; -322.000; -322.000
251.083;  -70.700; -335.000; -111.000
251.225;  138.300;  338.000;  310.000
251.367;  -89.200; -274.000; -373.000
251.509;  -54.200; -265.000; -210.000
251.651; -215.000; -731.000; -671.000
251.794;  188.400;  538.000;  632.000
251.936; -224.600; -821.000; -747.000
252.078; -170.500; -540.000; -461.000
252.220; -151.300; -645.000; -477.000
252.362;   46.600;  344.000;  462.000
252.504; -163.400; -677.000; -584.000
252.646; -231.900; -875.000; -722.000
252.788;  -28.500;   14.000; -128.000
252.931; -122.600; -257.000; -253.000
253.073;  -68.500; -376.000; -317.000
253.215;  -28.300;  141.000;  122.000
253.357;   -1.500;   82.000; -153.000
253.499;  -97.900; -374.000; -234.000
253.641; -175.400; -749.000; -594.000
253.783; -172.300; -609.000; -527.000
253.925; -174.100; -586.000; -591.000
254.067; -205.500; -744.000; -667.000
254.209;  -57.900; -391.000; -259.000
254.351; -257.600; -865.000; -883.000
254.493; -112.500; -441.000; -417.000
254.635; -241.000; -936.000; -818.000
254.777; -183.500; -752.000; -687.000
254.918; -150.700; -512.000; -430.000
255.060; -138.400; -551.000; -395.000
255.202; -115.600; -473.000; -261.000
255.344; -148.700; -658.000; -455.000
255.486; -147.300; -471.000; -406.000
255.628; -220.100; -780.000; -781.000
255.770; -170.700; -676.000; -536.000
255.912; -118.900; -559.000; -468.000
256.053; -180.900; -730.000; -508.000
256.195;  301.600; 1008.000;  903.000
256.337; -178.500; -861.000; -595.000
256.479;  153.700;  532.000;  416.000
256.621;  -75.100; -394.000; -212.000
256.762; -174.500; -789.000; -742.000
256.904;  102.300;  485.000;  487.000
257.046;  -66.400; -381.000; -271.000
257.188;  -98.400; -351.000; -264.000
257.329; -140.600; -525.000; -464.000
257.471; -218.000; -939.000; -807.000
257.613; -153.400; -584.000; -498.000
257.755; -314.600;-1073.000; -982.000
257.896;   62.100;  286.000;  392.000
258.038; -116.100; -403.000; -352.000
258.180;  -63.800; -354.000; -279.000
258.321; -145.200; -581.000; -457.000
258.463;   10.800;  -71.000;  133.000
258.605; -195.200; -562.000; -570.000
258.746; -224.500; -886.000; -772.000
258.888; -266.900;-1026.000;-1020.000
259.029;   32.200;  121.000;   -8.000
259.171; -156.300; -614.000; -550.000
259.313;   -7.900;  -49.000;  -47.000
259.454; -142.100; -536.000; -414.000
259.596; -102.600; -483.000; -390.000
259.737; -152.200; -590.000; -474.000
259.879;   71.600;  217.000;  311.000
260.020;  151.100;  901.000;  636.000
260.162;  -57.700; -146.000; -253.000
260.303; -250.800; -768.000; -687.000
260.445; -161.500; -609.000; -613.000
260.586;   66.700;  392.000;  157.000
260.728;  -55.400; -360.000; -248.000
260.869; -145.300; -350.000; -343.000
261.011;  185.700;  706.000;  537.000
261.152; -108.800; -479.000; -319.000
261.293; -169.400; -576.000; -595.000
261.435;  -56.000; -219.000; -184.000
261.576; -106.100; -455.000; -325.000
261.718;  114.900;  420.000;  470.000
261.859; -263.500; -940.000; -949.000
262.000; -244.600; -951.000;-1016.000
262.142;  -46.800;  -52.000;  -60.000
262.283; -238.100; -808.000; -691.000
262.424; -175.800; -666.000; -625.000
262.566; -311.200;-1161.000; -983.000
262.707; -235.300; -840.000; -830.000
262.848; -226.000; -769.000; -726.000
262.990; -108.900; -362.000; -345.000
263.131;  157.400;  650.000;  681.000
263.272;  -25.100;  -61.000;  -41.000
263.413; -193.100; -589.000; -561.000
263.555; -143.400; -669.000; -143.000
263.696; -186.500; -550.000; -641.000
263.837; -126.200; -449.000; -551.000
263.978;   20.900;   -5.000;  -77.000
264.119;  -88.000; -283.000; -264.000
264.261; -195.700; -847.000; -630.000
264.402;   16.100;   33.000;   40.000
264.543; -150.600; -509.000; -524.000
264.684;   12.300;   61.000;  -50.000
264.825; -142.600; -816.000; -538.000
264.966;  -30.500;  -84.000;  -67.000
265.107; -243.400; -646.000; -670.000
265.248; -246.100; -825.000; -812.000
265.390;  -25.100;  152.000;   -9.000
265.531;  -30.200; -238.000; -107.000
265.672; -147.300; -557.000; -630.000
265.813;  121.000;  563.000;  439.000
265.954; -302.700; -959.000; -940.000
266.095;  -34.500; -372.000; -322.000
266.236; -180.800; -686.000; -548.000
266.377;  -94.500; -243.000; -297.000
266.518; -125.300; -619.000; -547.000
266.659;   53.000;  170.000;  268.000
266.800;   -7.500;   83.000;   85.000
266.941; -158.900; -487.000; -478.000
267.082;   -5.600;  354.000;   99.000
267.223; -114.700; -344.000; -273.000
267.364; -242.800; -892.000; -686.000
267.504;  -51.200;    3.000;  135.000
267.645;  -30.100;  160.000;   67.000
267.786;  -66.800; -147.000;  -86.000
267.927; -147.400; -473.000; -379.000
268.068;   -9.300; -186.000;  -61.000
268.209;  -96.000; -175.000; -413.000
268.350;  -90.500; -388.000; -532.000
268.490; -177.100; -648.000; -521.000
268.631;   55.000;  127.000;  225.000
268.772; -208.700; -874.000; -647.000
268.913;  -92.300; -328.000; -476.000
269.054;  -50.600; -117.000;   12.000
269.194;  -71.600; -418.000; -402.000
269.335; -324.900;-1137.000;-1074.000
269.476;  -10.800;   33.000;  -35.000
269.617;  -97.700; -347.000; -392.000
269.757; -210.000; -713.000; -646.000
269.898; -195.700; -856.000; -613.000
270.039; -113.000; -415.000; -405.000
270.180; -258.500; -952.000; -816.000
270.320;  -63.600; -190.000; -250.000
270.461;  -83.200; -277.000; -249.000
270.602;  -48.400; -186.000; -156.000
270.742; -244.900; -868.000; -943.000
270.883; -135.800; -442.000; -390.000
271.023; -112.100; -358.000; -357.000
271.164; -178.000; -607.000; -528.000
271.305; -212.700; -666.000; -654.000
271.445; -189.300; -722.000; -683.000
271.586; -162.100; -462.000; -283.000
271.726; -116.000; -397.000; -322.000
271.867; -209.500; -594.000; -534.000
272.008;  -86.600; -473.000; -285.000
272.148;  116.900;  462.000;  468.000
272.289;  -53.900; -113.000; -181.000
272.429;  -20.300;   19.000;  185.000
272.570; -220.000; -633.000; -737.000
272.710; -228.800; -825.000; -775.000
272.851;  -56.900;  113.000; -130.000
272.991; -323.800;-1173.000;-1077.000
273.131; -140.700; -419.000; -459.000
273.272; -198.800; -683.000; -723.000
273.412;  -42.500; -143.000;  -31.000
273.553; -171.100; -488.000; -507.000
273.693;  233.300;  913.000;  858.000
273.834; -283.400; -894.000; -692.000
273.974; -167.800; -664.000; -615.000
274.114; -214.200; -772.000; -560.000
274.255;   56.700;  414.000;  373.000
274.395;  -58.600; -180.000; -125.000
274.535;   59.600;  199.000;  350.000
274.676;   63.400;  225.000;   94.000
274.816;   -1.100;  110.000;   34.000
274.956; -204.700; -624.000; -690.000
275.097; -261.500;-1014.000; -922.000
275.237; -233.400; -913.000; -803.000
275.377; -212.800; -778.000; -689.000
275.517; -327.800; -878.000; -937.000
275.658; -175.300; -590.000; -555.000
275.798; -182.800; -606.000; -413.000
275.938;   41.400;  215.000;  323.000
276.078; -204.100; -626.000; -395.000
276.218;   16.900;   99.000;  104.000
276.359; -299.400;-1026.000;-1024.000
276.499; -167.900; -605.000; -446.000
276.639;  -56.300; -305.000; -151.000
276.779;  -88.300; -475.000; -357.000
276.919; -226.600; -783.000; -624.000
277.059;  -46.300; -261.000; -212.000
277.199; -108.200; -357.000; -259.000
277.340;   69.300;  287.000;  175.000
277.480; -219.500; -840.000; -693.000
277.620;   41.800;  192.000;   16.000
277.760; -397.600;-1533.000;-1294.000
277.900;    7.900;  113.000;   33.000
278.040;    5.200;  137.000;  159.000
278.180;   54.500;  270.000;  170.000
278.320;    8.400;   21.000;   56.000
278.460; -142.700; -443.000; -469.000
278.600; -169.400; -708.000; -598.000
278.740;   76.900;  448.000;  224.000
278.880; -242.900; -768.000; -791.000
279.020;  -28.400; -194.000; -144.000
279.160; -200.500; -672.000; -595.000
279.300; -244.500; -926.000; -873.000
279.440; -186.700; -709.000; -622.000
279.579; -269.800;-1014.000; -929.000
279.719; -131.300; -410.000; -394.000
279.859;   15.100;   -4.000;   41.000
279.999;  -43.600; -208.000;  101.000
280.139; -112.800; -435.000; -387.000
280.279; -204.800; -708.000; -745.000
280.419;  -39.900; -229.000; -147.000
280.559;  -95.100; -259.000; -180.000
280.698; -169.800; -790.000; -639.000
280.838; -222.000; -778.000; -800.000
280.978; -219.000; -846.000; -790.000
281.118; -219.700; -811.000; -704.000
281.257;   18.500;   24.000;    6.000
281.397; -282.800;-1094.000; -960.000
281.537; -241.100; -599.000; -712.000
281.677;  -26.600; -150.000; -101.000
281.816; -184.500; -700.000; -630.000
281.956;  -86.900; -193.000; -257.000
282.096; -115.000; -539.000; -396.000
282.235; -205.500; -672.000; -638.000
282.375;  -60.200; -243.000;  -98.000
282.515; -229.600; -715.000; -707.000
282.654;   -3.500;   29.000;  106.000
282.794;   47.100;  388.000;  244.000
282.934; -120.600; -530.000; -491.000
283.073; -257.700;-1030.000; -857.000
283.213; -114.700; -460.000; -467.000
283.353; -128.800; -408.000; -349.000
283.492;  -81.700; -264.000; -296.000
283.632;  -98.400; -254.000; -168.000
283.771; -219.600; -859.000; -730.000
283.911; -134.400; -369.000; -260.000
284.050; -238.300; -794.000; -748.000
284.190; -294.400;-1229.000;-1096.000
284.329; -318.100;-1055.000; -964.000
284.469; -191.300; -516.000; -591.000
284.608; -131.600; -559.000; -598.000
284.748; -166.200; -614.000; -570.000
284.887;  -17.100;  -87.000;  -20.000
285.027; -251.100; -844.000; -892.000
285.166;  -65.800; -192.000; -249.000
285.306;  -49.100; -116.000;  -33.000
285.445;  -68.900; -229.000; -343.000
285.584; -175.500; -630.000; -494.000
285.724;  -94.400; -282.000; -322.000
285.863; -215.400; -857.000; -507.000
286.002; -113.400; -366.000; -276.000
286.142; -207.100; -715.000; -622.000
286.281; -150.800; -525.000; -493.000
286.420; -151.700; -554.000; -417.000
286.560;  188.800;  653.000;  623.000
286.699; -251.600; -958.000; -912.000
286.838; -200.000; -590.000; -591.000
286.978; -173.000; -533.000; -537.000
287.117; -271.700;-1085.000; -950.000
287.256;  -51.100; -228.000; -211.000
287.395; -123.300; -197.000; -378.000
287.535;  -98.300; -370.000; -298.000
287.674; -170.000; -509.000; -484.000
287.813;  128.200;  661.000;  533.000
287.952; -263.200;-1010.000; -871.000
288.091; -315.000;-1049.000; -915.000
288.231;  -41.200;   13.000;   15.000
288.370; -349.700;-1217.000;-1200.000
288.509; -173.400; -728.000; -645.000
288.648; -205.000; -770.000; -548.000
288.787;  -51.100; -243.000;  -87.000
288.926; -142.600; -454.000; -475.000
289.065;  221.700;  859.000;  672.000
289.204; -115.200; -377.000; -217.000
289.344; -205.200; -791.000; -690.000
289.483;   69.200;  416.000;  304.000
289.622;  -45.700; -291.000; -149.000
289.761;  -24.900; -309.000; -166.000
289.900; -231.100; -785.000; -626.000
290.039;   -6.900;  -12.000;  -95.000
290.178;  -86.500; -274.000; -180.000
290.317; -217.200; -618.000; -479.000
290.456; -134.300; -463.000; -451.000
290.595; -264.100; -961.000; -833.000
290.734; -280.700; -904.000; -891.000
290.873; -152.800; -456.000; -420.000
291.011; -215.300; -833.000; -843.000
291.150; -215.100; -770.000; -682.000
291.289;  -91.200; -343.000; -110.000
291.428; -194.800; -599.000; -480.000
291.567; -110.400; -370.000; -442.000
291.706;    5.100;  109.000;  154.000
291.845; -179.800; -597.000; -505.000
291.984; -338.300;-1234.000;-1061.000
292.122;  128.100;  602.000;  582.000
292.261;   96.600;  620.000;  463.000
292.400;  -28.000; -144.000;  211.000
292.539; -248.400; -959.000; -813.000
292.678;  -65.700; -325.000; -300.000
292.816; -316.000;-1136.000; -965.000
292.955; -221.900; -844.000; -684.000
293.094;  -66.500; -173.000; -337.000
293.233; -111.000; -556.000; -400.000
293.371;  -41.000; -225.000;  -84.000
293.510; -238.000; -866.000; -780.000
293.649; -259.300; -959.000; -924.000
293.787; -279.500;-1083.000;-1012.000
293.926;  -48.200; -113.000;  -32.000
294.065; -104.200; -379.000; -290.000
294.203;   90.300;  298.000;  406.000
294.342;   24.000;   74.000;  156.000
294.481;12934.400;51180.000; -836.000
294.619;  -85.500; -425.000; -582.000
294.758; -331.600;-1230.000;-1137.000
294.896;  -13.000; -125.000;    5.000
295.035; -310.600;-1040.000;-1006.000
295.174; -258.800;-1082.000; -954.000
295.312; -108.900; -323.000; -203.000
295.451; -106.100; -307.000; -428.000
295.589; -159.400; -389.000; -518.000
295.728;    9.900; -292.000; -165.000
295.866;  -26.100;  -36.000;  -51.000
296.005; -166.100; -584.000; -341.000
296.143; -192.900; -558.000; -596.000
296.282; -237.800; -957.000; -881.000
296.420; -179.400; -657.000; -557.000
296.559; -185.700; -892.000; -633.000
296.697; -202.600; -847.000; -665.000
296.835; -317.500;-1141.000;-1002.000
296.974;    6.900;  -23.000;   39.000
297.112; -139.100; -443.000; -504.000
297.251; -224.700; -815.000; -755.000
297.389; -174.400; -576.000; -438.000
297.527;  -24.700; -145.000;  -83.000
297.666; -166.600; -486.000; -438.000
297.804;  -94.500; -404.000; -264.000
297.942;   -0.200; -136.000; -161.000
298.081;  -50.800; -183.000;   63.000
298.219;  -46.400;  -17.000;  -19.000
298.357;  -65.400; -144.000;  -71.000
298.495; -221.900; -810.000; -812.000
298.634;   12.700;  245.000;  219.000
298.772;  -78.000; -220.000; -338.000
298.910; -124.900; -309.000; -182.000
299.048;  -37.500; -130.000; -153.000
299.187;  -85.700; -350.000; -250.000
299.325;  -20.100;   52.000;  122.000
299.463; -124.400; -389.000; -299.000
299.601;  -94.200; -327.000; -271.000
299.739; -263.900; -908.000; -883.000
299.877; -153.900; -791.000; -703.000
300.016; -320.700;-1095.000; -935.000
300.154;  -18.300;  -19.000; -161.000
300.292; -137.100; -428.000; -348.000
300.430;  -89.900; -408.000; -291.000
300.568; -260.700; -940.000; -874.000
300.706; -129.900; -366.000; -469.000
300.844; -312.600;-1108.000; -979.000
300.982;   98.700;  246.000;  282.000
301.120; -276.900; -965.000; -866.000
301.258; -215.900; -812.000; -705.000
301.396;  -19.300;  104.000;  -41.000
301.534;  -85.700; -218.000; -293.000
301.672; -191.800; -664.000; -521.000
301.810; -168.000; -613.000; -545.000
301.948;   27.300;   53.000;  149.000
302.086;  -57.200; -250.000;  -32.000
302.224; -164.400; -610.000; -585.000
302.362; -175.600; -558.000; -622.000
302.500; -252.800; -923.000; -893.000
302.638;   20.100;  128.000;  245.000
302.776;  -92.300; -352.000; -408.000
302.913;   86.500;  447.000;  236.000
303.051;  -79.000;  -86.000;  -23.000
303.189;   25.600;   90.000;  118.000
303.327;  -87.900; -341.000; -256.000
303.465; -189.000; -832.000; -588.000
303.603; -192.500; -805.000; -604.000
303.740;   73.000;  417.000;  241.000
303.878; -219.000; -800.000; -759.000
304.016; -241.000; -915.000; -790.000
304.154; -298.500;-1123.000;-1152.000
304.291; -150.300; -505.000; -554.000
304.429;  -16.100;  102.000;   74.000
304.567; -282.400; -908.000; -893.000
304.705; -146.800; -408.000; -515.000
304.842; -146.900; -616.000; -540.000
304.980;  -15.300;  215.000;   35.000
305.118;  -88.800; -367.000; -365.000
305.255; -283.100; -945.000; -927.000
305.393;   58.900;  178.000;  239.000
305.531; -272.900;-1173.000; -956.000
305.668; -176.700; -663.000; -582.000
305.806; -134.600; -358.000; -439.000
305.943; -168.100; -629.000; -637.000
306.081; -109.000; -378.000; -267.000
306.219; -252.300; -863.000; -748.000
306.356;  -14.300;  158.000;   27.000
306.494;  145.800;  981.000;  761.000
306.631;  -41.600;  -11.000;  -55.000
306.769; -128.300; -613.000; -485.000
306.906; -119.100; -284.000; -258.000
307.044; -137.900; -473.000; -488.000
307.181; -150.600; -410.000; -332.000
307.319;   -1.900;  112.000;   87.000
307.456; -326.600;-1191.000;-1153.000
307.594; -267.100; -980.000; -727.000
307.731;  -98.400; -371.000; -164.000
307.868;  -21.800;  -15.000;   20.000
308.006; -288.800; -961.000; -847.000
308.143; -173.000; -618.000; -330.000
308.281;  -88.500;  -37.000; -254.000
308.418; -208.200; -748.000; -640.000
308.555; -184.400; -400.000; -250.000
308.693; -164.800; -577.000; -573.000
308.830; -214.600; -712.000; -657.000
308.967;  -34.400; -215.000;  -95.000
309.105; -129.600; -507.000; -396.000
309.242; -131.100; -468.000; -367.000
309.379; -181.500; -577.000; -655.000
309.517; -259.600; -936.000; -948.000
309.654; -261.800; -910.000; -734.000
309.791; -146.800; -662.000; -580.000
309.928; -277.400; -977.000; -914.000
310.065;  167.900;  819.000;  697.000
310.203; -229.000; -825.000; -850.000
310.340; -149.200; -465.000; -321.000
310.477; -161.000; -412.000; -516.000
310.614; -102.100; -383.000; -473.000
310.751; -141.800; -427.000; -518.000
310.889;  -56.400;    1.000;   11.000
311.026; -288.800;-1161.000; -939.000
311.163;  -98.000; -386.000; -380.000
311.300; -154.200; -512.000; -479.000
311.437; -162.000; -658.000; -619.000
311.574; -358.300;-1226.000; -985.000
311.711; -121.500; -595.000; -433.000
311.848; -127.100; -380.000; -388.000
311.985;  -21.200;  270.000;   93.000
312.122; -228.700; -932.000; -762.000
312.259; -266.700; -941.000; -994.000
312.396; -180.400; -508.000; -551.000
312.533; -204.000; -812.000; -790.000
312.670; -289.600;-1070.000; -898.000
312.807;  -89.900; -352.000; -367.000
312.944; -170.100; -513.000; -611.000
313.081; -104.500; -150.000; -415.000
313.218; -286.300;-1111.000; -867.000
313.355; -133.000; -531.000; -449.000
313.492; -109.200; -455.000; -292.000
313.629;  174.700;  815.000;  735.000
313.766; -347.900;-1176.000;-1008.000
313.902;  -24.200; -186.000;   21.000
314.039; -106.200; -372.000; -289.000
314.176;   46.800;  286.000;  192.000
314.313; -152.100; -569.000; -473.000
314.450; -241.800; -788.000; -684.000
314.587; -156.000; -468.000; -480.000
314.723;  -24.100;  -78.000;  130.000
314.860;   40.600;  318.000;  332.000
314.997;   40.300;  223.000;  142.000
315.134; -140.500; -385.000; -368.000
315.270; -144.400; -480.000; -496.000
315.407; -296.100;-1094.000; -967.000
315.544; -175.100; -657.000; -538.000
315.681; -169.200; -681.000; -565.000
315.817;  -70.700; -133.000; -176.000
315.954; -175.800; -613.000; -392.000
316.091; -313.300;-1045.000;-1023.000
316.227;  -98.700;  -71.000; -179.000
316.364;   -3.900;   23.000;    6.000
316.500;  -67.400; -113.000; -300.000
316.637; -102.800; -181.000; -302.000
316.774; -185.600; -625.000; -358.000
316.910; -190.800; -598.000; -629.000
317.047; -164.400; -487.000; -351.000
317.183; -168.700; -435.000; -566.000
317.320; -113.600; -367.000; -321.000
317.456; -219.800; -733.000; -805.000
317.593; -217.300; -598.000; -641.000
317.729;   29.800;  168.000;  -67.000
317.866; -406.900;-1434.000;-1285.000
318.002; -195.100; -708.000; -948.000
318.139; -248.700; -883.000; -867.000
318.275; -244.800;-1003.000; -738.000
318.412; -149.100; -517.000; -336.000
318.548; -234.200; -751.000; -720.000
318.685; -292.300; -985.000; -888.000
318.821; -252.600; -762.000; -735.000
318.957;  -38.600;   34.000;  -23.000
319.094;   70.900;  297.000;  154.000
319.230; -232.700; -756.000; -742.000
319.367; -144.900; -471.000; -520.000
319.503; -141.200; -538.000; -436.000
319.639; -231.100; -877.000; -793.000
319.775; -216.000; -750.000; -685.000
319.912; -147.400; -424.000; -519.000
320.048; -343.700;-1184.000;-1184.000
320.184;    3.700;   59.000;   70.000
320.321; -105.100; -497.000; -467.000
320.457;  112.200;  475.000;  662.000
320.593; -149.700; -375.000; -382.000
320.729; -217.000; -732.000; -734.000
320.866; -187.000; -577.000; -635.000
321.002; -218.600; -759.000; -809.000
321.138;  -67.400; -135.000; -211.000
321.274;  -36.500; -148.000; -115.000
321.410; -166.100; -585.000; -353.000
321.546; -278.500;-1011.000; -911.000
321.683;   73.600;  400.000;  185.000
321.819;  -37.700;  -48.000; -117.000
321.955; -226.900; -743.000; -722.000
322.091; -170.600; -585.000; -540.000
322.227; -104.800; -382.000; -202.000
322.363; -113.900; -320.000; -215.000
322.499; -130.400; -343.000; -331.000
322.635;  138.000;  636.000;  443.000
322.771;  -49.400; -139.000;   12.000
322.907;   60.800;  129.000;  327.000
323.043; -114.700; -115.000; -206.000
323.179; -130.500; -394.000; -363.000
323.315; -126.800; -401.000; -371.000
323.451; -100.700; -328.000; -236.000
323.587;  -86.100;  -60.000;  -77.000
323.723; -186.100; -682.000; -601.000
323.859;  -77.900; -258.000;  -76.000
323.995; -113.700; -467.000; -409.000
324.131; -260.300; -967.000; -892.000
324.267;  -74.500; -254.000; -276.000
324.402; -316.600; -960.000; -983.000
324.538;  -80.700; -279.000; -104.000
324.674;   -3.200;  164.000;   77.000
324.810;   -2.800;  226.000;  308.000
324.946; -144.700; -810.000; -658.000
325.082; -158.600; -568.000; -475.000
325.217;  -21.600;  -62.000;   16.000
325.353; -196.800; -764.000; -659.000
325.489; -179.300; -540.000; -506.000
325.625; -171.200; -579.000; -525.000
325.760;   60.800;  517.000;  376.000
325.896; -185.200; -515.000; -702.000
326.032; -115.000; -403.000; -352.000
326.168; -135.100; -462.000; -369.000
326.303; -116.500; -352.000; -461.000
326.439;  -31.200; -336.000; -276.000
326.575;  -83.100; -190.000;  -29.000
326.710;  -24.700; -156.000;  -30.000
326.846;    2.900;  146.000;  103.000
326.982; -181.200; -530.000; -548.000
327.117; -180.700; -481.000; -442.000
327.253; -176.000; -745.000; -742.000
327.388; -380.800;-1137.000;-1153.000
327.524; -200.800; -811.000; -578.000
327.659;  -41.200;  -58.000;  -22.000
327.795;  -14.400;   69.000;   45.000
327.931; -191.500; -723.000; -499.000
328.066; -104.200; -417.000; -276.000
328.202;  -45.900;   12.000; -129.000
328.337;  206.700;  957.000;  713.000
328.473;  -53.600;  -12.000;  -74.000
328.608;  -62.800; -256.000; -267.000
328.743; -230.900; -799.000; -664.000
328.879;   30.300;  214.000;  114.000
329.014; -114.100; -102.000; -122.000
329.150; -140.900; -358.000; -483.000
329.285; -147.000; -465.000; -466.000
329.421; -106.000; -548.000; -246.000
329.556;  -27.900;  -36.000;   85.000
329.691; -173.600; -633.000; -615.000
329.827; -159.200; -626.000; -480.000
329.962;  -93.100;  131.000; -301.000
330.097; -194.300; -673.000; -585.000
330.233; -124.500; -410.000; -223.000
330.368; -255.100; -839.000; -628.000
330.503;  -12.300;    3.000;   98.000
330.638;  -42.500;  -93.000; -125.000
330.774; -180.600; -609.000; -530.000
330.909;  -95.400; -434.000; -244.000
331.044; -224.400; -714.000; -708.000
331.179; -355.600;-1217.000;-1109.000
331.315;   11.800;   77.000;   20.000
331.450;   61.100;  157.000;  285.000
331.585; -212.500; -805.000; -706.000
331.720; -157.500; -510.000; -460.000
331.855;  -58.700;  -35.000; -102.000
331.990;  -37.800;   62.000;  138.000
332.126;  -22.200; -110.000;   71.000
332.261; -135.000; -379.000; -265.000
332.396; -118.100; -135.000; -242.000
332.531; -305.100;-1074.000;-1031.000
332.666; -142.000; -519.000; -363.000
332.801; -244.500; -726.000; -807.000
332.936;  -63.800; -192.000; -122.000
333.071; -293.000; -870.000; -817.000
333.206;   24.700;  307.000;  379.000
333.341;   72.900;  344.000;  418.000
333.476; -201.600; -627.000; -623.000
333.611;  -88.100; -251.000; -173.000
333.746;  -83.700; -381.000; -464.000
333.881; -259.600; -973.000; -935.000
334.016; -264.700; -936.000; -917.000
334.151; -284.900; -746.000; -702.000
334.286;   26.000;  152.000;  186.000
334.421;  -51.000; -125.000; -178.000
334.556; -195.500; -611.000; -567.000
334.690; -205.800; -631.000; -577.000
334.825;  107.000;  381.000;   83.000
334.960; -144.200; -285.000; -413.000
335.095;  -19.100;  135.000;  -91.000
335.230; -211.200; -722.000; -738.000
335.365; -306.300;-1084.000; -990.000
335.499; -319.600;-1108.000;-1037.000
335.634;   -7.000;    9.000;  534.000
335.769; -262.900; -755.000; -720.000
335.904; -200.900; -603.000; -561.000
336.038; -201.500; -735.000; -657.000
336.173; -322.200;-1206.000;-1194.000
336.308;  -68.000; -116.000; -189.000
336.443; -189.800; -544.000; -634.000
336.577; -263.900; -936.000; -787.000
336.712;  -17.800;   -4.000;  -12.000
336.847; -238.300; -724.000; -607.000
336.981; -119.600; -272.000; -208.000
337.116;   69.100;  615.000;  501.000
337.250; -115.600; -434.000; -421.000
337.385; -102.600; -297.000; -208.000
337.520; -197.800; -632.000; -603.000
337.654;  -99.700; -215.000; -126.000
337.789; -261.600; -989.000; -933.000
337.923;  -71.400; -104.000; -205.000
338.058; -235.100; -673.000; -738.000
338.192; -204.100; -611.000; -488.000
338.327;  -66.100;  -18.000; -155.000
338.461; -161.400; -299.000; -469.000
338.596; -202.800; -780.000; -638.000
338.730; -243.700; -767.000; -803.000
338.865;   -8.300;  -46.000; -140.000
338.999; -248.600; -846.000; -702.000
339.134; -179.900; -634.000; -536.000
339.268; -246.600; -741.000; -603.000
339.403; -229.500; -740.000; -775.000
339.537; -258.800; -894.000; -820.000
339.671; -257.800; -829.000; -813.000
339.806; -194.400; -556.000; -512.000
339.940;  -76.300; -261.000; -235.000
340.074; -216.400; -685.000; -510.000
340.209;  -94.700; -351.000; -230.000
340.343; -175.500; -517.000; -573.000
340.477;  279.500;  998.000; 1036.000
340.612; -264.200;-1033.000; -900.000
340.746; -127.600; -199.000; -243.000
340.880; -271.300; -924.000; -785.000
341.014;  -54.400;  -45.000; -154.000
341.149; -233.600; -756.000; -718.000
341.283; -219.500; -839.000; -754.000
341.417; -298.800;-1124.000; -938.000
341.551; -215.100; -768.000; -708.000
341.685; -193.100; -633.000; -611.000
341.820; -188.100; -562.000; -493.000
341.954; -146.100; -218.000; -349.000
342.088; -297.000;-1102.000;-1019.000
342.222;   79.400;  565.000;  618.000
342.356; -172.300; -395.000; -335.000
342.490; -255.600; -880.000; -841.000
342.624; -142.000; -339.000; -242.000
342.758; -114.800; -364.000; -312.000
342.892; -195.100; -710.000; -585.000
343.026; -112.700;  -58.000; -116.000
343.160; -131.700; -426.000; -376.000
343.294; -186.700; -474.000; -337.000
343.428; -185.500; -488.000; -448.000
343.562;  -94.600; -172.000;  -23.000
343.696;  -98.300; -385.000; -314.000
343.830; -132.900; -362.000; -356.000
343.964;  -65.200; -231.000; -168.000
344.098;  -10.300;  199.000;   70.000
344.232;  -64.000; -266.000; -127.000
344.366; -198.700; -567.000; -453.000
344.500; -211.500; -665.000; -744.000
344.634;  -97.700; -324.000; -164.000
344.768; -174.700; -531.000; -341.000
344.902;   23.100;  278.000;  256.000
345.035; -169.100; -556.000; -496.000
345.169; -260.200; -933.000; -656.000
345.303; -156.800; -308.000; -482.000
345.437; -225.100; -826.000; -717.000
345.571; -198.000; -675.000; -594.000
345.704; -145.000; -309.000; -532.000
345.838;  -89.500; -331.000; -284.000
345.972; -208.000; -543.000; -495.000
346.106;  -18.700; -179.000; -190.000
346.239;  -82.700; -312.000; -243.000
346.373; -132.200; -343.000; -302.000
346.507; -310.000; -950.000; -962.000
346.640;  -65.200;  -30.000;   13.000
346.774; -238.700; -650.000; -797.000
346.908;  -38.800; -138.000;  -11.000
347.041; -220.700; -646.000; -593.000
347.175;   25.100;  259.000;   27.000
347.309; -224.200; -698.000; -628.000
347.442; -239.600; -883.000; -732.000
347.576;  152.000;  670.000;  668.000
347.709;  -46.000; -123.000;  -52.000
347.843; -278.700; -933.000; -825.000
347.976;   61.200;  235.000;  294.000
348.110; -356.800;-1268.000;-1186.000
348.243; -220.500; -679.000; -772.000
348.377;  -11.100;  -26.000;   60.000
348.510;  109.400;  403.000;  540.000
348.644;  -78.700;  -37.000; -159.000
348.777;  -29.400;  180.000;  191.000
348.911; -104.500; -142.000; -112.000
349.044;   98.100;  471.000;  448.000
349.178; -326.100;-1069.000;-1006.000
349.311;   32.400;  141.000;  255.000
349.444; -263.600; -927.000; -813.000
349.578;  -94.900; -347.000; -200.000
349.711; -283.600; -959.000; -862.000
349.845; -221.200; -661.000; -591.000
349.978; -360.800;-1224.000;-1137.000
350.111; -208.000; -546.000; -612.000
350.244; -234.900; -596.000; -700.000
350.378; -144.900; -392.000; -393.000
350.511; -145.400; -393.000; -426.000
350.644; -224.200; -808.000; -806.000
350.778;  -27.200;  168.000;  104.000
350.911;   -0.200;  134.000;  140.000
351.044; -226.300; -685.000; -615.000
351.177;  -91.600; -321.000; -281.000
351.310;  -78.400;    3.000; -131.000
351.444; -249.200; -888.000; -788.000
351.577;   -9.900;  140.000;   90.000
351.710;  137.100;  593.000;  417.000
351.843;  -83.400; -165.000;  -77.000
351.976;  -13.200;  149.000;  -79.000
352.109; -193.600; -621.000; -612.000
352.242; -145.700; -464.000; -419.000
352.376; -226.000; -580.000; -636.000
352.509; -121.400; -437.000; -356.000
352.642; -353.300; -654.000; -604.000
352.775;  -90.200; -141.000;  -98.000
352.908; -270.600; -933.000; -904.000
353.041; -252.600; -814.000; -824.000
353.174; -136.200; -551.000; -424.000
353.307; -237.300; -753.000; -764.000
353.440;  111.900;  541.000;  453.000
353.573; -283.900; -957.000;-1008.000
353.706; -202.800; -384.000; -558.000
353.839; -136.400; -264.000; -220.000
353.971; -179.200; -657.000; -512.000
354.104; -233.400; -896.000; -835.000
354.237; -207.500; -627.000; -662.000
354.370; -254.900; -846.000; -879.000
354.503; -377.000;-1231.000;-1308.000
354.636; -120.700; -529.000; -348.000
354.769; -303.700; -937.000; -860.000
354.902; -103.900; -230.000; -139.000
355.034;  -78.000; -164.000; -220.000
355.167; -108.700; -262.000; -162.000
355.300; -296.700;-1061.000; -880.000
355.433;  -45.200;  -71.000;  -14.000
355.565; -151.300; -402.000; -384.000
355.698; -132.400; -356.000; -296.000
355.831; -250.300; -882.000; -801.000
355.964;  -76.900; -285.000; -170.000
356.096; -278.100; -856.000; -843.000
356.229; -158.500; -523.000; -530.000
356.362; -117.400; -373.000; -266.000
356.494;  -91.500; -229.000; -162.000
356.627;   29.000;  269.000;  377.000
356.760;    5.900;  120.000;   53.000
356.892; -208.200; -286.000; -601.000
357.025;   81.400;  403.000;  389.000
357.157;  -94.800; -167.000; -179.000
357.290; -239.300; -856.000; -713.000
357.423; -216.300; -667.000; -556.000
357.555;  -50.800; -217.000; -228.000
357.688; -159.100; -483.000; -364.000
357.820; -287.500; -870.000; -877.000
357.953; -226.200; -563.000; -589.000
358.085; -192.200; -632.000; -612.000
358.218; -289.300;-1131.000; -932.000
358.350;  -12.600;  -58.000;  312.000
358.483; -334.900;-1300.000;-1187.000
358.615; -288.100;-1182.000;-1078.000
358.747; -375.600;-1187.000;-1058.000
358.880; -239.200; -810.000; -744.000
359.012; -146.000; -376.000; -202.000
359.145; -145.200; -480.000; -511.000
359.277; -276.400; -962.000; -913.000
359.409;   75.800;  536.000;  231.000
359.542; -220.600; -738.000; -688.000
359.674;  -29.900;   46.000;   13.000
359.806; -202.800; -565.000; -438.000
359.939; -140.800; -617.000; -516.000
360.071; -221.600; -583.000; -579.000
360.203; -111.900; -411.000; -364.000
360.335;  -43.800;  164.000;  -16.000
360.468;  -97.200; -249.000; -307.000
360.600; -184.300; -547.000; -454.000
360.732; -184.600; -546.000; -423.000
360.864; -350.300;-1216.000;-1044.000
360.996; -120.900; -516.000; -554.000
361.129; -187.900; -389.000; -598.000
361.261;  -24.600;  110.000; -113.000
361.393; -100.400; -252.000; -214.000
361.525;    7.200;   94.000;  244.000
361.657; -240.300; -821.000; -703.000
361.789;  -61.300; -139.000; -155.000
361.921; -189.200; -642.000; -593.000
362.053;  142.400;  524.000;  541.000
362.185;   17.700;  288.000;   72.000
362.318; -244.600; -709.000; -705.000
362.450;   76.300;  294.000;  444.000
362.582; -285.900; -913.000; -870.000
362.714; -144.900; -353.000; -332.000
362.846; -151.000; -606.000; -490.000
362.978; -291.600; -941.000; -811.000
363.109; -119.700; -161.000; -260.000
363.241; -227.700; -739.000; -749.000
363.373; -168.200; -649.000; -564.000
363.505;  -81.900; -186.000;  -91.000
363.637; -228.200; -787.000; -601.000
363.769; -323.600;-1067.000;-1080.000
363.901; -155.000; -596.000; -654.000
364.033; -366.800;-1103.000;-1062.000
364.165;  -90.100; -283.000; -283.000
364.296; -127.800; -316.000; -177.000
364.428; -372.500;-1344.000;-1220.000
364.560; -222.400; -679.000; -661.000
364.692; -187.700; -738.000; -835.000
364.824; -191.100; -588.000; -456.000
364.955; -126.900; -402.000; -564.000
365.087; -300.700;-1097.000; -852.000
365.219; -271.000; -686.000; -816.000
365.351; -207.200; -526.000; -572.000
365.482;   21.600;  300.000;  240.000
365.614; -124.400; -402.000; -314.000
365.746; -240.900; -729.000; -752.000
365.877; -238.000; -706.000; -672.000
366.009;  -36.800;  -35.000;  -62.000
366.141; -372.400;-1249.000;-1134.000
366.272; -237.200; -803.000; -719.000
366.404; -276.100;-1005.000; -874.000
366.535;  -60.100; -139.000;  -12.000
366.667; -223.900; -644.000; -649.000
366.799;   68.100;  353.000;  203.000
366.930; -315.500; -862.000; -996.000
367.062; -209.300; -639.000; -613.000
367.193; -273.700; -872.000; -842.000
367.325; -203.300; -580.000; -684.000
367.456; -113.600; -246.000;   31.000
367.588; -133.100; -371.000; -318.000
367.719;  -95.100;  -44.000;  -45.000
367.851;  -76.100; -222.000; -241.000
367.982; -291.700; -875.000; -732.000
368.113; -114.700; -475.000; -358.000
368.245; -287.000; -960.000; -841.000
368.376; -123.900; -254.000; -302.000
368.508; -107.700; -188.000; -263.000
368.639; -344.100;-1166.000;-1034.000
368.770; -214.300; -670.000; -589.000
368.902; -258.200; -836.000; -926.000
369.033; -293.000; -906.000; -855.000
369.164; -215.600; -720.000; -653.000
369.296; -226.400; -452.000; -601.000
369.427;  -60.300; -209.000; -144.000
369.558; -178.600; -593.000; -377.000
369.689; -163.200; -721.000; -569.000
369.821; -291.900; -951.000; -845.000
369.952;  -63.600;   42.000; -108.000
370.083; -114.700; -229.000; -108.000
370.214; -215.600; -735.000; -650.000
370.345;  -32.600;   65.000;   81.000
370.477; -273.400; -810.000; -790.000
370.608; -104.700; -328.000; -264.000
370.739; -347.300;-1233.000;-1292.000
370.870; -275.900;-1102.000; -923.000
371.001; -161.200; -378.000; -467.000
371.132; -254.600; -754.000; -735.000
371.263;  -52.200;  -42.000; -148.000
371.394; -285.100; -841.000; -748.000
371.525;   32.300;  345.000;  225.000
371.657; -252.700; -808.000; -670.000
371.788;   -6.300;  103.000;  199.000
371.919; -173.800; -384.000; -304.000
372.050;  -60.300;  -91.000; -156.000
372.181;  -87.300; -188.000; -294.000
372.311;  -27.500;   42.000; -127.000
372.442; -141.900; -457.000; -451.000
372.573; -101.200; -444.000; -340.000
372.704; -296.500;-1008.000; -980.000
372.835; -121.200; -228.000; -289.000
372.966; -238.400; -646.000; -554.000
373.097; -228.500; -575.000; -711.000
373.228; -211.300; -717.000; -542.000
373.359; -252.700; -824.000; -536.000
373.490; -274.800; -881.000; -727.000
373.620; -268.100;-1001.000; -803.000
373.751; -176.200; -332.000; -396.000
373.882; -197.900; -663.000; -733.000
374.013; -108.000; -449.000; -262.000
374.143; -191.100; -581.000; -659.000
374.274; -315.600; -987.000; -908.000
374.405; -147.900; -388.000; -276.000
374.536; -178.600; -526.000; -387.000
374.666; -215.400; -759.000; -807.000
374.797; -254.200; -817.000; -868.000
374.928; -226.400; -710.000; -560.000
375.058; -206.100; -535.000; -500.000
375.189;  -51.700;  -59.000;  -93.000
375.320; -312.300; -928.000;-1034.000
375.450; -186.300; -625.000; -616.000
375.581; -167.500; -526.000; -436.000
375.712; -118.700; -574.000; -250.000
375.842; -196.300; -438.000; -415.000
375.973; -202.200; -554.000; -513.000
376.103; -232.200; -665.000; -648.000
376.234; -158.900; -531.000; -552.000
376.364; -302.000; -944.000; -867.000
376.495;  172.200;  925.000;  529.000
376.625; -195.600; -472.000; -485.000
376.756; -217.500; -709.000; -678.000
376.886; -352.000;-1178.000;-1026.000
377.017; -302.300;-1048.000;-1061.000
377.147; -279.600; -786.000; -782.000
377.278;   17.300;  174.000;  228.000
377.408; -252.200; -801.000; -815.000
377.538; -216.000; -707.000; -693.000
377.669; -190.800; -537.000; -613.000
377.799; -211.000; -645.000; -635.000
377.929; -173.200; -610.000; -428.000
378.060; -272.100; -781.000; -847.000
378.190; -208.600; -726.000; -531.000
378.320; -147.600; -401.000; -406.000
378.451;  -39.300; -131.000;  -22.000
378.581;  -49.200;  -67.000; -110.000
378.711;  197.100; 1035.000;  866.000
378.841; -186.900; -533.000; -675.000
378.972; -278.200; -871.000; -751.000
379.102; -193.200; -652.000; -579.000
379.232; -123.700; -126.000;  -73.000
379.362; -278.400;-1001.000; -885.000
379.492; -189.800; -373.000; -424.000
379.623;    3.100;    0.000;  111.000
379.753; -334.300;-1107.000; -974.000
379.883;   -2.300;   59.000;  156.000
380.013; -321.600;-1081.000;-1017.000
380.143; -321.300;-1097.000;-1056.000
380.273; -287.800; -985.000; -861.000
380.403; -105.800; -344.000; -257.000
380.533; -243.800; -651.000; -664.000
380.663;   -1.200;  173.000;  128.000
380.793; -318.900;-1027.000;-1074.000
380.923;  -82.300; -103.000;  -34.000
381.053; -219.700; -613.000; -623.000
381.183; -100.200; -106.000; -248.000
381.313; -212.900; -656.000; -470.000
381.443; -197.000; -692.000; -473.000
381.573; -190.400; -402.000; -409.000
381.703; -360.000;-1249.000;-1095.000
381.833; -400.700;-1454.000;-1336.000
381.963;  -29.100; -134.000;  -87.000
382.093; -299.300; -925.000; -909.000
382.223; -240.000; -713.000; -602.000
382.353; -251.500; -801.000; -608.000
382.482; -320.000;-1091.000; -964.000
382.612; -239.600; -872.000; -644.000
382.742; -227.300; -695.000; -622.000
382.872; -180.000; -565.000; -551.000
383.002;   -8.000;  347.000; -132.000
383.131; -133.800; -226.000; -160.000
383.261; -197.000; -706.000; -768.000
383.391; -172.200; -552.000; -377.000
383.521;   65.200;  451.000;  263.000
383.650; -291.000; -947.000; -904.000
383.780; -207.700; -783.000; -656.000
383.910;  150.200;  880.000;  802.000
384.039; -255.500; -794.000; -656.000
384.169; -348.900;-1205.000;-1017.000
384.299; -198.700; -650.000; -662.000
384.428; -250.900; -764.000; -680.000
384.558; -134.300; -308.000; -275.000
384.687; -112.800; -414.000; -334.000
384.817;  -15.100;   75.000;   -2.000
384.947;  -53.800; -234.000; -141.000
385.076;  217.300;  982.000;  912.000
385.206;   57.300;  369.000;  480.000
385.335; -158.300; -549.000; -417.000
385.465; -268.100; -655.000; -663.000
385.594;  -48.600;  -53.000;  -44.000
385.724; -275.300; -868.000; -838.000
385.853; -118.000; -296.000; -270.000
385.982; -239.800; -743.000; -787.000
386.112; -275.600;-1052.000; -871.000
386.241; -130.100; -307.000; -312.000
386.371;  -78.400; -174.000;  -87.000
386.500; -276.300; -825.000; -789.000
386.629; -241.900; -874.000; -817.000
386.759;  -51.500;  -43.000;   68.000
386.888;  -70.500; -170.000; -250.000
387.017; -205.500; -648.000; -620.000
387.147; -208.300; -771.000; -798.000
387.276; -180.300; -410.000; -397.000
387.405; -137.000; -398.000; -342.000
387.535; -149.400; -452.000; -361.000
387.664; -190.600; -692.000; -620.000
387.793; -103.600; -198.000; -113.000
387.922;    0.700;  255.000;  200.000
388.052; -168.700; -576.000; -423.000
388.181; -145.900; -342.000; -472.000
388.310; -250.300; -889.000; -710.000
388.439; -258.100; -749.000; -742.000
388.568;    4.900;  365.000;  244.000
388.697; -218.700; -756.000; -653.000
388.826; -219.500; -768.000; -666.000
388.956;  -93.500; -285.000; -307.000
389.085; -111.000; -347.000; -287.000
389.214; -258.600; -842.000; -872.000
389.343; -208.000; -645.000; -413.000
389.472;   16.800;  126.000;  149.000
389.601;  -21.800;   91.000;    0.000
389.730; -187.800; -568.000; -687.000
389.859;   21.500;  226.000;   46.000
389.988; -124.200; -423.000; -408.000
390.117; -128.100; -168.000; -146.000
390.246; -140.100; -331.000; -320.000
390.375; -218.200; -673.000; -626.000
390.504; -191.500; -703.000; -621.000
390.633; -268.900; -672.000; -726.000
390.761; -244.500; -732.000; -645.000
390.890;  -75.400;   -4.000; -130.000
391.019; -181.300; -421.000; -441.000
391.148; -274.300; -826.000; -855.000
391.277; -181.600; -576.000; -493.000
391.406; -246.900; -821.000; -805.000
391.534;   19.000;  574.000; -301.000
391.663; -181.100; -583.000; -645.000
391.792; -250.400; -673.000; -701.000
391.921;  -47.800;   -3.000;   15.000
392.050; -105.700; -287.000; -228.000
392.178; -350.600;-1206.000;-1061.000
392.307; -242.600; -758.000; -712.000
392.436; -204.500; -427.000; -641.000
392.564;   -6.000;  166.000;   -6.000
392.693; -253.200; -860.000; -682.000
392.822; -188.800; -529.000; -534.000
392.950; -268.000; -880.000; -714.000
393.079; -120.000; -188.000; -328.000
393.208; -176.900; -488.000; -511.000
393.336;  -80.200; -170.000; -145.000
393.465; -126.700; -317.000; -199.000
393.593;    1.700;   62.000;   79.000
393.722; -308.000;-1121.000; -916.000
393.850;  -83.000; -188.000;  -61.000
393.979; -324.900; -926.000; -805.000
394.107; -155.600; -517.000; -537.000
394.236; -190.500; -570.000; -507.000
394.364;   48.500;  383.000;  206.000
394.493; -280.600; -911.000; -767.000
394.621; -290.100; -955.000; -916.000
394.750; -293.100; -873.000; -923.000
394.878;  -92.200; -247.000; -149.000
395.007; -248.700; -721.000; -807.000
395.135; -225.400; -790.000; -721.000
395.263; -300.300;-1038.000;-1040.000
395.392;  -23.800;  -25.000; -107.000
395.520; -194.700; -818.000; -679.000
395.648; -308.300; -865.000; -915.000
395.777; -137.300; -366.000; -405.000
395.905; -192.800; -449.000; -564.000
396.033;  -12.000;  217.000;  172.000
396.162; -141.200; -399.000; -453.000
396.290;  -78.400;  -17.000;   -2.000
396.418; -147.800; -555.000; -514.000
396.546; -259.300; -571.000; -466.000
396.674; -266.900; -850.000; -878.000
396.803;  -72.300;  -72.000;  -23.000
396.931;  -97.200; -179.000; -199.000
397.059; -330.200;-1026.000; -989.000
397.187; -305.000;-1026.000; -975.000
397.315; -278.700; -884.000; -649.000
397.443; -206.000; -592.000; -443.000
397.572; -174.300; -578.000; -424.000
397.700; -200.400; -607.000; -614.000
397.828; -104.700;  120.000;  -90.000
397.956; -167.700; -508.000; -478.000
398.084; -247.200; -767.000; -626.000
398.212;   -6.300;  137.000;  124.000
398.340;  -36.200;  -56.000;  159.000
398.468; -129.800; -390.000; -169.000
398.596; -297.800; -993.000; -953.000
398.724; -242.500; -762.000; -767.000
398.852; -306.800;-1024.000; -976.000
398.980; -174.700; -560.000; -560.000
399.108; -230.100; -982.000; -735.000
399.236;  -20.000;   13.000;    8.000
399.363;    8.400;  222.000;  196.000
399.491; -167.700; -404.000; -398.000
399.619; -300.000; -829.000; -800.000
399.747; -259.700; -859.000; -771.000
399.875;   16.400;  220.000;  234.000
400.003; -122.500; -359.000; -284.000
400.130; -155.400; -421.000; -341.000
400.258;  -57.800;  -83.000;   38.000
400.386; -129.200; -352.000; -168.000
400.514; -174.900; -526.000; -587.000
400.641; -294.000; -928.000; -802.000
400.769; -290.200; -979.000; -888.000
400.897; -271.100; -838.000; -793.000
401.025; -102.600; -166.000; -152.000
401.152;  -21.800;  220.000;   38.000
401.280; -153.000; -430.000; -429.000
401.408; -239.000; -712.000; -576.000
401.535; -201.500; -735.000; -758.000
401.663; -371.100;-1134.000;-1054.000
401.790; -202.100; -514.000; -525.000
401.918;  113.500;  436.000;  405.000
402.046;  -13.600;  134.000;  122.000
402.173;  -52.000;  -18.000;    7.000
402.301; -121.800; -519.000; -397.000
402.428;   77.700;  528.000;  383.000
402.556; -337.500;-1188.000; -913.000
402.683;  -75.800;  -20.000;   -1.000
402.811;  -60.900;  -37.000; -206.000
402.938;  -49.600;   20.000;   27.000
403.066; -201.000; -574.000; -558.000
403.193;  -14.000;  299.000;  239.000
403.321; -180.500; -396.000; -574.000
403.448;  -36.100;   83.000;   27.000
403.575;  -59.800;  -90.000;  -46.000
403.703; -225.500; -732.000; -557.000
403.830; -133.400; -531.000; -496.000
403.957; -345.900;-1117.000;-1023.000
404.085;  -78.700;  -61.000; -172.000
404.212;  -26.100;  -50.000;   63.000
404.339; -126.900; -566.000; -306.000
404.467; -166.200; -612.000; -524.000
404.594;  -98.300; -287.000; -227.000
404.721; -249.300; -869.000; -764.000
404.848;  -81.700; -113.000; -202.000
404.976; -268.000; -856.000; -783.000
405.103;   -2.300;  -14.000;  -82.000
405.230;  -29.800;  190.000;  226.000
405.357;  -65.300;  117.000;   44.000
405.484;  -59.900;  -49.000;    5.000
405.612; -178.800; -548.000; -563.000
405.739; -186.200; -488.000; -243.000
405.866;  114.600;  669.000;  385.000
405.993; -132.200; -398.000; -102.000
406.120; -296.700; -801.000; -887.000
406.247; -170.600; -323.000; -342.000
406.374;  128.600;  540.000;  629.000
406.501; -226.500; -632.000; -702.000
406.628; -219.900; -621.000; -589.000
406.755; -232.600; -803.000; -620.000
406.882; -101.000; -228.000; -277.000
407.009; -240.400; -719.000; -628.000
407.136; -133.600; -480.000; -401.000
407.263; -305.600; -939.000; -829.000
407.390; -217.600; -692.000; -614.000
407.517; -367.100;-1139.000;-1187.000
407.644; -163.700; -332.000; -256.000
407.771; -137.200; -249.000; -287.000
407.898;   -8.400;  168.000;  328.000
408.025; -171.800; -421.000; -313.000
408.151;  -18.300;   82.000;  153.000
408.278; -136.100; -267.000; -216.000
408.405; -243.200; -931.000; -899.000
408.532; -204.800; -549.000; -542.000
408.659; -234.500; -677.000; -648.000
408.785; -364.900;-1298.000;-1170.000
408.912; -129.100; -412.000; -296.000
409.039; -172.500; -610.000; -686.000
409.166; -214.200; -591.000; -555.000
409.292; -198.100; -571.000; -534.000
409.419; -219.300; -665.000; -649.000
409.546; -156.900; -431.000; -192.000
409.672; -204.500; -713.000; -545.000
409.799;  -62.600;  -36.000;   34.000
409.926;  -63.200; -180.000; -179.000
410.052; -364.300;-1127.000;-1091.000
410.179; -154.600; -368.000; -392.000
410.305; -167.600; -375.000; -493.000
410.432;  -99.100; -220.000; -333.000
410.558; -188.900; -305.000; -380.000
410.685; -222.100; -688.000; -431.000
410.812; -201.800; -409.000; -588.000
410.938; -270.900; -964.000; -808.000
411.065; -224.000; -671.000; -645.000
411.191; -101.400; -189.000; -174.000
411.317; -277.600; -823.000; -742.000
411.444; -105.600; -317.000; -246.000
411.570; -121.400; -339.000; -294.000
411.697; -231.100; -758.000; -752.000
411.823; -310.700; -989.000; -999.000
411.949;  -70.700;  -56.000;   17.000
412.076; -224.300; -539.000; -519.000
412.202; -228.600; -758.000; -757.000
412.329; -257.200; -798.000; -752.000
412.455; -238.000; -821.000; -657.000
412.581;  -62.400;  -15.000;  172.000
412.707; -172.100; -540.000; -457.000
412.834;    2.300;  156.000;  219.000
412.960; -233.200; -785.000; -784.000
413.086; -255.300; -743.000; -701.000
413.212;   91.600;  604.000;  578.000
413.339; -252.200; -685.000; -701.000
413.465; -137.500; -364.000; -310.000
413.591; -244.000; -757.000; -474.000
413.717; -135.000; -358.000; -366.000
413.843; -295.400; -839.000; -861.000
413.969; -134.200;  -47.000; -292.000
414.096; -225.400; -679.000; -679.000
414.222;  -44.000;  -33.000;   85.000
414.348; -219.500; -652.000; -385.000
414.474;  -77.300;   38.000;  -52.000
414.600;  -78.800; -126.000; -144.000
414.726;  -78.300;  -96.000;  -55.000
414.852; -176.900; -365.000; -342.000
414.978;  -41.700;  104.000;  -18.000
415.104;  -52.600;   38.000;   80.000
415.230; -114.100; -329.000; -330.000
415.356; -194.900; -409.000; -514.000
415.482;  -39.700;   13.000;  -35.000
415.608;  -89.000; -247.000; -323.000
415.734;  -37.800;   67.000;   38.000
415.860; -261.500; -875.000; -767.000
415.986; -227.300; -685.000; -607.000
416.111; -290.300; -798.000; -652.000
416.237; -169.400; -424.000; -571.000
416.363; -272.100; -765.000; -733.000
416.489; -145.800; -324.000; -251.000
416.615; -247.200; -707.000; -742.000
416.741; -231.600; -677.000; -784.000
416.866; -200.100; -673.000; -736.000
416.992; -256.600; -801.000; -818.000
417.118; -121.400;  -41.000;  -80.000
417.244; -238.900; -798.000; -531.000
417.369; -283.300; -801.000; -612.000
417.495; -135.800; -325.000; -254.000
417.621; -354.100;-1015.000; -803.000
417.746; -168.700; -579.000; -572.000
417.872;  -77.800; -254.000; -144.000
417.998; -151.600; -515.000; -530.000
418.123; -330.300;-1073.000; -845.000
418.249; -171.100; -512.000; -601.000
418.374; -304.200; -916.000; -824.000
418.500; -153.900; -383.000; -482.000
418.626;  -52.900;   70.000;  -59.000
418.751; -207.900; -549.000; -448.000
418.877; -249.000; -637.000; -643.000
419.002; -172.300; -688.000; -560.000
419.128; -282.900; -930.000; -721.000
419.253; -283.300; -967.000; -837.000
419.379; -197.500; -391.000; -338.000
419.504;   43.100;  325.000;  415.000
419.629; -112.200; -393.000; -212.000
419.755; -110.200; -317.000; -254.000
419.880; -117.100;  -98.000;   67.000
420.006; -130.800; -280.000; -221.000
420.131; -253.400; -662.000; -775.000
420.256; -151.600; -315.000; -316.000
420.382; -214.300; -665.000; -687.000
420.507; -231.200; -649.000; -778.000
420.632; -170.500; -337.000; -339.000
420.758; -113.500; -251.000; -425.000
420.883; -237.700; -876.000; -672.000
421.008; -220.300; -775.000; -619.000
421.133; -202.900; -509.000; -467.000
421.259; -113.200; -325.000; -259.000
421.384; -270.700; -834.000; -693.000
421.509; -307.900;-1052.000; -862.000
421.634; -279.000; -936.000; -820.000
421.759; -147.200; -359.000; -327.000
421.885; -213.700; -717.000; -656.000
422.010; -186.900; -673.000; -542.000
422.135; -290.100; -695.000; -727.000
422.260;   36.800;  340.000;  280.000
422.385;  -75.400;   12.000;  -98.000
422.510;  -15.500;  151.000;  -26.000
422.635;  -73.100;  -87.000;  -43.000
422.760; -238.600; -766.000; -791.000
422.885;  -47.300;  -57.000;  -80.000
423.010;  -91.700; -112.000; -169.000
423.135; -208.000; -481.000; -561.000
423.260; -115.400; -150.000; -245.000
423.385;   24.200;  476.000;  222.000
423.510;  -29.800;   71.000;  -22.000
423.635;  -39.800;  133.000;   45.000
423.760;   45.600;  383.000;  328.000
423.885;   -3.100;  336.000;  391.000
424.010;  -48.500;  -68.000;  -13.000
424.135; -134.900;    5.000;  -33.000
424.259; -173.000; -654.000; -457.000
424.384; -169.500; -279.000; -272.000
424.509;  -93.100; -260.000; -186.000
424.634; -272.900; -761.000; -623.000
424.759; -207.700; -688.000; -544.000
424.883; -208.600; -506.000; -527.000
425.008; -213.700; -502.000; -410.000
425.133; -240.200; -679.000; -653.000
425.258; -181.800; -517.000; -381.000
425.382; -246.400; -867.000; -774.000
425.507; -197.800; -487.000; -543.000
425.632; -272.700; -802.000; -663.000
425.756; -100.600; -256.000; -146.000
425.881; -269.700; -831.000; -857.000
426.006; -173.900; -604.000; -355.000
426.130; -220.600; -696.000; -508.000
426.255; -205.800; -611.000; -491.000
426.379;  -99.300; -189.000; -577.000
426.504;  106.800;  660.000;  544.000
426.629; -213.800; -519.000; -466.000
426.753;  -35.300;   64.000;  -46.000
426.878; -126.200; -252.000; -288.000
427.002; -270.500; -651.000; -668.000
427.127; -106.500;  -35.000; -158.000
427.251;   55.000;  372.000;  401.000
427.375; -146.200; -191.000; -173.000
427.500; -202.600; -616.000; -610.000
427.624; -161.200; -234.000; -400.000
427.749; -148.000; -216.000; -225.000
427.873; -195.800; -499.000; -412.000
427.997; -126.000; -222.000; -230.000
428.122;  139.000;  795.000;  703.000
428.246;   85.000;  433.000;  434.000
428.371; -301.200; -869.000; -773.000
428.495; -221.400; -624.000; -646.000
428.619;  -93.400; -186.000; -117.000
428.743;  -26.400;   65.000;  132.000
428.868; -281.100; -732.000; -643.000
428.992; -133.300; -219.000; -326.000
429.116; -154.500; -329.000; -357.000
429.240;   34.600;  419.000;  426.000
429.365; -199.100; -454.000; -574.000
429.489; -224.400; -638.000; -647.000
429.613;  -99.700; -236.000; -177.000
429.737; -177.300; -563.000; -432.000
429.861; -132.700; -247.000; -133.000
429.985; -188.000; -425.000; -305.000
430.109; -323.200; -770.000; -908.000
430.234;  -10.100;   76.000;  -50.000
430.358; -145.700; -250.000; -160.000
430.482; -263.200; -672.000; -564.000
430.606; -211.700; -655.000; -375.000
430.730; -188.600; -437.000; -388.000
430.854; -305.100; -909.000; -835.000
430.978; -271.600; -795.000; -764.000
431.102; -204.100; -499.000; -422.000
431.226; -297.000; -874.000; -815.000
431.350;   23.100;  345.000;  422.000
431.474; -192.000; -661.000; -373.000
431.597; -315.400;-1060.000; -848.000
431.721; -152.100; -276.000; -267.000
431.845; -243.600; -704.000; -472.000
431.969; -123.500; -304.000; -349.000
432.093; -186.300; -395.000; -317.000
432.217;  -18.100;   32.000;   82.000
432.341; -188.200; -523.000; -518.000
432.464; -102.200;   96.000;   40.000
432.588; -183.800; -401.000; -329.000
432.712;  -71.900;  -52.000;  -52.000
432.836;    8.400;  213.000;  263.000
432.959; -141.200; -372.000; -311.000
433.083;  -70.400;   11.000;    2.000
433.207;   39.600;  285.000;  930.000
433.330; -108.500; -391.000; -200.000
433.454; -207.300; -654.000; -638.000
433.578;  102.400;  583.000;  278.000
433.701; -250.700; -623.000; -675.000
433.825; -174.800; -292.000; -299.000
433.949;  -62.700;   28.000;  -72.000
434.072; -167.600; -410.000; -323.000
434.196; -110.700; -309.000; -117.000
434.319; 7442.900;25482.000;25124.000
434.443; -221.400; -656.000; -603.000
434.566;  -10.100;  281.000;   62.000
434.690; -209.700; -637.000; -383.000
434.813; -151.100; -251.000; -173.000
434.937; -193.100; -569.000; -696.000
435.060; -159.400; -423.000; -332.000
435.184; -157.500; -492.000; -217.000
435.307;  -39.200;  159.000;  102.000
435.431;  -48.700;  -40.000;   24.000
435.554; -132.100; -399.000; -240.000
435.677; -161.600; -350.000; -258.000
435.801;  -90.000;  -25.000;   49.000
435.924;  -90.600;    1.000;  -67.000
436.048; -304.000;-1019.000; -732.000
436.171; -119.100; -240.000;  -66.000
436.294; -129.500; -248.000; -229.000
436.417; -339.600; -963.000; -849.000
436.541; -272.800; -814.000; -840.000
436.664; -106.900; -242.000; -316.000
436.787;  -28.800;   13.000;  113.000
436.910; -239.300; -792.000; -422.000
437.034;  -30.500;  142.000;  143.000
437.157;  -42.200;  -11.000;    0.000
437.280; -174.500; -392.000; -292.000
437.403; -269.000; -982.000; -869.000
437.526; -325.800; -903.000; -865.000
437.649; -164.600; -505.000; -332.000
437.772; -252.200; -692.000; -540.000
437.896;   86.200;  700.000;  544.000
438.019; -230.200; -758.000; -503.000
438.142; -187.500; -596.000; -506.000
438.265; -279.100; -639.000; -670.000
438.388; -173.000; -520.000; -410.000
438.511; -239.800; -597.000; -394.000
438.634; -163.100; -247.000; -125.000
438.757; -262.900; -693.000; -619.000
438.880; -102.700;  -34.000;  -57.000
439.003; -188.000; -417.000; -437.000
439.126;  -98.000; -287.000; -167.000
439.248; -116.000;  -98.000; -139.000
439.371;  -24.400;    9.000;  -53.000
439.494;  100.100;  510.000;  439.000
439.617;  -47.700;   65.000;  -88.000
439.740; -360.300; -968.000; -816.000
439.863; -240.200; -755.000; -595.000
439.986; -219.700; -476.000; -431.000
440.108; -104.700; -161.000; -112.000
440.231; -317.500; -950.000; -836.000
440.354;  -93.500;  -64.000; -150.000
440.477; -230.500; -566.000; -542.000
440.599; -152.800; -200.000; -225.000
440.722; -239.700; -709.000; -586.000
440.845;  182.500;  751.000;  928.000
440.968; -174.200; -415.000; -311.000
441.090;  -82.200; -199.000;  -33.000
441.213; -296.000;-1021.000; -825.000
441.336;  -72.400; -159.000;   -5.000
441.458; -171.000; -549.000; -396.000
441.581; -246.100; -628.000; -629.000
441.703; -147.600; -152.000;   13.000
441.826; -211.300; -557.000; -400.000
441.948;  -60.000;   56.000;   51.000
442.071;  114.200;  555.000;  424.000
442.193; -219.600; -531.000; -485.000
442.316;  -25.500;  152.000;   97.000
442.438; -139.800; -233.000;  -10.000
442.561;   -3.100;  272.000;  262.000
442.683; -261.500; -809.000; -522.000
442.806;  -88.000;   -8.000;   74.000
442.928; -281.000; -859.000; -604.000
443.051; -164.800; -577.000; -373.000
443.173; -170.300; -341.000; -339.000
443.295; -176.900; -263.000; -371.000
443.418; -126.700; -321.000;  -29.000
443.540;  -52.800; -106.000;   -4.000
443.662; -241.700; -563.000; -465.000
443.785;   33.500;  335.000;  199.000
443.907; -176.800; -362.000; -208.000
444.029; -228.200; -767.000; -494.000
444.152; -243.700; -644.000; -554.000
444.274;  -51.700;  -18.000;  -24.000
444.396; -177.300; -461.000; -221.000
444.518; -236.500; -691.000; -454.000
444.640; -204.000; -268.000; -111.000
444.763;  -13.800;  388.000;  249.000
444.885; -187.800; -432.000; -392.000
445.007;  -52.300;   35.000;   86.000
445.129; -219.900; -610.000; -515.000
445.251; -209.500; -372.000; -439.000
445.373; -245.300; -537.000; -386.000
445.495;    8.000;  242.000;  350.000
445.617;  135.400;  853.000;  753.000
445.739; -122.300; -215.000;  -97.000
445.861; -105.800; -245.000; -112.000
445.984; -154.500; -267.000; -101.000
446.105; -171.600; -418.000; -251.000
446.227; -111.700; -176.000;  -19.000
446.349; -206.300; -358.000; -249.000
446.471; -197.000; -615.000; -448.000
446.593; -125.700; -316.000;   19.000
446.715;  -62.700;  -67.000;   41.000
446.837;  160.500;  697.000;  832.000
446.959; -207.100; -457.000; -478.000
447.081; -232.400; -628.000; -518.000
447.203;  154.000;  862.000;  834.000
447.325; -122.600; -270.000;   42.000
447.446;    6.100;  286.000;  530.000
447.568; -340.200; -921.000; -803.000
447.690; -178.300; -236.000; -245.000
447.812; -281.600; -798.000; -519.000
447.933;  -37.500;  155.000;  127.000
448.055; -168.700; -306.000; -261.000
448.177;  -27.900;   31.000;   79.000
448.299; -332.600; -935.000; -727.000
448.420;  -17.400;  -25.000;  159.000
448.542;  -96.900;   -3.000;   33.000
448.664;   -8.300;  109.000;  322.000
448.785;  -18.400;  265.000;   83.000
448.907; -213.100; -614.000; -353.000
449.028; -242.500; -771.000; -471.000
449.150;  105.200;  492.000;  589.000
449.272; -358.500;-1044.000; -913.000
449.393;   86.800;  612.000;  694.000
449.515; -252.400; -634.000; -581.000
449.636; -126.600; -264.000; -155.000
449.758;   70.800;  763.000;  622.000
449.879; -184.100; -498.000; -396.000
450.001; -170.200; -149.000;  -49.000
450.122;  -51.500;  -95.000;  162.000
450.244;  -46.300;   37.000;  364.000
450.365; -177.900; -495.000; -301.000
450.486;  -92.200;   80.000;  268.000
450.608;  -12.500;  393.000;  326.000
450.729;   51.900;  578.000;  645.000
450.850; -226.100; -574.000; -466.000
450.972; -257.600; -552.000; -389.000
451.093;   15.700;  190.000;  588.000
451.214; -209.500; -516.000; -337.000
451.336;  162.300;  773.000;  579.000
451.457;    7.700;  264.000;  393.000
451.578;  -92.200; -118.000;  -74.000
451.699; -199.700; -546.000; -540.000
451.821; -130.800; -284.000;  -50.000
451.942;  -29.900;  278.000;  285.000
452.063;   38.700;  228.000;  419.000
452.184; -130.900;  -54.000;  -49.000
452.305;  -45.500;  103.000;  170.000
452.427; -196.700; -549.000; -301.000
452.548;  -62.100;   23.000;   79.000
452.669; -142.900; -257.000;  -89.000
452.790; -116.700;    3.000;  -18.000
452.911;   -5.100;  195.000;  259.000
453.032; -137.500; -289.000;  -60.000
453.153;  -63.200;  -29.000;   81.000
453.274;  153.800;  737.000;  868.000
453.395;  -66.300;  -51.000;  175.000
453.516;  242.300; 1317.000; 1388.000
453.637; -159.200; -205.000; -150.000
453.758;  -96.200;   15.000;   69.000
453.879; -187.700; -462.000; -250.000
454.000;  194.300; 1086.000;  948.000
454.121; -234.300; -554.000; -326.000
454.242; -243.100; -599.000; -383.000
454.362;  -78.900;  -99.000;  114.000
454.483; -174.700; -309.000; -229.000
454.604;   65.800;  512.000;  580.000
454.725; -239.000; -627.000; -555.000
454.846; -197.000; -474.000; -406.000
454.967;    6.600;  230.000;  539.000
455.087;  -28.900;  179.000;  153.000
455.208;   45.800;  554.000;  856.000
455.329;  -74.500;  -22.000;   82.000
455.450;   37.200;  473.000;  633.000
455.570; -157.300; -234.000; -211.000
455.691;  -67.200;  201.000;  407.000
455.812; -191.400; -270.000;  -92.000
455.932;  -93.300;  107.000;  -97.000
456.053;  -85.300;   36.000;   24.000
456.173; -185.900; -433.000; -355.000
456.294; -258.700; -476.000; -303.000
456.415;  -99.500;  -73.000;   70.000
456.535;   -1.300;  297.000;  273.000
456.656;  -36.900;  132.000;  240.000
456.776;  -58.600;    3.000;  298.000
456.897;   12.200;  308.000;  513.000
457.017; -132.100; -153.000;   -3.000
457.138; -187.400; -402.000; -249.000
457.258;  -55.000;  263.000;  224.000
457.379;   14.300;  509.000;  521.000
457.499;  -27.800;  443.000;  432.000
457.620; -193.200; -407.000; -231.000
457.740; -155.200; -132.000;  -11.000
457.860;  -82.400;   87.000;   44.000
457.981;  -97.800;  132.000;  124.000
458.101; -143.700;  -89.000;   40.000
458.221;   11.600;  336.000;  402.000
458.342;  -88.500;   -4.000;  -37.000
458.462;    7.500;  617.000;  352.000
458.582; -161.600; -302.000; -294.000
458.703;  -66.200;  303.000;  154.000
458.823;  -98.500;   22.000;  163.000
458.943;  -31.900;  341.000;  467.000
459.063;  -86.600; 1124.000;  192.000
459.183;  -29.300;  328.000;  313.000
459.304;    5.000;  315.000;  517.000
459.424; -175.800; -246.000;  -89.000
459.544;   52.500;  388.000;  764.000
459.664;   13.900;  499.000;  506.000
459.784;  162.400; 1004.000; 1175.000
459.904;  127.900;  867.000;  744.000
460.024;  111.400;  867.000;  684.000
460.144;   16.900;  449.000;  554.000
460.264;   23.800;  515.000;  327.000
460.385; -144.800; -145.000; -119.000
460.505;  119.200;  905.000;  858.000
460.625; -140.700;  -17.000;  -68.000
460.745;   -0.100;  396.000;  541.000
460.864;  -44.500;  153.000;  469.000
460.984;  -14.900;  499.000;  573.000
461.104;  302.900; 1656.000; 1775.000
461.224;   73.400;  657.000;  650.000
461.344;   -3.400;  431.000;  360.000
461.464;  -50.600;  258.000;  513.000
461.584;  -56.000;  283.000;  466.000
461.704;  -89.000;   58.000;  108.000
461.824;  -84.900;  238.000;  259.000
461.943;  -42.900;  191.000;  130.000
462.063; -119.100;    2.000;  324.000
462.183;   72.800;  639.000;  717.000
462.303;  204.600; 1678.000; 1230.000
462.422;   81.400;  781.000;  840.000
462.542;  -51.300;  271.000;  391.000
462.662;    9.300;  353.000;  380.000
462.782;   48.800;  833.000;  572.000
462.901;    9.300;  545.000;  717.000
463.021;  270.900; 1702.000; 1638.000
463.141;   -0.700;  337.000;  770.000
463.260;   13.600;  614.000;  474.000
463.380;   86.900;  902.000;  884.000
463.499;  -51.000;  342.000;  332.000
463.619;  -84.800;  581.000;  559.000
463.738;  246.900; 1644.000;  903.000
463.858;   39.700;  657.000;  811.000
463.978;  -22.200;  542.000;  396.000
464.097;  125.700;  921.000; 1114.000
464.217;  142.100; 1196.000; 1143.000
464.336;  190.600; 1068.000; 1130.000
464.455;  -39.200;  328.000;  659.000
464.575;   48.500;  597.000;  602.000
464.694;  205.800; 1204.000; 1179.000
464.814;  101.100; 1190.000; 1138.000
464.933;  113.800; 1095.000; 1027.000
465.052;  217.700; 1412.000; 1054.000
465.172;  106.800;  922.000;  799.000
465.291;  241.900; 1376.000; 1320.000
465.410;   51.100;  462.000;  735.000
465.530;  201.400; 1355.000; 1310.000
465.649;  119.500; 1209.000; 1273.000
465.768;  273.100; 1673.000; 1508.000
465.888;  104.800;  941.000; 1174.000
466.007;  241.200; 1335.000; 1440.000
466.126;   16.000;  721.000;  641.000
466.245;  122.600; 1176.000; 1187.000
466.364;   49.900;  950.000; 1060.000
466.484;  124.300; 1024.000; 1213.000
466.603;  118.900; 1101.000; 1222.000
466.722;  251.600; 1490.000; 1769.000
466.841;  141.500; 1151.000; 1401.000
466.960;   99.000; 1069.000;  972.000
467.079;  317.800; 1971.000; 1786.000
467.198;  176.400; 1238.000; 1181.000
467.317;  245.500; 1768.000; 1162.000
467.436;  196.900; 1709.000; 1261.000
467.555;  295.200; 1796.000; 1746.000
467.674;  153.100; 1227.000; 1329.000
467.793;  146.400; 1376.000; 1374.000
467.912;  201.900; 1658.000; 1539.000
468.031;  332.300; 2038.000; 1930.000
468.150;  319.000; 1842.000; 1837.000
468.269;  433.100; 2313.000; 2090.000
468.388;  404.000; 2168.000; 2339.000
468.507;  552.500; 2884.000; 2903.000
468.626;  582.900; 2555.000; 2541.000
468.744;  312.000; 2018.000; 2174.000
468.863;  453.800; 2312.000; 2523.000
468.982;  222.000; 1503.000; 1555.000
469.101;  486.300; 2788.000; 2692.000
469.220;  333.800; 2333.000; 2176.000
469.338;  553.300; 2935.000; 3051.000
469.457;  438.300; 2719.000; 2545.000
469.576;  732.300; 3953.000; 3784.000
469.695;  525.700; 2877.000; 3066.000
469.813;  885.300; 4148.000; 4192.000
469.932;  810.800; 4255.000; 4485.000
470.051;  792.700; 4075.000; 4161.000
470.169;  885.500; 4470.000; 4338.000
470.288;  920.200; 4700.000; 4809.000
470.406;  998.000; 5059.000; 5194.000
470.525; 1217.900; 6101.000; 5787.000
470.644; 1308.300; 6847.000; 6794.000
470.762; 1673.000; 8397.000; 7873.000
470.881; 1750.900; 8651.000; 8464.000
470.999; 2053.900; 9685.000; 9151.000
471.118; 2202.600;11174.000;10711.000

