
Integration time [ms]: 100.000
Averaging Nr. [scans]: 40
Smoothing Nr. [pixels]: 0
Data measured with spectrometer [name]: 2101012U2
Wave   ;Sample   ;Dark     ;Reference
[nm]   ;[counts] ;[counts] ;[counts] 

197.733;   57.700;  516.000;  404.000
197.879;  -70.500; -610.000; -634.000
198.025;  -42.625; -475.000; -420.000
198.171;  -71.100; -602.000; -612.000
198.317;  -21.650; -401.000; -316.000
198.463;  -51.275; -655.000; -404.000
198.609;   18.225;  181.000; -137.000
198.755;  -57.475; -644.000; -410.000
198.901;  -54.450; -505.000; -424.000
199.047;  -55.225; -615.000; -488.000
199.193;  -34.800; -230.000; -468.000
199.339;  -47.175; -222.000; -369.000
199.485;   37.225;  330.000;  271.000
199.631;   21.025;  227.000;  310.000
199.777;  -41.150; -466.000; -398.000
199.923;  -48.950; -610.000; -424.000
200.069;   -3.725; -141.000;  -58.000
200.215;   62.875;  128.000;  453.000
200.361;   36.075;  243.000;  477.000
200.507;  -48.275; -600.000; -373.000
200.653;  -25.050; -371.000; -194.000
200.798;  -20.300; -215.000; -125.000
200.944;   -7.125; -146.000;  -41.000
201.090;   47.275;   61.000;  222.000
201.236;   -3.975; -116.000; -158.000
201.382;  129.625;  874.000;  903.000
201.528;   -4.150;  -58.000;  -48.000
201.674;  -56.575; -386.000; -293.000
201.819;  -63.075; -540.000; -439.000
201.965;  -76.750; -699.000; -447.000
202.111;  -37.025; -273.000; -226.000
202.257;  -25.075; -250.000; -238.000
202.402;    8.575;   13.000;  -36.000
202.548;  -21.450; -169.000; -116.000
202.694;   82.550;  410.000; -183.000
202.840;  -59.400; -603.000; -531.000
202.985;  -76.325; -681.000; -639.000
203.131;  -90.100; -832.000; -666.000
203.277;  -18.650; -199.000; -262.000
203.423;  -55.250; -434.000; -520.000
203.568;  -26.275; -462.000; -237.000
203.714;  -62.975; -535.000; -542.000
203.860;  -76.825; -682.000; -641.000
204.005;   15.200;  112.000;  167.000
204.151;   77.450;  561.000;  556.000
204.296;  -44.850; -354.000; -221.000
204.442;  -62.575; -600.000; -547.000
204.588;  -68.475; -592.000; -579.000
204.733;   21.025;  178.000;  168.000
204.879; -132.975;-1018.000; -822.000
205.025;   15.150;  -99.000;  126.000
205.170;    4.625;  -17.000;   94.000
205.316;   72.750;  438.000;  661.000
205.461;  -72.125; -698.000; -554.000
205.607;   89.575;  609.000;  665.000
205.752;  -74.550; -626.000; -551.000
205.898;  -49.075; -501.000; -391.000
206.043;  -57.100; -578.000; -506.000
206.189;  -36.075; -243.000; -285.000
206.334;   82.225;  554.000;  606.000
206.480;   57.450;  409.000;  239.000
206.625;  -71.050; -529.000; -552.000
206.771;  -43.575; -451.000; -373.000
206.916;  -25.800; -210.000; -537.000
207.062;  -60.475; -545.000; -591.000
207.207;  -60.950; -546.000; -443.000
207.353;   50.325;  185.000;  460.000
207.498;   12.700;  196.000;   85.000
207.643;  -41.925; -501.000; -370.000
207.789; -101.700;-1069.000; -910.000
207.934;  -84.325; -665.000; -713.000
208.080;  -28.375; -154.000;   66.000
208.225;  -13.175;  -22.000;  -57.000
208.370;  -72.225; -727.000; -619.000
208.516;  -80.525; -741.000; -487.000
208.661;  -26.950; -127.000;  -69.000
208.806;  -11.100; -165.000; -171.000
208.952;  -97.725;-1044.000; -731.000
209.097;   57.850;  378.000;  349.000
209.242;  -29.950; -307.000; -382.000
209.387;   52.325;  392.000;  350.000
209.533;  -41.675; -321.000; -350.000
209.678;   86.850;  472.000;  543.000
209.823;  -50.750; -408.000; -310.000
209.969;  -80.000; -860.000; -757.000
210.114; -106.125; -907.000; -719.000
210.259; -121.475; -939.000; -889.000
210.404;    1.850; -171.000;  103.000
210.549;    6.475;  108.000;    3.000
210.695;   -6.850;   -3.000;  -95.000
210.840;   20.375;   94.000;   67.000
210.985;  -56.850; -484.000; -303.000
211.130;   60.175;  268.000;  406.000
211.275;   22.575;  207.000;  199.000
211.420;  -53.375; -300.000; -289.000
211.566;  -75.675; -536.000; -489.000
211.711;   29.900;  218.000;  157.000
211.856;  -57.000; -545.000; -519.000
212.001;   20.675;  151.000;   44.000
212.146;   12.225;  153.000;   49.000
212.291;  -21.050; -210.000; -186.000
212.436;  -19.225; -280.000;   -6.000
212.581;  -78.150; -685.000; -653.000
212.726;  -64.700; -487.000; -538.000
212.871;  -45.700; -552.000; -217.000
213.016; -138.150;-1172.000;-1029.000
213.161;   72.025;  406.000;  291.000
213.306;  -75.150; -435.000; -577.000
213.451;  -89.325; -778.000; -689.000
213.596;  -40.875; -455.000; -347.000
213.741;  -59.250; -448.000; -538.000
213.886;  -67.900; -498.000; -517.000
214.031;  -22.875; -294.000; -124.000
214.176;  -38.450; -408.000; -341.000
214.321;  -11.175; -296.000; -157.000
214.466;  -26.775; -163.000;  -43.000
214.611;  -10.325;  -61.000;  -10.000
214.756; -108.675; -948.000; -858.000
214.901;  -17.375; -388.000; -226.000
215.046; -119.100; -797.000; -825.000
215.191;    0.600;  128.000;   35.000
215.336;  -11.500; -157.000;  -19.000
215.480;  -54.750; -684.000; -505.000
215.625;  -11.075; -175.000;  -19.000
215.770;  -72.325; -757.000; -662.000
215.915;   -1.675;   -5.000;  -97.000
216.060;  -19.375; -113.000;  -21.000
216.205; -101.725; -731.000; -779.000
216.349;  -72.375; -470.000; -533.000
216.494; -114.425; -939.000; -867.000
216.639; -113.225; -823.000; -888.000
216.784;  -77.275; -577.000; -525.000
216.929;   48.800;  392.000;  281.000
217.073;   -3.350; -244.000;  -31.000
217.218;    5.000;   78.000;  -47.000
217.363;  -88.275; -656.000; -618.000
217.507;  -70.975; -623.000; -588.000
217.652; -111.675; -845.000; -874.000
217.797;  -83.925; -708.000; -659.000
217.942; -106.875; -856.000; -720.000
218.086;   77.950;  608.000;  539.000
218.231;  -25.600; -174.000;  -26.000
218.376;  -38.325; -337.000; -229.000
218.520;   16.700;  -41.000;   96.000
218.665;  -27.100; -338.000; -204.000
218.810;  -29.450; -275.000; -233.000
218.954;   17.775;  201.000;   35.000
219.099; -103.750; -713.000; -963.000
219.243;  -65.750; -589.000; -554.000
219.388;  -26.725; -264.000; -136.000
219.532;  -11.400; -116.000; -116.000
219.677;  -70.175; -564.000; -521.000
219.822;   11.150;   33.000;   89.000
219.966;    4.825;   17.000;  -99.000
220.111;  -24.375; -328.000;  -40.000
220.255;  -83.950; -797.000; -750.000
220.400;  -16.925; -180.000; -146.000
220.544;  -56.150; -516.000; -450.000
220.689;  -59.525; -422.000; -451.000
220.833;  -15.750; -123.000;  -58.000
220.978;  -48.450; -393.000; -563.000
221.122;   31.325;  319.000;  307.000
221.267; -107.925; -906.000; -837.000
221.411;  -50.150; -478.000; -394.000
221.555;  -12.000; -104.000;  -23.000
221.700;  -32.675; -329.000; -222.000
221.844;   45.900;  255.000;  272.000
221.989;  -35.200; -328.000; -311.000
222.133;  -32.625; -289.000; -307.000
222.277;   -7.825;    5.000;   78.000
222.422;   10.950;  227.000;  113.000
222.566;  -27.375; -381.000; -214.000
222.711;  -49.350; -414.000; -479.000
222.855;  -72.300; -643.000; -586.000
222.999;  -89.025; -642.000; -717.000
223.144;  -26.800; -195.000; -194.000
223.288;   50.400;  423.000;  251.000
223.432;   31.975;  184.000;  230.000
223.576;    8.750;  152.000;  -21.000
223.721;   44.600;  364.000;  273.000
223.865;  -60.225; -472.000; -475.000
224.009;  223.750; 1673.000; 1631.000
224.153;  -81.700; -660.000; -671.000
224.298;  -72.825; -531.000; -489.000
224.442;  -13.875;  -74.000;  -33.000
224.586;   -3.625; -169.000; -106.000
224.730;  -86.725; -858.000; -670.000
224.875;  -83.975; -739.000; -688.000
225.019;   13.000;  102.000;  188.000
225.163;   50.125;  208.000;  341.000
225.307;   12.250;   97.000;  -91.000
225.451;   46.250;  360.000;  481.000
225.595;   13.250;  264.000;  176.000
225.739;  -18.825; -170.000;  -94.000
225.884;    5.775;   86.000;    5.000
226.028;  -88.575; -760.000; -626.000
226.172;  -41.700; -260.000; -273.000
226.316; -118.825; -941.000; -902.000
226.460;  -72.800; -645.000; -493.000
226.604;  -52.975; -406.000; -400.000
226.748;  -97.450; -836.000; -733.000
226.892;  -36.375; -227.000; -181.000
227.036;  -51.350; -537.000; -447.000
227.180;  -59.525; -551.000; -375.000
227.324;  -58.850; -561.000; -580.000
227.468;  -97.125; -819.000; -717.000
227.612;   18.425;  242.000;  -28.000
227.756;  -99.250; -845.000; -698.000
227.900;   47.400;  342.000;  441.000
228.044;  -41.275; -509.000; -290.000
228.188;   50.125;  448.000;  568.000
228.332;  -67.975; -546.000; -472.000
228.476;  -37.775; -223.000; -149.000
228.620;  -14.825; -210.000; -150.000
228.764;   68.275;  431.000;  349.000
228.908;   -9.700; -155.000;   30.000
229.052;  -59.025; -615.000; -528.000
229.195;   -7.400; -172.000;   13.000
229.339;  -27.775; -235.000; -305.000
229.483;  -21.425;    5.000; -162.000
229.627;   -8.575; -156.000;  139.000
229.771;  -38.700; -218.000; -294.000
229.915;   11.975;  230.000;   79.000
230.059;  -85.100; -648.000; -663.000
230.202;  -45.625; -370.000; -317.000
230.346;    4.900; -107.000;  107.000
230.490;  -53.425; -489.000; -521.000
230.634; -100.750; -736.000; -553.000
230.777;   81.850;  478.000;  509.000
230.921;  -37.075; -450.000; -359.000
231.065;  -31.275; -246.000; -286.000
231.209;   27.375;  261.000;  265.000
231.352;   24.625;   54.000;   40.000
231.496;   31.050;  568.000;  188.000
231.640;  -75.800; -693.000; -621.000
231.783;   83.675;  546.000;  525.000
231.927;  -43.300; -294.000; -365.000
232.071; -115.600; -962.000; -736.000
232.214;  -99.900; -980.000; -764.000
232.358;  -90.250; -683.000; -599.000
232.502;   -2.025;  -19.000;    7.000
232.645; -122.175;-1090.000; -927.000
232.789;  -20.775; -257.000; -218.000
232.933;  -35.650; -407.000; -224.000
233.076; -126.350;-1038.000; -897.000
233.220;  -85.450; -752.000; -777.000
233.363;  -87.275; -669.000; -477.000
233.507;   53.050;  371.000;  129.000
233.650;  -93.575; -764.000; -834.000
233.794;   43.600;  438.000;  461.000
233.938;  -62.700; -530.000; -362.000
234.081;  -13.125;  -93.000;   31.000
234.225;  -72.425; -631.000; -539.000
234.368; -113.300; -773.000; -723.000
234.512;  -43.000; -385.000; -299.000
234.655;  -74.800; -582.000; -555.000
234.798;  -80.775; -493.000; -466.000
234.942; -134.125; -884.000;-1002.000
235.085;  -75.000; -651.000; -443.000
235.229;  -67.225; -405.000; -410.000
235.372;  -52.525; -247.000; -191.000
235.516;  -62.525; -397.000; -321.000
235.659;   24.225;   92.000;  121.000
235.802;  -25.800;  -38.000;  -22.000
235.946;   26.625;  335.000;  215.000
236.089;   14.100;  126.000;  250.000
236.233;   49.175;  275.000;  298.000
236.376;  -44.050; -235.000; -378.000
236.519;  -53.375; -297.000; -319.000
236.663;  -20.125; -215.000; -117.000
236.806; -138.925;-1029.000; -999.000
236.949;   42.500;  543.000;  431.000
237.092;   56.700;  412.000;  391.000
237.236;  -75.375; -589.000; -502.000
237.379;   71.925;  352.000;  428.000
237.522; -117.525; -879.000; -768.000
237.666;  -25.775; -271.000;   18.000
237.809; -118.400; -851.000; -823.000
237.952;   35.975;  469.000;  271.000
238.095;  -54.000; -447.000; -442.000
238.238;   83.100;  688.000;  700.000
238.382;    7.425;  166.000;  103.000
238.525;  -80.200; -598.000; -511.000
238.668; -125.700;-1060.000; -985.000
238.811;  -71.400; -638.000; -643.000
238.954;  -61.000; -483.000; -334.000
239.097;   85.350;  617.000;  664.000
239.241;   32.150;  394.000;  326.000
239.384;  -34.275; -254.000; -214.000
239.527;  -58.250; -424.000; -224.000
239.670; -149.375; -994.000;-1091.000
239.813; -101.925; -696.000; -658.000
239.956;   64.775;  579.000;  473.000
240.099;  -97.150; -778.000; -725.000
240.242;   59.525;  428.000;  432.000
240.385;   41.975;  466.000;  450.000
240.528;  -75.275; -706.000; -473.000
240.671;   20.200;  189.000;  134.000
240.814;  -42.500; -441.000; -158.000
240.957;  -96.000; -767.000; -578.000
241.100;  -90.950; -779.000; -755.000
241.243; -153.800;-1234.000; -893.000
241.386;  -61.000; -508.000; -379.000
241.529;  -73.825; -735.000; -547.000
241.672;  -61.800; -566.000; -495.000
241.815; -109.025; -832.000; -808.000
241.958;  -20.725; -125.000; -182.000
242.101;  -77.525; -545.000; -390.000
242.244;  -42.450; -270.000; -325.000
242.387;  -53.025; -304.000; -246.000
242.530;   60.675;  470.000;  134.000
242.673;  -29.525; -381.000; -309.000
242.815; -105.025; -925.000; -899.000
242.958;  -55.475; -482.000; -381.000
243.101;    9.675;  132.000;  187.000
243.244;  -74.550; -564.000; -521.000
243.387;  -41.050; -313.000; -316.000
243.530;  -79.225; -657.000; -674.000
243.672;    7.325;   43.000;  -92.000
243.815;  -48.000; -355.000; -283.000
243.958;    1.075;   98.000;  -26.000
244.101;   -4.750;   59.000;  -16.000
244.243;  -24.000;  -47.000;  101.000
244.386; -115.425; -761.000; -630.000
244.529;  -42.000; -132.000; -139.000
244.672; -159.750;-1154.000; -951.000
244.814;  -94.850; -621.000; -794.000
244.957;  -56.900; -380.000; -304.000
245.100;  -76.900; -489.000; -489.000
245.242;  -55.750; -387.000; -374.000
245.385;   -8.325;  -59.000;  -39.000
245.528; -105.375; -871.000; -705.000
245.670;   79.700;  612.000;  634.000
245.813;  -77.550; -599.000; -547.000
245.956;  -20.500; -324.000; -275.000
246.098;  -66.125; -508.000; -650.000
246.241;   17.400;  194.000;   48.000
246.383;  -11.450; -119.000;  -73.000
246.526;  -74.575; -454.000; -525.000
246.669; -114.175; -889.000; -780.000
246.811;   25.225;  172.000;   -1.000
246.954;  -60.475; -512.000; -426.000
247.096;  -12.500;  -84.000;   -6.000
247.239;  -59.650; -482.000; -445.000
247.381;  -68.600; -647.000; -488.000
247.524;   85.675;  645.000;  679.000
247.666;   -4.750;   58.000;   11.000
247.809; -100.725; -887.000; -691.000
247.951;    3.125;  -75.000;  138.000
248.094;   34.525;  432.000;  308.000
248.236; -148.150;-1262.000;-1238.000
248.378;   18.375; -356.000;  -81.000
248.521;  -20.525; -334.000; -337.000
248.663;  -32.450; -236.000; -267.000
248.806;  -28.250; -300.000; -266.000
248.948;  -90.700; -886.000; -763.000
249.090;  -29.425; -428.000; -398.000
249.233;  -43.300; -344.000; -381.000
249.375;  -60.750; -474.000; -451.000
249.518;  -22.925;  -83.000; -133.000
249.660;   -3.050; -103.000;    3.000
249.802; -155.400;-1303.000;-1189.000
249.945;  -61.775; -612.000; -540.000
250.087; -100.725; -834.000; -768.000
250.229;  -43.175; -362.000; -480.000
250.371;  -64.600; -494.000; -439.000
250.514;  -56.275; -310.000; -244.000
250.656;  -13.000;   69.000;  102.000
250.798; -107.800; -849.000; -800.000
250.940;  -64.050; -322.000; -322.000
251.083;  -27.000; -335.000; -111.000
251.225;   51.150;  338.000;  310.000
251.367;  -39.775; -274.000; -373.000
251.509;  -32.575; -265.000; -210.000
251.651;  -96.500; -731.000; -671.000
251.794;   62.425;  538.000;  632.000
251.936; -113.375; -821.000; -747.000
252.078;  -72.250; -540.000; -461.000
252.220;  -68.275; -645.000; -477.000
252.362;   88.025;  344.000;  462.000
252.504;  -64.800; -677.000; -584.000
252.646; -107.875; -875.000; -722.000
252.788;    8.750;   14.000; -128.000
252.931;  -38.875; -257.000; -253.000
253.073;  -42.650; -376.000; -317.000
253.215;   -5.750;  141.000;  122.000
253.357;  -10.075;   82.000; -153.000
253.499;  -46.750; -374.000; -234.000
253.641;  -83.050; -749.000; -594.000
253.783;  -90.450; -609.000; -527.000
253.925;  -92.700; -586.000; -591.000
254.067;  -92.200; -744.000; -667.000
254.209;  -28.500; -391.000; -259.000
254.351; -127.725; -865.000; -883.000
254.493;  -67.875; -441.000; -417.000
254.635; -110.550; -936.000; -818.000
254.777;  -92.650; -752.000; -687.000
254.918;  -47.725; -512.000; -430.000
255.060;  -58.150; -551.000; -395.000
255.202;  -43.125; -473.000; -261.000
255.344;  -69.850; -658.000; -455.000
255.486;  -68.175; -471.000; -406.000
255.628;  -98.450; -780.000; -781.000
255.770;  -86.275; -676.000; -536.000
255.912;  -63.375; -559.000; -468.000
256.053;  -82.000; -730.000; -508.000
256.195;  134.725; 1008.000;  903.000
256.337;  -98.925; -861.000; -595.000
256.479;   53.550;  532.000;  416.000
256.621;  -41.525; -394.000; -212.000
256.762;  -86.350; -789.000; -742.000
256.904;   49.100;  485.000;  487.000
257.046;  -37.400; -381.000; -271.000
257.188;  -35.975; -351.000; -264.000
257.329;  -82.900; -525.000; -464.000
257.471; -110.650; -939.000; -807.000
257.613;  -60.075; -584.000; -498.000
257.755; -143.625;-1073.000; -982.000
257.896;   44.575;  286.000;  392.000
258.038;  -58.625; -403.000; -352.000
258.180;  -45.500; -354.000; -279.000
258.321;  -64.300; -581.000; -457.000
258.463;   -4.275;  -71.000;  133.000
258.605;  -78.300; -562.000; -570.000
258.746; -100.925; -886.000; -772.000
258.888; -144.200;-1026.000;-1020.000
259.029;   19.350;  121.000;   -8.000
259.171;  -87.975; -614.000; -550.000
259.313;    1.800;  -49.000;  -47.000
259.454;  -70.925; -536.000; -414.000
259.596;  -49.850; -483.000; -390.000
259.737;  -80.625; -590.000; -474.000
259.879;   31.025;  217.000;  311.000
260.020;   76.225;  901.000;  636.000
260.162;  -27.125; -146.000; -253.000
260.303; -100.900; -768.000; -687.000
260.445;  -83.150; -609.000; -613.000
260.586;   17.625;  392.000;  157.000
260.728;  -32.950; -360.000; -248.000
260.869; -114.500; -350.000; -343.000
261.011;   85.475;  706.000;  537.000
261.152;  -49.825; -479.000; -319.000
261.293;  -73.925; -576.000; -595.000
261.435;  -36.450; -219.000; -184.000
261.576;  -50.750; -455.000; -325.000
261.718;   50.075;  420.000;  470.000
261.859; -128.325; -940.000; -949.000
262.000; -123.850; -951.000;-1016.000
262.142;  -27.650;  -52.000;  -60.000
262.283; -108.125; -808.000; -691.000
262.424;  -87.950; -666.000; -625.000
262.566; -146.750;-1161.000; -983.000
262.707; -115.025; -840.000; -830.000
262.848; -117.850; -769.000; -726.000
262.990;  -41.800; -362.000; -345.000
263.131;   97.600;  650.000;  681.000
263.272;  -24.350;  -61.000;  -41.000
263.413;  -86.450; -589.000; -561.000
263.555;  -75.175; -669.000; -143.000
263.696;  -77.125; -550.000; -641.000
263.837;  -70.350; -449.000; -551.000
263.978;   -0.725;   -5.000;  -77.000
264.119;  -45.550; -283.000; -264.000
264.261; -108.400; -847.000; -630.000
264.402;   -0.925;   33.000;   40.000
264.543;  -76.050; -509.000; -524.000
264.684;   -5.025;   61.000;  -50.000
264.825;  -58.575; -816.000; -538.000
264.966;  -14.525;  -84.000;  -67.000
265.107; -108.875; -646.000; -670.000
265.248; -117.975; -825.000; -812.000
265.390;  -14.775;  152.000;   -9.000
265.531;  -30.300; -238.000; -107.000
265.672;  -89.925; -557.000; -630.000
265.813;   54.550;  563.000;  439.000
265.954; -139.975; -959.000; -940.000
266.095;   -5.500; -372.000; -322.000
266.236;  -93.350; -686.000; -548.000
266.377;  -46.600; -243.000; -297.000
266.518;  -59.875; -619.000; -547.000
266.659;   23.025;  170.000;  268.000
266.800;   13.200;   83.000;   85.000
266.941;  -69.250; -487.000; -478.000
267.082;   23.025;  354.000;   99.000
267.223;  -58.825; -344.000; -273.000
267.364; -114.675; -892.000; -686.000
267.504;  -14.850;    3.000;  135.000
267.645;    6.375;  160.000;   67.000
267.786;  -25.275; -147.000;  -86.000
267.927;  -59.375; -473.000; -379.000
268.068;  -28.525; -186.000;  -61.000
268.209;  -41.475; -175.000; -413.000
268.350;  -55.050; -388.000; -532.000
268.490;  -71.525; -648.000; -521.000
268.631;   16.025;  127.000;  225.000
268.772;  -96.225; -874.000; -647.000
268.913;  -42.325; -328.000; -476.000
269.054;   -8.050; -117.000;   12.000
269.194;  -34.225; -418.000; -402.000
269.335; -151.275;-1137.000;-1074.000
269.476;  -26.275;   33.000;  -35.000
269.617;  -52.350; -347.000; -392.000
269.757;  -83.175; -713.000; -646.000
269.898;  -92.975; -856.000; -613.000
270.039;  -61.375; -415.000; -405.000
270.180; -141.275; -952.000; -816.000
270.320;  -25.825; -190.000; -250.000
270.461;  -37.250; -277.000; -249.000
270.602;  -19.925; -186.000; -156.000
270.742; -105.275; -868.000; -943.000
270.883;  -54.050; -442.000; -390.000
271.023;  -56.450; -358.000; -357.000
271.164;  -69.450; -607.000; -528.000
271.305;  -83.025; -666.000; -654.000
271.445;  -85.975; -722.000; -683.000
271.586;  -58.025; -462.000; -283.000
271.726;  -50.600; -397.000; -322.000
271.867;  -40.600; -594.000; -534.000
272.008;  198.100; -473.000; -285.000
272.148;  145.550;  462.000;  468.000
272.289;   24.800; -113.000; -181.000
272.429;   24.425;   19.000;  185.000
272.570;  -83.525; -633.000; -737.000
272.710;  -85.250; -825.000; -775.000
272.851;  -13.750;  113.000; -130.000
272.991; -150.475;-1173.000;-1077.000
273.131;  -68.275; -419.000; -459.000
273.272;  -90.525; -683.000; -723.000
273.412;   24.600; -143.000;  -31.000
273.553;  -47.500; -488.000; -507.000
273.693;  128.250;  913.000;  858.000
273.834;  -64.275; -894.000; -692.000
273.974;  -69.950; -664.000; -615.000
274.114;  -90.800; -772.000; -560.000
274.255;   82.925;  414.000;  373.000
274.395;   20.800; -180.000; -125.000
274.535;   49.975;  199.000;  350.000
274.676;   31.900;  225.000;   94.000
274.816;    4.925;  110.000;   34.000
274.956;  -68.900; -624.000; -690.000
275.097;  -65.275;-1014.000; -922.000
275.237; -106.275; -913.000; -803.000
275.377; -100.600; -778.000; -689.000
275.517; -134.300; -878.000; -937.000
275.658;  -53.875; -590.000; -555.000
275.798;  -56.225; -606.000; -413.000
275.938;   11.925;  215.000;  323.000
276.078; -103.375; -626.000; -395.000
276.218;   -7.875;   99.000;  104.000
276.359; -114.100;-1026.000;-1024.000
276.499;  -65.525; -605.000; -446.000
276.639;  -21.050; -305.000; -151.000
276.779;  -47.925; -475.000; -357.000
276.919; -104.000; -783.000; -624.000
277.059;  -18.800; -261.000; -212.000
277.199;  -34.125; -357.000; -259.000
277.340;   43.400;  287.000;  175.000
277.480;  -99.175; -840.000; -693.000
277.620;   36.475;  192.000;   16.000
277.760; -185.750;-1533.000;-1294.000
277.900;    6.275;  113.000;   33.000
278.040;   25.250;  137.000;  159.000
278.180;   39.375;  270.000;  170.000
278.320;  -14.225;   21.000;   56.000
278.460;  -70.450; -443.000; -469.000
278.600;  -73.650; -708.000; -598.000
278.740;   38.000;  448.000;  224.000
278.880;  -35.500; -768.000; -791.000
279.020;    5.675; -194.000; -144.000
279.160;  -80.225; -672.000; -595.000
279.300; -113.600; -926.000; -873.000
279.440;  -84.400; -709.000; -622.000
279.579;   -7.600;-1014.000; -929.000
279.719;  -47.350; -410.000; -394.000
279.859;   78.775;   -4.000;   41.000
279.999;   42.000; -208.000;  101.000
280.139;  -25.000; -435.000; -387.000
280.279;  -57.375; -708.000; -745.000
280.419;  -32.850; -229.000; -147.000
280.559;  -20.000; -259.000; -180.000
280.698;  -67.250; -790.000; -639.000
280.838;  -89.875; -778.000; -800.000
280.978;  -93.700; -846.000; -790.000
281.118; -112.850; -811.000; -704.000
281.257;    6.825;   24.000;    6.000
281.397; -101.175;-1094.000; -960.000
281.537;  -79.900; -599.000; -712.000
281.677;  -17.600; -150.000; -101.000
281.816;  -94.675; -700.000; -630.000
281.956;  -17.925; -193.000; -257.000
282.096;  -60.275; -539.000; -396.000
282.235; -109.800; -672.000; -638.000
282.375;  -23.250; -243.000;  -98.000
282.515;  -98.700; -715.000; -707.000
282.654;   32.375;   29.000;  106.000
282.794;   31.325;  388.000;  244.000
282.934;  -56.825; -530.000; -491.000
283.073; -127.575;-1030.000; -857.000
283.213;  -53.150; -460.000; -467.000
283.353;  -45.075; -408.000; -349.000
283.492;  -39.550; -264.000; -296.000
283.632;  -30.475; -254.000; -168.000
283.771;  -90.025; -859.000; -730.000
283.911;  -50.450; -369.000; -260.000
284.050; -108.500; -794.000; -748.000
284.190; -137.675;-1229.000;-1096.000
284.329; -129.100;-1055.000; -964.000
284.469;  -47.800; -516.000; -591.000
284.608;  -54.150; -559.000; -598.000
284.748;  -80.900; -614.000; -570.000
284.887;   -6.250;  -87.000;  -20.000
285.027; -110.350; -844.000; -892.000
285.166;  -29.975; -192.000; -249.000
285.306;   21.750; -116.000;  -33.000
285.445;  -36.325; -229.000; -343.000
285.584;  -90.250; -630.000; -494.000
285.724;  -35.575; -282.000; -322.000
285.863;  -99.400; -857.000; -507.000
286.002;  -55.425; -366.000; -276.000
286.142; -110.175; -715.000; -622.000
286.281;  -63.875; -525.000; -493.000
286.420;  -64.325; -554.000; -417.000
286.560;   93.625;  653.000;  623.000
286.699; -133.550; -958.000; -912.000
286.838;  -85.800; -590.000; -591.000
286.978;  -72.925; -533.000; -537.000
287.117; -124.775;-1085.000; -950.000
287.256;  -24.025; -228.000; -211.000
287.395;  -44.300; -197.000; -378.000
287.535;  -38.375; -370.000; -298.000
287.674;  -76.725; -509.000; -484.000
287.813;   63.475;  661.000;  533.000
287.952; -120.700;-1010.000; -871.000
288.091; -144.125;-1049.000; -915.000
288.231;    2.825;   13.000;   15.000
288.370; -159.075;-1217.000;-1200.000
288.509;  -96.725; -728.000; -645.000
288.648;  -76.650; -770.000; -548.000
288.787;  -37.625; -243.000;  -87.000
288.926;  -60.750; -454.000; -475.000
289.065;  116.125;  859.000;  672.000
289.204;  -46.225; -377.000; -217.000
289.344;  -83.025; -791.000; -690.000
289.483;   29.175;  416.000;  304.000
289.622;  -16.450; -291.000; -149.000
289.761;   -7.200; -309.000; -166.000
289.900; -101.425; -785.000; -626.000
290.039;  -12.575;  -12.000;  -95.000
290.178;  -38.325; -274.000; -180.000
290.317;  -77.000; -618.000; -479.000
290.456;  -88.425; -463.000; -451.000
290.595; -115.225; -961.000; -833.000
290.734; -133.050; -904.000; -891.000
290.873;  -68.250; -456.000; -420.000
291.011; -105.825; -833.000; -843.000
291.150;  -91.525; -770.000; -682.000
291.289;  -28.650; -343.000; -110.000
291.428;  -87.050; -599.000; -480.000
291.567;  -46.800; -370.000; -442.000
291.706;    6.750;  109.000;  154.000
291.845;  -83.950; -597.000; -505.000
291.984; -166.750;-1234.000;-1061.000
292.122;   58.175;  602.000;  582.000
292.261;   46.325;  620.000;  463.000
292.400;   -2.075; -144.000;  211.000
292.539; -111.025; -959.000; -813.000
292.678;  -32.925; -325.000; -300.000
292.816; -140.250;-1136.000; -965.000
292.955;  -73.600; -844.000; -684.000
293.094;  -18.400; -173.000; -337.000
293.233;  -54.025; -556.000; -400.000
293.371;  -31.150; -225.000;  -84.000
293.510; -112.400; -866.000; -780.000
293.649; -120.475; -959.000; -924.000
293.787;  -39.750;-1083.000;-1012.000
293.926;   12.650; -113.000;  -32.000
294.065;  -31.500; -379.000; -290.000
294.203;   63.950;  298.000;  406.000
294.342;   21.600;   74.000;  156.000
294.481; 5342.100;51180.000; -836.000
294.619;  -20.475; -425.000; -582.000
294.758; -129.375;-1230.000;-1137.000
294.896;   81.200; -125.000;    5.000
295.035; -113.725;-1040.000;-1006.000
295.174; -106.025;-1082.000; -954.000
295.312;  -24.800; -323.000; -203.000
295.451;    2.325; -307.000; -428.000
295.589;  -43.725; -389.000; -518.000
295.728;   15.000; -292.000; -165.000
295.866;    9.900;  -36.000;  -51.000
296.005;  -60.625; -584.000; -341.000
296.143;  -59.750; -558.000; -596.000
296.282;  -98.925; -957.000; -881.000
296.420;  -71.525; -657.000; -557.000
296.559;  -84.900; -892.000; -633.000
296.697;   31.975; -847.000; -665.000
296.835;   90.950;-1141.000;-1002.000
296.974;   57.075;  -23.000;   39.000
297.112;   23.925; -443.000; -504.000
297.251;  -64.525; -815.000; -755.000
297.389;  117.700; -576.000; -438.000
297.527;   58.775; -145.000;  -83.000
297.666;  -45.525; -486.000; -438.000
297.804;  -48.950; -404.000; -264.000
297.942;  -15.300; -136.000; -161.000
298.081;    6.025; -183.000;   63.000
298.219;   70.900;  -17.000;  -19.000
298.357;   76.675; -144.000;  -71.000
298.495;   38.400; -810.000; -812.000
298.634;   92.575;  245.000;  219.000
298.772;   67.450; -220.000; -338.000
298.910;  -35.050; -309.000; -182.000
299.048;   -1.650; -130.000; -153.000
299.187;  -24.675; -350.000; -250.000
299.325;   25.875;   52.000;  122.000
299.463;   70.875; -389.000; -299.000
299.601;  131.450; -327.000; -271.000
299.739;  -96.225; -908.000; -883.000
299.877;  -73.775; -791.000; -703.000
300.016;  -18.800;-1095.000; -935.000
300.154;  191.400;  -19.000; -161.000
300.292;   67.200; -428.000; -348.000
300.430;   39.375; -408.000; -291.000
300.568;  -89.225; -940.000; -874.000
300.706;  -39.150; -366.000; -469.000
300.844;  -55.775;-1108.000; -979.000
300.982;  122.275;  246.000;  282.000
301.120; -103.575; -965.000; -866.000
301.258;  -63.700; -812.000; -705.000
301.396;   39.200;  104.000;  -41.000
301.534;   89.275; -218.000; -293.000
301.672;   11.850; -664.000; -521.000
301.810;   49.475; -613.000; -545.000
301.948;  143.625;   53.000;  149.000
302.086;  711.375; -250.000;  -32.000
302.224; 1082.700; -610.000; -585.000
302.362;   54.775; -558.000; -622.000
302.500;   -5.200; -923.000; -893.000
302.638;  116.175;  128.000;  245.000
302.776;   10.525; -352.000; -408.000
302.913;   52.100;  447.000;  236.000
303.051;   16.175;  -86.000;  -23.000
303.189;   54.725;   90.000;  118.000
303.327;  -24.950; -341.000; -256.000
303.465;  -71.225; -832.000; -588.000
303.603;  -79.800; -805.000; -604.000
303.740;  103.350;  417.000;  241.000
303.878;   42.825; -800.000; -759.000
304.016;  -90.350; -915.000; -790.000
304.154; -109.950;-1123.000;-1152.000
304.291;  -33.225; -505.000; -554.000
304.429;   21.250;  102.000;   74.000
304.567; -114.450; -908.000; -893.000
304.705;  -46.875; -408.000; -515.000
304.842;  128.275; -616.000; -540.000
304.980;   68.525;  215.000;   35.000
305.118;   65.875; -367.000; -365.000
305.255;  -57.850; -945.000; -927.000
305.393;   72.150;  178.000;  239.000
305.531;  -87.900;-1173.000; -956.000
305.668;  -52.625; -663.000; -582.000
305.806;  132.425; -358.000; -439.000
305.943;  120.350; -629.000; -637.000
306.081;   70.475; -378.000; -267.000
306.219;  -95.700; -863.000; -748.000
306.356;    8.275;  158.000;   27.000
306.494;  105.150;  981.000;  761.000
306.631;   -2.950;  -11.000;  -55.000
306.769;   12.900; -613.000; -485.000
306.906;  -11.775; -284.000; -258.000
307.044;  -58.250; -473.000; -488.000
307.181;  -61.125; -410.000; -332.000
307.319;    3.050;  112.000;   87.000
307.456; -168.925;-1191.000;-1153.000
307.594;  -83.200; -980.000; -727.000
307.731;   -8.175; -371.000; -164.000
307.868;   10.325;  -15.000;   20.000
308.006; -115.050; -961.000; -847.000
308.143;  -57.300; -618.000; -330.000
308.281;  205.350;  -37.000; -254.000
308.418;    6.675; -748.000; -640.000
308.555;  -69.350; -400.000; -250.000
308.693;  -75.925; -577.000; -573.000
308.830;  -95.400; -712.000; -657.000
308.967;  -10.300; -215.000;  -95.000
309.105;  -43.375; -507.000; -396.000
309.242;   53.675; -468.000; -367.000
309.379;  390.900; -577.000; -655.000
309.517;  -46.475; -936.000; -948.000
309.654;  -93.025; -910.000; -734.000
309.791;  -69.025; -662.000; -580.000
309.928; -107.150; -977.000; -914.000
310.065;  194.500;  819.000;  697.000
310.203;    3.050; -825.000; -850.000
310.340;   12.225; -465.000; -321.000
310.477;  -78.600; -412.000; -516.000
310.614;  -61.275; -383.000; -473.000
310.751;  -69.550; -427.000; -518.000
310.889;  -38.900;    1.000;   11.000
311.026; -156.075;-1161.000; -939.000
311.163;  -40.075; -386.000; -380.000
311.300;  -52.900; -512.000; -479.000
311.437;  -68.625; -658.000; -619.000
311.574; -150.675;-1226.000; -985.000
311.711;  -53.075; -595.000; -433.000
311.848;  -31.000; -380.000; -388.000
311.985;    6.300;  270.000;   93.000
312.122; -108.825; -932.000; -762.000
312.259; -115.125; -941.000; -994.000
312.396;  -68.075; -508.000; -551.000
312.533;  -86.350; -812.000; -790.000
312.670; -120.425;-1070.000; -898.000
312.807;  -35.825; -352.000; -367.000
312.944;  -76.250; -513.000; -611.000
313.081;  -19.275; -150.000; -415.000
313.218;  -89.050;-1111.000; -867.000
313.355;   17.425; -531.000; -449.000
313.492;    7.225; -455.000; -292.000
313.629;  126.375;  815.000;  735.000
313.766; -148.650;-1176.000;-1008.000
313.902;  -24.000; -186.000;   21.000
314.039;  -41.575; -372.000; -289.000
314.176;   31.125;  286.000;  192.000
314.313;  -59.625; -569.000; -473.000
314.450;  -65.550; -788.000; -684.000
314.587;  -50.875; -468.000; -480.000
314.723;    3.025;  -78.000;  130.000
314.860;   39.500;  318.000;  332.000
314.997;   28.075;  223.000;  142.000
315.134;  -33.275; -385.000; -368.000
315.270;  -22.425; -480.000; -496.000
315.407; -123.250;-1094.000; -967.000
315.544;  -42.375; -657.000; -538.000
315.681;  -51.625; -681.000; -565.000
315.817;   35.050; -133.000; -176.000
315.954;   33.325; -613.000; -392.000
316.091; -123.300;-1045.000;-1023.000
316.227;  -13.950;  -71.000; -179.000
316.364;    2.825;   23.000;    6.000
316.500;  -30.925; -113.000; -300.000
316.637;  -42.325; -181.000; -302.000
316.774;  -83.300; -625.000; -358.000
316.910; -101.525; -598.000; -629.000
317.047;  -60.275; -487.000; -351.000
317.183;  -52.425; -435.000; -566.000
317.320;  -11.850; -367.000; -321.000
317.456;  -59.975; -733.000; -805.000
317.593;  -86.775; -598.000; -641.000
317.729;   -1.600;  168.000;  -67.000
317.866; -184.725;-1434.000;-1285.000
318.002;  -86.800; -708.000; -948.000
318.139;  -87.575; -883.000; -867.000
318.275;  -96.125;-1003.000; -738.000
318.412;  -43.450; -517.000; -336.000
318.548;  -26.400; -751.000; -720.000
318.685;  -75.775; -985.000; -888.000
318.821;  -92.600; -762.000; -735.000
318.957;  -12.725;   34.000;  -23.000
319.094;   36.475;  297.000;  154.000
319.230;  -45.275; -756.000; -742.000
319.367;  154.100; -471.000; -520.000
319.503;   73.500; -538.000; -436.000
319.639;  -91.125; -877.000; -793.000
319.775;  -47.150; -750.000; -685.000
319.912;  -48.500; -424.000; -519.000
320.048;  -73.675;-1184.000;-1184.000
320.184;   83.425;   59.000;   70.000
320.321;  -49.750; -497.000; -467.000
320.457;   55.550;  475.000;  662.000
320.593;  -70.975; -375.000; -382.000
320.729;  -94.300; -732.000; -734.000
320.866;  -63.425; -577.000; -635.000
321.002;  -73.775; -759.000; -809.000
321.138;    0.500; -135.000; -211.000
321.274;   86.800; -148.000; -115.000
321.410;  -17.525; -585.000; -353.000
321.546;  -15.875;-1011.000; -911.000
321.683;   68.125;  400.000;  185.000
321.819;    0.250;  -48.000; -117.000
321.955;  -95.000; -743.000; -722.000
322.091;  -41.700; -585.000; -540.000
322.227;  -14.100; -382.000; -202.000
322.363;   -4.925; -320.000; -215.000
322.499;  -36.550; -343.000; -331.000
322.635;  178.250;  636.000;  443.000
322.771;   34.425; -139.000;   12.000
322.907;   99.500;  129.000;  327.000
323.043;   -2.475; -115.000; -206.000
323.179;  -36.425; -394.000; -363.000
323.315;   32.475; -401.000; -371.000
323.451;  114.925; -328.000; -236.000
323.587;   72.825;  -60.000;  -77.000
323.723;   23.100; -682.000; -601.000
323.859;    3.650; -258.000;  -76.000
323.995;  -17.350; -467.000; -409.000
324.131; -107.375; -967.000; -892.000
324.267;  -34.475; -254.000; -276.000
324.402; -123.525; -960.000; -983.000
324.538;  -17.225; -279.000; -104.000
324.674;   17.500;  164.000;   77.000
324.810;  135.025;  226.000;  308.000
324.946;   37.750; -810.000; -658.000
325.082;  -67.675; -568.000; -475.000
325.217;   -8.975;  -62.000;   16.000
325.353; -102.075; -764.000; -659.000
325.489;  -68.975; -540.000; -506.000
325.625;  -74.350; -579.000; -525.000
325.760;   69.925;  517.000;  376.000
325.896;  -21.800; -515.000; -702.000
326.032;  -61.500; -403.000; -352.000
326.168;  -58.950; -462.000; -369.000
326.303;  -53.550; -352.000; -461.000
326.439;  -21.750; -336.000; -276.000
326.575;   -1.175; -190.000;  -29.000
326.710;   -1.675; -156.000;  -30.000
326.846;   -9.250;  146.000;  103.000
326.982;  -94.675; -530.000; -548.000
327.117;  -69.500; -481.000; -442.000
327.253;  -76.475; -745.000; -742.000
327.388; -102.500;-1137.000;-1153.000
327.524;  -32.200; -811.000; -578.000
327.659;  -13.600;  -58.000;  -22.000
327.795;  -13.550;   69.000;   45.000
327.931;  -79.500; -723.000; -499.000
328.066;  -23.825; -417.000; -276.000
328.202;  -16.375;   12.000; -129.000
328.337;   92.475;  957.000;  713.000
328.473;   34.875;  -12.000;  -74.000
328.608;   -9.475; -256.000; -267.000
328.743;  -69.325; -799.000; -664.000
328.879;   13.225;  214.000;  114.000
329.014;  -39.525; -102.000; -122.000
329.150;  -84.475; -358.000; -483.000
329.285;  -61.225; -465.000; -466.000
329.421;  -44.600; -548.000; -246.000
329.556;  -27.250;  -36.000;   85.000
329.691;  -98.525; -633.000; -615.000
329.827;  -82.575; -626.000; -480.000
329.962;  -38.300;  131.000; -301.000
330.097;  -86.100; -673.000; -585.000
330.233;  -50.925; -410.000; -223.000
330.368; -126.150; -839.000; -628.000
330.503;  -15.350;    3.000;   98.000
330.638;    9.650;  -93.000; -125.000
330.774;  -60.650; -609.000; -530.000
330.909;  -42.925; -434.000; -244.000
331.044; -100.475; -714.000; -708.000
331.179; -148.000;-1217.000;-1109.000
331.315;    1.475;   77.000;   20.000
331.450;   13.775;  157.000;  285.000
331.585;  -86.450; -805.000; -706.000
331.720;  -82.375; -510.000; -460.000
331.855;   -8.250;  -35.000; -102.000
331.990;  254.775;   62.000;  138.000
332.126;  125.150; -110.000;   71.000
332.261;   -4.875; -379.000; -265.000
332.396;   -4.975; -135.000; -242.000
332.531;  -82.750;-1074.000;-1031.000
332.666;   39.650; -519.000; -363.000
332.801;  -99.150; -726.000; -807.000
332.936;  -26.850; -192.000; -122.000
333.071; -147.850; -870.000; -817.000
333.206;   11.700;  307.000;  379.000
333.341;   36.075;  344.000;  418.000
333.476;  -96.600; -627.000; -623.000
333.611;  -29.700; -251.000; -173.000
333.746;  -48.250; -381.000; -464.000
333.881; -116.150; -973.000; -935.000
334.016; -128.975; -936.000; -917.000
334.151; -116.875; -746.000; -702.000
334.286;   27.550;  152.000;  186.000
334.421;   -8.075; -125.000; -178.000
334.556;  -90.500; -611.000; -567.000
334.690;  -77.225; -631.000; -577.000
334.825;   47.725;  381.000;   83.000
334.960;  -50.850; -285.000; -413.000
335.095;   -0.825;  135.000;  -91.000
335.230;  -94.700; -722.000; -738.000
335.365; -129.100;-1084.000; -990.000
335.499; -120.875;-1108.000;-1037.000
335.634;   31.425;    9.000;  534.000
335.769;  -83.700; -755.000; -720.000
335.904;  -68.300; -603.000; -561.000
336.038;  -42.925; -735.000; -657.000
336.173; -106.050;-1206.000;-1194.000
336.308;   11.150; -116.000; -189.000
336.443;   26.100; -544.000; -634.000
336.577;  -56.425; -936.000; -787.000
336.712;   76.325;   -4.000;  -12.000
336.847;  -16.525; -724.000; -607.000
336.981;   73.975; -272.000; -208.000
337.116;  304.800;  615.000;  501.000
337.250;  166.750; -434.000; -421.000
337.385;  244.325; -297.000; -208.000
337.520;   85.925; -632.000; -603.000
337.654;  -50.100; -215.000; -126.000
337.789; -109.650; -989.000; -933.000
337.923;  -18.375; -104.000; -205.000
338.058;  -81.200; -673.000; -738.000
338.192;  -27.100; -611.000; -488.000
338.327;   -7.600;  -18.000; -155.000
338.461;  -55.675; -299.000; -469.000
338.596;  -79.425; -780.000; -638.000
338.730;  -86.275; -767.000; -803.000
338.865;   83.525;  -46.000; -140.000
338.999;  -32.475; -846.000; -702.000
339.134;  -24.400; -634.000; -536.000
339.268;   29.325; -741.000; -603.000
339.403;  369.725; -740.000; -775.000
339.537;  121.300; -894.000; -820.000
339.671; -111.725; -829.000; -813.000
339.806;  -48.800; -556.000; -512.000
339.940;   15.800; -261.000; -235.000
340.074;  -85.000; -685.000; -510.000
340.209;  -41.525; -351.000; -230.000
340.343;  -69.625; -517.000; -573.000
340.477;  144.375;  998.000; 1036.000
340.612;  -43.325;-1033.000; -900.000
340.746;  145.525; -199.000; -243.000
340.880;  -55.175; -924.000; -785.000
341.014;  -22.900;  -45.000; -154.000
341.149; -106.825; -756.000; -718.000
341.283; -105.125; -839.000; -754.000
341.417;  -64.100;-1124.000; -938.000
341.551;  153.825; -768.000; -708.000
341.685;  -22.000; -633.000; -611.000
341.820;  -64.600; -562.000; -493.000
341.954;  -41.625; -218.000; -349.000
342.088; -153.025;-1102.000;-1019.000
342.222;   55.025;  565.000;  618.000
342.356;  -54.500; -395.000; -335.000
342.490;  -77.075; -880.000; -841.000
342.624;  -36.550; -339.000; -242.000
342.758;   14.200; -364.000; -312.000
342.892;  -60.000; -710.000; -585.000
343.026;  -30.750;  -58.000; -116.000
343.160;  -59.375; -426.000; -376.000
343.294;  -71.600; -474.000; -337.000
343.428;   -8.425; -488.000; -448.000
343.562;   -0.925; -172.000;  -23.000
343.696;  -10.150; -385.000; -314.000
343.830;  -12.525; -362.000; -356.000
343.964;   16.475; -231.000; -168.000
344.098; 1010.375;  199.000;   70.000
344.232;  853.350; -266.000; -127.000
344.366;  102.375; -567.000; -453.000
344.500;   70.300; -665.000; -744.000
344.634;   52.950; -324.000; -164.000
344.768;    1.450; -531.000; -341.000
344.902;   35.725;  278.000;  256.000
345.035;  -77.375; -556.000; -496.000
345.169; -116.200; -933.000; -656.000
345.303;  -25.275; -308.000; -482.000
345.437;  -51.075; -826.000; -717.000
345.571;  -67.675; -675.000; -594.000
345.704;  -51.575; -309.000; -532.000
345.838;    0.775; -331.000; -284.000
345.972;  -22.175; -543.000; -495.000
346.106;  160.975; -179.000; -190.000
346.239;  448.425; -312.000; -243.000
346.373;   18.025; -343.000; -302.000
346.507; -124.375; -950.000; -962.000
346.640;  173.100;  -30.000;   13.000
346.774;  -25.825; -650.000; -797.000
346.908;  -17.150; -138.000;  -11.000
347.041;  -93.200; -646.000; -593.000
347.175;   -7.775;  259.000;   27.000
347.309;  -65.875; -698.000; -628.000
347.442;  -91.175; -883.000; -732.000
347.576;  303.225;  670.000;  668.000
347.709;  211.375; -123.000;  -52.000
347.843;  -82.050; -933.000; -825.000
347.976;   39.625;  235.000;  294.000
348.110; -165.725;-1268.000;-1186.000
348.243; -107.650; -679.000; -772.000
348.377;    6.475;  -26.000;   60.000
348.510;   53.325;  403.000;  540.000
348.644;  -18.075;  -37.000; -159.000
348.777;    4.600;  180.000;  191.000
348.911;  -41.675; -142.000; -112.000
349.044;  179.350;  471.000;  448.000
349.178;  219.225;-1069.000;-1006.000
349.311;  111.800;  141.000;  255.000
349.444;    3.925; -927.000; -813.000
349.578;   -2.325; -347.000; -200.000
349.711;  -90.775; -959.000; -862.000
349.845;   10.775; -661.000; -591.000
349.978; -133.125;-1224.000;-1137.000
350.111;  -77.850; -546.000; -612.000
350.244;  -53.600; -596.000; -700.000
350.378;   14.875; -392.000; -393.000
350.511;  -61.925; -393.000; -426.000
350.644;  -98.500; -808.000; -806.000
350.778;   15.950;  168.000;  104.000
350.911;   -1.050;  134.000;  140.000
351.044;  -79.375; -685.000; -615.000
351.177;  -17.100; -321.000; -281.000
351.310;  -15.125;    3.000; -131.000
351.444;  -64.050; -888.000; -788.000
351.577;  136.750;  140.000;   90.000
351.710;   93.325;  593.000;  417.000
351.843;  -26.375; -165.000;  -77.000
351.976;   -6.125;  149.000;  -79.000
352.109;  -72.050; -621.000; -612.000
352.242;  -15.725; -464.000; -419.000
352.376;  -45.450; -580.000; -636.000
352.509;  203.250; -437.000; -356.000
352.642;   31.100; -654.000; -604.000
352.775;   64.000; -141.000;  -98.000
352.908; -106.675; -933.000; -904.000
353.041; -103.475; -814.000; -824.000
353.174;  -48.450; -551.000; -424.000
353.307;  -65.700; -753.000; -764.000
353.440;   79.650;  541.000;  453.000
353.573; -104.050; -957.000;-1008.000
353.706;  -43.350; -384.000; -558.000
353.839;  -13.875; -264.000; -220.000
353.971;  -81.700; -657.000; -512.000
354.104;  -78.300; -896.000; -835.000
354.237;   -5.000; -627.000; -662.000
354.370;  -85.725; -846.000; -879.000
354.503; -173.625;-1231.000;-1308.000
354.636;  -38.150; -529.000; -348.000
354.769; -101.950; -937.000; -860.000
354.902;  -12.575; -230.000; -139.000
355.034;  -18.800; -164.000; -220.000
355.167;  -17.550; -262.000; -162.000
355.300;  -84.250;-1061.000; -880.000
355.433;  968.000;  -71.000;  -14.000
355.565; 1515.450; -402.000; -384.000
355.698;  387.800; -356.000; -296.000
355.831;   24.100; -882.000; -801.000
355.964;   99.175; -285.000; -170.000
356.096;  -75.175; -856.000; -843.000
356.229;   24.375; -523.000; -530.000
356.362;  323.250; -373.000; -266.000
356.494;  601.200; -229.000; -162.000
356.627;  536.275;  269.000;  377.000
356.760;  661.575;  120.000;   53.000
356.892;  969.625; -286.000; -601.000
357.025;  726.000;  403.000;  389.000
357.157;  677.550; -167.000; -179.000
357.290;  642.525; -856.000; -713.000
357.423;  202.500; -667.000; -556.000
357.555;  132.450; -217.000; -228.000
357.688;  161.350; -483.000; -364.000
357.820;  498.200; -870.000; -877.000
357.953; 4058.725; -563.000; -589.000
358.085;  947.950; -632.000; -612.000
358.218; 1310.950;-1131.000; -932.000
358.350;  260.950;  -58.000;  312.000
358.483;  -99.975;-1300.000;-1187.000
358.615;    6.500;-1182.000;-1078.000
358.747;  -23.825;-1187.000;-1058.000
358.880;   53.575; -810.000; -744.000
359.012;   15.850; -376.000; -202.000
359.145;  -37.325; -480.000; -511.000
359.277;  100.950; -962.000; -913.000
359.409; 3301.725;  536.000;  231.000
359.542;  894.975; -738.000; -688.000
359.674;   82.425;   46.000;   13.000
359.806;  -53.350; -565.000; -438.000
359.939;  -26.525; -617.000; -516.000
360.071;   -8.200; -583.000; -579.000
360.203;  -19.450; -411.000; -364.000
360.335;   59.425;  164.000;  -16.000
360.468;  226.500; -249.000; -307.000
360.600; 2643.400; -547.000; -454.000
360.732; 2844.450; -546.000; -423.000
360.864;  396.150;-1216.000;-1044.000
360.996;  332.400; -516.000; -554.000
361.129;   62.475; -389.000; -598.000
361.261;   15.075;  110.000; -113.000
361.393;  -21.800; -252.000; -214.000
361.525;   32.100;   94.000;  244.000
361.657;  -25.500; -821.000; -703.000
361.789;   12.050; -139.000; -155.000
361.921;  277.575; -642.000; -593.000
362.053;  280.450;  524.000;  541.000
362.185;   63.950;  288.000;   72.000
362.318;  -61.225; -709.000; -705.000
362.450;  138.675;  294.000;  444.000
362.582;  135.375; -913.000; -870.000
362.714;  -23.950; -353.000; -332.000
362.846;  -85.150; -606.000; -490.000
362.978; -134.900; -941.000; -811.000
363.109;   68.100; -161.000; -260.000
363.241;  514.325; -739.000; -749.000
363.373;  425.900; -649.000; -564.000
363.505;  660.675; -186.000;  -91.000
363.637;  164.775; -787.000; -601.000
363.769; -107.025;-1067.000;-1080.000
363.901;  -63.500; -596.000; -654.000
364.033; -100.750;-1103.000;-1062.000
364.165;   -4.475; -283.000; -283.000
364.296;   90.425; -316.000; -177.000
364.428;   61.875;-1344.000;-1220.000
364.560;  -56.750; -679.000; -661.000
364.692;  -60.250; -738.000; -835.000
364.824;  335.300; -588.000; -456.000
364.955;  463.950; -402.000; -564.000
365.087;  921.125;-1097.000; -852.000
365.219;   36.000; -686.000; -816.000
365.351;  -61.800; -526.000; -572.000
365.482;   53.625;  300.000;  240.000
365.614;  -41.550; -402.000; -314.000
365.746;  -91.875; -729.000; -752.000
365.877;  -81.100; -706.000; -672.000
366.009;  252.450;  -35.000;  -62.000
366.141;  -74.900;-1249.000;-1134.000
366.272; -104.500; -803.000; -719.000
366.404; -103.050;-1005.000; -874.000
366.535;   -1.950; -139.000;  -12.000
366.667;  -90.050; -644.000; -649.000
366.799;   44.675;  353.000;  203.000
366.930;  -99.700; -862.000; -996.000
367.062;  100.100; -639.000; -613.000
367.193;  167.450; -872.000; -842.000
367.325;  -51.675; -580.000; -684.000
367.456;   66.000; -246.000;   31.000
367.588;  153.525; -371.000; -318.000
367.719;   34.200;  -44.000;  -45.000
367.851;   -7.750; -222.000; -241.000
367.982;  -39.450; -875.000; -732.000
368.113;  137.350; -475.000; -358.000
368.245; -108.475; -960.000; -841.000
368.376;  -14.500; -254.000; -302.000
368.508;  -34.125; -188.000; -263.000
368.639; -128.975;-1166.000;-1034.000
368.770;   -2.050; -670.000; -589.000
368.902;  -41.300; -836.000; -926.000
369.033; -101.650; -906.000; -855.000
369.164;  -48.000; -720.000; -653.000
369.296; -122.275; -452.000; -601.000
369.427;    3.450; -209.000; -144.000
369.558;  -45.025; -593.000; -377.000
369.689;  -87.925; -721.000; -569.000
369.821; -122.675; -951.000; -845.000
369.952;  -13.900;   42.000; -108.000
370.083;  -42.900; -229.000; -108.000
370.214;  -81.775; -735.000; -650.000
370.345;    9.475;   65.000;   81.000
370.477;  -85.675; -810.000; -790.000
370.608;  258.450; -328.000; -264.000
370.739;  -42.100;-1233.000;-1292.000
370.870;  -20.700;-1102.000; -923.000
371.001;  122.000; -378.000; -467.000
371.132;  -71.450; -754.000; -735.000
371.263;  -22.950;  -42.000; -148.000
371.394; -133.950; -841.000; -748.000
371.525;   30.100;  345.000;  225.000
371.657;  -87.475; -808.000; -670.000
371.788;   89.325;  103.000;  199.000
371.919;  209.450; -384.000; -304.000
372.050; 3992.950;  -91.000; -156.000
372.181; 1256.550; -188.000; -294.000
372.311;  425.550;   42.000; -127.000
372.442;   59.300; -457.000; -451.000
372.573;   -7.650; -444.000; -340.000
372.704; -105.800;-1008.000; -980.000
372.835;  101.925; -228.000; -289.000
372.966;  -46.900; -646.000; -554.000
373.097;  -53.000; -575.000; -711.000
373.228;  -32.500; -717.000; -542.000
373.359;  154.725; -824.000; -536.000
373.490; 1043.050; -881.000; -727.000
373.620; 1344.325;-1001.000; -803.000
373.751; 1970.600; -332.000; -396.000
373.882;  923.050; -663.000; -733.000
374.013;   90.925; -449.000; -262.000
374.143;  -13.750; -581.000; -659.000
374.274;  -86.275; -987.000; -908.000
374.405;  194.200; -388.000; -276.000
374.536;  510.450; -526.000; -387.000
374.666; 1265.625; -759.000; -807.000
374.797;  264.275; -817.000; -868.000
374.928;  957.675; -710.000; -560.000
375.058; 1021.750; -535.000; -500.000
375.189;   79.350;  -59.000;  -93.000
375.320;  -88.025; -928.000;-1034.000
375.450;  -29.400; -625.000; -616.000
375.581;  -40.275; -526.000; -436.000
375.712;  -29.675; -574.000; -250.000
375.842;  351.375; -438.000; -415.000
375.973;  260.450; -554.000; -513.000
376.103;   -8.400; -665.000; -648.000
376.234;  -83.325; -531.000; -552.000
376.364;  -10.475; -944.000; -867.000
376.495;  354.425;  925.000;  529.000
376.625;   23.500; -472.000; -485.000
376.756;   76.200; -709.000; -678.000
376.886;  -57.075;-1178.000;-1026.000
377.017;   37.650;-1048.000;-1061.000
377.147;  352.100; -786.000; -782.000
377.278;   62.025;  174.000;  228.000
377.408; -112.875; -801.000; -815.000
377.538;  -95.150; -707.000; -693.000
377.669;  -63.600; -537.000; -613.000
377.799;  -83.325; -645.000; -635.000
377.929;  -55.350; -610.000; -428.000
378.060; -126.375; -781.000; -847.000
378.190;  -49.475; -726.000; -531.000
378.320;  -54.550; -401.000; -406.000
378.451;   -9.850; -131.000;  -22.000
378.581;    6.300;  -67.000; -110.000
378.711;  171.550; 1035.000;  866.000
378.841;   -8.175; -533.000; -675.000
378.972;  -46.650; -871.000; -751.000
379.102;   20.150; -652.000; -579.000
379.232;   -3.850; -126.000;  -73.000
379.362;  -90.025;-1001.000; -885.000
379.492;   28.650; -373.000; -424.000
379.623;  117.625;    0.000;  111.000
379.753;  -82.525;-1107.000; -974.000
379.883;  229.250;   59.000;  156.000
380.013;   43.075;-1081.000;-1017.000
380.143;  -84.000;-1097.000;-1056.000
380.273;  -90.650; -985.000; -861.000
380.403;    1.600; -344.000; -257.000
380.533;   -4.300; -651.000; -664.000
380.663;   78.800;  173.000;  128.000
380.793;  -73.575;-1027.000;-1074.000
380.923;   -8.975; -103.000;  -34.000
381.053;  -91.275; -613.000; -623.000
381.183;  -33.700; -106.000; -248.000
381.313;   60.400; -656.000; -470.000
381.443;   76.225; -692.000; -473.000
381.573;  221.625; -402.000; -409.000
381.703;  353.725;-1249.000;-1095.000
381.833; -105.425;-1454.000;-1336.000
381.963;  134.600; -134.000;  -87.000
382.093; 1564.000; -925.000; -909.000
382.223;  508.375; -713.000; -602.000
382.353;   -1.325; -801.000; -608.000
382.482;  437.875;-1091.000; -964.000
382.612;  892.175; -872.000; -644.000
382.742;  506.900; -695.000; -622.000
382.872;  330.175; -565.000; -551.000
383.002;   88.225;  347.000; -132.000
383.131;   -8.775; -226.000; -160.000
383.261;  -26.975; -706.000; -768.000
383.391;  322.125; -552.000; -377.000
383.521; 3132.450;  451.000;  263.000
383.650;  783.900; -947.000; -904.000
383.780;  -12.625; -783.000; -656.000
383.910;  127.750;  880.000;  802.000
384.039;   52.425; -794.000; -656.000
384.169;  264.050;-1205.000;-1017.000
384.299;   -3.500; -650.000; -662.000
384.428;  -74.950; -764.000; -680.000
384.558;  -38.475; -308.000; -275.000
384.687;  -35.425; -414.000; -334.000
384.817;    4.825;   75.000;   -2.000
384.947;   27.800; -234.000; -141.000
385.076;  321.850;  982.000;  912.000
385.206;  113.500;  369.000;  480.000
385.335;  -30.225; -549.000; -417.000
385.465;  -63.325; -655.000; -663.000
385.594;  141.925;  -53.000;  -44.000
385.724;  502.075; -868.000; -838.000
385.853;  157.050; -296.000; -270.000
385.982; 1484.600; -743.000; -787.000
386.112; 2470.550;-1052.000; -871.000
386.241;  192.725; -307.000; -312.000
386.371;   28.525; -174.000;  -87.000
386.500;   29.350; -825.000; -789.000
386.629;   36.600; -874.000; -817.000
386.759;   65.125;  -43.000;   68.000
386.888;   -7.175; -170.000; -250.000
387.017;  -69.550; -648.000; -620.000
387.147;  -87.100; -771.000; -798.000
387.276;   11.250; -410.000; -397.000
387.405;   12.025; -398.000; -342.000
387.535;  -29.050; -452.000; -361.000
387.664;  -56.025; -692.000; -620.000
387.793;   68.200; -198.000; -113.000
387.922;  575.525;  255.000;  200.000
388.052;   47.750; -576.000; -423.000
388.181;   18.675; -342.000; -472.000
388.310;   24.950; -889.000; -710.000
388.439;  -31.275; -749.000; -742.000
388.568;  212.775;  365.000;  244.000
388.697; 1197.625; -756.000; -653.000
388.826;  266.150; -768.000; -666.000
388.956;   60.275; -285.000; -307.000
389.085;  -32.850; -347.000; -287.000
389.214; -114.975; -842.000; -872.000
389.343;  -52.475; -645.000; -413.000
389.472;  394.225;  126.000;  149.000
389.601;  552.975;   91.000;    0.000
389.730;   41.975; -568.000; -687.000
389.859;   74.525;  226.000;   46.000
389.988;  204.825; -423.000; -408.000
390.117;  181.950; -168.000; -146.000
390.246;   -3.075; -331.000; -320.000
390.375;  126.725; -673.000; -626.000
390.504;  -52.075; -703.000; -621.000
390.633;  -77.700; -672.000; -726.000
390.761;  -54.775; -732.000; -645.000
390.890;   34.150;   -4.000; -130.000
391.019;  -22.625; -421.000; -441.000
391.148; -110.050; -826.000; -855.000
391.277;  -63.075; -576.000; -493.000
391.406;  -72.075; -821.000; -805.000
391.534;   23.525;  574.000; -301.000
391.663;  -42.100; -583.000; -645.000
391.792;  -86.750; -673.000; -701.000
391.921;  116.050;   -3.000;   15.000
392.050;  193.425; -287.000; -228.000
392.178;  -16.775;-1206.000;-1061.000
392.307;  168.175; -758.000; -712.000
392.436;  113.175; -427.000; -641.000
392.564;   27.100;  166.000;   -6.000
392.693;  -79.925; -860.000; -682.000
392.822;  232.250; -529.000; -534.000
392.950;  125.250; -880.000; -714.000
393.079;  363.950; -188.000; -328.000
393.208;   41.425; -488.000; -511.000
393.336;    1.525; -170.000; -145.000
393.465;  -30.450; -317.000; -199.000
393.593;    7.150;   62.000;   79.000
393.722; -140.550;-1121.000; -916.000
393.850;  -30.475; -188.000;  -61.000
393.979; -143.450; -926.000; -805.000
394.107;  -66.675; -517.000; -537.000
394.236;   -4.725; -570.000; -507.000
394.364;  232.975;  383.000;  206.000
394.493;  447.250; -911.000; -767.000
394.621;   -5.225; -955.000; -916.000
394.750;  704.700; -873.000; -923.000
394.878; 2914.125; -247.000; -149.000
395.007; 4112.300; -721.000; -807.000
395.135;  326.525; -790.000; -721.000
395.263;  -77.525;-1038.000;-1040.000
395.392;   -5.875;  -25.000; -107.000
395.520; -122.675; -818.000; -679.000
395.648;  -84.225; -865.000; -915.000
395.777;    7.525; -366.000; -405.000
395.905;  -37.375; -449.000; -564.000
396.033;   28.250;  217.000;  172.000
396.162;  674.775; -399.000; -453.000
396.290;  648.075;  -17.000;   -2.000
396.418;  125.975; -555.000; -514.000
396.546;  -54.950; -571.000; -466.000
396.674;  -85.575; -850.000; -878.000
396.803;   25.625;  -72.000;  -23.000
396.931;  105.075; -179.000; -199.000
397.059;   93.375;-1026.000; -989.000
397.187;  -99.375;-1026.000; -975.000
397.315; -141.050; -884.000; -649.000
397.443;  -83.200; -592.000; -443.000
397.572;  -85.450; -578.000; -424.000
397.700;    4.525; -607.000; -614.000
397.828;   23.050;  120.000;  -90.000
397.956;  -41.975; -508.000; -478.000
398.084;  -52.725; -767.000; -626.000
398.212;   37.325;  137.000;  124.000
398.340;   19.825;  -56.000;  159.000
398.468;   49.000; -390.000; -169.000
398.596; -119.475; -993.000; -953.000
398.724; -127.050; -762.000; -767.000
398.852; -145.750;-1024.000; -976.000
398.980;  -49.750; -560.000; -560.000
399.108;  -35.875; -982.000; -735.000
399.236;   35.775;   13.000;    8.000
399.363;   15.450;  222.000;  196.000
399.491;  -74.650; -404.000; -398.000
399.619; -101.775; -829.000; -800.000
399.747;  -91.775; -859.000; -771.000
399.875;   81.875;  220.000;  234.000
400.003;  -34.950; -359.000; -284.000
400.130;  -93.900; -421.000; -341.000
400.258;  -35.175;  -83.000;   38.000
400.386;  -65.450; -352.000; -168.000
400.514;  -33.925; -526.000; -587.000
400.641;  -69.975; -928.000; -802.000
400.769; -135.125; -979.000; -888.000
400.897; -101.375; -838.000; -793.000
401.025;  -21.575; -166.000; -152.000
401.152;   -7.225;  220.000;   38.000
401.280;  -79.825; -430.000; -429.000
401.408; -105.225; -712.000; -576.000
401.535;  -92.875; -735.000; -758.000
401.663; -182.425;-1134.000;-1054.000
401.790;  -85.625; -514.000; -525.000
401.918;   36.250;  436.000;  405.000
402.046;  -23.625;  134.000;  122.000
402.173;  -38.975;  -18.000;    7.000
402.301;  -82.875; -519.000; -397.000
402.428;   29.875;  528.000;  383.000
402.556; -129.075;-1188.000; -913.000
402.683;  -20.550;  -20.000;   -1.000
402.811;  -21.125;  -37.000; -206.000
402.938;   -6.850;   20.000;   27.000
403.066;  224.850; -574.000; -558.000
403.193;  380.125;  299.000;  239.000
403.321;  275.875; -396.000; -574.000
403.448;  352.075;   83.000;   27.000
403.575;  173.325;  -90.000;  -46.000
403.703;  -86.325; -732.000; -557.000
403.830;  -59.450; -531.000; -496.000
403.957; -143.575;-1117.000;-1023.000
404.085;   14.300;  -61.000; -172.000
404.212;  103.075;  -50.000;   63.000
404.339;  273.700; -566.000; -306.000
404.467; 5668.425; -612.000; -524.000
404.594; 4020.150; -287.000; -227.000
404.721; 1023.400; -869.000; -764.000
404.848;   93.500; -113.000; -202.000
404.976;  -86.925; -856.000; -783.000
405.103;  -28.375;  -14.000;  -82.000
405.230;    6.425;  190.000;  226.000
405.357;   25.900;  117.000;   44.000
405.484;  271.550;  -49.000;    5.000
405.612;   66.950; -548.000; -563.000
405.739;  -48.200; -488.000; -243.000
405.866;   96.800;  669.000;  385.000
405.993;  -40.125; -398.000; -102.000
406.120; -132.925; -801.000; -887.000
406.247;  -50.550; -323.000; -342.000
406.374;  475.150;  540.000;  629.000
406.501;  159.475; -632.000; -702.000
406.628;  -56.375; -621.000; -589.000
406.755;  -83.825; -803.000; -620.000
406.882;  -24.175; -228.000; -277.000
407.009; -107.400; -719.000; -628.000
407.136;   72.625; -480.000; -401.000
407.263;  180.850; -939.000; -829.000
407.390;  -61.575; -692.000; -614.000
407.517; -169.875;-1139.000;-1187.000
407.644;  -51.075; -332.000; -256.000
407.771;  -52.000; -249.000; -287.000
407.898;   11.275;  168.000;  328.000
408.025;  -68.900; -421.000; -313.000
408.151;  -20.375;   82.000;  153.000
408.278;  -53.150; -267.000; -216.000
408.405; -118.475; -931.000; -899.000
408.532;  -67.525; -549.000; -542.000
408.659; -104.750; -677.000; -648.000
408.785; -191.850;-1298.000;-1170.000
408.912;  -61.725; -412.000; -296.000
409.039;  -97.825; -610.000; -686.000
409.166; -110.025; -591.000; -555.000
409.292; -102.775; -571.000; -534.000
409.419; -110.725; -665.000; -649.000
409.546;  -77.600; -431.000; -192.000
409.672;  -99.150; -713.000; -545.000
409.799;  -13.950;  -36.000;   34.000
409.926;  -35.350; -180.000; -179.000
410.052; -158.950;-1127.000;-1091.000
410.179;  -75.875; -368.000; -392.000
410.305;  -76.425; -375.000; -493.000
410.432;  -56.075; -220.000; -333.000
410.558;  -78.500; -305.000; -380.000
410.685; -110.200; -688.000; -431.000
410.812;  -81.850; -409.000; -588.000
410.938; -132.375; -964.000; -808.000
411.065;  -85.750; -671.000; -645.000
411.191;  -14.375; -189.000; -174.000
411.317; -101.725; -823.000; -742.000
411.444;  -70.000; -317.000; -246.000
411.570;  -65.700; -339.000; -294.000
411.697; -124.550; -758.000; -752.000
411.823; -166.450; -989.000; -999.000
411.949;  -28.925;  -56.000;   17.000
412.076; -103.575; -539.000; -519.000
412.202; -125.350; -758.000; -757.000
412.329; -119.100; -798.000; -752.000
412.455; -113.475; -821.000; -657.000
412.581;  -15.400;  -15.000;  172.000
412.707;  -53.750; -540.000; -457.000
412.834;    9.125;  156.000;  219.000
412.960;  -57.675; -785.000; -784.000
413.086; -105.050; -743.000; -701.000
413.212;  143.525;  604.000;  578.000
413.339;  -44.200; -685.000; -701.000
413.465;    9.425; -364.000; -310.000
413.591;  -74.000; -757.000; -474.000
413.717;  -49.925; -358.000; -366.000
413.843; -122.875; -839.000; -861.000
413.969;  -51.975;  -47.000; -292.000
414.096;  -87.125; -679.000; -679.000
414.222;    5.550;  -33.000;   85.000
414.348;   -3.000; -652.000; -385.000
414.474;  108.325;   38.000;  -52.000
414.600;   10.025; -126.000; -144.000
414.726;  -10.825;  -96.000;  -55.000
414.852;  -42.850; -365.000; -342.000
414.978;   47.300;  104.000;  -18.000
415.104;   44.850;   38.000;   80.000
415.230;   21.500; -329.000; -330.000
415.356;   40.075; -409.000; -514.000
415.482;  214.650;   13.000;  -35.000
415.608;  282.275; -247.000; -323.000
415.734;  964.675;   67.000;   38.000
415.860;19662.325; -875.000; -767.000
415.986;15410.050; -685.000; -607.000
416.111; 1385.250; -798.000; -652.000
416.237;  270.625; -424.000; -571.000
416.363; 1057.350; -765.000; -733.000
416.489; 4210.425; -324.000; -251.000
416.615;  510.025; -707.000; -742.000
416.741;  -13.575; -677.000; -784.000
416.866;  -90.575; -673.000; -736.000
416.992; -129.875; -801.000; -818.000
417.118;  -24.600;  -41.000;  -80.000
417.244;  -61.450; -798.000; -531.000
417.369;  -72.400; -801.000; -612.000
417.495;    7.175; -325.000; -254.000
417.621;  -73.150;-1015.000; -803.000
417.746;    8.425; -579.000; -572.000
417.872;   58.750; -254.000; -144.000
417.998;   46.050; -515.000; -530.000
418.123;  989.050;-1073.000; -845.000
418.249; 5481.050; -512.000; -601.000
418.374;  812.850; -916.000; -824.000
418.500;  120.150; -383.000; -482.000
418.626;  128.900;   70.000;  -59.000
418.751;  131.625; -549.000; -448.000
418.877;  225.950; -637.000; -643.000
419.002; 1693.150; -688.000; -560.000
419.128;12610.925; -930.000; -721.000
419.253; 3327.475; -967.000; -837.000
419.379;  428.725; -391.000; -338.000
419.504;  398.575;  325.000;  415.000
419.629;  520.175; -393.000; -212.000
419.755; 3355.800; -317.000; -254.000
419.880;20920.100;  -98.000;   67.000
420.006;11374.375; -280.000; -221.000
420.131;30116.900; -662.000; -775.000
420.256; 4680.625; -315.000; -316.000
420.382;  608.225; -665.000; -687.000
420.507;   78.775; -649.000; -778.000
420.632;  146.950; -337.000; -339.000
420.758;  299.850; -251.000; -425.000
420.883;  -72.200; -876.000; -672.000
421.008;  -95.050; -775.000; -619.000
421.133;  -75.425; -509.000; -467.000
421.259;  -48.700; -325.000; -259.000
421.384;  -99.975; -834.000; -693.000
421.509;  -34.775;-1052.000; -862.000
421.634; 1268.875; -936.000; -820.000
421.759;  602.850; -359.000; -327.000
421.885;  -45.425; -717.000; -656.000
422.010;  -85.975; -673.000; -542.000
422.135; -130.050; -695.000; -727.000
422.260;   35.400;  340.000;  280.000
422.385;  -33.825;   12.000;  -98.000
422.510;    4.225;  151.000;  -26.000
422.635;   22.300;  -87.000;  -43.000
422.760;  132.150; -766.000; -791.000
422.885;   65.275;  -57.000;  -80.000
423.010;  -40.225; -112.000; -169.000
423.135;  -71.825; -481.000; -561.000
423.260;  -15.175; -150.000; -245.000
423.385;   79.000;  476.000;  222.000
423.510;   35.475;   71.000;  -22.000
423.635;   98.150;  133.000;   45.000
423.760;   65.450;  383.000;  328.000
423.885;   73.100;  336.000;  391.000
424.010;   22.400;  -68.000;  -13.000
424.135;  -17.400;    5.000;  -33.000
424.259;  -74.500; -654.000; -457.000
424.384;  -53.550; -279.000; -272.000
424.509;  -26.825; -260.000; -186.000
424.634;  -94.475; -761.000; -623.000
424.759;  -18.400; -688.000; -544.000
424.883;   -4.325; -506.000; -527.000
425.008;  154.225; -502.000; -410.000
425.133; 2007.125; -679.000; -653.000
425.258; 1038.575; -517.000; -381.000
425.382; 1066.175; -867.000; -774.000
425.507; 2911.475; -487.000; -543.000
425.632;  513.425; -802.000; -663.000
425.756;  453.575; -256.000; -146.000
425.881; 6097.850; -831.000; -857.000
426.006;17847.250; -604.000; -355.000
426.130; 3022.850; -696.000; -508.000
426.255;  380.550; -611.000; -491.000
426.379;  180.250; -189.000; -577.000
426.504;  388.250;  660.000;  544.000
426.629; 3973.400; -519.000; -466.000
426.753; 2958.100;   64.000;  -46.000
426.878;  345.675; -252.000; -288.000
427.002;  155.350; -651.000; -668.000
427.127; 1539.625;  -35.000; -158.000
427.251;11335.175;  372.000;  401.000
427.375; 3537.000; -191.000; -173.000
427.500; 2506.850; -616.000; -610.000
427.624;  917.325; -234.000; -400.000
427.749;   93.600; -216.000; -225.000
427.873;  -31.950; -499.000; -412.000
427.997;  -44.750; -222.000; -230.000
428.122;   75.125;  795.000;  703.000
428.246;   87.250;  433.000;  434.000
428.371; -108.575; -869.000; -773.000
428.495; -103.950; -624.000; -646.000
428.619;  -24.250; -186.000; -117.000
428.743;   10.525;   65.000;  132.000
428.868;   25.300; -732.000; -643.000
428.992; 1522.450; -219.000; -326.000
429.116;  664.275; -329.000; -357.000
429.240;  304.950;  419.000;  426.000
429.365;  -14.075; -454.000; -574.000
429.489;  -36.900; -638.000; -647.000
429.613;   39.250; -236.000; -177.000
429.737;   30.650; -563.000; -432.000
429.861;  274.050; -247.000; -133.000
429.985; 5357.000; -425.000; -305.000
430.109; 6389.475; -770.000; -908.000
430.234;  758.175;   76.000;  -50.000
430.358;   88.425; -250.000; -160.000
430.482;  -69.250; -672.000; -564.000
430.606;  -61.475; -655.000; -375.000
430.730;   28.575; -437.000; -388.000
430.854;  167.650; -909.000; -835.000
430.978;  -54.300; -795.000; -764.000
431.102;  -91.650; -499.000; -422.000
431.226; -114.725; -874.000; -815.000
431.350;   30.025;  345.000;  422.000
431.474;  -86.650; -661.000; -373.000
431.597; -131.275;-1060.000; -848.000
431.721;  -68.650; -276.000; -267.000
431.845; -119.325; -704.000; -472.000
431.969;  -81.850; -304.000; -349.000
432.093;  -87.050; -395.000; -317.000
432.217;  -20.925;   32.000;   82.000
432.341;  -95.125; -523.000; -518.000
432.464;   14.475;   96.000;   40.000
432.588;  236.525; -401.000; -329.000
432.712;  129.650;  -52.000;  -52.000
432.836;   50.200;  213.000;  263.000
432.959;  -23.675; -372.000; -311.000
433.083;  103.450;   11.000;    2.000
433.207;  365.025;  285.000;  930.000
433.330; 4868.475; -391.000; -200.000
433.454; 6429.550; -654.000; -638.000
433.578; 3643.675;  583.000;  278.000
433.701;  745.875; -623.000; -675.000
433.825;  165.650; -292.000; -299.000
433.949;  201.875;   28.000;  -72.000
434.072;   73.550; -410.000; -323.000
434.196;   -4.400; -309.000; -117.000
434.319; 3570.225;25482.000;25124.000
434.443;  710.575; -656.000; -603.000
434.566; 2712.650;  281.000;   62.000
434.690;  497.325; -637.000; -383.000
434.813;   56.875; -251.000; -173.000
434.937;  -66.400; -569.000; -696.000
435.060;  -31.350; -423.000; -332.000
435.184;  339.175; -492.000; -217.000
435.307;  203.925;  159.000;  102.000
435.431;   -1.425;  -40.000;   24.000
435.554;  -72.400; -399.000; -240.000
435.677;  -83.700; -350.000; -258.000
435.801;  -15.975;  -25.000;   49.000
435.924;  -16.475;    1.000;  -67.000
436.048; -108.275;-1019.000; -732.000
436.171;  -65.150; -240.000;  -66.000
436.294;  -36.475; -248.000; -229.000
436.417;   95.850; -963.000; -849.000
436.541;  -66.575; -814.000; -840.000
436.664;  -58.950; -242.000; -316.000
436.787;  -15.400;   13.000;  113.000
436.910; -117.950; -792.000; -422.000
437.034;   15.675;  142.000;  143.000
437.157;   52.225;  -11.000;    0.000
437.280;  -44.975; -392.000; -292.000
437.403;  -64.800; -982.000; -869.000
437.526;  652.175; -903.000; -865.000
437.649; 2510.750; -505.000; -332.000
437.772;  424.350; -692.000; -540.000
437.896;  124.950;  700.000;  544.000
438.019;  -89.650; -758.000; -503.000
438.142;  -82.125; -596.000; -506.000
438.265;    6.050; -639.000; -670.000
438.388;  644.975; -520.000; -410.000
438.511;  152.175; -597.000; -394.000
438.634;  -28.075; -247.000; -125.000
438.757; -121.300; -693.000; -619.000
438.880;  -27.175;  -34.000;  -57.000
439.003;  -69.375; -417.000; -437.000
439.126;  -61.575; -287.000; -167.000
439.248;  -59.650;  -98.000; -139.000
439.371;  -50.425;    9.000;  -53.000
439.494;   39.025;  510.000;  439.000
439.617;  -53.675;   65.000;  -88.000
439.740; -191.850; -968.000; -816.000
439.863; -132.075; -755.000; -595.000
439.986; -111.300; -476.000; -431.000
440.108;  -42.575; -161.000; -112.000
440.231; -142.825; -950.000; -836.000
440.354;  -42.025;  -64.000; -150.000
440.477;   53.475; -566.000; -542.000
440.599;   23.475; -200.000; -225.000
440.722; -115.925; -709.000; -586.000
440.845;   64.625;  751.000;  928.000
440.968; -111.625; -415.000; -311.000
441.090;  -80.475; -199.000;  -33.000
441.213; -163.275;-1021.000; -825.000
441.336;  -55.175; -159.000;   -5.000
441.458;  -63.250; -549.000; -396.000
441.581;  -71.750; -628.000; -629.000
441.703;  -73.175; -152.000;   13.000
441.826; -103.425; -557.000; -400.000
441.948;  -48.350;   56.000;   51.000
442.071;   28.150;  555.000;  424.000
442.193; -108.725; -531.000; -485.000
442.316;   11.025;  152.000;   97.000
442.438;   53.700; -233.000;  -10.000
442.561;   74.900;  272.000;  262.000
442.683;  561.000; -809.000; -522.000
442.806; 1287.025;   -8.000;   74.000
442.928;   78.325; -859.000; -604.000
443.051;  -57.475; -577.000; -373.000
443.173;  -97.975; -341.000; -339.000
443.295;  -78.150; -263.000; -371.000
443.418;  -69.825; -321.000;  -29.000
443.540;  -18.650; -106.000;   -4.000
443.662; -105.225; -563.000; -465.000
443.785;  -10.650;  335.000;  199.000
443.907;  -92.975; -362.000; -208.000
444.029; -125.200; -767.000; -494.000
444.152; -137.500; -644.000; -554.000
444.274;  -35.875;  -18.000;  -24.000
444.396; -103.675; -461.000; -221.000
444.518; -124.375; -691.000; -454.000
444.640; -105.525; -268.000; -111.000
444.763;  -20.175;  388.000;  249.000
444.885; -114.375; -432.000; -392.000
445.007;  -38.625;   35.000;   86.000
445.129; -105.275; -610.000; -515.000
445.251;  -91.875; -372.000; -439.000
445.373; -122.150; -537.000; -386.000
445.495;   -1.225;  242.000;  350.000
445.617;   48.850;  853.000;  753.000
445.739;  -71.025; -215.000;  -97.000
445.861;  -27.875; -245.000; -112.000
445.984;  -33.175; -267.000; -101.000
446.105;  202.825; -418.000; -251.000
446.227;  682.175; -176.000;  -19.000
446.349;   33.500; -358.000; -249.000
446.471;  -94.725; -615.000; -448.000
446.593;  -63.000; -316.000;   19.000
446.715;   -4.775;  -67.000;   41.000
446.837;   67.125;  697.000;  832.000
446.959;  -97.400; -457.000; -478.000
447.081; -134.250; -628.000; -518.000
447.203;   58.225;  862.000;  834.000
447.325;  -88.175; -270.000;   42.000
447.446;  -14.450;  286.000;  530.000
447.568; -151.675; -921.000; -803.000
447.690;  -65.200; -236.000; -245.000
447.812; -138.375; -798.000; -519.000
447.933;  -30.300;  155.000;  127.000
448.055;  -76.450; -306.000; -261.000
448.177;  144.150;   31.000;   79.000
448.299;  115.050; -935.000; -727.000
448.420;   32.975;  -25.000;  159.000
448.542;  -45.525;   -3.000;   33.000
448.664;  -13.875;  109.000;  322.000
448.785;  -41.225;  265.000;   83.000
448.907;  -72.450; -614.000; -353.000
449.028;  -30.350; -771.000; -471.000
449.150;   56.250;  492.000;  589.000
449.272; -162.650;-1044.000; -913.000
449.393;   26.475;  612.000;  694.000
449.515; -130.225; -634.000; -581.000
449.636;  -57.350; -264.000; -155.000
449.758;   85.550;  763.000;  622.000
449.879;  -98.150; -498.000; -396.000
450.001;  -78.250; -149.000;  -49.000
450.122;  -56.000;  -95.000;  162.000
450.244;  -13.175;   37.000;  364.000
450.365; -117.725; -495.000; -301.000
450.486;  -21.150;   80.000;  268.000
450.608;   23.925;  393.000;  326.000
450.729;   77.325;  578.000;  645.000
450.850;    9.125; -574.000; -466.000
450.972;  686.525; -552.000; -389.000
451.093; 4815.075;  190.000;  588.000
451.214; 2311.350; -516.000; -337.000
451.336;  416.325;  773.000;  579.000
451.457;   52.775;  264.000;  393.000
451.578;  -33.325; -118.000;  -74.000
451.699; -106.550; -546.000; -540.000
451.821;  -64.725; -284.000;  -50.000
451.942;    1.575;  278.000;  285.000
452.063;   44.325;  228.000;  419.000
452.184;  523.650;  -54.000;  -49.000
452.305; 1111.250;  103.000;  170.000
452.427;  165.200; -549.000; -301.000
452.548;  -19.025;   23.000;   79.000
452.669;  -49.225; -257.000;  -89.000
452.790;  -42.100;    3.000;  -18.000
452.911;    9.850;  195.000;  259.000
453.032;  -61.925; -289.000;  -60.000
453.153;  -35.575;  -29.000;   81.000
453.274;   60.000;  737.000;  868.000
453.395;  -45.475;  -51.000;  175.000
453.516;  124.925; 1317.000; 1388.000
453.637;  -61.675; -205.000; -150.000
453.758;  -46.300;   15.000;   69.000
453.879; -105.250; -462.000; -250.000
454.000;   76.800; 1086.000;  948.000
454.121; -112.775; -554.000; -326.000
454.242; -116.275; -599.000; -383.000
454.362;  -35.150;  -99.000;  114.000
454.483;  -39.650; -309.000; -229.000
454.604;   46.325;  512.000;  580.000
454.725; -124.425; -627.000; -555.000
454.846; -116.350; -474.000; -406.000
454.967;  -29.325;  230.000;  539.000
455.087;  -55.950;  179.000;  153.000
455.208;   20.475;  554.000;  856.000
455.329;  -58.950;  -22.000;   82.000
455.450;   20.150;  473.000;  633.000
455.570;  -78.900; -234.000; -211.000
455.691;  -46.850;  201.000;  407.000
455.812; -106.500; -270.000;  -92.000
455.932;  -57.250;  107.000;  -97.000
456.053;  -76.675;   36.000;   24.000
456.173; -126.100; -433.000; -355.000
456.294; -126.250; -476.000; -303.000
456.415;  -74.425;  -73.000;   70.000
456.535;  -27.350;  297.000;  273.000
456.656;  -49.525;  132.000;  240.000
456.776;  -75.250;    3.000;  298.000
456.897;    1.425;  308.000;  513.000
457.017;  -74.525; -153.000;   -3.000
457.138;  -97.975; -402.000; -249.000
457.258;  -28.625;  263.000;  224.000
457.379;   -6.925;  509.000;  521.000
457.499;  -17.475;  443.000;  432.000
457.620; -112.900; -407.000; -231.000
457.740;  -85.550; -132.000;  -11.000
457.860;  -51.325;   87.000;   44.000
457.981;  -46.200;  132.000;  124.000
458.101;  -72.250;  -89.000;   40.000
458.221;  -20.600;  336.000;  402.000
458.342;  -56.300;   -4.000;  -37.000
458.462;   17.425;  617.000;  352.000
458.582;  -43.650; -302.000; -294.000
458.703;   29.550;  303.000;  154.000
458.823;  -31.900;   22.000;  163.000
458.943;   25.125;  341.000;  467.000
459.063;  -24.850; 1124.000;  192.000
459.183;  -17.775;  328.000;  313.000
459.304;    5.825;  315.000;  517.000
459.424;  -60.150; -246.000;  -89.000
459.544;  304.725;  388.000;  764.000
459.664;  844.525;  499.000;  506.000
459.784;  339.125; 1004.000; 1175.000
459.904;   67.675;  867.000;  744.000
460.024;   81.050;  867.000;  684.000
460.144;   11.075;  449.000;  554.000
460.264;  -11.225;  515.000;  327.000
460.385;  -96.800; -145.000; -119.000
460.505;   44.950;  905.000;  858.000
460.625;  -80.175;  -17.000;  -68.000
460.745;  -32.850;  396.000;  541.000
460.864;  -42.800;  153.000;  469.000
460.984;    7.850;  499.000;  573.000
461.104;  138.700; 1656.000; 1775.000
461.224;   17.250;  657.000;  650.000
461.344;  -17.475;  431.000;  360.000
461.464;  -28.325;  258.000;  513.000
461.584;   13.650;  283.000;  466.000
461.704;  -33.800;   58.000;  108.000
461.824;  -42.600;  238.000;  259.000
461.943;  -41.600;  191.000;  130.000
462.063;  -65.275;    2.000;  324.000
462.183;   23.200;  639.000;  717.000
462.303;   97.575; 1678.000; 1230.000
462.422;   34.075;  781.000;  840.000
462.542;  -41.125;  271.000;  391.000
462.662;   44.375;  353.000;  380.000
462.782;  249.325;  833.000;  572.000
462.901;  485.550;  545.000;  717.000
463.021;  292.175; 1702.000; 1638.000
463.141;   -6.825;  337.000;  770.000
463.260;  -17.425;  614.000;  474.000
463.380;   19.050;  902.000;  884.000
463.499;  -48.025;  342.000;  332.000
463.619;  -35.075;  581.000;  559.000
463.738;  120.225; 1644.000;  903.000
463.858;    7.850;  657.000;  811.000
463.978;  -25.650;  542.000;  396.000
464.097;   49.675;  921.000; 1114.000
464.217;  113.225; 1196.000; 1143.000
464.336;  107.375; 1068.000; 1130.000
464.455;  -37.850;  328.000;  659.000
464.575;   38.300;  597.000;  602.000
464.694;  173.550; 1204.000; 1179.000
464.814;  116.900; 1190.000; 1138.000
464.933;   82.450; 1095.000; 1027.000
465.052;   89.600; 1412.000; 1054.000
465.172;   83.450;  922.000;  799.000
465.291;  139.550; 1376.000; 1320.000
465.410;   25.225;  462.000;  735.000
465.530;   92.725; 1355.000; 1310.000
465.649;   66.975; 1209.000; 1273.000
465.768;  140.500; 1673.000; 1508.000
465.888;   66.800;  941.000; 1174.000
466.007;   98.075; 1335.000; 1440.000
466.126;    2.775;  721.000;  641.000
466.245;   39.050; 1176.000; 1187.000
466.364;   30.700;  950.000; 1060.000
466.484;   52.525; 1024.000; 1213.000
466.603;   41.450; 1101.000; 1222.000
466.722;  109.100; 1490.000; 1769.000
466.841;   70.500; 1151.000; 1401.000
466.960;   44.475; 1069.000;  972.000
467.079;  141.450; 1971.000; 1786.000
467.198;   59.325; 1238.000; 1181.000
467.317;   93.000; 1768.000; 1162.000
467.436;   63.650; 1709.000; 1261.000
467.555;  136.425; 1796.000; 1746.000
467.674;   69.700; 1227.000; 1329.000
467.793;   44.025; 1376.000; 1374.000
467.912;   91.200; 1658.000; 1539.000
468.031;  151.750; 2038.000; 1930.000
468.150;  136.625; 1842.000; 1837.000
468.269;  209.350; 2313.000; 2090.000
468.388;  178.675; 2168.000; 2339.000
468.507;  254.750; 2884.000; 2903.000
468.626;  255.650; 2555.000; 2541.000
468.744;  130.600; 2018.000; 2174.000
468.863;  195.300; 2312.000; 2523.000
468.982;   99.350; 1503.000; 1555.000
469.101;  210.300; 2788.000; 2692.000
469.220;  161.325; 2333.000; 2176.000
469.338;  240.050; 2935.000; 3051.000
469.457;  214.050; 2719.000; 2545.000
469.576;  328.325; 3953.000; 3784.000
469.695;  244.775; 2877.000; 3066.000
469.813;  421.225; 4148.000; 4192.000
469.932;  397.450; 4255.000; 4485.000
470.051;  423.300; 4075.000; 4161.000
470.169;  847.275; 4470.000; 4338.000
470.288; 1468.100; 4700.000; 4809.000
470.406;  896.550; 5059.000; 5194.000
470.525;  636.425; 6101.000; 5787.000
470.644;  645.475; 6847.000; 6794.000
470.762;  835.850; 8397.000; 7873.000
470.881;  888.075; 8651.000; 8464.000
470.999; 1037.025; 9685.000; 9151.000
471.118; 1122.650;11174.000;10711.000

