
Integration time [ms]: 200.000
Averaging Nr. [scans]: 10
Smoothing Nr. [pixels]: 0
Data measured with spectrometer [name]: 2101012U2
Wave   ;Sample   ;Dark     ;Reference
[nm]   ;[counts] ;[counts] ;[counts] 

197.733;  125.500;  516.000;  404.000
197.879; -145.400; -610.000; -634.000
198.025;  -83.200; -475.000; -420.000
198.171; -170.900; -602.000; -612.000
198.317;  -71.100; -401.000; -316.000
198.463; -149.600; -655.000; -404.000
198.609;   72.300;  181.000; -137.000
198.755; -198.300; -644.000; -410.000
198.901; -126.800; -505.000; -424.000
199.047; -122.200; -615.000; -488.000
199.193;  -68.700; -230.000; -468.000
199.339; -105.400; -222.000; -369.000
199.485;  111.000;  330.000;  271.000
199.631;   22.500;  227.000;  310.000
199.777; -110.700; -466.000; -398.000
199.923; -133.800; -610.000; -424.000
200.069;    7.300; -141.000;  -58.000
200.215;   87.200;  128.000;  453.000
200.361;   79.200;  243.000;  477.000
200.507; -155.100; -600.000; -373.000
200.653;  -52.900; -371.000; -194.000
200.798;  -73.900; -215.000; -125.000
200.944;    3.300; -146.000;  -41.000
201.090;   78.600;   61.000;  222.000
201.236;  -31.700; -116.000; -158.000
201.382;  270.700;  874.000;  903.000
201.528;   35.400;  -58.000;  -48.000
201.674; -109.900; -386.000; -293.000
201.819; -128.500; -540.000; -439.000
201.965; -175.100; -699.000; -447.000
202.111;  -40.700; -273.000; -226.000
202.257;  -94.200; -250.000; -238.000
202.402;   35.700;   13.000;  -36.000
202.548;  -44.300; -169.000; -116.000
202.694;  191.700;  410.000; -183.000
202.840; -175.500; -603.000; -531.000
202.985; -136.400; -681.000; -639.000
203.131; -223.500; -832.000; -666.000
203.277;  -61.300; -199.000; -262.000
203.423; -118.200; -434.000; -520.000
203.568;  -96.100; -462.000; -237.000
203.714; -141.500; -535.000; -542.000
203.860; -161.800; -682.000; -641.000
204.005;    7.000;  112.000;  167.000
204.151;  146.100;  561.000;  556.000
204.296;  -92.200; -354.000; -221.000
204.442; -135.500; -600.000; -547.000
204.588; -163.900; -592.000; -579.000
204.733;  101.500;  178.000;  168.000
204.879; -282.900;-1018.000; -822.000
205.025;   44.100;  -99.000;  126.000
205.170;   -3.800;  -17.000;   94.000
205.316;  187.700;  438.000;  661.000
205.461; -174.600; -698.000; -554.000
205.607;  176.900;  609.000;  665.000
205.752; -197.500; -626.000; -551.000
205.898; -108.000; -501.000; -391.000
206.043; -153.300; -578.000; -506.000
206.189;  -82.200; -243.000; -285.000
206.334;  160.300;  554.000;  606.000
206.480;  185.100;  409.000;  239.000
206.625; -184.700; -529.000; -552.000
206.771;  -97.900; -451.000; -373.000
206.916;  -75.300; -210.000; -537.000
207.062; -134.700; -545.000; -591.000
207.207; -138.400; -546.000; -443.000
207.353;  127.100;  185.000;  460.000
207.498;   43.900;  196.000;   85.000
207.643;  -88.000; -501.000; -370.000
207.789; -254.300;-1069.000; -910.000
207.934; -162.000; -665.000; -713.000
208.080;  -52.100; -154.000;   66.000
208.225;   10.100;  -22.000;  -57.000
208.370; -167.400; -727.000; -619.000
208.516; -140.100; -741.000; -487.000
208.661;  -70.400; -127.000;  -69.000
208.806;  -43.200; -165.000; -171.000
208.952; -267.300;-1044.000; -731.000
209.097;  183.100;  378.000;  349.000
209.242;  -79.300; -307.000; -382.000
209.387;  124.600;  392.000;  350.000
209.533; -112.400; -321.000; -350.000
209.678;  191.700;  472.000;  543.000
209.823; -110.400; -408.000; -310.000
209.969; -211.500; -860.000; -757.000
210.114; -261.500; -907.000; -719.000
210.259; -256.100; -939.000; -889.000
210.404;  -42.200; -171.000;  103.000
210.549;   23.900;  108.000;    3.000
210.695;  -26.300;   -3.000;  -95.000
210.840;   83.700;   94.000;   67.000
210.985; -150.900; -484.000; -303.000
211.130;  120.400;  268.000;  406.000
211.275;   -5.400;  207.000;  199.000
211.420;  -81.500; -300.000; -289.000
211.566; -141.700; -536.000; -489.000
211.711;   74.900;  218.000;  157.000
211.856; -144.600; -545.000; -519.000
212.001;   41.900;  151.000;   44.000
212.146;   26.900;  153.000;   49.000
212.291;  -18.400; -210.000; -186.000
212.436;  -63.800; -280.000;   -6.000
212.581; -167.000; -685.000; -653.000
212.726; -165.400; -487.000; -538.000
212.871; -116.100; -552.000; -217.000
213.016; -332.900;-1172.000;-1029.000
213.161;  113.000;  406.000;  291.000
213.306; -172.500; -435.000; -577.000
213.451; -189.000; -778.000; -689.000
213.596; -105.600; -455.000; -347.000
213.741; -116.500; -448.000; -538.000
213.886; -134.900; -498.000; -517.000
214.031;  -37.800; -294.000; -124.000
214.176; -133.700; -408.000; -341.000
214.321;  -16.800; -296.000; -157.000
214.466;  -62.400; -163.000;  -43.000
214.611;   25.300;  -61.000;  -10.000
214.756; -261.600; -948.000; -858.000
214.901;  -49.000; -388.000; -226.000
215.046; -244.200; -797.000; -825.000
215.191;   62.500;  128.000;   35.000
215.336;  -34.100; -157.000;  -19.000
215.480; -134.900; -684.000; -505.000
215.625;  -17.200; -175.000;  -19.000
215.770; -153.200; -757.000; -662.000
215.915;   -5.500;   -5.000;  -97.000
216.060;   -7.800; -113.000;  -21.000
216.205; -229.200; -731.000; -779.000
216.349; -139.500; -470.000; -533.000
216.494; -291.300; -939.000; -867.000
216.639; -232.400; -823.000; -888.000
216.784; -167.900; -577.000; -525.000
216.929;  109.100;  392.000;  281.000
217.073;   -4.000; -244.000;  -31.000
217.218;   29.500;   78.000;  -47.000
217.363; -199.700; -656.000; -618.000
217.507; -152.000; -623.000; -588.000
217.652; -272.100; -845.000; -874.000
217.797; -186.100; -708.000; -659.000
217.942; -244.900; -856.000; -720.000
218.086;  161.100;  608.000;  539.000
218.231;  -47.600; -174.000;  -26.000
218.376;  -35.200; -337.000; -229.000
218.520;  -35.000;  -41.000;   96.000
218.665;  -54.200; -338.000; -204.000
218.810;  -96.400; -275.000; -233.000
218.954;   58.600;  201.000;   35.000
219.099; -258.100; -713.000; -963.000
219.243; -156.300; -589.000; -554.000
219.388;  -56.300; -264.000; -136.000
219.532;  -23.900; -116.000; -116.000
219.677; -174.600; -564.000; -521.000
219.822;   25.900;   33.000;   89.000
219.966;   11.300;   17.000;  -99.000
220.111;  -47.500; -328.000;  -40.000
220.255; -201.100; -797.000; -750.000
220.400;  -24.900; -180.000; -146.000
220.544; -132.100; -516.000; -450.000
220.689; -114.500; -422.000; -451.000
220.833;  -49.700; -123.000;  -58.000
220.978;  -74.500; -393.000; -563.000
221.122;   50.400;  319.000;  307.000
221.267; -253.700; -906.000; -837.000
221.411; -123.800; -478.000; -394.000
221.555;   12.400; -104.000;  -23.000
221.700; -114.200; -329.000; -222.000
221.844;  103.500;  255.000;  272.000
221.989; -104.900; -328.000; -311.000
222.133;  -66.700; -289.000; -307.000
222.277;   -6.800;    5.000;   78.000
222.422;   51.600;  227.000;  113.000
222.566;  -79.400; -381.000; -214.000
222.711;  -95.900; -414.000; -479.000
222.855; -183.400; -643.000; -586.000
222.999; -153.300; -642.000; -717.000
223.144;  -38.500; -195.000; -194.000
223.288;  125.200;  423.000;  251.000
223.432;   43.100;  184.000;  230.000
223.576;   48.500;  152.000;  -21.000
223.721;  118.300;  364.000;  273.000
223.865; -103.100; -472.000; -475.000
224.009;  511.100; 1673.000; 1631.000
224.153; -178.900; -660.000; -671.000
224.298; -147.400; -531.000; -489.000
224.442;  -13.700;  -74.000;  -33.000
224.586;  -16.800; -169.000; -106.000
224.730; -213.500; -858.000; -670.000
224.875; -266.600; -739.000; -688.000
225.019;   48.000;  102.000;  188.000
225.163;  143.200;  208.000;  341.000
225.307;   48.000;   97.000;  -91.000
225.451;   93.200;  360.000;  481.000
225.595;   89.400;  264.000;  176.000
225.739;  -28.000; -170.000;  -94.000
225.884;   16.200;   86.000;    5.000
226.028; -209.900; -760.000; -626.000
226.172;  -56.400; -260.000; -273.000
226.316; -249.500; -941.000; -902.000
226.460; -115.100; -645.000; -493.000
226.604; -102.300; -406.000; -400.000
226.748; -195.300; -836.000; -733.000
226.892;  -76.800; -227.000; -181.000
227.036;  -86.900; -537.000; -447.000
227.180;  -99.900; -551.000; -375.000
227.324; -134.100; -561.000; -580.000
227.468; -254.200; -819.000; -717.000
227.612;   56.300;  242.000;  -28.000
227.756; -211.800; -845.000; -698.000
227.900;  136.000;  342.000;  441.000
228.044; -129.600; -509.000; -290.000
228.188;  141.700;  448.000;  568.000
228.332; -186.600; -546.000; -472.000
228.476;  -69.500; -223.000; -149.000
228.620;  -67.700; -210.000; -150.000
228.764;  166.700;  431.000;  349.000
228.908;  -53.300; -155.000;   30.000
229.052; -105.700; -615.000; -528.000
229.195;  -44.800; -172.000;   13.000
229.339;  -43.100; -235.000; -305.000
229.483;  -65.200;    5.000; -162.000
229.627;  -19.300; -156.000;  139.000
229.771; -104.000; -218.000; -294.000
229.915;   30.100;  230.000;   79.000
230.059; -216.000; -648.000; -663.000
230.202;  -71.100; -370.000; -317.000
230.346;  -37.300; -107.000;  107.000
230.490; -116.200; -489.000; -521.000
230.634; -230.400; -736.000; -553.000
230.777;  175.500;  478.000;  509.000
230.921; -131.200; -450.000; -359.000
231.065;  -58.100; -246.000; -286.000
231.209;   89.600;  261.000;  265.000
231.352;   53.800;   54.000;   40.000
231.496;   20.100;  568.000;  188.000
231.640; -170.200; -693.000; -621.000
231.783;  178.500;  546.000;  525.000
231.927;  -78.200; -294.000; -365.000
232.071; -260.900; -962.000; -736.000
232.214; -205.900; -980.000; -764.000
232.358; -244.600; -683.000; -599.000
232.502;   23.700;  -19.000;    7.000
232.645; -286.400;-1090.000; -927.000
232.789;  -23.400; -257.000; -218.000
232.933; -106.600; -407.000; -224.000
233.076; -279.400;-1038.000; -897.000
233.220; -224.600; -752.000; -777.000
233.363; -132.400; -669.000; -477.000
233.507;  140.500;  371.000;  129.000
233.650; -171.700; -764.000; -834.000
233.794;  126.800;  438.000;  461.000
233.938; -116.700; -530.000; -362.000
234.081;  -29.500;  -93.000;   31.000
234.225; -103.000; -631.000; -539.000
234.368; -203.000; -773.000; -723.000
234.512;  -74.700; -385.000; -299.000
234.655; -177.900; -582.000; -555.000
234.798; -121.300; -493.000; -466.000
234.942; -290.800; -884.000;-1002.000
235.085; -127.200; -651.000; -443.000
235.229; -145.200; -405.000; -410.000
235.372;  -84.500; -247.000; -191.000
235.516; -123.700; -397.000; -321.000
235.659;   38.300;   92.000;  121.000
235.802;  -15.800;  -38.000;  -22.000
235.946;   70.900;  335.000;  215.000
236.089;   60.800;  126.000;  250.000
236.233;  153.700;  275.000;  298.000
236.376;  -88.100; -235.000; -378.000
236.519;  -62.100; -297.000; -319.000
236.663;   -0.600; -215.000; -117.000
236.806; -260.800;-1029.000; -999.000
236.949;  111.500;  543.000;  431.000
237.092;  120.900;  412.000;  391.000
237.236; -178.500; -589.000; -502.000
237.379;  145.900;  352.000;  428.000
237.522; -253.600; -879.000; -768.000
237.666;  -51.700; -271.000;   18.000
237.809; -274.000; -851.000; -823.000
237.952;  127.000;  469.000;  271.000
238.095; -130.600; -447.000; -442.000
238.238;  200.600;  688.000;  700.000
238.382;   16.400;  166.000;  103.000
238.525; -119.200; -598.000; -511.000
238.668; -293.200;-1060.000; -985.000
238.811; -155.200; -638.000; -643.000
238.954; -123.200; -483.000; -334.000
239.097;  221.100;  617.000;  664.000
239.241;   59.400;  394.000;  326.000
239.384;  -61.400; -254.000; -214.000
239.527; -121.300; -424.000; -224.000
239.670; -310.000; -994.000;-1091.000
239.813; -226.200; -696.000; -658.000
239.956;  213.000;  579.000;  473.000
240.099; -229.500; -778.000; -725.000
240.242;  149.400;  428.000;  432.000
240.385;  137.400;  466.000;  450.000
240.528; -128.300; -706.000; -473.000
240.671;   49.000;  189.000;  134.000
240.814;  -80.500; -441.000; -158.000
240.957; -230.200; -767.000; -578.000
241.100; -205.100; -779.000; -755.000
241.243; -295.200;-1234.000; -893.000
241.386; -106.700; -508.000; -379.000
241.529; -177.300; -735.000; -547.000
241.672;  -99.100; -566.000; -495.000
241.815; -234.500; -832.000; -808.000
241.958;  -39.300; -125.000; -182.000
242.101; -160.500; -545.000; -390.000
242.244;  -80.400; -270.000; -325.000
242.387;  -98.500; -304.000; -246.000
242.530;  151.900;  470.000;  134.000
242.673;  -81.900; -381.000; -309.000
242.815; -217.900; -925.000; -899.000
242.958; -137.300; -482.000; -381.000
243.101;   69.800;  132.000;  187.000
243.244; -166.600; -564.000; -521.000
243.387;  -85.700; -313.000; -316.000
243.530; -204.500; -657.000; -674.000
243.672;   -3.100;   43.000;  -92.000
243.815; -118.300; -355.000; -283.000
243.958;   11.800;   98.000;  -26.000
244.101;   24.400;   59.000;  -16.000
244.243;   -6.000;  -47.000;  101.000
244.386; -214.200; -761.000; -630.000
244.529;  -30.600; -132.000; -139.000
244.672; -314.500;-1154.000; -951.000
244.814; -180.000; -621.000; -794.000
244.957;  -55.700; -380.000; -304.000
245.100; -133.100; -489.000; -489.000
245.242; -119.900; -387.000; -374.000
245.385;  -19.200;  -59.000;  -39.000
245.528; -244.700; -871.000; -705.000
245.670;  209.700;  612.000;  634.000
245.813; -190.200; -599.000; -547.000
245.956;  -62.300; -324.000; -275.000
246.098; -143.700; -508.000; -650.000
246.241;   36.000;  194.000;   48.000
246.383;  -50.800; -119.000;  -73.000
246.526; -144.300; -454.000; -525.000
246.669; -256.400; -889.000; -780.000
246.811;   52.000;  172.000;   -1.000
246.954; -137.700; -512.000; -426.000
247.096;   -3.800;  -84.000;   -6.000
247.239; -134.000; -482.000; -445.000
247.381; -144.800; -647.000; -488.000
247.524;  185.300;  645.000;  679.000
247.666;    2.300;   58.000;   11.000
247.809; -233.800; -887.000; -691.000
247.951;    8.100;  -75.000;  138.000
248.094;   68.800;  432.000;  308.000
248.236; -301.700;-1262.000;-1238.000
248.378; -112.200; -356.000;  -81.000
248.521;  -88.400; -334.000; -337.000
248.663;  -81.700; -236.000; -267.000
248.806;  -57.300; -300.000; -266.000
248.948; -263.900; -886.000; -763.000
249.090; -131.700; -428.000; -398.000
249.233; -135.100; -344.000; -381.000
249.375; -128.900; -474.000; -451.000
249.518;  -26.200;  -83.000; -133.000
249.660;    5.700; -103.000;    3.000
249.802; -358.500;-1303.000;-1189.000
249.945; -145.500; -612.000; -540.000
250.087; -228.500; -834.000; -768.000
250.229; -133.900; -362.000; -480.000
250.371; -146.500; -494.000; -439.000
250.514;  -93.600; -310.000; -244.000
250.656;  -20.200;   69.000;  102.000
250.798; -234.400; -849.000; -800.000
250.940; -144.900; -322.000; -322.000
251.083;  -52.300; -335.000; -111.000
251.225;  106.200;  338.000;  310.000
251.367;  -88.400; -274.000; -373.000
251.509;  -82.200; -265.000; -210.000
251.651; -161.700; -731.000; -671.000
251.794;  114.300;  538.000;  632.000
251.936; -189.800; -821.000; -747.000
252.078; -180.600; -540.000; -461.000
252.220; -147.500; -645.000; -477.000
252.362;   77.300;  344.000;  462.000
252.504; -169.700; -677.000; -584.000
252.646; -230.600; -875.000; -722.000
252.788;   12.900;   14.000; -128.000
252.931; -110.300; -257.000; -253.000
253.073;  -80.000; -376.000; -317.000
253.215;   -9.500;  141.000;  122.000
253.357;  -15.900;   82.000; -153.000
253.499; -115.500; -374.000; -234.000
253.641; -197.400; -749.000; -594.000
253.783; -189.800; -609.000; -527.000
253.925; -169.400; -586.000; -591.000
254.067; -237.000; -744.000; -667.000
254.209;  -65.000; -391.000; -259.000
254.351; -283.700; -865.000; -883.000
254.493; -115.600; -441.000; -417.000
254.635; -233.000; -936.000; -818.000
254.777; -178.800; -752.000; -687.000
254.918; -160.400; -512.000; -430.000
255.060; -132.700; -551.000; -395.000
255.202; -131.600; -473.000; -261.000
255.344; -150.700; -658.000; -455.000
255.486; -124.600; -471.000; -406.000
255.628; -181.800; -780.000; -781.000
255.770; -187.400; -676.000; -536.000
255.912; -105.500; -559.000; -468.000
256.053; -191.100; -730.000; -508.000
256.195;  347.700; 1008.000;  903.000
256.337; -197.100; -861.000; -595.000
256.479;  157.900;  532.000;  416.000
256.621;  -79.000; -394.000; -212.000
256.762; -189.600; -789.000; -742.000
256.904;  137.200;  485.000;  487.000
257.046;  -67.400; -381.000; -271.000
257.188; -102.500; -351.000; -264.000
257.329; -168.900; -525.000; -464.000
257.471; -256.400; -939.000; -807.000
257.613; -138.500; -584.000; -498.000
257.755; -339.700;-1073.000; -982.000
257.896;   73.600;  286.000;  392.000
258.038; -138.300; -403.000; -352.000
258.180;  -57.200; -354.000; -279.000
258.321; -190.100; -581.000; -457.000
258.463;   18.400;  -71.000;  133.000
258.605; -217.400; -562.000; -570.000
258.746; -207.900; -886.000; -772.000
258.888; -341.200;-1026.000;-1020.000
259.029;   53.400;  121.000;   -8.000
259.171; -186.200; -614.000; -550.000
259.313;   41.000;  -49.000;  -47.000
259.454; -140.100; -536.000; -414.000
259.596;  -86.300; -483.000; -390.000
259.737; -164.800; -590.000; -474.000
259.879;  102.600;  217.000;  311.000
260.020;  192.800;  901.000;  636.000
260.162;  -52.700; -146.000; -253.000
260.303; -229.200; -768.000; -687.000
260.445; -144.400; -609.000; -613.000
260.586;   56.500;  392.000;  157.000
260.728; -115.100; -360.000; -248.000
260.869; -160.300; -350.000; -343.000
261.011;  179.900;  706.000;  537.000
261.152; -122.500; -479.000; -319.000
261.293; -161.200; -576.000; -595.000
261.435;  -56.600; -219.000; -184.000
261.576;  -78.600; -455.000; -325.000
261.718;  112.900;  420.000;  470.000
261.859; -265.100; -940.000; -949.000
262.000; -287.300; -951.000;-1016.000
262.142;  -24.700;  -52.000;  -60.000
262.283; -260.400; -808.000; -691.000
262.424; -189.300; -666.000; -625.000
262.566; -331.000;-1161.000; -983.000
262.707; -216.000; -840.000; -830.000
262.848; -230.300; -769.000; -726.000
262.990;  -49.600; -362.000; -345.000
263.131;  203.800;  650.000;  681.000
263.272;    7.000;  -61.000;  -41.000
263.413; -203.700; -589.000; -561.000
263.555; -114.500; -669.000; -143.000
263.696; -190.100; -550.000; -641.000
263.837;  -99.200; -449.000; -551.000
263.978;  -12.200;   -5.000;  -77.000
264.119;  -96.700; -283.000; -264.000
264.261; -250.500; -847.000; -630.000
264.402;    9.400;   33.000;   40.000
264.543; -139.000; -509.000; -524.000
264.684;  -13.200;   61.000;  -50.000
264.825; -142.800; -816.000; -538.000
264.966;   34.000;  -84.000;  -67.000
265.107; -267.200; -646.000; -670.000
265.248; -241.700; -825.000; -812.000
265.390;   11.200;  152.000;   -9.000
265.531;  -47.300; -238.000; -107.000
265.672; -187.200; -557.000; -630.000
265.813;  156.300;  563.000;  439.000
265.954; -296.500; -959.000; -940.000
266.095;  -20.100; -372.000; -322.000
266.236; -206.100; -686.000; -548.000
266.377;  -74.800; -243.000; -297.000
266.518; -150.400; -619.000; -547.000
266.659;   87.200;  170.000;  268.000
266.800;   23.800;   83.000;   85.000
266.941; -139.200; -487.000; -478.000
267.082;   48.800;  354.000;   99.000
267.223; -115.900; -344.000; -273.000
267.364; -249.800; -892.000; -686.000
267.504;   12.500;    3.000;  135.000
267.645;    9.400;  160.000;   67.000
267.786;  -50.200; -147.000;  -86.000
267.927; -149.500; -473.000; -379.000
268.068;  -26.900; -186.000;  -61.000
268.209; -118.300; -175.000; -413.000
268.350; -115.600; -388.000; -532.000
268.490; -178.900; -648.000; -521.000
268.631;   81.200;  127.000;  225.000
268.772; -237.000; -874.000; -647.000
268.913;  -87.000; -328.000; -476.000
269.054;  -71.300; -117.000;   12.000
269.194; -106.200; -418.000; -402.000
269.335; -324.100;-1137.000;-1074.000
269.476;  -15.200;   33.000;  -35.000
269.617;  -94.200; -347.000; -392.000
269.757; -161.200; -713.000; -646.000
269.898; -216.300; -856.000; -613.000
270.039; -119.900; -415.000; -405.000
270.180; -286.900; -952.000; -816.000
270.320;  -55.000; -190.000; -250.000
270.461;  -86.100; -277.000; -249.000
270.602;  -31.800; -186.000; -156.000
270.742; -252.400; -868.000; -943.000
270.883; -120.300; -442.000; -390.000
271.023; -128.900; -358.000; -357.000
271.164; -139.800; -607.000; -528.000
271.305; -201.000; -666.000; -654.000
271.445; -187.800; -722.000; -683.000
271.586; -140.100; -462.000; -283.000
271.726; -107.200; -397.000; -322.000
271.867; -177.100; -594.000; -534.000
272.008;  -66.400; -473.000; -285.000
272.148;   97.200;  462.000;  468.000
272.289;    1.300; -113.000; -181.000
272.429;   -7.400;   19.000;  185.000
272.570; -212.600; -633.000; -737.000
272.710; -235.500; -825.000; -775.000
272.851;  -28.200;  113.000; -130.000
272.991; -348.400;-1173.000;-1077.000
273.131; -115.400; -419.000; -459.000
273.272; -197.000; -683.000; -723.000
273.412;  -22.000; -143.000;  -31.000
273.553; -148.700; -488.000; -507.000
273.693;  264.600;  913.000;  858.000
273.834; -284.500; -894.000; -692.000
273.974; -173.500; -664.000; -615.000
274.114; -249.400; -772.000; -560.000
274.255;  105.300;  414.000;  373.000
274.395;  -93.200; -180.000; -125.000
274.535;   75.200;  199.000;  350.000
274.676;   71.600;  225.000;   94.000
274.816;   46.500;  110.000;   34.000
274.956; -206.400; -624.000; -690.000
275.097; -272.800;-1014.000; -922.000
275.237; -264.100; -913.000; -803.000
275.377; -185.100; -778.000; -689.000
275.517; -307.900; -878.000; -937.000
275.658; -142.700; -590.000; -555.000
275.798; -164.700; -606.000; -413.000
275.938;   31.300;  215.000;  323.000
276.078; -195.100; -626.000; -395.000
276.218;   16.200;   99.000;  104.000
276.359; -293.700;-1026.000;-1024.000
276.499; -136.500; -605.000; -446.000
276.639;  -81.000; -305.000; -151.000
276.779;  -96.700; -475.000; -357.000
276.919; -225.400; -783.000; -624.000
277.059;  -32.900; -261.000; -212.000
277.199; -112.300; -357.000; -259.000
277.340;   55.300;  287.000;  175.000
277.480; -228.000; -840.000; -693.000
277.620;   57.100;  192.000;   16.000
277.760; -423.000;-1533.000;-1294.000
277.900;   23.200;  113.000;   33.000
278.040;  -23.500;  137.000;  159.000
278.180;   76.700;  270.000;  170.000
278.320;   21.900;   21.000;   56.000
278.460; -114.000; -443.000; -469.000
278.600; -180.000; -708.000; -598.000
278.740;  110.900;  448.000;  224.000
278.880; -240.300; -768.000; -791.000
279.020;  -40.100; -194.000; -144.000
279.160; -197.700; -672.000; -595.000
279.300; -258.800; -926.000; -873.000
279.440; -235.500; -709.000; -622.000
279.579; -272.100;-1014.000; -929.000
279.719; -168.500; -410.000; -394.000
279.859;   52.700;   -4.000;   41.000
279.999;  -18.200; -208.000;  101.000
280.139; -106.800; -435.000; -387.000
280.279; -236.300; -708.000; -745.000
280.419;  -46.600; -229.000; -147.000
280.559;  -92.200; -259.000; -180.000
280.698; -194.100; -790.000; -639.000
280.838; -222.000; -778.000; -800.000
280.978; -200.100; -846.000; -790.000
281.118; -228.500; -811.000; -704.000
281.257;    3.600;   24.000;    6.000
281.397; -357.400;-1094.000; -960.000
281.537; -173.600; -599.000; -712.000
281.677;  -28.200; -150.000; -101.000
281.816; -168.900; -700.000; -630.000
281.956;  -75.200; -193.000; -257.000
282.096; -119.800; -539.000; -396.000
282.235; -217.900; -672.000; -638.000
282.375;  -58.800; -243.000;  -98.000
282.515; -212.700; -715.000; -707.000
282.654;   29.500;   29.000;  106.000
282.794;   57.200;  388.000;  244.000
282.934; -116.100; -530.000; -491.000
283.073; -285.800;-1030.000; -857.000
283.213; -131.800; -460.000; -467.000
283.353; -131.100; -408.000; -349.000
283.492;  -41.500; -264.000; -296.000
283.632; -116.500; -254.000; -168.000
283.771; -212.300; -859.000; -730.000
283.911; -125.300; -369.000; -260.000
284.050; -209.000; -794.000; -748.000
284.190; -341.900;-1229.000;-1096.000
284.329; -300.100;-1055.000; -964.000
284.469; -210.800; -516.000; -591.000
284.608; -139.200; -559.000; -598.000
284.748; -198.900; -614.000; -570.000
284.887;    7.400;  -87.000;  -20.000
285.027; -269.100; -844.000; -892.000
285.166;  -59.900; -192.000; -249.000
285.306;  -48.100; -116.000;  -33.000
285.445;  -73.100; -229.000; -343.000
285.584; -208.200; -630.000; -494.000
285.724;  -88.100; -282.000; -322.000
285.863; -242.700; -857.000; -507.000
286.002;  -76.300; -366.000; -276.000
286.142; -235.600; -715.000; -622.000
286.281; -131.300; -525.000; -493.000
286.420; -170.700; -554.000; -417.000
286.560;  209.000;  653.000;  623.000
286.699; -292.000; -958.000; -912.000
286.838; -181.900; -590.000; -591.000
286.978; -161.100; -533.000; -537.000
287.117; -286.600;-1085.000; -950.000
287.256;  -62.700; -228.000; -211.000
287.395;  -84.100; -197.000; -378.000
287.535; -109.700; -370.000; -298.000
287.674; -162.600; -509.000; -484.000
287.813;  121.300;  661.000;  533.000
287.952; -282.100;-1010.000; -871.000
288.091; -348.200;-1049.000; -915.000
288.231;    4.700;   13.000;   15.000
288.370; -350.400;-1217.000;-1200.000
288.509; -181.100; -728.000; -645.000
288.648; -207.600; -770.000; -548.000
288.787;  -36.900; -243.000;  -87.000
288.926; -177.900; -454.000; -475.000
289.065;  232.400;  859.000;  672.000
289.204;  -94.200; -377.000; -217.000
289.344; -192.300; -791.000; -690.000
289.483;   18.900;  416.000;  304.000
289.622;  -36.300; -291.000; -149.000
289.761;  -29.200; -309.000; -166.000
289.900; -202.500; -785.000; -626.000
290.039;  -29.800;  -12.000;  -95.000
290.178;  -67.700; -274.000; -180.000
290.317; -165.100; -618.000; -479.000
290.456; -112.500; -463.000; -451.000
290.595; -293.200; -961.000; -833.000
290.734; -265.400; -904.000; -891.000
290.873; -148.700; -456.000; -420.000
291.011; -233.100; -833.000; -843.000
291.150; -194.300; -770.000; -682.000
291.289;  -75.100; -343.000; -110.000
291.428; -207.800; -599.000; -480.000
291.567;  -98.200; -370.000; -442.000
291.706;   -5.000;  109.000;  154.000
291.845; -177.800; -597.000; -505.000
291.984; -370.500;-1234.000;-1061.000
292.122;  158.900;  602.000;  582.000
292.261;  103.200;  620.000;  463.000
292.400;   20.900; -144.000;  211.000
292.539; -281.400; -959.000; -813.000
292.678;  -83.800; -325.000; -300.000
292.816; -329.200;-1136.000; -965.000
292.955; -187.700; -844.000; -684.000
293.094;  -71.000; -173.000; -337.000
293.233;  -80.000; -556.000; -400.000
293.371;  -51.700; -225.000;  -84.000
293.510; -199.600; -866.000; -780.000
293.649; -289.400; -959.000; -924.000
293.787; -311.800;-1083.000;-1012.000
293.926;  -49.100; -113.000;  -32.000
294.065;  -77.800; -379.000; -290.000
294.203;   97.800;  298.000;  406.000
294.342;   53.500;   74.000;  156.000
294.481;14989.600;51180.000; -836.000
294.619;  -53.400; -425.000; -582.000
294.758; -334.800;-1230.000;-1137.000
294.896;  -11.500; -125.000;    5.000
295.035; -319.400;-1040.000;-1006.000
295.174; -278.800;-1082.000; -954.000
295.312; -118.700; -323.000; -203.000
295.451; -112.700; -307.000; -428.000
295.589; -143.000; -389.000; -518.000
295.728;   -2.100; -292.000; -165.000
295.866;  -60.400;  -36.000;  -51.000
296.005; -168.600; -584.000; -341.000
296.143; -185.900; -558.000; -596.000
296.282; -242.500; -957.000; -881.000
296.420; -175.300; -657.000; -557.000
296.559; -219.500; -892.000; -633.000
296.697; -226.300; -847.000; -665.000
296.835; -319.200;-1141.000;-1002.000
296.974;   12.800;  -23.000;   39.000
297.112; -133.100; -443.000; -504.000
297.251; -218.500; -815.000; -755.000
297.389; -144.100; -576.000; -438.000
297.527;  -57.300; -145.000;  -83.000
297.666; -140.100; -486.000; -438.000
297.804; -154.200; -404.000; -264.000
297.942;  -26.400; -136.000; -161.000
298.081;  -53.900; -183.000;   63.000
298.219;  -20.300;  -17.000;  -19.000
298.357;  -93.700; -144.000;  -71.000
298.495; -232.000; -810.000; -812.000
298.634;    1.900;  245.000;  219.000
298.772;  -30.100; -220.000; -338.000
298.910; -138.400; -309.000; -182.000
299.048;  -11.700; -130.000; -153.000
299.187;  -60.100; -350.000; -250.000
299.325;   14.200;   52.000;  122.000
299.463; -123.400; -389.000; -299.000
299.601;  -73.700; -327.000; -271.000
299.739; -306.100; -908.000; -883.000
299.877; -186.600; -791.000; -703.000
300.016; -322.800;-1095.000; -935.000
300.154;   -7.900;  -19.000; -161.000
300.292; -156.200; -428.000; -348.000
300.430;  -68.200; -408.000; -291.000
300.568; -310.900; -940.000; -874.000
300.706; -122.100; -366.000; -469.000
300.844; -337.400;-1108.000; -979.000
300.982;  128.800;  246.000;  282.000
301.120; -288.700; -965.000; -866.000
301.258; -185.600; -812.000; -705.000
301.396;   22.600;  104.000;  -41.000
301.534;  -63.600; -218.000; -293.000
301.672; -170.300; -664.000; -521.000
301.810; -166.500; -613.000; -545.000
301.948;   26.900;   53.000;  149.000
302.086;  -38.500; -250.000;  -32.000
302.224; -213.300; -610.000; -585.000
302.362; -168.500; -558.000; -622.000
302.500; -257.200; -923.000; -893.000
302.638;   19.300;  128.000;  245.000
302.776;  -75.600; -352.000; -408.000
302.913;   88.700;  447.000;  236.000
303.051;  -35.800;  -86.000;  -23.000
303.189;   55.900;   90.000;  118.000
303.327; -104.900; -341.000; -256.000
303.465; -206.900; -832.000; -588.000
303.603; -209.100; -805.000; -604.000
303.740;  117.000;  417.000;  241.000
303.878; -234.900; -800.000; -759.000
304.016; -225.600; -915.000; -790.000
304.154; -355.500;-1123.000;-1152.000
304.291; -136.100; -505.000; -554.000
304.429;   20.300;  102.000;   74.000
304.567; -288.800; -908.000; -893.000
304.705; -148.600; -408.000; -515.000
304.842; -170.200; -616.000; -540.000
304.980;  -21.800;  215.000;   35.000
305.118;  -83.300; -367.000; -365.000
305.255; -316.100; -945.000; -927.000
305.393;  112.500;  178.000;  239.000
305.531; -315.000;-1173.000; -956.000
305.668; -208.500; -663.000; -582.000
305.806; -140.400; -358.000; -439.000
305.943; -157.800; -629.000; -637.000
306.081;  -81.800; -378.000; -267.000
306.219; -200.600; -863.000; -748.000
306.356;   17.900;  158.000;   27.000
306.494;  209.600;  981.000;  761.000
306.631;  -31.900;  -11.000;  -55.000
306.769; -121.800; -613.000; -485.000
306.906; -129.500; -284.000; -258.000
307.044; -134.200; -473.000; -488.000
307.181; -146.400; -410.000; -332.000
307.319;   88.100;  112.000;   87.000
307.456; -373.000;-1191.000;-1153.000
307.594; -256.000; -980.000; -727.000
307.731; -113.000; -371.000; -164.000
307.868;  -13.800;  -15.000;   20.000
308.006; -296.100; -961.000; -847.000
308.143; -185.400; -618.000; -330.000
308.281;  -67.800;  -37.000; -254.000
308.418; -195.400; -748.000; -640.000
308.555; -162.600; -400.000; -250.000
308.693; -153.300; -577.000; -573.000
308.830; -237.400; -712.000; -657.000
308.967;  -19.500; -215.000;  -95.000
309.105; -148.000; -507.000; -396.000
309.242; -105.900; -468.000; -367.000
309.379; -218.000; -577.000; -655.000
309.517; -250.500; -936.000; -948.000
309.654; -279.800; -910.000; -734.000
309.791; -174.200; -662.000; -580.000
309.928; -305.800; -977.000; -914.000
310.065;  225.400;  819.000;  697.000
310.203; -288.700; -825.000; -850.000
310.340; -146.100; -465.000; -321.000
310.477; -191.300; -412.000; -516.000
310.614; -138.300; -383.000; -473.000
310.751; -196.800; -427.000; -518.000
310.889;  -33.900;    1.000;   11.000
311.026; -324.400;-1161.000; -939.000
311.163; -104.100; -386.000; -380.000
311.300; -172.500; -512.000; -479.000
311.437; -132.000; -658.000; -619.000
311.574; -349.100;-1226.000; -985.000
311.711; -131.800; -595.000; -433.000
311.848; -118.700; -380.000; -388.000
311.985;   22.000;  270.000;   93.000
312.122; -256.400; -932.000; -762.000
312.259; -276.800; -941.000; -994.000
312.396; -197.200; -508.000; -551.000
312.533; -226.600; -812.000; -790.000
312.670; -335.800;-1070.000; -898.000
312.807;  -84.700; -352.000; -367.000
312.944; -204.000; -513.000; -611.000
313.081; -102.300; -150.000; -415.000
313.218; -297.800;-1111.000; -867.000
313.355; -132.200; -531.000; -449.000
313.492;  -96.200; -455.000; -292.000
313.629;  207.300;  815.000;  735.000
313.766; -342.200;-1176.000;-1008.000
313.902;   20.300; -186.000;   21.000
314.039; -100.400; -372.000; -289.000
314.176;   64.000;  286.000;  192.000
314.313; -211.900; -569.000; -473.000
314.450; -189.300; -788.000; -684.000
314.587; -180.500; -468.000; -480.000
314.723;   -5.600;  -78.000;  130.000
314.860;   21.400;  318.000;  332.000
314.997;   17.800;  223.000;  142.000
315.134; -154.500; -385.000; -368.000
315.270; -126.200; -480.000; -496.000
315.407; -351.500;-1094.000; -967.000
315.544; -161.900; -657.000; -538.000
315.681; -203.300; -681.000; -565.000
315.817;  -35.400; -133.000; -176.000
315.954; -183.100; -613.000; -392.000
316.091; -314.000;-1045.000;-1023.000
316.227;  -79.400;  -71.000; -179.000
316.364;    9.500;   23.000;    6.000
316.500;  -62.000; -113.000; -300.000
316.637;  -69.800; -181.000; -302.000
316.774; -157.300; -625.000; -358.000
316.910; -144.600; -598.000; -629.000
317.047; -170.400; -487.000; -351.000
317.183; -135.500; -435.000; -566.000
317.320; -142.700; -367.000; -321.000
317.456; -218.200; -733.000; -805.000
317.593; -238.200; -598.000; -641.000
317.729;   23.200;  168.000;  -67.000
317.866; -406.600;-1434.000;-1285.000
318.002; -196.400; -708.000; -948.000
318.139; -281.600; -883.000; -867.000
318.275; -228.300;-1003.000; -738.000
318.412; -122.800; -517.000; -336.000
318.548; -182.900; -751.000; -720.000
318.685; -285.800; -985.000; -888.000
318.821; -216.200; -762.000; -735.000
318.957;  -69.300;   34.000;  -23.000
319.094;  103.200;  297.000;  154.000
319.230; -260.700; -756.000; -742.000
319.367; -156.100; -471.000; -520.000
319.503; -151.300; -538.000; -436.000
319.639; -239.300; -877.000; -793.000
319.775; -257.100; -750.000; -685.000
319.912; -137.100; -424.000; -519.000
320.048; -372.100;-1184.000;-1184.000
320.184;   12.900;   59.000;   70.000
320.321; -141.600; -497.000; -467.000
320.457;  112.300;  475.000;  662.000
320.593; -145.000; -375.000; -382.000
320.729; -200.200; -732.000; -734.000
320.866; -173.300; -577.000; -635.000
321.002; -211.300; -759.000; -809.000
321.138; -109.700; -135.000; -211.000
321.274;  -43.200; -148.000; -115.000
321.410; -183.500; -585.000; -353.000
321.546; -277.600;-1011.000; -911.000
321.683;   32.600;  400.000;  185.000
321.819;  -20.300;  -48.000; -117.000
321.955; -252.100; -743.000; -722.000
322.091; -137.500; -585.000; -540.000
322.227;  -86.400; -382.000; -202.000
322.363;  -99.700; -320.000; -215.000
322.499; -132.000; -343.000; -331.000
322.635;  163.300;  636.000;  443.000
322.771;  -86.100; -139.000;   12.000
322.907;  118.300;  129.000;  327.000
323.043; -100.700; -115.000; -206.000
323.179;  -99.700; -394.000; -363.000
323.315; -118.800; -401.000; -371.000
323.451; -123.700; -328.000; -236.000
323.587;  -73.600;  -60.000;  -77.000
323.723; -205.300; -682.000; -601.000
323.859; -110.300; -258.000;  -76.000
323.995; -121.400; -467.000; -409.000
324.131; -275.800; -967.000; -892.000
324.267;  -68.000; -254.000; -276.000
324.402; -323.100; -960.000; -983.000
324.538;  -68.200; -279.000; -104.000
324.674;  -20.500;  164.000;   77.000
324.810;   32.500;  226.000;  308.000
324.946; -125.600; -810.000; -658.000
325.082; -134.600; -568.000; -475.000
325.217;  -41.800;  -62.000;   16.000
325.353; -203.300; -764.000; -659.000
325.489; -176.800; -540.000; -506.000
325.625; -139.000; -579.000; -525.000
325.760;   34.100;  517.000;  376.000
325.896; -169.200; -515.000; -702.000
326.032; -118.100; -403.000; -352.000
326.168; -122.300; -462.000; -369.000
326.303; -116.000; -352.000; -461.000
326.439;  -89.100; -336.000; -276.000
326.575;  -25.400; -190.000;  -29.000
326.710;  -28.000; -156.000;  -30.000
326.846;  -14.100;  146.000;  103.000
326.982; -159.500; -530.000; -548.000
327.117; -146.800; -481.000; -442.000
327.253; -206.400; -745.000; -742.000
327.388; -323.400;-1137.000;-1153.000
327.524; -178.100; -811.000; -578.000
327.659;  -65.400;  -58.000;  -22.000
327.795;   27.300;   69.000;   45.000
327.931; -210.700; -723.000; -499.000
328.066; -105.200; -417.000; -276.000
328.202;  -60.600;   12.000; -129.000
328.337;  222.400;  957.000;  713.000
328.473;  -19.100;  -12.000;  -74.000
328.608;  -59.500; -256.000; -267.000
328.743; -250.300; -799.000; -664.000
328.879;   58.300;  214.000;  114.000
329.014; -145.600; -102.000; -122.000
329.150; -159.900; -358.000; -483.000
329.285; -185.500; -465.000; -466.000
329.421;  -86.300; -548.000; -246.000
329.556;  -18.400;  -36.000;   85.000
329.691; -187.900; -633.000; -615.000
329.827; -192.300; -626.000; -480.000
329.962;  -61.000;  131.000; -301.000
330.097; -229.300; -673.000; -585.000
330.233;  -87.200; -410.000; -223.000
330.368; -268.800; -839.000; -628.000
330.503;    5.600;    3.000;   98.000
330.638;  -38.100;  -93.000; -125.000
330.774; -203.400; -609.000; -530.000
330.909;  -88.500; -434.000; -244.000
331.044; -202.500; -714.000; -708.000
331.179; -372.200;-1217.000;-1109.000
331.315;   26.200;   77.000;   20.000
331.450;    8.200;  157.000;  285.000
331.585; -177.800; -805.000; -706.000
331.720; -182.800; -510.000; -460.000
331.855;   -5.100;  -35.000; -102.000
331.990;  -35.200;   62.000;  138.000
332.126;   -9.900; -110.000;   71.000
332.261; -134.300; -379.000; -265.000
332.396;  -77.400; -135.000; -242.000
332.531; -331.200;-1074.000;-1031.000
332.666; -113.500; -519.000; -363.000
332.801; -272.900; -726.000; -807.000
332.936;  -47.500; -192.000; -122.000
333.071; -290.500; -870.000; -817.000
333.206;   83.400;  307.000;  379.000
333.341;   33.100;  344.000;  418.000
333.476; -178.000; -627.000; -623.000
333.611;  -65.200; -251.000; -173.000
333.746;  -61.900; -381.000; -464.000
333.881; -274.600; -973.000; -935.000
334.016; -290.100; -936.000; -917.000
334.151; -265.700; -746.000; -702.000
334.286;   34.600;  152.000;  186.000
334.421;  -51.800; -125.000; -178.000
334.556; -180.900; -611.000; -567.000
334.690; -209.300; -631.000; -577.000
334.825;  132.600;  381.000;   83.000
334.960; -157.300; -285.000; -413.000
335.095;  -25.200;  135.000;  -91.000
335.230; -245.100; -722.000; -738.000
335.365; -294.900;-1084.000; -990.000
335.499; -362.800;-1108.000;-1037.000
335.634;  -15.900;    9.000;  534.000
335.769; -268.000; -755.000; -720.000
335.904; -167.400; -603.000; -561.000
336.038; -245.700; -735.000; -657.000
336.173; -351.600;-1206.000;-1194.000
336.308;  -84.900; -116.000; -189.000
336.443; -109.200; -544.000; -634.000
336.577; -264.700; -936.000; -787.000
336.712;   21.500;   -4.000;  -12.000
336.847; -239.700; -724.000; -607.000
336.981; -128.200; -272.000; -208.000
337.116;  113.100;  615.000;  501.000
337.250; -136.900; -434.000; -421.000
337.385; -146.400; -297.000; -208.000
337.520; -216.700; -632.000; -603.000
337.654; -105.200; -215.000; -126.000
337.789; -254.500; -989.000; -933.000
337.923;  -92.300; -104.000; -205.000
338.058; -212.400; -673.000; -738.000
338.192; -198.000; -611.000; -488.000
338.327;  -29.700;  -18.000; -155.000
338.461; -195.700; -299.000; -469.000
338.596; -215.500; -780.000; -638.000
338.730; -276.000; -767.000; -803.000
338.865;  -31.100;  -46.000; -140.000
338.999; -261.900; -846.000; -702.000
339.134; -203.300; -634.000; -536.000
339.268; -238.600; -741.000; -603.000
339.403; -214.400; -740.000; -775.000
339.537; -237.200; -894.000; -820.000
339.671; -259.300; -829.000; -813.000
339.806; -238.600; -556.000; -512.000
339.940;  -37.400; -261.000; -235.000
340.074; -226.500; -685.000; -510.000
340.209;  -70.900; -351.000; -230.000
340.343; -174.700; -517.000; -573.000
340.477;  315.900;  998.000; 1036.000
340.612; -302.200;-1033.000; -900.000
340.746; -112.200; -199.000; -243.000
340.880; -282.100; -924.000; -785.000
341.014;  -40.700;  -45.000; -154.000
341.149; -229.800; -756.000; -718.000
341.283; -216.300; -839.000; -754.000
341.417; -321.000;-1124.000; -938.000
341.551; -230.600; -768.000; -708.000
341.685; -201.000; -633.000; -611.000
341.820; -158.300; -562.000; -493.000
341.954; -167.100; -218.000; -349.000
342.088; -283.600;-1102.000;-1019.000
342.222;   62.400;  565.000;  618.000
342.356; -140.200; -395.000; -335.000
342.490; -288.200; -880.000; -841.000
342.624; -116.800; -339.000; -242.000
342.758; -137.100; -364.000; -312.000
342.892; -209.900; -710.000; -585.000
343.026;  -57.500;  -58.000; -116.000
343.160; -109.200; -426.000; -376.000
343.294; -203.200; -474.000; -337.000
343.428; -142.300; -488.000; -448.000
343.562;  -72.200; -172.000;  -23.000
343.696; -105.800; -385.000; -314.000
343.830; -126.900; -362.000; -356.000
343.964;  -75.200; -231.000; -168.000
344.098;  -28.900;  199.000;   70.000
344.232;  -72.500; -266.000; -127.000
344.366; -230.200; -567.000; -453.000
344.500; -202.700; -665.000; -744.000
344.634; -100.200; -324.000; -164.000
344.768; -138.800; -531.000; -341.000
344.902;   24.400;  278.000;  256.000
345.035; -168.300; -556.000; -496.000
345.169; -297.000; -933.000; -656.000
345.303; -135.400; -308.000; -482.000
345.437; -240.300; -826.000; -717.000
345.571; -198.700; -675.000; -594.000
345.704; -161.400; -309.000; -532.000
345.838;  -85.600; -331.000; -284.000
345.972; -189.800; -543.000; -495.000
346.106;   -3.600; -179.000; -190.000
346.239; -117.200; -312.000; -243.000
346.373;  -95.500; -343.000; -302.000
346.507; -307.700; -950.000; -962.000
346.640;  -25.500;  -30.000;   13.000
346.774; -238.500; -650.000; -797.000
346.908;  -33.700; -138.000;  -11.000
347.041; -226.200; -646.000; -593.000
347.175;    9.300;  259.000;   27.000
347.309; -231.500; -698.000; -628.000
347.442; -242.300; -883.000; -732.000
347.576;  141.600;  670.000;  668.000
347.709;  -38.700; -123.000;  -52.000
347.843; -324.600; -933.000; -825.000
347.976;   76.200;  235.000;  294.000
348.110; -400.700;-1268.000;-1186.000
348.243; -215.900; -679.000; -772.000
348.377;  -24.900;  -26.000;   60.000
348.510;  116.000;  403.000;  540.000
348.644;  -84.500;  -37.000; -159.000
348.777;   27.400;  180.000;  191.000
348.911; -108.000; -142.000; -112.000
349.044;  113.300;  471.000;  448.000
349.178; -344.700;-1069.000;-1006.000
349.311;   48.600;  141.000;  255.000
349.444; -291.200; -927.000; -813.000
349.578;  -99.600; -347.000; -200.000
349.711; -290.700; -959.000; -862.000
349.845; -218.900; -661.000; -591.000
349.978; -386.600;-1224.000;-1137.000
350.111; -182.500; -546.000; -612.000
350.244; -246.300; -596.000; -700.000
350.378; -145.200; -392.000; -393.000
350.511; -174.000; -393.000; -426.000
350.644; -220.300; -808.000; -806.000
350.778;   12.800;  168.000;  104.000
350.911;   13.500;  134.000;  140.000
351.044; -209.500; -685.000; -615.000
351.177;  -75.000; -321.000; -281.000
351.310;  -46.200;    3.000; -131.000
351.444; -256.200; -888.000; -788.000
351.577;   -5.100;  140.000;   90.000
351.710;  170.400;  593.000;  417.000
351.843;  -55.700; -165.000;  -77.000
351.976;   11.700;  149.000;  -79.000
352.109; -219.800; -621.000; -612.000
352.242; -134.300; -464.000; -419.000
352.376; -218.200; -580.000; -636.000
352.509; -133.000; -437.000; -356.000
352.642; -327.000; -654.000; -604.000
352.775;  -44.400; -141.000;  -98.000
352.908; -288.500; -933.000; -904.000
353.041; -249.500; -814.000; -824.000
353.174; -162.100; -551.000; -424.000
353.307; -231.500; -753.000; -764.000
353.440;   84.200;  541.000;  453.000
353.573; -291.700; -957.000;-1008.000
353.706; -178.700; -384.000; -558.000
353.839;  -79.200; -264.000; -220.000
353.971; -183.300; -657.000; -512.000
354.104; -248.700; -896.000; -835.000
354.237; -250.600; -627.000; -662.000
354.370; -215.600; -846.000; -879.000
354.503; -405.600;-1231.000;-1308.000
354.636; -100.500; -529.000; -348.000
354.769; -315.400; -937.000; -860.000
354.902;  -82.900; -230.000; -139.000
355.034;  -81.500; -164.000; -220.000
355.167;  -69.900; -262.000; -162.000
355.300; -331.000;-1061.000; -880.000
355.433;  -15.900;  -71.000;  -14.000
355.565; -149.800; -402.000; -384.000
355.698;  -86.900; -356.000; -296.000
355.831; -271.400; -882.000; -801.000
355.964;  -75.200; -285.000; -170.000
356.096; -284.400; -856.000; -843.000
356.229; -130.700; -523.000; -530.000
356.362; -133.800; -373.000; -266.000
356.494;  -54.100; -229.000; -162.000
356.627;   42.500;  269.000;  377.000
356.760;  -12.700;  120.000;   53.000
356.892; -243.900; -286.000; -601.000
357.025;  136.500;  403.000;  389.000
357.157;  -91.500; -167.000; -179.000
357.290; -261.200; -856.000; -713.000
357.423; -224.400; -667.000; -556.000
357.555;  -54.600; -217.000; -228.000
357.688; -184.500; -483.000; -364.000
357.820; -267.000; -870.000; -877.000
357.953; -207.900; -563.000; -589.000
358.085; -204.000; -632.000; -612.000
358.218; -314.600;-1131.000; -932.000
358.350;    0.100;  -58.000;  312.000
358.483; -374.400;-1300.000;-1187.000
358.615; -320.800;-1182.000;-1078.000
358.747; -398.600;-1187.000;-1058.000
358.880; -225.100; -810.000; -744.000
359.012; -133.400; -376.000; -202.000
359.145; -157.800; -480.000; -511.000
359.277; -331.100; -962.000; -913.000
359.409;  120.000;  536.000;  231.000
359.542; -260.900; -738.000; -688.000
359.674;  -40.200;   46.000;   13.000
359.806; -184.300; -565.000; -438.000
359.939; -131.500; -617.000; -516.000
360.071; -232.700; -583.000; -579.000
360.203; -124.000; -411.000; -364.000
360.335;  -45.400;  164.000;  -16.000
360.468;  -79.000; -249.000; -307.000
360.600; -182.000; -547.000; -454.000
360.732; -171.900; -546.000; -423.000
360.864; -363.000;-1216.000;-1044.000
360.996; -112.800; -516.000; -554.000
361.129; -186.500; -389.000; -598.000
361.261;  -40.700;  110.000; -113.000
361.393;  -80.100; -252.000; -214.000
361.525;   19.500;   94.000;  244.000
361.657; -253.000; -821.000; -703.000
361.789;  -64.800; -139.000; -155.000
361.921; -215.100; -642.000; -593.000
362.053;  120.300;  524.000;  541.000
362.185;   18.100;  288.000;   72.000
362.318; -262.100; -709.000; -705.000
362.450;   67.400;  294.000;  444.000
362.582; -288.000; -913.000; -870.000
362.714; -126.800; -353.000; -332.000
362.846; -177.100; -606.000; -490.000
362.978; -291.000; -941.000; -811.000
363.109;  -98.000; -161.000; -260.000
363.241; -258.000; -739.000; -749.000
363.373; -200.400; -649.000; -564.000
363.505;  -58.300; -186.000;  -91.000
363.637; -182.800; -787.000; -601.000
363.769; -360.700;-1067.000;-1080.000
363.901; -171.300; -596.000; -654.000
364.033; -350.300;-1103.000;-1062.000
364.165;  -65.800; -283.000; -283.000
364.296; -131.400; -316.000; -177.000
364.428; -370.500;-1344.000;-1220.000
364.560; -191.000; -679.000; -661.000
364.692; -191.600; -738.000; -835.000
364.824; -185.300; -588.000; -456.000
364.955; -104.400; -402.000; -564.000
365.087; -334.000;-1097.000; -852.000
365.219; -210.500; -686.000; -816.000
365.351; -227.400; -526.000; -572.000
365.482;   22.000;  300.000;  240.000
365.614; -128.000; -402.000; -314.000
365.746; -214.600; -729.000; -752.000
365.877; -265.500; -706.000; -672.000
366.009;  -18.300;  -35.000;  -62.000
366.141; -371.800;-1249.000;-1134.000
366.272; -207.900; -803.000; -719.000
366.404; -290.400;-1005.000; -874.000
366.535;  -29.500; -139.000;  -12.000
366.667; -243.800; -644.000; -649.000
366.799;   63.500;  353.000;  203.000
366.930; -284.200; -862.000; -996.000
367.062; -180.600; -639.000; -613.000
367.193; -273.400; -872.000; -842.000
367.325; -178.300; -580.000; -684.000
367.456; -121.900; -246.000;   31.000
367.588; -105.900; -371.000; -318.000
367.719;  -80.100;  -44.000;  -45.000
367.851;  -80.500; -222.000; -241.000
367.982; -280.700; -875.000; -732.000
368.113; -106.900; -475.000; -358.000
368.245; -339.300; -960.000; -841.000
368.376; -100.500; -254.000; -302.000
368.508;  -85.200; -188.000; -263.000
368.639; -334.100;-1166.000;-1034.000
368.770; -224.400; -670.000; -589.000
368.902; -266.000; -836.000; -926.000
369.033; -303.900; -906.000; -855.000
369.164; -187.700; -720.000; -653.000
369.296; -255.000; -452.000; -601.000
369.427;  -76.400; -209.000; -144.000
369.558; -171.000; -593.000; -377.000
369.689; -225.400; -721.000; -569.000
369.821; -312.200; -951.000; -845.000
369.952;  -21.900;   42.000; -108.000
370.083; -130.000; -229.000; -108.000
370.214; -208.600; -735.000; -650.000
370.345;  -27.400;   65.000;   81.000
370.477; -269.600; -810.000; -790.000
370.608; -134.900; -328.000; -264.000
370.739; -351.500;-1233.000;-1292.000
370.870; -296.900;-1102.000; -923.000
371.001; -109.500; -378.000; -467.000
371.132; -252.300; -754.000; -735.000
371.263;  -56.300;  -42.000; -148.000
371.394; -291.400; -841.000; -748.000
371.525;   54.300;  345.000;  225.000
371.657; -254.400; -808.000; -670.000
371.788;   15.500;  103.000;  199.000
371.919; -117.900; -384.000; -304.000
372.050;  -28.200;  -91.000; -156.000
372.181;  -56.300; -188.000; -294.000
372.311;   -5.800;   42.000; -127.000
372.442; -170.800; -457.000; -451.000
372.573; -107.300; -444.000; -340.000
372.704; -304.500;-1008.000; -980.000
372.835; -103.200; -228.000; -289.000
372.966; -208.500; -646.000; -554.000
373.097; -229.500; -575.000; -711.000
373.228; -194.200; -717.000; -542.000
373.359; -227.700; -824.000; -536.000
373.490; -260.600; -881.000; -727.000
373.620; -290.200;-1001.000; -803.000
373.751; -161.800; -332.000; -396.000
373.882; -221.100; -663.000; -733.000
374.013; -102.700; -449.000; -262.000
374.143; -189.500; -581.000; -659.000
374.274; -325.400; -987.000; -908.000
374.405;  -88.900; -388.000; -276.000
374.536; -164.800; -526.000; -387.000
374.666; -227.800; -759.000; -807.000
374.797; -277.700; -817.000; -868.000
374.928; -208.900; -710.000; -560.000
375.058; -182.700; -535.000; -500.000
375.189;  -60.000;  -59.000;  -93.000
375.320; -329.100; -928.000;-1034.000
375.450; -201.300; -625.000; -616.000
375.581; -190.800; -526.000; -436.000
375.712; -113.900; -574.000; -250.000
375.842; -178.700; -438.000; -415.000
375.973; -196.300; -554.000; -513.000
376.103; -270.100; -665.000; -648.000
376.234; -201.500; -531.000; -552.000
376.364; -295.600; -944.000; -867.000
376.495;  240.900;  925.000;  529.000
376.625; -194.200; -472.000; -485.000
376.756; -214.400; -709.000; -678.000
376.886; -365.200;-1178.000;-1026.000
377.017; -315.600;-1048.000;-1061.000
377.147; -299.600; -786.000; -782.000
377.278;   64.900;  174.000;  228.000
377.408; -277.200; -801.000; -815.000
377.538; -200.500; -707.000; -693.000
377.669; -223.900; -537.000; -613.000
377.799; -220.000; -645.000; -635.000
377.929; -200.600; -610.000; -428.000
378.060; -251.400; -781.000; -847.000
378.190; -252.700; -726.000; -531.000
378.320; -169.700; -401.000; -406.000
378.451;  -66.100; -131.000;  -22.000
378.581;  -37.900;  -67.000; -110.000
378.711;  204.900; 1035.000;  866.000
378.841; -181.200; -533.000; -675.000
378.972; -312.500; -871.000; -751.000
379.102; -183.500; -652.000; -579.000
379.232; -115.600; -126.000;  -73.000
379.362; -288.700;-1001.000; -885.000
379.492; -166.800; -373.000; -424.000
379.623;   47.500;    0.000;  111.000
379.753; -329.600;-1107.000; -974.000
379.883;   50.300;   59.000;  156.000
380.013; -343.700;-1081.000;-1017.000
380.143; -336.200;-1097.000;-1056.000
380.273; -333.100; -985.000; -861.000
380.403; -100.400; -344.000; -257.000
380.533; -287.700; -651.000; -664.000
380.663;   40.500;  173.000;  128.000
380.793; -376.600;-1027.000;-1074.000
380.923;  -82.200; -103.000;  -34.000
381.053; -238.200; -613.000; -623.000
381.183;  -84.000; -106.000; -248.000
381.313; -224.200; -656.000; -470.000
381.443; -175.900; -692.000; -473.000
381.573; -231.300; -402.000; -409.000
381.703; -373.400;-1249.000;-1095.000
381.833; -437.300;-1454.000;-1336.000
381.963;   -6.500; -134.000;  -87.000
382.093; -332.900; -925.000; -909.000
382.223; -201.300; -713.000; -602.000
382.353; -231.200; -801.000; -608.000
382.482; -306.600;-1091.000; -964.000
382.612; -284.200; -872.000; -644.000
382.742; -196.000; -695.000; -622.000
382.872; -168.700; -565.000; -551.000
383.002;   15.700;  347.000; -132.000
383.131; -115.100; -226.000; -160.000
383.261; -221.000; -706.000; -768.000
383.391; -198.600; -552.000; -377.000
383.521;   78.300;  451.000;  263.000
383.650; -314.900; -947.000; -904.000
383.780; -188.000; -783.000; -656.000
383.910;  172.000;  880.000;  802.000
384.039; -226.700; -794.000; -656.000
384.169; -375.100;-1205.000;-1017.000
384.299; -188.600; -650.000; -662.000
384.428; -253.400; -764.000; -680.000
384.558; -118.900; -308.000; -275.000
384.687; -159.100; -414.000; -334.000
384.817;   -6.500;   75.000;   -2.000
384.947;  -75.800; -234.000; -141.000
385.076;  267.500;  982.000;  912.000
385.206;   70.600;  369.000;  480.000
385.335; -149.600; -549.000; -417.000
385.465; -241.200; -655.000; -663.000
385.594;  -21.900;  -53.000;  -44.000
385.724; -304.600; -868.000; -838.000
385.853; -103.600; -296.000; -270.000
385.982; -294.400; -743.000; -787.000
386.112; -291.800;-1052.000; -871.000
386.241; -132.200; -307.000; -312.000
386.371; -133.700; -174.000;  -87.000
386.500; -293.800; -825.000; -789.000
386.629; -255.300; -874.000; -817.000
386.759;  -31.000;  -43.000;   68.000
386.888;  -71.500; -170.000; -250.000
387.017; -229.000; -648.000; -620.000
387.147; -230.700; -771.000; -798.000
387.276; -159.800; -410.000; -397.000
387.405; -100.900; -398.000; -342.000
387.535; -150.200; -452.000; -361.000
387.664; -196.200; -692.000; -620.000
387.793;  -95.600; -198.000; -113.000
387.922;   49.900;  255.000;  200.000
388.052; -189.400; -576.000; -423.000
388.181; -133.900; -342.000; -472.000
388.310; -255.000; -889.000; -710.000
388.439; -265.800; -749.000; -742.000
388.568;  -10.900;  365.000;  244.000
388.697; -204.100; -756.000; -653.000
388.826; -228.800; -768.000; -666.000
388.956;  -92.500; -285.000; -307.000
389.085; -138.100; -347.000; -287.000
389.214; -248.800; -842.000; -872.000
389.343; -250.700; -645.000; -413.000
389.472;   64.400;  126.000;  149.000
389.601;    1.600;   91.000;    0.000
389.730; -155.000; -568.000; -687.000
389.859;   42.400;  226.000;   46.000
389.988; -125.600; -423.000; -408.000
390.117; -122.600; -168.000; -146.000
390.246; -124.600; -331.000; -320.000
390.375; -216.000; -673.000; -626.000
390.504; -217.900; -703.000; -621.000
390.633; -275.600; -672.000; -726.000
390.761; -238.200; -732.000; -645.000
390.890;  -83.300;   -4.000; -130.000
391.019; -134.800; -421.000; -441.000
391.148; -310.000; -826.000; -855.000
391.277; -174.100; -576.000; -493.000
391.406; -278.300; -821.000; -805.000
391.534;   53.800;  574.000; -301.000
391.663; -212.300; -583.000; -645.000
391.792; -205.100; -673.000; -701.000
391.921;   -3.300;   -3.000;   15.000
392.050; -122.900; -287.000; -228.000
392.178; -366.300;-1206.000;-1061.000
392.307; -249.000; -758.000; -712.000
392.436; -245.900; -427.000; -641.000
392.564;  -23.400;  166.000;   -6.000
392.693; -289.900; -860.000; -682.000
392.822; -186.500; -529.000; -534.000
392.950; -243.700; -880.000; -714.000
393.079; -124.300; -188.000; -328.000
393.208; -204.300; -488.000; -511.000
393.336;  -60.600; -170.000; -145.000
393.465;  -90.300; -317.000; -199.000
393.593;    4.100;   62.000;   79.000
393.722; -346.500;-1121.000; -916.000
393.850;  -54.700; -188.000;  -61.000
393.979; -324.300; -926.000; -805.000
394.107; -166.300; -517.000; -537.000
394.236; -174.000; -570.000; -507.000
394.364;   54.300;  383.000;  206.000
394.493; -270.500; -911.000; -767.000
394.621; -272.700; -955.000; -916.000
394.750; -302.800; -873.000; -923.000
394.878;  -73.900; -247.000; -149.000
395.007; -253.500; -721.000; -807.000
395.135; -215.000; -790.000; -721.000
395.263; -332.500;-1038.000;-1040.000
395.392;  -14.200;  -25.000; -107.000
395.520; -292.400; -818.000; -679.000
395.648; -306.300; -865.000; -915.000
395.777; -156.400; -366.000; -405.000
395.905; -195.700; -449.000; -564.000
396.033;  -40.900;  217.000;  172.000
396.162; -117.000; -399.000; -453.000
396.290;  -20.700;  -17.000;   -2.000
396.418; -194.500; -555.000; -514.000
396.546; -273.600; -571.000; -466.000
396.674; -260.300; -850.000; -878.000
396.803;  -64.300;  -72.000;  -23.000
396.931;  -60.500; -179.000; -199.000
397.059; -345.800;-1026.000; -989.000
397.187; -293.700;-1026.000; -975.000
397.315; -315.900; -884.000; -649.000
397.443; -177.400; -592.000; -443.000
397.572; -218.200; -578.000; -424.000
397.700; -234.300; -607.000; -614.000
397.828;  -87.900;  120.000;  -90.000
397.956; -154.100; -508.000; -478.000
398.084; -229.300; -767.000; -626.000
398.212;   16.200;  137.000;  124.000
398.340;  -47.300;  -56.000;  159.000
398.468; -110.900; -390.000; -169.000
398.596; -317.700; -993.000; -953.000
398.724; -266.000; -762.000; -767.000
398.852; -317.900;-1024.000; -976.000
398.980; -172.700; -560.000; -560.000
399.108; -249.100; -982.000; -735.000
399.236;   25.100;   13.000;    8.000
399.363;    8.100;  222.000;  196.000
399.491; -145.300; -404.000; -398.000
399.619; -279.500; -829.000; -800.000
399.747; -288.400; -859.000; -771.000
399.875;   16.600;  220.000;  234.000
400.003; -110.700; -359.000; -284.000
400.130; -190.300; -421.000; -341.000
400.258;  -24.700;  -83.000;   38.000
400.386; -110.200; -352.000; -168.000
400.514; -169.100; -526.000; -587.000
400.641; -337.200; -928.000; -802.000
400.769; -269.000; -979.000; -888.000
400.897; -269.500; -838.000; -793.000
401.025;  -55.800; -166.000; -152.000
401.152;   15.100;  220.000;   38.000
401.280; -153.100; -430.000; -429.000
401.408; -267.000; -712.000; -576.000
401.535; -218.400; -735.000; -758.000
401.663; -394.100;-1134.000;-1054.000
401.790; -180.100; -514.000; -525.000
401.918;   86.600;  436.000;  405.000
402.046;  -21.700;  134.000;  122.000
402.173;  -68.500;  -18.000;    7.000
402.301; -161.500; -519.000; -397.000
402.428;   58.500;  528.000;  383.000
402.556; -329.000;-1188.000; -913.000
402.683; -125.200;  -20.000;   -1.000
402.811;  -31.100;  -37.000; -206.000
402.938;  -28.800;   20.000;   27.000
403.066; -185.200; -574.000; -558.000
403.193;   -4.400;  299.000;  239.000
403.321; -191.300; -396.000; -574.000
403.448;   -6.600;   83.000;   27.000
403.575;   -0.700;  -90.000;  -46.000
403.703; -290.300; -732.000; -557.000
403.830; -154.300; -531.000; -496.000
403.957; -357.400;-1117.000;-1023.000
404.085;  -81.900;  -61.000; -172.000
404.212;   -5.700;  -50.000;   63.000
404.339; -140.000; -566.000; -306.000
404.467; -169.300; -612.000; -524.000
404.594;  -97.600; -287.000; -227.000
404.721; -276.700; -869.000; -764.000
404.848;  -23.500; -113.000; -202.000
404.976; -315.300; -856.000; -783.000
405.103;   -6.800;  -14.000;  -82.000
405.230;    3.900;  190.000;  226.000
405.357;    7.800;  117.000;   44.000
405.484;  -50.400;  -49.000;    5.000
405.612; -149.700; -548.000; -563.000
405.739; -160.100; -488.000; -243.000
405.866;  136.700;  669.000;  385.000
405.993;  -92.000; -398.000; -102.000
406.120; -287.200; -801.000; -887.000
406.247; -189.900; -323.000; -342.000
406.374;  123.800;  540.000;  629.000
406.501; -259.700; -632.000; -702.000
406.628; -191.400; -621.000; -589.000
406.755; -256.800; -803.000; -620.000
406.882;  -86.500; -228.000; -277.000
407.009; -202.300; -719.000; -628.000
407.136; -124.300; -480.000; -401.000
407.263; -333.500; -939.000; -829.000
407.390; -201.400; -692.000; -614.000
407.517; -372.800;-1139.000;-1187.000
407.644; -116.500; -332.000; -256.000
407.771; -157.600; -249.000; -287.000
407.898;   38.800;  168.000;  328.000
408.025; -150.100; -421.000; -313.000
408.151;  -18.600;   82.000;  153.000
408.278; -157.900; -267.000; -216.000
408.405; -254.500; -931.000; -899.000
408.532; -213.400; -549.000; -542.000
408.659; -236.800; -677.000; -648.000
408.785; -396.800;-1298.000;-1170.000
408.912;  -74.400; -412.000; -296.000
409.039; -220.300; -610.000; -686.000
409.166; -177.500; -591.000; -555.000
409.292; -202.800; -571.000; -534.000
409.419; -249.400; -665.000; -649.000
409.546; -151.100; -431.000; -192.000
409.672; -216.500; -713.000; -545.000
409.799;  -39.400;  -36.000;   34.000
409.926; -122.600; -180.000; -179.000
410.052; -379.100;-1127.000;-1091.000
410.179; -109.000; -368.000; -392.000
410.305; -178.200; -375.000; -493.000
410.432;  -72.300; -220.000; -333.000
410.558; -172.300; -305.000; -380.000
410.685; -198.300; -688.000; -431.000
410.812; -201.900; -409.000; -588.000
410.938; -245.500; -964.000; -808.000
411.065; -242.800; -671.000; -645.000
411.191;  -44.300; -189.000; -174.000
411.317; -297.100; -823.000; -742.000
411.444;  -86.200; -317.000; -246.000
411.570; -143.000; -339.000; -294.000
411.697; -232.900; -758.000; -752.000
411.823; -339.200; -989.000; -999.000
411.949;  -77.800;  -56.000;   17.000
412.076; -235.900; -539.000; -519.000
412.202; -262.600; -758.000; -757.000
412.329; -294.500; -798.000; -752.000
412.455; -218.400; -821.000; -657.000
412.581;  -43.100;  -15.000;  172.000
412.707; -168.400; -540.000; -457.000
412.834;   27.900;  156.000;  219.000
412.960; -240.900; -785.000; -784.000
413.086; -267.500; -743.000; -701.000
413.212;  129.700;  604.000;  578.000
413.339; -248.600; -685.000; -701.000
413.465; -160.000; -364.000; -310.000
413.591; -249.300; -757.000; -474.000
413.717; -146.100; -358.000; -366.000
413.843; -340.200; -839.000; -861.000
413.969; -110.300;  -47.000; -292.000
414.096; -222.700; -679.000; -679.000
414.222;  -27.500;  -33.000;   85.000
414.348; -220.000; -652.000; -385.000
414.474;  -25.100;   38.000;  -52.000
414.600;  -76.500; -126.000; -144.000
414.726;  -74.300;  -96.000;  -55.000
414.852; -175.500; -365.000; -342.000
414.978;   -3.300;  104.000;  -18.000
415.104;  -44.800;   38.000;   80.000
415.230; -160.600; -329.000; -330.000
415.356; -198.400; -409.000; -514.000
415.482;  -40.800;   13.000;  -35.000
415.608; -125.800; -247.000; -323.000
415.734;    1.500;   67.000;   38.000
415.860; -283.400; -875.000; -767.000
415.986; -254.300; -685.000; -607.000
416.111; -273.600; -798.000; -652.000
416.237; -176.200; -424.000; -571.000
416.363; -260.500; -765.000; -733.000
416.489; -103.800; -324.000; -251.000
416.615; -275.100; -707.000; -742.000
416.741; -221.100; -677.000; -784.000
416.866; -246.900; -673.000; -736.000
416.992; -287.000; -801.000; -818.000
417.118; -109.000;  -41.000;  -80.000
417.244; -251.900; -798.000; -531.000
417.369; -269.700; -801.000; -612.000
417.495; -107.600; -325.000; -254.000
417.621; -351.700;-1015.000; -803.000
417.746; -167.100; -579.000; -572.000
417.872;  -76.400; -254.000; -144.000
417.998; -192.400; -515.000; -530.000
418.123; -337.200;-1073.000; -845.000
418.249; -208.100; -512.000; -601.000
418.374; -297.300; -916.000; -824.000
418.500; -154.200; -383.000; -482.000
418.626;  -15.700;   70.000;  -59.000
418.751; -164.800; -549.000; -448.000
418.877; -254.600; -637.000; -643.000
419.002; -171.500; -688.000; -560.000
419.128; -285.500; -930.000; -721.000
419.253; -299.300; -967.000; -837.000
419.379; -201.600; -391.000; -338.000
419.504;   85.900;  325.000;  415.000
419.629; -147.400; -393.000; -212.000
419.755; -125.800; -317.000; -254.000
419.880; -118.800;  -98.000;   67.000
420.006;  -96.100; -280.000; -221.000
420.131; -247.800; -662.000; -775.000
420.256; -120.100; -315.000; -316.000
420.382; -220.100; -665.000; -687.000
420.507; -233.100; -649.000; -778.000
420.632; -148.700; -337.000; -339.000
420.758; -113.400; -251.000; -425.000
420.883; -269.000; -876.000; -672.000
421.008; -240.600; -775.000; -619.000
421.133; -204.400; -509.000; -467.000
421.259; -103.900; -325.000; -259.000
421.384; -273.300; -834.000; -693.000
421.509; -283.400;-1052.000; -862.000
421.634; -317.900; -936.000; -820.000
421.759; -149.900; -359.000; -327.000
421.885; -227.000; -717.000; -656.000
422.010; -196.800; -673.000; -542.000
422.135; -297.400; -695.000; -727.000
422.260;   44.100;  340.000;  280.000
422.385; -128.200;   12.000;  -98.000
422.510;    1.500;  151.000;  -26.000
422.635;  -60.400;  -87.000;  -43.000
422.760; -232.800; -766.000; -791.000
422.885;  -11.700;  -57.000;  -80.000
423.010;  -57.600; -112.000; -169.000
423.135; -226.300; -481.000; -561.000
423.260;  -93.800; -150.000; -245.000
423.385;   30.700;  476.000;  222.000
423.510;    8.000;   71.000;  -22.000
423.635;  -24.600;  133.000;   45.000
423.760;   64.200;  383.000;  328.000
423.885;   13.300;  336.000;  391.000
424.010;  -41.000;  -68.000;  -13.000
424.135;  -62.600;    5.000;  -33.000
424.259; -175.900; -654.000; -457.000
424.384; -161.900; -279.000; -272.000
424.509;  -93.100; -260.000; -186.000
424.634; -281.300; -761.000; -623.000
424.759; -190.800; -688.000; -544.000
424.883; -214.600; -506.000; -527.000
425.008; -188.400; -502.000; -410.000
425.133; -262.700; -679.000; -653.000
425.258; -206.600; -517.000; -381.000
425.382; -253.000; -867.000; -774.000
425.507; -216.700; -487.000; -543.000
425.632; -290.100; -802.000; -663.000
425.756; -137.900; -256.000; -146.000
425.881; -312.200; -831.000; -857.000
426.006; -154.600; -604.000; -355.000
426.130; -257.400; -696.000; -508.000
426.255; -188.200; -611.000; -491.000
426.379; -105.500; -189.000; -577.000
426.504;  139.000;  660.000;  544.000
426.629; -223.600; -519.000; -466.000
426.753;   -2.300;   64.000;  -46.000
426.878; -134.100; -252.000; -288.000
427.002; -192.100; -651.000; -668.000
427.127; -107.200;  -35.000; -158.000
427.251;   67.000;  372.000;  401.000
427.375; -157.100; -191.000; -173.000
427.500; -221.200; -616.000; -610.000
427.624; -141.800; -234.000; -400.000
427.749;  -98.800; -216.000; -225.000
427.873; -183.400; -499.000; -412.000
427.997;  -76.900; -222.000; -230.000
428.122;  137.300;  795.000;  703.000
428.246;   75.700;  433.000;  434.000
428.371; -295.800; -869.000; -773.000
428.495; -247.000; -624.000; -646.000
428.619; -125.000; -186.000; -117.000
428.743;   11.000;   65.000;  132.000
428.868; -257.600; -732.000; -643.000
428.992; -139.900; -219.000; -326.000
429.116; -159.600; -329.000; -357.000
429.240;   59.900;  419.000;  426.000
429.365; -201.100; -454.000; -574.000
429.489; -216.900; -638.000; -647.000
429.613; -112.000; -236.000; -177.000
429.737; -192.600; -563.000; -432.000
429.861; -148.400; -247.000; -133.000
429.985; -158.600; -425.000; -305.000
430.109; -326.900; -770.000; -908.000
430.234;   -6.900;   76.000;  -50.000
430.358; -153.700; -250.000; -160.000
430.482; -238.200; -672.000; -564.000
430.606; -209.300; -655.000; -375.000
430.730; -160.200; -437.000; -388.000
430.854; -323.000; -909.000; -835.000
430.978; -243.800; -795.000; -764.000
431.102; -217.800; -499.000; -422.000
431.226; -262.400; -874.000; -815.000
431.350;    5.400;  345.000;  422.000
431.474; -153.700; -661.000; -373.000
431.597; -361.100;-1060.000; -848.000
431.721; -114.200; -276.000; -267.000
431.845; -275.900; -704.000; -472.000
431.969; -141.000; -304.000; -349.000
432.093; -170.700; -395.000; -317.000
432.217;  -13.200;   32.000;   82.000
432.341; -210.200; -523.000; -518.000
432.464;  -34.400;   96.000;   40.000
432.588; -188.600; -401.000; -329.000
432.712;  -74.100;  -52.000;  -52.000
432.836;  -27.600;  213.000;  263.000
432.959; -139.000; -372.000; -311.000
433.083;  -84.000;   11.000;    2.000
433.207;   94.800;  285.000;  930.000
433.330; -109.700; -391.000; -200.000
433.454; -211.600; -654.000; -638.000
433.578;   76.500;  583.000;  278.000
433.701; -246.800; -623.000; -675.000
433.825; -195.900; -292.000; -299.000
433.949;  -72.700;   28.000;  -72.000
434.072; -163.500; -410.000; -323.000
434.196; -106.800; -309.000; -117.000
434.319; 7711.600;25482.000;25124.000
434.443; -232.700; -656.000; -603.000
434.566;  -36.100;  281.000;   62.000
434.690; -218.400; -637.000; -383.000
434.813; -157.200; -251.000; -173.000
434.937; -219.000; -569.000; -696.000
435.060; -186.900; -423.000; -332.000
435.184; -158.200; -492.000; -217.000
435.307;  -26.500;  159.000;  102.000
435.431;  -23.600;  -40.000;   24.000
435.554; -154.300; -399.000; -240.000
435.677; -152.700; -350.000; -258.000
435.801;  -87.000;  -25.000;   49.000
435.924;  -56.900;    1.000;  -67.000
436.048; -334.200;-1019.000; -732.000
436.171; -101.100; -240.000;  -66.000
436.294; -132.600; -248.000; -229.000
436.417; -322.600; -963.000; -849.000
436.541; -289.000; -814.000; -840.000
436.664; -118.700; -242.000; -316.000
436.787;    3.200;   13.000;  113.000
436.910; -228.600; -792.000; -422.000
437.034;  -21.800;  142.000;  143.000
437.157;  -25.500;  -11.000;    0.000
437.280; -207.800; -392.000; -292.000
437.403; -306.500; -982.000; -869.000
437.526; -330.400; -903.000; -865.000
437.649; -189.800; -505.000; -332.000
437.772; -245.600; -692.000; -540.000
437.896;  128.300;  700.000;  544.000
438.019; -256.200; -758.000; -503.000
438.142; -182.200; -596.000; -506.000
438.265; -221.200; -639.000; -670.000
438.388; -160.100; -520.000; -410.000
438.511; -201.500; -597.000; -394.000
438.634; -144.100; -247.000; -125.000
438.757; -299.600; -693.000; -619.000
438.880;  -53.200;  -34.000;  -57.000
439.003; -208.000; -417.000; -437.000
439.126; -111.700; -287.000; -167.000
439.248; -110.200;  -98.000; -139.000
439.371;  -48.800;    9.000;  -53.000
439.494;   83.300;  510.000;  439.000
439.617;  -59.500;   65.000;  -88.000
439.740; -329.600; -968.000; -816.000
439.863; -238.400; -755.000; -595.000
439.986; -214.100; -476.000; -431.000
440.108;  -73.400; -161.000; -112.000
440.231; -366.400; -950.000; -836.000
440.354;  -90.500;  -64.000; -150.000
440.477; -267.000; -566.000; -542.000
440.599; -180.400; -200.000; -225.000
440.722; -247.300; -709.000; -586.000
440.845;  188.900;  751.000;  928.000
440.968; -197.800; -415.000; -311.000
441.090;  -85.200; -199.000;  -33.000
441.213; -323.600;-1021.000; -825.000
441.336;  -71.800; -159.000;   -5.000
441.458; -159.800; -549.000; -396.000
441.581; -261.800; -628.000; -629.000
441.703; -117.800; -152.000;   13.000
441.826; -216.600; -557.000; -400.000
441.948;  -40.700;   56.000;   51.000
442.071;  127.900;  555.000;  424.000
442.193; -188.900; -531.000; -485.000
442.316;  -27.600;  152.000;   97.000
442.438; -128.100; -233.000;  -10.000
442.561;   67.400;  272.000;  262.000
442.683; -265.500; -809.000; -522.000
442.806;  -49.500;   -8.000;   74.000
442.928; -316.500; -859.000; -604.000
443.051; -191.700; -577.000; -373.000
443.173; -176.100; -341.000; -339.000
443.295; -168.500; -263.000; -371.000
443.418; -168.100; -321.000;  -29.000
443.540;  -51.800; -106.000;   -4.000
443.662; -246.100; -563.000; -465.000
443.785;   21.200;  335.000;  199.000
443.907; -179.000; -362.000; -208.000
444.029; -240.700; -767.000; -494.000
444.152; -250.900; -644.000; -554.000
444.274;  -43.100;  -18.000;  -24.000
444.396; -240.500; -461.000; -221.000
444.518; -216.300; -691.000; -454.000
444.640; -215.400; -268.000; -111.000
444.763;   10.000;  388.000;  249.000
444.885; -212.400; -432.000; -392.000
445.007;  -52.000;   35.000;   86.000
445.129; -237.300; -610.000; -515.000
445.251; -197.400; -372.000; -439.000
445.373; -273.000; -537.000; -386.000
445.495;   48.700;  242.000;  350.000
445.617;  133.600;  853.000;  753.000
445.739;  -92.100; -215.000;  -97.000
445.861; -112.700; -245.000; -112.000
445.984; -101.900; -267.000; -101.000
446.105; -189.700; -418.000; -251.000
446.227;  -65.200; -176.000;  -19.000
446.349; -212.700; -358.000; -249.000
446.471; -218.000; -615.000; -448.000
446.593; -198.900; -316.000;   19.000
446.715;  -40.100;  -67.000;   41.000
446.837;  132.800;  697.000;  832.000
446.959; -186.400; -457.000; -478.000
447.081; -272.100; -628.000; -518.000
447.203;  154.500;  862.000;  834.000
447.325; -133.000; -270.000;   42.000
447.446;   34.600;  286.000;  530.000
447.568; -336.200; -921.000; -803.000
447.690; -161.300; -236.000; -245.000
447.812; -275.000; -798.000; -519.000
447.933;   -3.100;  155.000;  127.000
448.055; -123.100; -306.000; -261.000
448.177;  -21.300;   31.000;   79.000
448.299; -346.900; -935.000; -727.000
448.420;  -33.000;  -25.000;  159.000
448.542; -108.900;   -3.000;   33.000
448.664;   -2.400;  109.000;  322.000
448.785;  -54.500;  265.000;   83.000
448.907; -220.200; -614.000; -353.000
449.028; -261.500; -771.000; -471.000
449.150;  119.400;  492.000;  589.000
449.272; -362.200;-1044.000; -913.000
449.393;  119.100;  612.000;  694.000
449.515; -287.500; -634.000; -581.000
449.636;  -99.800; -264.000; -155.000
449.758;  115.100;  763.000;  622.000
449.879; -187.800; -498.000; -396.000
450.001; -118.900; -149.000;  -49.000
450.122;  -49.600;  -95.000;  162.000
450.244;  -44.000;   37.000;  364.000
450.365; -180.200; -495.000; -301.000
450.486; -102.500;   80.000;  268.000
450.608;   11.000;  393.000;  326.000
450.729;   74.700;  578.000;  645.000
450.850; -228.600; -574.000; -466.000
450.972; -262.700; -552.000; -389.000
451.093;   34.200;  190.000;  588.000
451.214; -221.500; -516.000; -337.000
451.336;   75.800;  773.000;  579.000
451.457;   12.800;  264.000;  393.000
451.578;  -95.400; -118.000;  -74.000
451.699; -243.000; -546.000; -540.000
451.821;  -94.800; -284.000;  -50.000
451.942;    8.900;  278.000;  285.000
452.063;   28.300;  228.000;  419.000
452.184; -103.400;  -54.000;  -49.000
452.305;  -11.300;  103.000;  170.000
452.427; -206.900; -549.000; -301.000
452.548;  -97.200;   23.000;   79.000
452.669; -119.800; -257.000;  -89.000
452.790;  -89.000;    3.000;  -18.000
452.911;  -27.500;  195.000;  259.000
453.032; -129.000; -289.000;  -60.000
453.153;  -87.400;  -29.000;   81.000
453.274;  175.100;  737.000;  868.000
453.395; -127.400;  -51.000;  175.000
453.516;  263.400; 1317.000; 1388.000
453.637; -147.000; -205.000; -150.000
453.758;  -75.400;   15.000;   69.000
453.879; -230.400; -462.000; -250.000
454.000;  228.200; 1086.000;  948.000
454.121; -269.900; -554.000; -326.000
454.242; -224.800; -599.000; -383.000
454.362; -105.900;  -99.000;  114.000
454.483; -130.300; -309.000; -229.000
454.604;   34.400;  512.000;  580.000
454.725; -249.200; -627.000; -555.000
454.846; -224.900; -474.000; -406.000
454.967;   29.100;  230.000;  539.000
455.087;  -70.500;  179.000;  153.000
455.208;   94.700;  554.000;  856.000
455.329;  -99.000;  -22.000;   82.000
455.450;   44.400;  473.000;  633.000
455.570; -148.400; -234.000; -211.000
455.691;  -29.300;  201.000;  407.000
455.812; -182.300; -270.000;  -92.000
455.932;  -79.900;  107.000;  -97.000
456.053; -120.100;   36.000;   24.000
456.173; -191.300; -433.000; -355.000
456.294; -240.800; -476.000; -303.000
456.415;  -64.500;  -73.000;   70.000
456.535;   -0.700;  297.000;  273.000
456.656;  -27.300;  132.000;  240.000
456.776; -102.400;    3.000;  298.000
456.897;   35.500;  308.000;  513.000
457.017; -138.200; -153.000;   -3.000
457.138; -201.300; -402.000; -249.000
457.258;  -31.300;  263.000;  224.000
457.379;   45.600;  509.000;  521.000
457.499;   -8.500;  443.000;  432.000
457.620; -188.400; -407.000; -231.000
457.740; -153.000; -132.000;  -11.000
457.860;  -71.500;   87.000;   44.000
457.981;  -85.600;  132.000;  124.000
458.101; -114.000;  -89.000;   40.000
458.221;   -6.600;  336.000;  402.000
458.342;  -86.200;   -4.000;  -37.000
458.462;    9.600;  617.000;  352.000
458.582; -138.200; -302.000; -294.000
458.703;  -74.700;  303.000;  154.000
458.823;  -50.700;   22.000;  163.000
458.943;  -14.800;  341.000;  467.000
459.063;  -54.100; 1124.000;  192.000
459.183;  -45.500;  328.000;  313.000
459.304;   27.600;  315.000;  517.000
459.424; -159.800; -246.000;  -89.000
459.544;   81.900;  388.000;  764.000
459.664;   27.800;  499.000;  506.000
459.784;  156.800; 1004.000; 1175.000
459.904;   72.900;  867.000;  744.000
460.024;  161.100;  867.000;  684.000
460.144;    4.500;  449.000;  554.000
460.264;   33.400;  515.000;  327.000
460.385; -139.500; -145.000; -119.000
460.505;  128.100;  905.000;  858.000
460.625; -127.900;  -17.000;  -68.000
460.745;   29.500;  396.000;  541.000
460.864;  -81.200;  153.000;  469.000
460.984;   38.700;  499.000;  573.000
461.104;  288.100; 1656.000; 1775.000
461.224;   84.900;  657.000;  650.000
461.344;  -34.200;  431.000;  360.000
461.464;   -7.000;  258.000;  513.000
461.584;   -6.500;  283.000;  466.000
461.704;  -64.900;   58.000;  108.000
461.824;  -66.100;  238.000;  259.000
461.943;  -40.100;  191.000;  130.000
462.063; -127.400;    2.000;  324.000
462.183;   78.300;  639.000;  717.000
462.303;  246.100; 1678.000; 1230.000
462.422;  102.300;  781.000;  840.000
462.542;  -61.100;  271.000;  391.000
462.662;   22.200;  353.000;  380.000
462.782;   43.800;  833.000;  572.000
462.901;   52.000;  545.000;  717.000
463.021;  322.700; 1702.000; 1638.000
463.141;    3.700;  337.000;  770.000
463.260;    0.800;  614.000;  474.000
463.380;   84.500;  902.000;  884.000
463.499;  -16.200;  342.000;  332.000
463.619;   -1.300;  581.000;  559.000
463.738;  247.300; 1644.000;  903.000
463.858;   57.400;  657.000;  811.000
463.978;  -27.400;  542.000;  396.000
464.097;  143.400;  921.000; 1114.000
464.217;  195.100; 1196.000; 1143.000
464.336;  198.200; 1068.000; 1130.000
464.455;  -55.000;  328.000;  659.000
464.575;   47.900;  597.000;  602.000
464.694;  174.600; 1204.000; 1179.000
464.814;  119.300; 1190.000; 1138.000
464.933;  159.900; 1095.000; 1027.000
465.052;  229.400; 1412.000; 1054.000
465.172;   44.700;  922.000;  799.000
465.291;  239.800; 1376.000; 1320.000
465.410;   20.000;  462.000;  735.000
465.530;  202.000; 1355.000; 1310.000
465.649;  134.800; 1209.000; 1273.000
465.768;  346.400; 1673.000; 1508.000
465.888;   92.300;  941.000; 1174.000
466.007;  253.100; 1335.000; 1440.000
466.126;    9.800;  721.000;  641.000
466.245;  163.400; 1176.000; 1187.000
466.364;   60.300;  950.000; 1060.000
466.484;  163.900; 1024.000; 1213.000
466.603;  125.200; 1101.000; 1222.000
466.722;  284.200; 1490.000; 1769.000
466.841;  152.400; 1151.000; 1401.000
466.960;  156.500; 1069.000;  972.000
467.079;  334.100; 1971.000; 1786.000
467.198;  173.700; 1238.000; 1181.000
467.317;  210.900; 1768.000; 1162.000
467.436;  180.400; 1709.000; 1261.000
467.555;  308.700; 1796.000; 1746.000
467.674;  174.100; 1227.000; 1329.000
467.793;  130.300; 1376.000; 1374.000
467.912;  248.800; 1658.000; 1539.000
468.031;  306.100; 2038.000; 1930.000
468.150;  313.600; 1842.000; 1837.000
468.269;  435.300; 2313.000; 2090.000
468.388;  426.300; 2168.000; 2339.000
468.507;  549.200; 2884.000; 2903.000
468.626;  647.800; 2555.000; 2541.000
468.744;  321.700; 2018.000; 2174.000
468.863;  507.400; 2312.000; 2523.000
468.982;  211.300; 1503.000; 1555.000
469.101;  553.400; 2788.000; 2692.000
469.220;  352.500; 2333.000; 2176.000
469.338;  544.200; 2935.000; 3051.000
469.457;  444.200; 2719.000; 2545.000
469.576;  763.800; 3953.000; 3784.000
469.695;  503.600; 2877.000; 3066.000
469.813;  891.600; 4148.000; 4192.000
469.932;  804.900; 4255.000; 4485.000
470.051;  842.200; 4075.000; 4161.000
470.169;  896.500; 4470.000; 4338.000
470.288;  934.500; 4700.000; 4809.000
470.406;  968.200; 5059.000; 5194.000
470.525; 1259.600; 6101.000; 5787.000
470.644; 1336.500; 6847.000; 6794.000
470.762; 1698.200; 8397.000; 7873.000
470.881; 1823.600; 8651.000; 8464.000
470.999; 2032.100; 9685.000; 9151.000
471.118; 2237.900;11174.000;10711.000

