
Integration time [ms]: 100.000
Averaging Nr. [scans]: 40
Smoothing Nr. [pixels]: 0
Data measured with spectrometer [name]: 2101012U2
Wave   ;Sample   ;Dark     ;Reference
[nm]   ;[counts] ;[counts] ;[counts] 

197.733;   48.050;  516.000;  404.000
197.879;  -76.175; -610.000; -634.000
198.025;  -53.850; -475.000; -420.000
198.171;  -69.400; -602.000; -612.000
198.317;  -23.075; -401.000; -316.000
198.463;  -54.450; -655.000; -404.000
198.609;   21.125;  181.000; -137.000
198.755;  -71.475; -644.000; -410.000
198.901;  -67.825; -505.000; -424.000
199.047;  -62.750; -615.000; -488.000
199.193;  -40.875; -230.000; -468.000
199.339;  -45.400; -222.000; -369.000
199.485;   35.325;  330.000;  271.000
199.631;   19.775;  227.000;  310.000
199.777;  -53.550; -466.000; -398.000
199.923;  -55.700; -610.000; -424.000
200.069;    1.900; -141.000;  -58.000
200.215;   52.700;  128.000;  453.000
200.361;   39.875;  243.000;  477.000
200.507;  -57.800; -600.000; -373.000
200.653;  -31.750; -371.000; -194.000
200.798;  -29.425; -215.000; -125.000
200.944;   -8.850; -146.000;  -41.000
201.090;   40.175;   61.000;  222.000
201.236;   -6.850; -116.000; -158.000
201.382;  119.125;  874.000;  903.000
201.528;   -1.075;  -58.000;  -48.000
201.674;  -43.425; -386.000; -293.000
201.819;  -64.350; -540.000; -439.000
201.965;  -70.725; -699.000; -447.000
202.111;  -13.100; -273.000; -226.000
202.257;  -29.450; -250.000; -238.000
202.402;   12.625;   13.000;  -36.000
202.548;  -16.950; -169.000; -116.000
202.694;   80.500;  410.000; -183.000
202.840;  -58.075; -603.000; -531.000
202.985;  -71.775; -681.000; -639.000
203.131;  -98.400; -832.000; -666.000
203.277;  -10.250; -199.000; -262.000
203.423;  -46.525; -434.000; -520.000
203.568;  -34.450; -462.000; -237.000
203.714;  -65.275; -535.000; -542.000
203.860;  -76.575; -682.000; -641.000
204.005;   24.475;  112.000;  167.000
204.151;   67.375;  561.000;  556.000
204.296;  -47.300; -354.000; -221.000
204.442;  -70.150; -600.000; -547.000
204.588;  -53.600; -592.000; -579.000
204.733;   15.025;  178.000;  168.000
204.879; -125.900;-1018.000; -822.000
205.025;   14.800;  -99.000;  126.000
205.170;   10.875;  -17.000;   94.000
205.316;   73.600;  438.000;  661.000
205.461;  -83.225; -698.000; -554.000
205.607;   80.075;  609.000;  665.000
205.752;  -79.225; -626.000; -551.000
205.898;  -50.625; -501.000; -391.000
206.043;  -64.325; -578.000; -506.000
206.189;  -31.100; -243.000; -285.000
206.334;   78.425;  554.000;  606.000
206.480;   67.750;  409.000;  239.000
206.625;  -71.275; -529.000; -552.000
206.771;  -46.025; -451.000; -373.000
206.916;  -29.500; -210.000; -537.000
207.062;  -81.275; -545.000; -591.000
207.207;  -56.000; -546.000; -443.000
207.353;   51.525;  185.000;  460.000
207.498;   13.350;  196.000;   85.000
207.643;  -54.250; -501.000; -370.000
207.789; -123.850;-1069.000; -910.000
207.934;  -89.000; -665.000; -713.000
208.080;  -22.375; -154.000;   66.000
208.225;   -3.325;  -22.000;  -57.000
208.370;  -87.125; -727.000; -619.000
208.516;  -79.275; -741.000; -487.000
208.661;  -27.650; -127.000;  -69.000
208.806;  -26.275; -165.000; -171.000
208.952; -117.200;-1044.000; -731.000
209.097;   69.425;  378.000;  349.000
209.242;  -42.325; -307.000; -382.000
209.387;   59.800;  392.000;  350.000
209.533;  -54.225; -321.000; -350.000
209.678;   99.050;  472.000;  543.000
209.823;  -54.000; -408.000; -310.000
209.969; -101.375; -860.000; -757.000
210.114;  -98.975; -907.000; -719.000
210.259; -105.125; -939.000; -889.000
210.404;  -17.250; -171.000;  103.000
210.549;    7.000;  108.000;    3.000
210.695;  -14.900;   -3.000;  -95.000
210.840;   29.775;   94.000;   67.000
210.985;  -65.550; -484.000; -303.000
211.130;   59.825;  268.000;  406.000
211.275;   23.800;  207.000;  199.000
211.420;  -35.500; -300.000; -289.000
211.566;  -65.300; -536.000; -489.000
211.711;   17.375;  218.000;  157.000
211.856;  -65.450; -545.000; -519.000
212.001;   17.275;  151.000;   44.000
212.146;   24.250;  153.000;   49.000
212.291;  -11.400; -210.000; -186.000
212.436;  -37.175; -280.000;   -6.000
212.581;  -83.375; -685.000; -653.000
212.726;  -70.825; -487.000; -538.000
212.871;  -52.500; -552.000; -217.000
213.016; -155.125;-1172.000;-1029.000
213.161;   65.625;  406.000;  291.000
213.306;  -59.900; -435.000; -577.000
213.451;  -87.800; -778.000; -689.000
213.596;  -52.000; -455.000; -347.000
213.741;  -58.200; -448.000; -538.000
213.886;  -81.300; -498.000; -517.000
214.031;  -28.100; -294.000; -124.000
214.176;  -52.875; -408.000; -341.000
214.321;  -20.900; -296.000; -157.000
214.466;  -18.200; -163.000;  -43.000
214.611;  -14.675;  -61.000;  -10.000
214.756; -109.150; -948.000; -858.000
214.901;  -22.900; -388.000; -226.000
215.046; -121.725; -797.000; -825.000
215.191;   25.700;  128.000;   35.000
215.336;  -12.000; -157.000;  -19.000
215.480;  -71.075; -684.000; -505.000
215.625;  -15.375; -175.000;  -19.000
215.770;  -75.650; -757.000; -662.000
215.915;  -11.050;   -5.000;  -97.000
216.060;   -8.200; -113.000;  -21.000
216.205; -104.575; -731.000; -779.000
216.349;  -75.725; -470.000; -533.000
216.494; -127.425; -939.000; -867.000
216.639; -116.000; -823.000; -888.000
216.784;  -79.100; -577.000; -525.000
216.929;   47.975;  392.000;  281.000
217.073;  -14.375; -244.000;  -31.000
217.218;    4.575;   78.000;  -47.000
217.363;  -78.800; -656.000; -618.000
217.507;  -78.575; -623.000; -588.000
217.652; -124.175; -845.000; -874.000
217.797;  -89.275; -708.000; -659.000
217.942; -118.475; -856.000; -720.000
218.086;   68.875;  608.000;  539.000
218.231;  -25.875; -174.000;  -26.000
218.376;  -37.075; -337.000; -229.000
218.520;   -9.025;  -41.000;   96.000
218.665;  -18.325; -338.000; -204.000
218.810;  -46.450; -275.000; -233.000
218.954;    6.325;  201.000;   35.000
219.099;  -98.700; -713.000; -963.000
219.243;  -67.300; -589.000; -554.000
219.388;  -25.650; -264.000; -136.000
219.532;   -1.450; -116.000; -116.000
219.677;  -72.900; -564.000; -521.000
219.822;   -0.950;   33.000;   89.000
219.966;   -0.250;   17.000;  -99.000
220.111;  -35.925; -328.000;  -40.000
220.255;  -91.600; -797.000; -750.000
220.400;  -17.900; -180.000; -146.000
220.544;  -63.700; -516.000; -450.000
220.689;  -51.125; -422.000; -451.000
220.833;  -16.725; -123.000;  -58.000
220.978;  -39.850; -393.000; -563.000
221.122;   27.375;  319.000;  307.000
221.267; -113.575; -906.000; -837.000
221.411;  -61.375; -478.000; -394.000
221.555;   -8.525; -104.000;  -23.000
221.700;  -53.775; -329.000; -222.000
221.844;   19.775;  255.000;  272.000
221.989;  -44.600; -328.000; -311.000
222.133;  -24.825; -289.000; -307.000
222.277;   -6.800;    5.000;   78.000
222.422;   19.275;  227.000;  113.000
222.566;  -36.900; -381.000; -214.000
222.711;  -45.075; -414.000; -479.000
222.855;  -81.075; -643.000; -586.000
222.999;  -88.025; -642.000; -717.000
223.144;  -28.675; -195.000; -194.000
223.288;   45.150;  423.000;  251.000
223.432;   34.175;  184.000;  230.000
223.576;   10.975;  152.000;  -21.000
223.721;   45.250;  364.000;  273.000
223.865;  -48.850; -472.000; -475.000
224.009;  226.400; 1673.000; 1631.000
224.153;  -76.225; -660.000; -671.000
224.298;  -61.425; -531.000; -489.000
224.442;  -17.625;  -74.000;  -33.000
224.586;  -11.850; -169.000; -106.000
224.730; -101.525; -858.000; -670.000
224.875; -116.025; -739.000; -688.000
225.019;    5.025;  102.000;  188.000
225.163;   57.850;  208.000;  341.000
225.307;    2.175;   97.000;  -91.000
225.451;   34.500;  360.000;  481.000
225.595;   26.800;  264.000;  176.000
225.739;  -26.150; -170.000;  -94.000
225.884;    0.100;   86.000;    5.000
226.028;  -97.675; -760.000; -626.000
226.172;  -25.250; -260.000; -273.000
226.316; -107.925; -941.000; -902.000
226.460;  -80.950; -645.000; -493.000
226.604;  -55.875; -406.000; -400.000
226.748; -104.975; -836.000; -733.000
226.892;  -28.175; -227.000; -181.000
227.036;  -47.650; -537.000; -447.000
227.180;  -45.650; -551.000; -375.000
227.324;  -70.550; -561.000; -580.000
227.468; -115.700; -819.000; -717.000
227.612;    9.650;  242.000;  -28.000
227.756;  -91.850; -845.000; -698.000
227.900;   45.175;  342.000;  441.000
228.044;  -48.575; -509.000; -290.000
228.188;   47.550;  448.000;  568.000
228.332;  -79.650; -546.000; -472.000
228.476;  -44.525; -223.000; -149.000
228.620;  -33.050; -210.000; -150.000
228.764;   61.225;  431.000;  349.000
228.908;  -15.100; -155.000;   30.000
229.052;  -62.075; -615.000; -528.000
229.195;   -0.350; -172.000;   13.000
229.339;  -28.575; -235.000; -305.000
229.483;  -29.550;    5.000; -162.000
229.627;    1.750; -156.000;  139.000
229.771;  -36.200; -218.000; -294.000
229.915;    6.675;  230.000;   79.000
230.059;  -82.800; -648.000; -663.000
230.202;  -40.150; -370.000; -317.000
230.346;  -14.150; -107.000;  107.000
230.490;  -60.950; -489.000; -521.000
230.634;  -96.075; -736.000; -553.000
230.777;   72.075;  478.000;  509.000
230.921;  -58.575; -450.000; -359.000
231.065;  -33.950; -246.000; -286.000
231.209;   38.950;  261.000;  265.000
231.352;   14.675;   54.000;   40.000
231.496;   16.600;  568.000;  188.000
231.640;  -78.875; -693.000; -621.000
231.783;   51.575;  546.000;  525.000
231.927;  -47.450; -294.000; -365.000
232.071; -124.300; -962.000; -736.000
232.214; -122.900; -980.000; -764.000
232.358;  -86.450; -683.000; -599.000
232.502;   -1.450;  -19.000;    7.000
232.645; -136.000;-1090.000; -927.000
232.789;  -14.225; -257.000; -218.000
232.933;  -38.800; -407.000; -224.000
233.076; -124.400;-1038.000; -897.000
233.220; -100.675; -752.000; -777.000
233.363;  -79.475; -669.000; -477.000
233.507;   52.250;  371.000;  129.000
233.650; -104.825; -764.000; -834.000
233.794;   47.350;  438.000;  461.000
233.938;  -51.450; -530.000; -362.000
234.081;  -19.050;  -93.000;   31.000
234.225;  -66.800; -631.000; -539.000
234.368;  -93.900; -773.000; -723.000
234.512;  -46.275; -385.000; -299.000
234.655;  -83.725; -582.000; -555.000
234.798;  -64.550; -493.000; -466.000
234.942; -123.225; -884.000;-1002.000
235.085;  -72.625; -651.000; -443.000
235.229;  -62.600; -405.000; -410.000
235.372;  -44.450; -247.000; -191.000
235.516;  -73.025; -397.000; -321.000
235.659;   23.275;   92.000;  121.000
235.802;  -10.325;  -38.000;  -22.000
235.946;   24.050;  335.000;  215.000
236.089;   19.975;  126.000;  250.000
236.233;   41.225;  275.000;  298.000
236.376;  -52.425; -235.000; -378.000
236.519;  -54.000; -297.000; -319.000
236.663;  -26.425; -215.000; -117.000
236.806; -126.775;-1029.000; -999.000
236.949;   47.600;  543.000;  431.000
237.092;   58.275;  412.000;  391.000
237.236;  -91.600; -589.000; -502.000
237.379;   67.175;  352.000;  428.000
237.522; -121.525; -879.000; -768.000
237.666;  -13.100; -271.000;   18.000
237.809; -117.450; -851.000; -823.000
237.952;   34.625;  469.000;  271.000
238.095;  -76.825; -447.000; -442.000
238.238;   82.275;  688.000;  700.000
238.382;   -3.475;  166.000;  103.000
238.525;  -64.250; -598.000; -511.000
238.668; -136.275;-1060.000; -985.000
238.811;  -75.150; -638.000; -643.000
238.954;  -48.400; -483.000; -334.000
239.097;   90.750;  617.000;  664.000
239.241;   17.025;  394.000;  326.000
239.384;  -35.075; -254.000; -214.000
239.527;  -52.250; -424.000; -224.000
239.670; -148.100; -994.000;-1091.000
239.813; -106.575; -696.000; -658.000
239.956;   74.025;  579.000;  473.000
240.099; -101.575; -778.000; -725.000
240.242;   57.325;  428.000;  432.000
240.385;   36.150;  466.000;  450.000
240.528;  -68.050; -706.000; -473.000
240.671;    4.025;  189.000;  134.000
240.814;  -40.675; -441.000; -158.000
240.957;  -98.550; -767.000; -578.000
241.100; -101.525; -779.000; -755.000
241.243; -138.450;-1234.000; -893.000
241.386;  -71.600; -508.000; -379.000
241.529;  -96.875; -735.000; -547.000
241.672;  -55.950; -566.000; -495.000
241.815; -118.275; -832.000; -808.000
241.958;  -20.600; -125.000; -182.000
242.101;  -66.975; -545.000; -390.000
242.244;  -51.950; -270.000; -325.000
242.387;  -37.650; -304.000; -246.000
242.530;   59.900;  470.000;  134.000
242.673;  -48.675; -381.000; -309.000
242.815; -110.200; -925.000; -899.000
242.958;  -57.575; -482.000; -381.000
243.101;    9.350;  132.000;  187.000
243.244;  -73.450; -564.000; -521.000
243.387;  -45.525; -313.000; -316.000
243.530; -105.550; -657.000; -674.000
243.672;    1.000;   43.000;  -92.000
243.815;  -47.025; -355.000; -283.000
243.958;    4.800;   98.000;  -26.000
244.101;    0.025;   59.000;  -16.000
244.243;   -8.425;  -47.000;  101.000
244.386; -104.100; -761.000; -630.000
244.529;  -37.225; -132.000; -139.000
244.672; -144.025;-1154.000; -951.000
244.814;  -99.925; -621.000; -794.000
244.957;  -55.000; -380.000; -304.000
245.100;  -81.350; -489.000; -489.000
245.242;  -63.850; -387.000; -374.000
245.385;  -20.750;  -59.000;  -39.000
245.528; -131.875; -871.000; -705.000
245.670;   95.100;  612.000;  634.000
245.813;  -77.500; -599.000; -547.000
245.956;  -29.875; -324.000; -275.000
246.098;  -78.300; -508.000; -650.000
246.241;    8.850;  194.000;   48.000
246.383;  -16.925; -119.000;  -73.000
246.526;  -74.825; -454.000; -525.000
246.669; -116.625; -889.000; -780.000
246.811;    9.325;  172.000;   -1.000
246.954;  -59.925; -512.000; -426.000
247.096;   -9.425;  -84.000;   -6.000
247.239;  -68.500; -482.000; -445.000
247.381;  -72.075; -647.000; -488.000
247.524;   79.875;  645.000;  679.000
247.666;   -7.375;   58.000;   11.000
247.809; -104.625; -887.000; -691.000
247.951;  -23.500;  -75.000;  138.000
248.094;   25.100;  432.000;  308.000
248.236; -160.050;-1262.000;-1238.000
248.378;    4.450; -356.000;  -81.000
248.521;  -27.575; -334.000; -337.000
248.663;  -38.400; -236.000; -267.000
248.806;   -9.375; -300.000; -266.000
248.948;  -98.125; -886.000; -763.000
249.090;  -40.475; -428.000; -398.000
249.233;  -36.325; -344.000; -381.000
249.375;  -76.425; -474.000; -451.000
249.518;  -23.225;  -83.000; -133.000
249.660;  -13.450; -103.000;    3.000
249.802; -157.250;-1303.000;-1189.000
249.945;  -71.625; -612.000; -540.000
250.087; -110.275; -834.000; -768.000
250.229;  -39.225; -362.000; -480.000
250.371;  -63.550; -494.000; -439.000
250.514;  -43.225; -310.000; -244.000
250.656;  -48.225;   69.000;  102.000
250.798; -111.250; -849.000; -800.000
250.940;  -63.575; -322.000; -322.000
251.083;  -36.050; -335.000; -111.000
251.225;   59.950;  338.000;  310.000
251.367;  -52.050; -274.000; -373.000
251.509;  -56.725; -265.000; -210.000
251.651;  -93.900; -731.000; -671.000
251.794;   56.275;  538.000;  632.000
251.936;  -98.050; -821.000; -747.000
252.078;  -75.925; -540.000; -461.000
252.220;  -84.450; -645.000; -477.000
252.362;   87.675;  344.000;  462.000
252.504;  -73.975; -677.000; -584.000
252.646; -105.175; -875.000; -722.000
252.788;   -0.300;   14.000; -128.000
252.931;  -24.650; -257.000; -253.000
253.073;  -36.975; -376.000; -317.000
253.215;  -15.950;  141.000;  122.000
253.357;  -11.750;   82.000; -153.000
253.499;  -62.650; -374.000; -234.000
253.641;  -86.175; -749.000; -594.000
253.783;  -99.925; -609.000; -527.000
253.925;  -92.425; -586.000; -591.000
254.067; -106.875; -744.000; -667.000
254.209;  -29.950; -391.000; -259.000
254.351; -140.075; -865.000; -883.000
254.493;  -68.750; -441.000; -417.000
254.635; -128.500; -936.000; -818.000
254.777;  -87.475; -752.000; -687.000
254.918;  -59.300; -512.000; -430.000
255.060;  -61.650; -551.000; -395.000
255.202;  -59.750; -473.000; -261.000
255.344;  -73.500; -658.000; -455.000
255.486;  -73.050; -471.000; -406.000
255.628; -105.625; -780.000; -781.000
255.770;  -83.900; -676.000; -536.000
255.912;  -66.850; -559.000; -468.000
256.053;  -90.150; -730.000; -508.000
256.195;  150.025; 1008.000;  903.000
256.337;  -99.575; -861.000; -595.000
256.479;   55.025;  532.000;  416.000
256.621;  -54.650; -394.000; -212.000
256.762; -108.750; -789.000; -742.000
256.904;   48.750;  485.000;  487.000
257.046;  -48.150; -381.000; -271.000
257.188;  -30.325; -351.000; -264.000
257.329;  -70.350; -525.000; -464.000
257.471; -103.925; -939.000; -807.000
257.613;  -67.300; -584.000; -498.000
257.755; -135.375;-1073.000; -982.000
257.896;   30.375;  286.000;  392.000
258.038;  -76.575; -403.000; -352.000
258.180;  -42.025; -354.000; -279.000
258.321;  -77.150; -581.000; -457.000
258.463;   -9.125;  -71.000;  133.000
258.605;  -77.575; -562.000; -570.000
258.746; -102.150; -886.000; -772.000
258.888; -142.225;-1026.000;-1020.000
259.029;   17.575;  121.000;   -8.000
259.171;  -90.600; -614.000; -550.000
259.313;  -12.650;  -49.000;  -47.000
259.454;  -56.350; -536.000; -414.000
259.596;  -67.300; -483.000; -390.000
259.737;  -79.200; -590.000; -474.000
259.879;   34.650;  217.000;  311.000
260.020;   89.550;  901.000;  636.000
260.162;  -31.975; -146.000; -253.000
260.303; -105.000; -768.000; -687.000
260.445;  -82.275; -609.000; -613.000
260.586;   20.600;  392.000;  157.000
260.728;  -45.700; -360.000; -248.000
260.869;  -63.300; -350.000; -343.000
261.011;   80.775;  706.000;  537.000
261.152;  -58.200; -479.000; -319.000
261.293;  -81.075; -576.000; -595.000
261.435;  -35.650; -219.000; -184.000
261.576;  -50.825; -455.000; -325.000
261.718;   55.675;  420.000;  470.000
261.859; -131.775; -940.000; -949.000
262.000; -132.175; -951.000;-1016.000
262.142;  -15.625;  -52.000;  -60.000
262.283; -116.425; -808.000; -691.000
262.424;  -84.900; -666.000; -625.000
262.566; -142.600;-1161.000; -983.000
262.707; -112.875; -840.000; -830.000
262.848; -117.825; -769.000; -726.000
262.990;  -38.825; -362.000; -345.000
263.131;   60.125;  650.000;  681.000
263.272;   -2.200;  -61.000;  -41.000
263.413;  -82.675; -589.000; -561.000
263.555;  -63.250; -669.000; -143.000
263.696;  -87.800; -550.000; -641.000
263.837;  -57.275; -449.000; -551.000
263.978;  -10.200;   -5.000;  -77.000
264.119;  -48.600; -283.000; -264.000
264.261; -108.975; -847.000; -630.000
264.402;  -13.650;   33.000;   40.000
264.543;  -82.050; -509.000; -524.000
264.684;  -12.350;   61.000;  -50.000
264.825;  -64.875; -816.000; -538.000
264.966;  -12.750;  -84.000;  -67.000
265.107; -113.525; -646.000; -670.000
265.248; -112.575; -825.000; -812.000
265.390;   -3.025;  152.000;   -9.000
265.531;  -35.250; -238.000; -107.000
265.672;  -84.500; -557.000; -630.000
265.813;   45.675;  563.000;  439.000
265.954; -134.350; -959.000; -940.000
266.095;  -21.250; -372.000; -322.000
266.236;  -90.375; -686.000; -548.000
266.377;  -37.000; -243.000; -297.000
266.518;  -73.575; -619.000; -547.000
266.659;   30.350;  170.000;  268.000
266.800;   -4.625;   83.000;   85.000
266.941;  -71.125; -487.000; -478.000
267.082;    3.375;  354.000;   99.000
267.223;  -50.575; -344.000; -273.000
267.364; -109.625; -892.000; -686.000
267.504;   -3.475;    3.000;  135.000
267.645;   -1.075;  160.000;   67.000
267.786;  -28.550; -147.000;  -86.000
267.927;  -66.550; -473.000; -379.000
268.068;   -7.975; -186.000;  -61.000
268.209;  -50.350; -175.000; -413.000
268.350;  -60.725; -388.000; -532.000
268.490;  -90.900; -648.000; -521.000
268.631;   20.350;  127.000;  225.000
268.772; -101.400; -874.000; -647.000
268.913;  -56.625; -328.000; -476.000
269.054;  -13.825; -117.000;   12.000
269.194;  -35.175; -418.000; -402.000
269.335; -152.475;-1137.000;-1074.000
269.476;  -32.125;   33.000;  -35.000
269.617;  -62.100; -347.000; -392.000
269.757;  -94.900; -713.000; -646.000
269.898; -105.800; -856.000; -613.000
270.039;  -66.125; -415.000; -405.000
270.180; -117.700; -952.000; -816.000
270.320;  -32.025; -190.000; -250.000
270.461;  -40.775; -277.000; -249.000
270.602;  -22.125; -186.000; -156.000
270.742; -114.625; -868.000; -943.000
270.883;  -43.350; -442.000; -390.000
271.023;  -61.050; -358.000; -357.000
271.164;  -81.275; -607.000; -528.000
271.305; -101.975; -666.000; -654.000
271.445;  -77.950; -722.000; -683.000
271.586;  -65.000; -462.000; -283.000
271.726;  -48.625; -397.000; -322.000
271.867;  -42.750; -594.000; -534.000
272.008;  181.850; -473.000; -285.000
272.148;  128.900;  462.000;  468.000
272.289;   15.600; -113.000; -181.000
272.429;   19.175;   19.000;  185.000
272.570;  -93.775; -633.000; -737.000
272.710; -103.050; -825.000; -775.000
272.851;  -26.800;  113.000; -130.000
272.991; -150.600;-1173.000;-1077.000
273.131;  -57.700; -419.000; -459.000
273.272;  -94.675; -683.000; -723.000
273.412;   15.600; -143.000;  -31.000
273.553;  -43.075; -488.000; -507.000
273.693;  129.650;  913.000;  858.000
273.834;  -83.725; -894.000; -692.000
273.974;  -79.000; -664.000; -615.000
274.114;  -91.100; -772.000; -560.000
274.255;   75.675;  414.000;  373.000
274.395;  -12.950; -180.000; -125.000
274.535;   30.025;  199.000;  350.000
274.676;   12.750;  225.000;   94.000
274.816;    9.525;  110.000;   34.000
274.956;  -79.825; -624.000; -690.000
275.097;  -54.075;-1014.000; -922.000
275.237;  -93.000; -913.000; -803.000
275.377; -100.325; -778.000; -689.000
275.517; -144.400; -878.000; -937.000
275.658;  -52.700; -590.000; -555.000
275.798;  -72.625; -606.000; -413.000
275.938;   13.550;  215.000;  323.000
276.078;  -92.500; -626.000; -395.000
276.218;    6.425;   99.000;  104.000
276.359; -120.400;-1026.000;-1024.000
276.499;  -70.075; -605.000; -446.000
276.639;  -24.900; -305.000; -151.000
276.779;  -47.000; -475.000; -357.000
276.919; -107.300; -783.000; -624.000
277.059;  -16.100; -261.000; -212.000
277.199;  -36.075; -357.000; -259.000
277.340;   36.425;  287.000;  175.000
277.480; -112.275; -840.000; -693.000
277.620;   24.250;  192.000;   16.000
277.760; -189.000;-1533.000;-1294.000
277.900;    3.900;  113.000;   33.000
278.040;    7.575;  137.000;  159.000
278.180;   28.650;  270.000;  170.000
278.320;   -2.150;   21.000;   56.000
278.460;  -68.625; -443.000; -469.000
278.600;  -87.450; -708.000; -598.000
278.740;   54.975;  448.000;  224.000
278.880;  -56.675; -768.000; -791.000
279.020;   -3.875; -194.000; -144.000
279.160;  -85.025; -672.000; -595.000
279.300; -120.175; -926.000; -873.000
279.440;  -95.475; -709.000; -622.000
279.579;  -12.100;-1014.000; -929.000
279.719;  -58.800; -410.000; -394.000
279.859;   70.025;   -4.000;   41.000
279.999;   40.250; -208.000;  101.000
280.139;  -16.925; -435.000; -387.000
280.279;  -69.100; -708.000; -745.000
280.419;   -9.600; -229.000; -147.000
280.559;  -27.050; -259.000; -180.000
280.698;  -67.950; -790.000; -639.000
280.838;  -87.800; -778.000; -800.000
280.978; -110.550; -846.000; -790.000
281.118; -105.950; -811.000; -704.000
281.257;    0.575;   24.000;    6.000
281.397; -113.325;-1094.000; -960.000
281.537;  -93.825; -599.000; -712.000
281.677;  -26.825; -150.000; -101.000
281.816;  -84.450; -700.000; -630.000
281.956;  -26.725; -193.000; -257.000
282.096;  -57.650; -539.000; -396.000
282.235; -107.525; -672.000; -638.000
282.375;  -28.225; -243.000;  -98.000
282.515; -102.375; -715.000; -707.000
282.654;   22.650;   29.000;  106.000
282.794;   23.200;  388.000;  244.000
282.934;  -54.825; -530.000; -491.000
283.073; -136.675;-1030.000; -857.000
283.213;  -51.800; -460.000; -467.000
283.353;  -49.350; -408.000; -349.000
283.492;  -33.625; -264.000; -296.000
283.632;  -51.250; -254.000; -168.000
283.771;  -96.525; -859.000; -730.000
283.911;  -50.225; -369.000; -260.000
284.050;  -99.425; -794.000; -748.000
284.190; -145.175;-1229.000;-1096.000
284.329; -134.050;-1055.000; -964.000
284.469;  -48.050; -516.000; -591.000
284.608;  -59.700; -559.000; -598.000
284.748;  -85.625; -614.000; -570.000
284.887;   -8.550;  -87.000;  -20.000
285.027; -116.175; -844.000; -892.000
285.166;  -24.600; -192.000; -249.000
285.306;    6.500; -116.000;  -33.000
285.445;  -53.975; -229.000; -343.000
285.584;  -95.550; -630.000; -494.000
285.724;  -46.650; -282.000; -322.000
285.863; -108.850; -857.000; -507.000
286.002;  -51.525; -366.000; -276.000
286.142;  -98.450; -715.000; -622.000
286.281;  -78.625; -525.000; -493.000
286.420;  -83.700; -554.000; -417.000
286.560;   78.525;  653.000;  623.000
286.699; -144.075; -958.000; -912.000
286.838;  -87.600; -590.000; -591.000
286.978;  -83.425; -533.000; -537.000
287.117; -142.850;-1085.000; -950.000
287.256;  -39.725; -228.000; -211.000
287.395;  -43.250; -197.000; -378.000
287.535;  -56.000; -370.000; -298.000
287.674;  -71.900; -509.000; -484.000
287.813;   52.500;  661.000;  533.000
287.952; -127.375;-1010.000; -871.000
288.091; -139.750;-1049.000; -915.000
288.231;    7.250;   13.000;   15.000
288.370; -168.275;-1217.000;-1200.000
288.509;  -85.125; -728.000; -645.000
288.648;  -86.725; -770.000; -548.000
288.787;  -41.825; -243.000;  -87.000
288.926;  -67.800; -454.000; -475.000
289.065;  105.650;  859.000;  672.000
289.204;  -58.075; -377.000; -217.000
289.344;  -87.550; -791.000; -690.000
289.483;   19.950;  416.000;  304.000
289.622;  -29.300; -291.000; -149.000
289.761;  -29.375; -309.000; -166.000
289.900; -111.375; -785.000; -626.000
290.039;  -11.225;  -12.000;  -95.000
290.178;  -47.900; -274.000; -180.000
290.317;  -90.350; -618.000; -479.000
290.456;  -73.800; -463.000; -451.000
290.595; -128.025; -961.000; -833.000
290.734; -139.050; -904.000; -891.000
290.873;  -83.125; -456.000; -420.000
291.011; -108.300; -833.000; -843.000
291.150;  -91.625; -770.000; -682.000
291.289;  -23.125; -343.000; -110.000
291.428;  -88.025; -599.000; -480.000
291.567;  -57.100; -370.000; -442.000
291.706;  -15.400;  109.000;  154.000
291.845;  -83.725; -597.000; -505.000
291.984; -161.550;-1234.000;-1061.000
292.122;   63.000;  602.000;  582.000
292.261;   45.875;  620.000;  463.000
292.400;    3.125; -144.000;  211.000
292.539; -126.775; -959.000; -813.000
292.678;  -38.800; -325.000; -300.000
292.816; -147.450;-1136.000; -965.000
292.955;  -86.100; -844.000; -684.000
293.094;  -14.450; -173.000; -337.000
293.233;  -51.200; -556.000; -400.000
293.371;  -51.700; -225.000;  -84.000
293.510;  -97.450; -866.000; -780.000
293.649; -127.700; -959.000; -924.000
293.787;  -58.525;-1083.000;-1012.000
293.926;    9.450; -113.000;  -32.000
294.065;  -38.150; -379.000; -290.000
294.203;   47.550;  298.000;  406.000
294.342;   26.675;   74.000;  156.000
294.481; 6271.750;51180.000; -836.000
294.619;  -22.950; -425.000; -582.000
294.758; -136.550;-1230.000;-1137.000
294.896;   78.525; -125.000;    5.000
295.035; -111.025;-1040.000;-1006.000
295.174; -113.575;-1082.000; -954.000
295.312;  -27.225; -323.000; -203.000
295.451;  -12.200; -307.000; -428.000
295.589;  -58.650; -389.000; -518.000
295.728;   18.350; -292.000; -165.000
295.866;  -12.050;  -36.000;  -51.000
296.005;  -70.350; -584.000; -341.000
296.143;  -69.675; -558.000; -596.000
296.282; -111.825; -957.000; -881.000
296.420;  -73.125; -657.000; -557.000
296.559;  -85.025; -892.000; -633.000
296.697;   39.675; -847.000; -665.000
296.835;   72.950;-1141.000;-1002.000
296.974;   39.875;  -23.000;   39.000
297.112;    5.175; -443.000; -504.000
297.251;  -69.950; -815.000; -755.000
297.389;   99.000; -576.000; -438.000
297.527;   45.375; -145.000;  -83.000
297.666;  -50.675; -486.000; -438.000
297.804;  -49.500; -404.000; -264.000
297.942;   -8.750; -136.000; -161.000
298.081;   -2.400; -183.000;   63.000
298.219;   76.050;  -17.000;  -19.000
298.357;   39.475; -144.000;  -71.000
298.495;   37.000; -810.000; -812.000
298.634;   75.150;  245.000;  219.000
298.772;   70.050; -220.000; -338.000
298.910;  -27.375; -309.000; -182.000
299.048;   -9.825; -130.000; -153.000
299.187;  -25.450; -350.000; -250.000
299.325;   14.200;   52.000;  122.000
299.463;   78.150; -389.000; -299.000
299.601;  101.525; -327.000; -271.000
299.739; -106.025; -908.000; -883.000
299.877;  -73.900; -791.000; -703.000
300.016;  -32.775;-1095.000; -935.000
300.154;  175.975;  -19.000; -161.000
300.292;   53.325; -428.000; -348.000
300.430;   18.000; -408.000; -291.000
300.568;  -89.925; -940.000; -874.000
300.706;  -45.900; -366.000; -469.000
300.844;  -60.925;-1108.000; -979.000
300.982;  113.050;  246.000;  282.000
301.120; -104.900; -965.000; -866.000
301.258;  -65.175; -812.000; -705.000
301.396;   29.250;  104.000;  -41.000
301.534;   92.175; -218.000; -293.000
301.672;    4.375; -664.000; -521.000
301.810;   52.350; -613.000; -545.000
301.948;  117.750;   53.000;  149.000
302.086;  679.200; -250.000;  -32.000
302.224;  984.675; -610.000; -585.000
302.362;   36.050; -558.000; -622.000
302.500;  -25.000; -923.000; -893.000
302.638;  118.900;  128.000;  245.000
302.776;   -8.350; -352.000; -408.000
302.913;   41.725;  447.000;  236.000
303.051;   -0.525;  -86.000;  -23.000
303.189;   53.925;   90.000;  118.000
303.327;  -35.050; -341.000; -256.000
303.465;  -82.450; -832.000; -588.000
303.603;  -93.225; -805.000; -604.000
303.740;  110.150;  417.000;  241.000
303.878;   26.550; -800.000; -759.000
304.016;  -93.150; -915.000; -790.000
304.154; -122.625;-1123.000;-1152.000
304.291;  -32.025; -505.000; -554.000
304.429;   13.025;  102.000;   74.000
304.567; -127.150; -908.000; -893.000
304.705;  -47.225; -408.000; -515.000
304.842;  109.825; -616.000; -540.000
304.980;   38.200;  215.000;   35.000
305.118;   44.500; -367.000; -365.000
305.255;  -65.750; -945.000; -927.000
305.393;   51.725;  178.000;  239.000
305.531;  -92.025;-1173.000; -956.000
305.668;  -77.300; -663.000; -582.000
305.806;  100.725; -358.000; -439.000
305.943;  121.150; -629.000; -637.000
306.081;   51.150; -378.000; -267.000
306.219;  -96.800; -863.000; -748.000
306.356;   -0.100;  158.000;   27.000
306.494;  105.000;  981.000;  761.000
306.631;    0.625;  -11.000;  -55.000
306.769;    1.425; -613.000; -485.000
306.906;  -17.525; -284.000; -258.000
307.044;  -68.200; -473.000; -488.000
307.181;  -62.000; -410.000; -332.000
307.319;   19.550;  112.000;   87.000
307.456; -157.000;-1191.000;-1153.000
307.594;  -82.150; -980.000; -727.000
307.731;    2.725; -371.000; -164.000
307.868;   -4.775;  -15.000;   20.000
308.006; -125.125; -961.000; -847.000
308.143;  -62.550; -618.000; -330.000
308.281;  220.900;  -37.000; -254.000
308.418;    4.800; -748.000; -640.000
308.555;  -79.400; -400.000; -250.000
308.693;  -71.475; -577.000; -573.000
308.830; -106.275; -712.000; -657.000
308.967;  -14.650; -215.000;  -95.000
309.105;  -49.875; -507.000; -396.000
309.242;   52.150; -468.000; -367.000
309.379;  388.575; -577.000; -655.000
309.517;  -52.425; -936.000; -948.000
309.654;  -86.550; -910.000; -734.000
309.791;  -71.900; -662.000; -580.000
309.928; -109.900; -977.000; -914.000
310.065;  170.200;  819.000;  697.000
310.203;   -7.300; -825.000; -850.000
310.340;   -5.650; -465.000; -321.000
310.477;  -70.575; -412.000; -516.000
310.614;  -53.725; -383.000; -473.000
310.751;  -68.750; -427.000; -518.000
310.889;  -15.900;    1.000;   11.000
311.026; -144.900;-1161.000; -939.000
311.163;  -62.650; -386.000; -380.000
311.300;  -63.900; -512.000; -479.000
311.437;  -82.900; -658.000; -619.000
311.574; -155.675;-1226.000; -985.000
311.711;  -77.000; -595.000; -433.000
311.848;  -37.250; -380.000; -388.000
311.985;    8.225;  270.000;   93.000
312.122; -100.525; -932.000; -762.000
312.259; -124.800; -941.000; -994.000
312.396;  -77.450; -508.000; -551.000
312.533;  -87.725; -812.000; -790.000
312.670; -119.425;-1070.000; -898.000
312.807;  -42.750; -352.000; -367.000
312.944;  -74.000; -513.000; -611.000
313.081;  -46.275; -150.000; -415.000
313.218; -100.625;-1111.000; -867.000
313.355;   21.625; -531.000; -449.000
313.492;    9.250; -455.000; -292.000
313.629;  120.450;  815.000;  735.000
313.766; -148.875;-1176.000;-1008.000
313.902;  -20.100; -186.000;   21.000
314.039;  -44.800; -372.000; -289.000
314.176;   22.375;  286.000;  192.000
314.313;  -69.275; -569.000; -473.000
314.450;  -72.575; -788.000; -684.000
314.587;  -52.500; -468.000; -480.000
314.723;    3.375;  -78.000;  130.000
314.860;   34.425;  318.000;  332.000
314.997;   33.975;  223.000;  142.000
315.134;  -38.750; -385.000; -368.000
315.270;  -28.525; -480.000; -496.000
315.407; -125.550;-1094.000; -967.000
315.544;  -69.175; -657.000; -538.000
315.681;  -65.150; -681.000; -565.000
315.817;   32.425; -133.000; -176.000
315.954;   18.200; -613.000; -392.000
316.091; -125.625;-1045.000;-1023.000
316.227;  -21.700;  -71.000; -179.000
316.364;   -6.650;   23.000;    6.000
316.500;  -52.900; -113.000; -300.000
316.637;  -48.650; -181.000; -302.000
316.774;  -88.275; -625.000; -358.000
316.910;  -88.075; -598.000; -629.000
317.047;  -55.475; -487.000; -351.000
317.183;  -50.375; -435.000; -566.000
317.320;   -0.150; -367.000; -321.000
317.456;  -79.100; -733.000; -805.000
317.593;  -88.400; -598.000; -641.000
317.729;   -4.775;  168.000;  -67.000
317.866; -186.175;-1434.000;-1285.000
318.002;  -77.950; -708.000; -948.000
318.139;  -96.100; -883.000; -867.000
318.275;  -93.825;-1003.000; -738.000
318.412;  -56.550; -517.000; -336.000
318.548;  -29.250; -751.000; -720.000
318.685;  -82.700; -985.000; -888.000
318.821;  -99.050; -762.000; -735.000
318.957;  -13.000;   34.000;  -23.000
319.094;   41.800;  297.000;  154.000
319.230;  -50.150; -756.000; -742.000
319.367;  146.725; -471.000; -520.000
319.503;   68.300; -538.000; -436.000
319.639;  -94.675; -877.000; -793.000
319.775;  -65.350; -750.000; -685.000
319.912;  -66.600; -424.000; -519.000
320.048;  -79.900;-1184.000;-1184.000
320.184;   66.175;   59.000;   70.000
320.321;  -42.300; -497.000; -467.000
320.457;   70.350;  475.000;  662.000
320.593;  -63.900; -375.000; -382.000
320.729; -104.650; -732.000; -734.000
320.866;  -52.550; -577.000; -635.000
321.002;  -74.375; -759.000; -809.000
321.138;  -12.200; -135.000; -211.000
321.274;   82.575; -148.000; -115.000
321.410;  -13.275; -585.000; -353.000
321.546;  -10.375;-1011.000; -911.000
321.683;   52.450;  400.000;  185.000
321.819;   -5.225;  -48.000; -117.000
321.955;  -92.475; -743.000; -722.000
322.091;  -41.075; -585.000; -540.000
322.227;   -8.625; -382.000; -202.000
322.363;  -24.750; -320.000; -215.000
322.499;  -47.825; -343.000; -331.000
322.635;  167.950;  636.000;  443.000
322.771;   12.700; -139.000;   12.000
322.907;   85.925;  129.000;  327.000
323.043;  -16.950; -115.000; -206.000
323.179;  -25.800; -394.000; -363.000
323.315;   38.275; -401.000; -371.000
323.451;  104.125; -328.000; -236.000
323.587;   72.950;  -60.000;  -77.000
323.723;   25.625; -682.000; -601.000
323.859;  -21.625; -258.000;  -76.000
323.995;  -25.550; -467.000; -409.000
324.131; -129.025; -967.000; -892.000
324.267;  -44.700; -254.000; -276.000
324.402; -112.175; -960.000; -983.000
324.538;  -21.450; -279.000; -104.000
324.674;    2.500;  164.000;   77.000
324.810;  124.525;  226.000;  308.000
324.946;   17.125; -810.000; -658.000
325.082;  -59.950; -568.000; -475.000
325.217;  -11.425;  -62.000;   16.000
325.353;  -90.950; -764.000; -659.000
325.489;  -89.425; -540.000; -506.000
325.625;  -80.400; -579.000; -525.000
325.760;   64.475;  517.000;  376.000
325.896;  -20.375; -515.000; -702.000
326.032;  -40.025; -403.000; -352.000
326.168;  -67.225; -462.000; -369.000
326.303;  -70.425; -352.000; -461.000
326.439;  -16.050; -336.000; -276.000
326.575;    6.375; -190.000;  -29.000
326.710;   -8.275; -156.000;  -30.000
326.846;   -7.525;  146.000;  103.000
326.982; -100.375; -530.000; -548.000
327.117;  -67.225; -481.000; -442.000
327.253;  -87.700; -745.000; -742.000
327.388; -142.350;-1137.000;-1153.000
327.524;  -40.650; -811.000; -578.000
327.659;  -21.875;  -58.000;  -22.000
327.795;  -22.125;   69.000;   45.000
327.931;  -96.150; -723.000; -499.000
328.066;  -31.725; -417.000; -276.000
328.202;   -8.525;   12.000; -129.000
328.337;   88.050;  957.000;  713.000
328.473;   33.350;  -12.000;  -74.000
328.608;  -48.700; -256.000; -267.000
328.743;  -82.300; -799.000; -664.000
328.879;    8.925;  214.000;  114.000
329.014;  -28.150; -102.000; -122.000
329.150;  -78.125; -358.000; -483.000
329.285;  -79.825; -465.000; -466.000
329.421;  -37.600; -548.000; -246.000
329.556;  -32.225;  -36.000;   85.000
329.691;  -95.775; -633.000; -615.000
329.827;  -82.750; -626.000; -480.000
329.962;  -53.925;  131.000; -301.000
330.097;  -82.975; -673.000; -585.000
330.233;  -57.500; -410.000; -223.000
330.368; -127.250; -839.000; -628.000
330.503;  -13.100;    3.000;   98.000
330.638;   -2.850;  -93.000; -125.000
330.774;  -55.500; -609.000; -530.000
330.909;  -49.275; -434.000; -244.000
331.044; -108.425; -714.000; -708.000
331.179; -159.725;-1217.000;-1109.000
331.315;    6.225;   77.000;   20.000
331.450;   16.950;  157.000;  285.000
331.585;  -91.150; -805.000; -706.000
331.720;  -78.775; -510.000; -460.000
331.855;  -19.450;  -35.000; -102.000
331.990;  248.825;   62.000;  138.000
332.126;  128.300; -110.000;   71.000
332.261;  -11.075; -379.000; -265.000
332.396;   -7.725; -135.000; -242.000
332.531;  -95.375;-1074.000;-1031.000
332.666;   23.825; -519.000; -363.000
332.801; -103.375; -726.000; -807.000
332.936;  -22.675; -192.000; -122.000
333.071; -133.375; -870.000; -817.000
333.206;   20.675;  307.000;  379.000
333.341;   16.800;  344.000;  418.000
333.476;  -96.000; -627.000; -623.000
333.611;  -40.225; -251.000; -173.000
333.746;  -43.475; -381.000; -464.000
333.881; -115.950; -973.000; -935.000
334.016; -123.000; -936.000; -917.000
334.151; -126.550; -746.000; -702.000
334.286;   23.275;  152.000;  186.000
334.421;  -22.050; -125.000; -178.000
334.556;  -84.300; -611.000; -567.000
334.690;  -78.075; -631.000; -577.000
334.825;   44.425;  381.000;   83.000
334.960;  -56.050; -285.000; -413.000
335.095;    2.500;  135.000;  -91.000
335.230; -103.550; -722.000; -738.000
335.365; -130.175;-1084.000; -990.000
335.499; -130.300;-1108.000;-1037.000
335.634;   26.875;    9.000;  534.000
335.769;  -90.275; -755.000; -720.000
335.904;  -63.375; -603.000; -561.000
336.038;  -59.625; -735.000; -657.000
336.173; -114.475;-1206.000;-1194.000
336.308;    7.550; -116.000; -189.000
336.443;   21.550; -544.000; -634.000
336.577;  -61.575; -936.000; -787.000
336.712;   59.450;   -4.000;  -12.000
336.847;  -44.125; -724.000; -607.000
336.981;   65.950; -272.000; -208.000
337.116;  281.150;  615.000;  501.000
337.250;  145.000; -434.000; -421.000
337.385;  258.025; -297.000; -208.000
337.520;   84.825; -632.000; -603.000
337.654;  -39.625; -215.000; -126.000
337.789; -124.850; -989.000; -933.000
337.923;  -28.075; -104.000; -205.000
338.058;  -90.500; -673.000; -738.000
338.192;  -30.500; -611.000; -488.000
338.327;   -5.800;  -18.000; -155.000
338.461;  -46.475; -299.000; -469.000
338.596;  -86.400; -780.000; -638.000
338.730;  -91.275; -767.000; -803.000
338.865;   87.250;  -46.000; -140.000
338.999;  -46.725; -846.000; -702.000
339.134;  -14.075; -634.000; -536.000
339.268;   13.550; -741.000; -603.000
339.403;  357.900; -740.000; -775.000
339.537;  117.825; -894.000; -820.000
339.671; -115.725; -829.000; -813.000
339.806;  -62.700; -556.000; -512.000
339.940;    5.600; -261.000; -235.000
340.074;  -98.075; -685.000; -510.000
340.209;  -39.800; -351.000; -230.000
340.343;  -89.400; -517.000; -573.000
340.477;  133.300;  998.000; 1036.000
340.612;  -44.950;-1033.000; -900.000
340.746;  136.300; -199.000; -243.000
340.880;  -71.675; -924.000; -785.000
341.014;  -22.750;  -45.000; -154.000
341.149; -101.175; -756.000; -718.000
341.283; -107.650; -839.000; -754.000
341.417;  -90.800;-1124.000; -938.000
341.551;  126.625; -768.000; -708.000
341.685;  -34.600; -633.000; -611.000
341.820;  -46.050; -562.000; -493.000
341.954;  -41.900; -218.000; -349.000
342.088; -150.625;-1102.000;-1019.000
342.222;   57.375;  565.000;  618.000
342.356;  -64.500; -395.000; -335.000
342.490;  -84.175; -880.000; -841.000
342.624;  -59.100; -339.000; -242.000
342.758;   -1.375; -364.000; -312.000
342.892;  -61.300; -710.000; -585.000
343.026;  -28.375;  -58.000; -116.000
343.160;  -56.125; -426.000; -376.000
343.294;  -81.475; -474.000; -337.000
343.428;  -19.500; -488.000; -448.000
343.562;   -6.325; -172.000;  -23.000
343.696;  -19.375; -385.000; -314.000
343.830;  -17.400; -362.000; -356.000
343.964;    6.975; -231.000; -168.000
344.098;  918.800;  199.000;   70.000
344.232;  795.350; -266.000; -127.000
344.366;   86.775; -567.000; -453.000
344.500;   58.175; -665.000; -744.000
344.634;   37.125; -324.000; -164.000
344.768;  -14.425; -531.000; -341.000
344.902;   18.650;  278.000;  256.000
345.035;  -66.750; -556.000; -496.000
345.169; -123.050; -933.000; -656.000
345.303;  -22.725; -308.000; -482.000
345.437;  -74.275; -826.000; -717.000
345.571;  -66.700; -675.000; -594.000
345.704;  -64.100; -309.000; -532.000
345.838;   -2.900; -331.000; -284.000
345.972;  -28.850; -543.000; -495.000
346.106;  154.525; -179.000; -190.000
346.239;  411.200; -312.000; -243.000
346.373;    4.550; -343.000; -302.000
346.507; -129.725; -950.000; -962.000
346.640;  140.775;  -30.000;   13.000
346.774;  -33.125; -650.000; -797.000
346.908;  -31.425; -138.000;  -11.000
347.041; -103.500; -646.000; -593.000
347.175;   -5.775;  259.000;   27.000
347.309;  -76.775; -698.000; -628.000
347.442;  -95.850; -883.000; -732.000
347.576;  292.450;  670.000;  668.000
347.709;  224.075; -123.000;  -52.000
347.843;  -74.750; -933.000; -825.000
347.976;   34.400;  235.000;  294.000
348.110; -168.100;-1268.000;-1186.000
348.243;  -99.850; -679.000; -772.000
348.377;   -4.550;  -26.000;   60.000
348.510;   41.375;  403.000;  540.000
348.644;  -44.950;  -37.000; -159.000
348.777;  -10.800;  180.000;  191.000
348.911;  -48.675; -142.000; -112.000
349.044;  156.100;  471.000;  448.000
349.178;  167.325;-1069.000;-1006.000
349.311;  117.375;  141.000;  255.000
349.444;   -6.075; -927.000; -813.000
349.578;  -20.350; -347.000; -200.000
349.711;  -95.350; -959.000; -862.000
349.845;    7.775; -661.000; -591.000
349.978; -121.600;-1224.000;-1137.000
350.111;  -88.525; -546.000; -612.000
350.244;  -75.625; -596.000; -700.000
350.378;    3.125; -392.000; -393.000
350.511;  -66.150; -393.000; -426.000
350.644; -109.825; -808.000; -806.000
350.778;   16.225;  168.000;  104.000
350.911;   -6.675;  134.000;  140.000
351.044;  -98.250; -685.000; -615.000
351.177;  -24.775; -321.000; -281.000
351.310;  -14.525;    3.000; -131.000
351.444;  -76.750; -888.000; -788.000
351.577;  130.425;  140.000;   90.000
351.710;   94.075;  593.000;  417.000
351.843;  -35.275; -165.000;  -77.000
351.976;  -17.875;  149.000;  -79.000
352.109;  -86.500; -621.000; -612.000
352.242;  -24.975; -464.000; -419.000
352.376;  -57.000; -580.000; -636.000
352.509;  176.550; -437.000; -356.000
352.642;   32.450; -654.000; -604.000
352.775;   59.325; -141.000;  -98.000
352.908; -111.875; -933.000; -904.000
353.041;  -96.400; -814.000; -824.000
353.174;  -63.225; -551.000; -424.000
353.307;  -74.600; -753.000; -764.000
353.440;   72.500;  541.000;  453.000
353.573; -102.675; -957.000;-1008.000
353.706;  -56.825; -384.000; -558.000
353.839;   -5.950; -264.000; -220.000
353.971;  -88.850; -657.000; -512.000
354.104;  -69.125; -896.000; -835.000
354.237;  -34.375; -627.000; -662.000
354.370;  -90.425; -846.000; -879.000
354.503; -159.775;-1231.000;-1308.000
354.636;  -40.825; -529.000; -348.000
354.769; -131.550; -937.000; -860.000
354.902;   -8.175; -230.000; -139.000
355.034;  -24.300; -164.000; -220.000
355.167;  -20.175; -262.000; -162.000
355.300;  -80.450;-1061.000; -880.000
355.433;  960.925;  -71.000;  -14.000
355.565; 1535.200; -402.000; -384.000
355.698;  410.950; -356.000; -296.000
355.831;   14.450; -882.000; -801.000
355.964;   76.975; -285.000; -170.000
356.096;  -76.825; -856.000; -843.000
356.229;   10.350; -523.000; -530.000
356.362;  323.275; -373.000; -266.000
356.494;  623.125; -229.000; -162.000
356.627;  499.550;  269.000;  377.000
356.760;  656.475;  120.000;   53.000
356.892;  957.500; -286.000; -601.000
357.025;  692.075;  403.000;  389.000
357.157;  659.350; -167.000; -179.000
357.290;  664.050; -856.000; -713.000
357.423;  201.825; -667.000; -556.000
357.555;  105.025; -217.000; -228.000
357.688;  132.450; -483.000; -364.000
357.820;  495.075; -870.000; -877.000
357.953; 3843.850; -563.000; -589.000
358.085;  877.900; -632.000; -612.000
358.218; 1201.850;-1131.000; -932.000
358.350;  219.600;  -58.000;  312.000
358.483; -121.750;-1300.000;-1187.000
358.615;   -1.975;-1182.000;-1078.000
358.747;  -42.300;-1187.000;-1058.000
358.880;   34.400; -810.000; -744.000
359.012;    7.300; -376.000; -202.000
359.145;  -39.475; -480.000; -511.000
359.277;   87.325; -962.000; -913.000
359.409; 3138.575;  536.000;  231.000
359.542;  853.775; -738.000; -688.000
359.674;   79.875;   46.000;   13.000
359.806;  -64.850; -565.000; -438.000
359.939;  -42.200; -617.000; -516.000
360.071;   -2.350; -583.000; -579.000
360.203;  -24.675; -411.000; -364.000
360.335;   54.225;  164.000;  -16.000
360.468;  203.100; -249.000; -307.000
360.600; 2531.275; -547.000; -454.000
360.732; 2870.975; -546.000; -423.000
360.864;  390.900;-1216.000;-1044.000
360.996;  300.425; -516.000; -554.000
361.129;   66.000; -389.000; -598.000
361.261;   16.975;  110.000; -113.000
361.393;  -37.025; -252.000; -214.000
361.525;   24.300;   94.000;  244.000
361.657;  -29.775; -821.000; -703.000
361.789;   12.125; -139.000; -155.000
361.921;  245.700; -642.000; -593.000
362.053;  279.700;  524.000;  541.000
362.185;   62.400;  288.000;   72.000
362.318;  -68.900; -709.000; -705.000
362.450;  114.225;  294.000;  444.000
362.582;  112.675; -913.000; -870.000
362.714;  -40.750; -353.000; -332.000
362.846;  -87.000; -606.000; -490.000
362.978; -137.950; -941.000; -811.000
363.109;   51.750; -161.000; -260.000
363.241;  469.100; -739.000; -749.000
363.373;  435.875; -649.000; -564.000
363.505;  677.175; -186.000;  -91.000
363.637;  173.975; -787.000; -601.000
363.769; -121.475;-1067.000;-1080.000
363.901;  -63.025; -596.000; -654.000
364.033; -118.700;-1103.000;-1062.000
364.165;    1.350; -283.000; -283.000
364.296;   82.525; -316.000; -177.000
364.428;   80.375;-1344.000;-1220.000
364.560;  -73.575; -679.000; -661.000
364.692;  -56.675; -738.000; -835.000
364.824;  295.875; -588.000; -456.000
364.955;  456.200; -402.000; -564.000
365.087;  895.200;-1097.000; -852.000
365.219;   35.425; -686.000; -816.000
365.351;  -69.750; -526.000; -572.000
365.482;   52.000;  300.000;  240.000
365.614;  -56.125; -402.000; -314.000
365.746; -103.600; -729.000; -752.000
365.877;  -93.450; -706.000; -672.000
366.009;  260.625;  -35.000;  -62.000
366.141;  -92.975;-1249.000;-1134.000
366.272; -110.700; -803.000; -719.000
366.404; -109.550;-1005.000; -874.000
366.535;   -6.050; -139.000;  -12.000
366.667;  -97.475; -644.000; -649.000
366.799;   33.475;  353.000;  203.000
366.930; -113.550; -862.000; -996.000
367.062;  112.250; -639.000; -613.000
367.193;  154.725; -872.000; -842.000
367.325;  -57.300; -580.000; -684.000
367.456;   26.750; -246.000;   31.000
367.588;  157.225; -371.000; -318.000
367.719;   22.825;  -44.000;  -45.000
367.851;  -20.650; -222.000; -241.000
367.982;  -35.500; -875.000; -732.000
368.113;   95.025; -475.000; -358.000
368.245; -115.025; -960.000; -841.000
368.376;  -19.825; -254.000; -302.000
368.508;  -50.575; -188.000; -263.000
368.639; -134.525;-1166.000;-1034.000
368.770;  -10.275; -670.000; -589.000
368.902;  -47.375; -836.000; -926.000
369.033;  -82.150; -906.000; -855.000
369.164;  -40.825; -720.000; -653.000
369.296; -103.800; -452.000; -601.000
369.427;   -0.300; -209.000; -144.000
369.558;  -42.150; -593.000; -377.000
369.689;  -78.000; -721.000; -569.000
369.821; -135.375; -951.000; -845.000
369.952;  -11.450;   42.000; -108.000
370.083;  -46.075; -229.000; -108.000
370.214;  -79.525; -735.000; -650.000
370.345;    0.175;   65.000;   81.000
370.477;  -81.725; -810.000; -790.000
370.608;  249.350; -328.000; -264.000
370.739;  -33.425;-1233.000;-1292.000
370.870;  -27.750;-1102.000; -923.000
371.001;   99.775; -378.000; -467.000
371.132;  -65.450; -754.000; -735.000
371.263;  -14.450;  -42.000; -148.000
371.394; -119.425; -841.000; -748.000
371.525;   28.175;  345.000;  225.000
371.657;  -92.175; -808.000; -670.000
371.788;   79.425;  103.000;  199.000
371.919;  192.850; -384.000; -304.000
372.050; 3634.875;  -91.000; -156.000
372.181; 1156.950; -188.000; -294.000
372.311;  397.875;   42.000; -127.000
372.442;   54.300; -457.000; -451.000
372.573;  -24.975; -444.000; -340.000
372.704; -122.650;-1008.000; -980.000
372.835;   89.975; -228.000; -289.000
372.966;  -49.700; -646.000; -554.000
373.097;  -39.575; -575.000; -711.000
373.228;  -32.500; -717.000; -542.000
373.359;  136.825; -824.000; -536.000
373.490;  951.600; -881.000; -727.000
373.620; 1239.525;-1001.000; -803.000
373.751; 1818.850; -332.000; -396.000
373.882;  843.550; -663.000; -733.000
374.013;   75.150; -449.000; -262.000
374.143;  -22.425; -581.000; -659.000
374.274;  -96.375; -987.000; -908.000
374.405;  193.200; -388.000; -276.000
374.536;  465.350; -526.000; -387.000
374.666; 1180.875; -759.000; -807.000
374.797;  244.100; -817.000; -868.000
374.928;  904.475; -710.000; -560.000
375.058;  962.300; -535.000; -500.000
375.189;   84.750;  -59.000;  -93.000
375.320;  -94.350; -928.000;-1034.000
375.450;  -34.900; -625.000; -616.000
375.581;  -36.150; -526.000; -436.000
375.712;  -30.800; -574.000; -250.000
375.842;  330.750; -438.000; -415.000
375.973;  252.250; -554.000; -513.000
376.103;  -30.200; -665.000; -648.000
376.234;  -68.750; -531.000; -552.000
376.364;  -28.450; -944.000; -867.000
376.495;  339.350;  925.000;  529.000
376.625;  -12.850; -472.000; -485.000
376.756;   67.425; -709.000; -678.000
376.886;  -53.000;-1178.000;-1026.000
377.017;   55.150;-1048.000;-1061.000
377.147;  376.750; -786.000; -782.000
377.278;   47.175;  174.000;  228.000
377.408; -124.500; -801.000; -815.000
377.538; -100.475; -707.000; -693.000
377.669;  -84.675; -537.000; -613.000
377.799;  -85.300; -645.000; -635.000
377.929;  -60.150; -610.000; -428.000
378.060; -129.175; -781.000; -847.000
378.190;  -57.450; -726.000; -531.000
378.320;  -45.125; -401.000; -406.000
378.451;  -22.425; -131.000;  -22.000
378.581;   -9.975;  -67.000; -110.000
378.711;  137.575; 1035.000;  866.000
378.841;  -15.725; -533.000; -675.000
378.972;  -79.075; -871.000; -751.000
379.102;   -3.875; -652.000; -579.000
379.232;  -31.275; -126.000;  -73.000
379.362;  -98.125;-1001.000; -885.000
379.492;   22.075; -373.000; -424.000
379.623;  105.800;    0.000;  111.000
379.753;  -87.675;-1107.000; -974.000
379.883;  193.875;   59.000;  156.000
380.013;   17.200;-1081.000;-1017.000
380.143;  -84.500;-1097.000;-1056.000
380.273;  -87.225; -985.000; -861.000
380.403;   -2.450; -344.000; -257.000
380.533;  -14.725; -651.000; -664.000
380.663;   67.675;  173.000;  128.000
380.793;  -84.700;-1027.000;-1074.000
380.923;   -9.625; -103.000;  -34.000
381.053;  -80.475; -613.000; -623.000
381.183;  -17.250; -106.000; -248.000
381.313;   43.575; -656.000; -470.000
381.443;   47.950; -692.000; -473.000
381.573;  204.175; -402.000; -409.000
381.703;  329.325;-1249.000;-1095.000
381.833; -123.275;-1454.000;-1336.000
381.963;   96.175; -134.000;  -87.000
382.093; 1453.575; -925.000; -909.000
382.223;  477.325; -713.000; -602.000
382.353;  -22.675; -801.000; -608.000
382.482;  383.600;-1091.000; -964.000
382.612;  780.125; -872.000; -644.000
382.742;  463.175; -695.000; -622.000
382.872;  300.875; -565.000; -551.000
383.002;   72.450;  347.000; -132.000
383.131;  -12.525; -226.000; -160.000
383.261;  -37.825; -706.000; -768.000
383.391;  280.750; -552.000; -377.000
383.521; 3142.125;  451.000;  263.000
383.650;  811.375; -947.000; -904.000
383.780;  -22.925; -783.000; -656.000
383.910;   98.825;  880.000;  802.000
384.039;   35.175; -794.000; -656.000
384.169;  244.025;-1205.000;-1017.000
384.299;   -0.300; -650.000; -662.000
384.428;  -80.400; -764.000; -680.000
384.558;  -34.225; -308.000; -275.000
384.687;  -33.800; -414.000; -334.000
384.817;    7.675;   75.000;   -2.000
384.947;   20.325; -234.000; -141.000
385.076;  312.375;  982.000;  912.000
385.206;  115.275;  369.000;  480.000
385.335;  -25.350; -549.000; -417.000
385.465;  -74.375; -655.000; -663.000
385.594;  125.425;  -53.000;  -44.000
385.724;  462.200; -868.000; -838.000
385.853;  127.350; -296.000; -270.000
385.982; 1374.225; -743.000; -787.000
386.112; 2277.475;-1052.000; -871.000
386.241;  163.775; -307.000; -312.000
386.371;   38.525; -174.000;  -87.000
386.500;   -5.775; -825.000; -789.000
386.629;   23.300; -874.000; -817.000
386.759;   76.875;  -43.000;   68.000
386.888;  -10.575; -170.000; -250.000
387.017;  -63.375; -648.000; -620.000
387.147;  -86.150; -771.000; -798.000
387.276;    5.650; -410.000; -397.000
387.405;   26.625; -398.000; -342.000
387.535;  -36.275; -452.000; -361.000
387.664;  -61.000; -692.000; -620.000
387.793;   62.625; -198.000; -113.000
387.922;  540.400;  255.000;  200.000
388.052;   36.625; -576.000; -423.000
388.181;   19.900; -342.000; -472.000
388.310;   -5.275; -889.000; -710.000
388.439;  -32.525; -749.000; -742.000
388.568;  179.425;  365.000;  244.000
388.697; 1101.950; -756.000; -653.000
388.826;  248.025; -768.000; -666.000
388.956;   63.900; -285.000; -307.000
389.085;  -22.450; -347.000; -287.000
389.214;  -96.225; -842.000; -872.000
389.343;  -63.925; -645.000; -413.000
389.472;  395.600;  126.000;  149.000
389.601;  536.325;   91.000;    0.000
389.730;   23.075; -568.000; -687.000
389.859;   78.550;  226.000;   46.000
389.988;  182.150; -423.000; -408.000
390.117;  157.400; -168.000; -146.000
390.246;    1.425; -331.000; -320.000
390.375;  117.900; -673.000; -626.000
390.504;  -52.425; -703.000; -621.000
390.633; -100.775; -672.000; -726.000
390.761;  -67.650; -732.000; -645.000
390.890;   20.800;   -4.000; -130.000
391.019;  -35.850; -421.000; -441.000
391.148; -120.700; -826.000; -855.000
391.277;  -65.425; -576.000; -493.000
391.406;  -86.600; -821.000; -805.000
391.534;   22.200;  574.000; -301.000
391.663;  -58.375; -583.000; -645.000
391.792;  -77.650; -673.000; -701.000
391.921;   99.475;   -3.000;   15.000
392.050;  186.025; -287.000; -228.000
392.178;  -17.100;-1206.000;-1061.000
392.307;  135.225; -758.000; -712.000
392.436;   89.925; -427.000; -641.000
392.564;   33.025;  166.000;   -6.000
392.693;  -88.175; -860.000; -682.000
392.822;  192.050; -529.000; -534.000
392.950;  104.050; -880.000; -714.000
393.079;  342.750; -188.000; -328.000
393.208;   42.075; -488.000; -511.000
393.336;   -4.900; -170.000; -145.000
393.465;  -50.675; -317.000; -199.000
393.593;    6.175;   62.000;   79.000
393.722; -145.900;-1121.000; -916.000
393.850;  -35.900; -188.000;  -61.000
393.979; -159.775; -926.000; -805.000
394.107;  -54.150; -517.000; -537.000
394.236;  -17.525; -570.000; -507.000
394.364;  230.925;  383.000;  206.000
394.493;  421.825; -911.000; -767.000
394.621;   -2.925; -955.000; -916.000
394.750;  717.250; -873.000; -923.000
394.878; 2881.825; -247.000; -149.000
395.007; 4189.075; -721.000; -807.000
395.135;  353.325; -790.000; -721.000
395.263;  -78.025;-1038.000;-1040.000
395.392;   -0.650;  -25.000; -107.000
395.520; -120.175; -818.000; -679.000
395.648;  -86.100; -865.000; -915.000
395.777;   -9.400; -366.000; -405.000
395.905;  -54.600; -449.000; -564.000
396.033;   19.900;  217.000;  172.000
396.162;  647.575; -399.000; -453.000
396.290;  636.650;  -17.000;   -2.000
396.418;  132.325; -555.000; -514.000
396.546;  -61.025; -571.000; -466.000
396.674;  -93.250; -850.000; -878.000
396.803;   18.275;  -72.000;  -23.000
396.931;   81.125; -179.000; -199.000
397.059;   69.600;-1026.000; -989.000
397.187; -102.975;-1026.000; -975.000
397.315; -132.750; -884.000; -649.000
397.443;  -95.225; -592.000; -443.000
397.572;  -79.100; -578.000; -424.000
397.700;   -6.525; -607.000; -614.000
397.828;   19.825;  120.000;  -90.000
397.956;  -43.250; -508.000; -478.000
398.084;  -55.475; -767.000; -626.000
398.212;   30.900;  137.000;  124.000
398.340;    6.625;  -56.000;  159.000
398.468;   31.900; -390.000; -169.000
398.596; -130.075; -993.000; -953.000
398.724; -117.600; -762.000; -767.000
398.852; -156.925;-1024.000; -976.000
398.980;  -58.250; -560.000; -560.000
399.108;  -42.175; -982.000; -735.000
399.236;   30.900;   13.000;    8.000
399.363;   16.975;  222.000;  196.000
399.491;  -70.075; -404.000; -398.000
399.619; -130.275; -829.000; -800.000
399.747;  -89.125; -859.000; -771.000
399.875;   89.175;  220.000;  234.000
400.003;  -43.625; -359.000; -284.000
400.130; -100.650; -421.000; -341.000
400.258;  -27.850;  -83.000;   38.000
400.386;  -65.600; -352.000; -168.000
400.514;  -58.050; -526.000; -587.000
400.641;  -77.925; -928.000; -802.000
400.769; -141.825; -979.000; -888.000
400.897; -109.925; -838.000; -793.000
401.025;  -18.250; -166.000; -152.000
401.152;   -6.450;  220.000;   38.000
401.280;  -79.800; -430.000; -429.000
401.408; -120.950; -712.000; -576.000
401.535; -103.000; -735.000; -758.000
401.663; -177.500;-1134.000;-1054.000
401.790;  -80.300; -514.000; -525.000
401.918;   38.450;  436.000;  405.000
402.046;  -27.000;  134.000;  122.000
402.173;  -42.550;  -18.000;    7.000
402.301;  -78.475; -519.000; -397.000
402.428;   29.450;  528.000;  383.000
402.556; -131.375;-1188.000; -913.000
402.683;  -34.625;  -20.000;   -1.000
402.811;  -27.825;  -37.000; -206.000
402.938;   -5.550;   20.000;   27.000
403.066;  178.850; -574.000; -558.000
403.193;  335.000;  299.000;  239.000
403.321;  254.425; -396.000; -574.000
403.448;  317.700;   83.000;   27.000
403.575;  144.100;  -90.000;  -46.000
403.703;  -82.400; -732.000; -557.000
403.830;  -67.450; -531.000; -496.000
403.957; -134.200;-1117.000;-1023.000
404.085;   19.150;  -61.000; -172.000
404.212;  101.075;  -50.000;   63.000
404.339;  264.325; -566.000; -306.000
404.467; 5709.775; -612.000; -524.000
404.594; 4107.925; -287.000; -227.000
404.721; 1001.275; -869.000; -764.000
404.848;  103.925; -113.000; -202.000
404.976;  -88.275; -856.000; -783.000
405.103;   -9.800;  -14.000;  -82.000
405.230;   -3.225;  190.000;  226.000
405.357;   35.950;  117.000;   44.000
405.484;  264.325;  -49.000;    5.000
405.612;   59.100; -548.000; -563.000
405.739;  -70.000; -488.000; -243.000
405.866;   79.300;  669.000;  385.000
405.993;  -39.300; -398.000; -102.000
406.120; -139.600; -801.000; -887.000
406.247;  -44.475; -323.000; -342.000
406.374;  437.975;  540.000;  629.000
406.501;  141.300; -632.000; -702.000
406.628;  -73.375; -621.000; -589.000
406.755;  -94.825; -803.000; -620.000
406.882;  -35.025; -228.000; -277.000
407.009; -101.200; -719.000; -628.000
407.136;   50.850; -480.000; -401.000
407.263;  160.000; -939.000; -829.000
407.390;  -75.225; -692.000; -614.000
407.517; -159.925;-1139.000;-1187.000
407.644;  -58.075; -332.000; -256.000
407.771;  -65.425; -249.000; -287.000
407.898;    6.500;  168.000;  328.000
408.025;  -81.025; -421.000; -313.000
408.151;  -13.250;   82.000;  153.000
408.278;  -66.700; -267.000; -216.000
408.405; -116.400; -931.000; -899.000
408.532;  -59.375; -549.000; -542.000
408.659; -125.650; -677.000; -648.000
408.785; -182.775;-1298.000;-1170.000
408.912;  -79.375; -412.000; -296.000
409.039; -103.400; -610.000; -686.000
409.166; -108.300; -591.000; -555.000
409.292; -103.575; -571.000; -534.000
409.419; -122.475; -665.000; -649.000
409.546;  -91.525; -431.000; -192.000
409.672; -119.800; -713.000; -545.000
409.799;  -16.300;  -36.000;   34.000
409.926;  -48.450; -180.000; -179.000
410.052; -175.350;-1127.000;-1091.000
410.179;  -51.600; -368.000; -392.000
410.305;  -93.300; -375.000; -493.000
410.432;  -57.500; -220.000; -333.000
410.558;  -72.825; -305.000; -380.000
410.685; -103.600; -688.000; -431.000
410.812; -106.075; -409.000; -588.000
410.938; -135.850; -964.000; -808.000
411.065;  -82.925; -671.000; -645.000
411.191;  -24.800; -189.000; -174.000
411.317; -107.700; -823.000; -742.000
411.444;  -59.425; -317.000; -246.000
411.570;  -71.100; -339.000; -294.000
411.697; -124.725; -758.000; -752.000
411.823; -165.425; -989.000; -999.000
411.949;  -33.100;  -56.000;   17.000
412.076; -111.675; -539.000; -519.000
412.202; -116.350; -758.000; -757.000
412.329; -137.200; -798.000; -752.000
412.455; -106.600; -821.000; -657.000
412.581;  -16.200;  -15.000;  172.000
412.707;  -66.350; -540.000; -457.000
412.834;    6.725;  156.000;  219.000
412.960;  -80.475; -785.000; -784.000
413.086;  -93.975; -743.000; -701.000
413.212;  141.425;  604.000;  578.000
413.339;  -48.250; -685.000; -701.000
413.465;   -1.575; -364.000; -310.000
413.591;  -83.100; -757.000; -474.000
413.717;  -49.400; -358.000; -366.000
413.843; -135.850; -839.000; -861.000
413.969;  -40.300;  -47.000; -292.000
414.096;  -98.025; -679.000; -679.000
414.222;  -11.075;  -33.000;   85.000
414.348;  -20.975; -652.000; -385.000
414.474;  115.350;   38.000;  -52.000
414.600;  -22.425; -126.000; -144.000
414.726;  -14.075;  -96.000;  -55.000
414.852;  -52.075; -365.000; -342.000
414.978;   44.850;  104.000;  -18.000
415.104;   36.275;   38.000;   80.000
415.230;   23.100; -329.000; -330.000
415.356;   41.075; -409.000; -514.000
415.482;  198.275;   13.000;  -35.000
415.608;  279.800; -247.000; -323.000
415.734;  960.550;   67.000;   38.000
415.860;19650.550; -875.000; -767.000
415.986;15824.875; -685.000; -607.000
416.111; 1417.050; -798.000; -652.000
416.237;  282.775; -424.000; -571.000
416.363; 1062.500; -765.000; -733.000
416.489; 4300.125; -324.000; -251.000
416.615;  511.550; -707.000; -742.000
416.741;  -13.525; -677.000; -784.000
416.866;  -89.950; -673.000; -736.000
416.992; -122.700; -801.000; -818.000
417.118;  -37.000;  -41.000;  -80.000
417.244;  -75.700; -798.000; -531.000
417.369;  -74.225; -801.000; -612.000
417.495;   -7.875; -325.000; -254.000
417.621;  -76.350;-1015.000; -803.000
417.746;   -6.550; -579.000; -572.000
417.872;   63.925; -254.000; -144.000
417.998;   57.950; -515.000; -530.000
418.123;  961.550;-1073.000; -845.000
418.249; 5542.625; -512.000; -601.000
418.374;  854.825; -916.000; -824.000
418.500;  121.250; -383.000; -482.000
418.626;  117.950;   70.000;  -59.000
418.751;  123.350; -549.000; -448.000
418.877;  212.925; -637.000; -643.000
419.002; 1687.950; -688.000; -560.000
419.128;12737.750; -930.000; -721.000
419.253; 3526.100; -967.000; -837.000
419.379;  465.050; -391.000; -338.000
419.504;  404.500;  325.000;  415.000
419.629;  526.700; -393.000; -212.000
419.755; 3320.425; -317.000; -254.000
419.880;21276.750;  -98.000;   67.000
420.006;11572.675; -280.000; -221.000
420.131;30664.200; -662.000; -775.000
420.256; 4911.200; -315.000; -316.000
420.382;  643.475; -665.000; -687.000
420.507;   76.500; -649.000; -778.000
420.632;  129.525; -337.000; -339.000
420.758;  266.225; -251.000; -425.000
420.883;  -71.825; -876.000; -672.000
421.008; -103.525; -775.000; -619.000
421.133;  -65.700; -509.000; -467.000
421.259;  -50.875; -325.000; -259.000
421.384; -112.200; -834.000; -693.000
421.509;  -43.900;-1052.000; -862.000
421.634; 1106.350; -936.000; -820.000
421.759;  561.675; -359.000; -327.000
421.885;  -54.025; -717.000; -656.000
422.010;  -86.150; -673.000; -542.000
422.135; -132.425; -695.000; -727.000
422.260;   20.825;  340.000;  280.000
422.385;  -43.275;   12.000;  -98.000
422.510;    3.000;  151.000;  -26.000
422.635;   14.575;  -87.000;  -43.000
422.760;  102.900; -766.000; -791.000
422.885;   76.900;  -57.000;  -80.000
423.010;  -37.725; -112.000; -169.000
423.135;  -95.925; -481.000; -561.000
423.260;  -17.375; -150.000; -245.000
423.385;   65.500;  476.000;  222.000
423.510;   29.825;   71.000;  -22.000
423.635;   78.250;  133.000;   45.000
423.760;   65.875;  383.000;  328.000
423.885;   57.350;  336.000;  391.000
424.010;    6.625;  -68.000;  -13.000
424.135;   -5.400;    5.000;  -33.000
424.259;  -83.725; -654.000; -457.000
424.384;  -62.800; -279.000; -272.000
424.509;  -21.500; -260.000; -186.000
424.634;  -90.400; -761.000; -623.000
424.759;  -33.575; -688.000; -544.000
424.883;   -8.225; -506.000; -527.000
425.008;  157.775; -502.000; -410.000
425.133; 2028.500; -679.000; -653.000
425.258; 1050.850; -517.000; -381.000
425.382; 1017.375; -867.000; -774.000
425.507; 2770.250; -487.000; -543.000
425.632;  515.475; -802.000; -663.000
425.756;  458.875; -256.000; -146.000
425.881; 6103.350; -831.000; -857.000
426.006;18208.850; -604.000; -355.000
426.130; 3192.700; -696.000; -508.000
426.255;  418.075; -611.000; -491.000
426.379;  162.650; -189.000; -577.000
426.504;  358.800;  660.000;  544.000
426.629; 3986.050; -519.000; -466.000
426.753; 3069.650;   64.000;  -46.000
426.878;  362.200; -252.000; -288.000
427.002;  191.800; -651.000; -668.000
427.127; 1500.700;  -35.000; -158.000
427.251;11428.775;  372.000;  401.000
427.375; 3678.150; -191.000; -173.000
427.500; 2377.500; -616.000; -610.000
427.624;  888.200; -234.000; -400.000
427.749;  108.150; -216.000; -225.000
427.873;  -18.850; -499.000; -412.000
427.997;  -41.650; -222.000; -230.000
428.122;   74.525;  795.000;  703.000
428.246;   65.325;  433.000;  434.000
428.371; -120.600; -869.000; -773.000
428.495; -101.125; -624.000; -646.000
428.619;  -27.225; -186.000; -117.000
428.743;   29.200;   65.000;  132.000
428.868;   15.450; -732.000; -643.000
428.992; 1435.200; -219.000; -326.000
429.116;  634.375; -329.000; -357.000
429.240;  296.375;  419.000;  426.000
429.365;   -5.650; -454.000; -574.000
429.489;  -41.975; -638.000; -647.000
429.613;   13.725; -236.000; -177.000
429.737;   46.875; -563.000; -432.000
429.861;  271.875; -247.000; -133.000
429.985; 5414.000; -425.000; -305.000
430.109; 6610.225; -770.000; -908.000
430.234;  781.375;   76.000;  -50.000
430.358;   83.000; -250.000; -160.000
430.482;  -65.775; -672.000; -564.000
430.606;  -52.275; -655.000; -375.000
430.730;    9.375; -437.000; -388.000
430.854;  146.850; -909.000; -835.000
430.978;  -66.700; -795.000; -764.000
431.102;  -83.125; -499.000; -422.000
431.226; -103.975; -874.000; -815.000
431.350;   30.725;  345.000;  422.000
431.474;  -64.025; -661.000; -373.000
431.597; -148.500;-1060.000; -848.000
431.721;  -77.150; -276.000; -267.000
431.845; -127.750; -704.000; -472.000
431.969;  -83.050; -304.000; -349.000
432.093;  -83.525; -395.000; -317.000
432.217;  -19.625;   32.000;   82.000
432.341;  -75.525; -523.000; -518.000
432.464;    3.650;   96.000;   40.000
432.588;  210.275; -401.000; -329.000
432.712;  122.250;  -52.000;  -52.000
432.836;   50.425;  213.000;  263.000
432.959;  -21.725; -372.000; -311.000
433.083;   87.725;   11.000;    2.000
433.207;  366.675;  285.000;  930.000
433.330; 4878.025; -391.000; -200.000
433.454; 6593.650; -654.000; -638.000
433.578; 3772.150;  583.000;  278.000
433.701;  794.750; -623.000; -675.000
433.825;  154.175; -292.000; -299.000
433.949;  160.600;   28.000;  -72.000
434.072;   65.100; -410.000; -323.000
434.196;  -14.025; -309.000; -117.000
434.319; 3545.500;25482.000;25124.000
434.443;  692.650; -656.000; -603.000
434.566; 2740.000;  281.000;   62.000
434.690;  527.775; -637.000; -383.000
434.813;   67.750; -251.000; -173.000
434.937;  -72.500; -569.000; -696.000
435.060;  -45.450; -423.000; -332.000
435.184;  288.300; -492.000; -217.000
435.307;  188.325;  159.000;  102.000
435.431;   -3.650;  -40.000;   24.000
435.554;  -73.100; -399.000; -240.000
435.677;  -86.175; -350.000; -258.000
435.801;  -39.350;  -25.000;   49.000
435.924;  -16.875;    1.000;  -67.000
436.048; -110.675;-1019.000; -732.000
436.171;  -72.150; -240.000;  -66.000
436.294;  -30.100; -248.000; -229.000
436.417;  106.800; -963.000; -849.000
436.541;  -76.750; -814.000; -840.000
436.664;  -43.725; -242.000; -316.000
436.787;  -18.825;   13.000;  113.000
436.910; -121.225; -792.000; -422.000
437.034;   -2.775;  142.000;  143.000
437.157;   53.675;  -11.000;    0.000
437.280;  -51.350; -392.000; -292.000
437.403;  -99.300; -982.000; -869.000
437.526;  564.475; -903.000; -865.000
437.649; 2266.025; -505.000; -332.000
437.772;  392.850; -692.000; -540.000
437.896;  117.575;  700.000;  544.000
438.019;  -85.200; -758.000; -503.000
438.142;  -79.275; -596.000; -506.000
438.265;  -20.675; -639.000; -670.000
438.388;  597.675; -520.000; -410.000
438.511;  137.375; -597.000; -394.000
438.634;  -25.000; -247.000; -125.000
438.757; -115.775; -693.000; -619.000
438.880;  -24.375;  -34.000;  -57.000
439.003;  -78.550; -417.000; -437.000
439.126;  -58.500; -287.000; -167.000
439.248;  -63.925;  -98.000; -139.000
439.371;  -40.700;    9.000;  -53.000
439.494;   13.400;  510.000;  439.000
439.617;  -53.400;   65.000;  -88.000
439.740; -173.075; -968.000; -816.000
439.863; -131.425; -755.000; -595.000
439.986; -120.500; -476.000; -431.000
440.108;  -55.650; -161.000; -112.000
440.231; -162.625; -950.000; -836.000
440.354;  -43.650;  -64.000; -150.000
440.477;   27.325; -566.000; -542.000
440.599;   14.725; -200.000; -225.000
440.722; -113.450; -709.000; -586.000
440.845;   60.550;  751.000;  928.000
440.968; -106.825; -415.000; -311.000
441.090;  -63.350; -199.000;  -33.000
441.213; -167.575;-1021.000; -825.000
441.336;  -60.750; -159.000;   -5.000
441.458;  -76.975; -549.000; -396.000
441.581;  -85.325; -628.000; -629.000
441.703;  -58.725; -152.000;   13.000
441.826; -107.700; -557.000; -400.000
441.948;  -55.125;   56.000;   51.000
442.071;    7.175;  555.000;  424.000
442.193; -104.375; -531.000; -485.000
442.316;   20.400;  152.000;   97.000
442.438;   47.550; -233.000;  -10.000
442.561;   72.800;  272.000;  262.000
442.683;  493.475; -809.000; -522.000
442.806; 1192.350;   -8.000;   74.000
442.928;   54.825; -859.000; -604.000
443.051;  -63.825; -577.000; -373.000
443.173; -100.200; -341.000; -339.000
443.295;  -89.325; -263.000; -371.000
443.418;  -76.025; -321.000;  -29.000
443.540;  -15.550; -106.000;   -4.000
443.662; -108.575; -563.000; -465.000
443.785;  -15.925;  335.000;  199.000
443.907;  -91.750; -362.000; -208.000
444.029; -132.900; -767.000; -494.000
444.152; -145.700; -644.000; -554.000
444.274;  -27.275;  -18.000;  -24.000
444.396; -112.300; -461.000; -221.000
444.518; -121.100; -691.000; -454.000
444.640; -101.675; -268.000; -111.000
444.763;  -11.725;  388.000;  249.000
444.885; -107.950; -432.000; -392.000
445.007;  -29.650;   35.000;   86.000
445.129; -120.700; -610.000; -515.000
445.251;  -91.500; -372.000; -439.000
445.373; -130.300; -537.000; -386.000
445.495;  -11.525;  242.000;  350.000
445.617;   47.200;  853.000;  753.000
445.739;  -60.875; -215.000;  -97.000
445.861;  -41.475; -245.000; -112.000
445.984;  -50.225; -267.000; -101.000
446.105;  182.575; -418.000; -251.000
446.227;  606.925; -176.000;  -19.000
446.349;   35.575; -358.000; -249.000
446.471; -105.325; -615.000; -448.000
446.593;  -60.525; -316.000;   19.000
446.715;    2.250;  -67.000;   41.000
446.837;   57.450;  697.000;  832.000
446.959;  -96.900; -457.000; -478.000
447.081; -132.125; -628.000; -518.000
447.203;   53.325;  862.000;  834.000
447.325;  -90.925; -270.000;   42.000
447.446;  -13.100;  286.000;  530.000
447.568; -153.625; -921.000; -803.000
447.690;  -82.050; -236.000; -245.000
447.812; -152.300; -798.000; -519.000
447.933;  -25.925;  155.000;  127.000
448.055;  -54.825; -306.000; -261.000
448.177;  137.300;   31.000;   79.000
448.299;   92.275; -935.000; -727.000
448.420;   28.300;  -25.000;  159.000
448.542;  -47.375;   -3.000;   33.000
448.664;  -28.000;  109.000;  322.000
448.785;  -39.575;  265.000;   83.000
448.907;  -89.175; -614.000; -353.000
449.028;  -16.275; -771.000; -471.000
449.150;   65.425;  492.000;  589.000
449.272; -171.925;-1044.000; -913.000
449.393;   26.350;  612.000;  694.000
449.515; -135.450; -634.000; -581.000
449.636;  -48.950; -264.000; -155.000
449.758;   70.550;  763.000;  622.000
449.879;  -96.550; -498.000; -396.000
450.001;  -78.400; -149.000;  -49.000
450.122;  -40.000;  -95.000;  162.000
450.244;  -25.425;   37.000;  364.000
450.365;  -91.000; -495.000; -301.000
450.486;  -31.025;   80.000;  268.000
450.608;   20.975;  393.000;  326.000
450.729;   73.050;  578.000;  645.000
450.850;   11.325; -574.000; -466.000
450.972;  707.325; -552.000; -389.000
451.093; 4854.400;  190.000;  588.000
451.214; 2410.800; -516.000; -337.000
451.336;  443.600;  773.000;  579.000
451.457;   55.550;  264.000;  393.000
451.578;  -43.325; -118.000;  -74.000
451.699;  -97.700; -546.000; -540.000
451.821;  -76.025; -284.000;  -50.000
451.942;   -5.375;  278.000;  285.000
452.063;   30.200;  228.000;  419.000
452.184;  529.300;  -54.000;  -49.000
452.305; 1159.700;  103.000;  170.000
452.427;  179.575; -549.000; -301.000
452.548;  -16.175;   23.000;   79.000
452.669;  -37.225; -257.000;  -89.000
452.790;  -37.675;    3.000;  -18.000
452.911;   -5.950;  195.000;  259.000
453.032;  -66.425; -289.000;  -60.000
453.153;  -42.400;  -29.000;   81.000
453.274;   54.975;  737.000;  868.000
453.395;  -50.025;  -51.000;  175.000
453.516;  126.625; 1317.000; 1388.000
453.637;  -55.175; -205.000; -150.000
453.758;  -39.475;   15.000;   69.000
453.879; -116.450; -462.000; -250.000
454.000;   76.050; 1086.000;  948.000
454.121; -108.625; -554.000; -326.000
454.242; -115.900; -599.000; -383.000
454.362;  -36.775;  -99.000;  114.000
454.483;  -54.000; -309.000; -229.000
454.604;   55.325;  512.000;  580.000
454.725; -115.775; -627.000; -555.000
454.846; -133.100; -474.000; -406.000
454.967;  -18.050;  230.000;  539.000
455.087;  -50.100;  179.000;  153.000
455.208;   12.950;  554.000;  856.000
455.329;  -63.050;  -22.000;   82.000
455.450;   25.075;  473.000;  633.000
455.570;  -92.350; -234.000; -211.000
455.691;  -51.525;  201.000;  407.000
455.812;  -99.150; -270.000;  -92.000
455.932;  -54.200;  107.000;  -97.000
456.053;  -70.425;   36.000;   24.000
456.173; -108.250; -433.000; -355.000
456.294; -123.025; -476.000; -303.000
456.415;  -62.075;  -73.000;   70.000
456.535;  -33.900;  297.000;  273.000
456.656;  -36.400;  132.000;  240.000
456.776;  -67.825;    3.000;  298.000
456.897;  -15.175;  308.000;  513.000
457.017;  -62.150; -153.000;   -3.000
457.138; -112.400; -402.000; -249.000
457.258;  -14.150;  263.000;  224.000
457.379;  -12.175;  509.000;  521.000
457.499;  -35.025;  443.000;  432.000
457.620; -125.050; -407.000; -231.000
457.740;  -80.850; -132.000;  -11.000
457.860;  -54.375;   87.000;   44.000
457.981;  -53.825;  132.000;  124.000
458.101;  -69.850;  -89.000;   40.000
458.221;  -16.275;  336.000;  402.000
458.342;  -62.800;   -4.000;  -37.000
458.462;   17.450;  617.000;  352.000
458.582;  -49.975; -302.000; -294.000
458.703;    7.875;  303.000;  154.000
458.823;  -23.875;   22.000;  163.000
458.943;   18.950;  341.000;  467.000
459.063;  -14.475; 1124.000;  192.000
459.183;  -14.425;  328.000;  313.000
459.304;    9.500;  315.000;  517.000
459.424;  -65.925; -246.000;  -89.000
459.544;  313.700;  388.000;  764.000
459.664;  853.825;  499.000;  506.000
459.784;  345.800; 1004.000; 1175.000
459.904;   61.600;  867.000;  744.000
460.024;   64.850;  867.000;  684.000
460.144;   12.750;  449.000;  554.000
460.264;   -4.325;  515.000;  327.000
460.385;  -89.750; -145.000; -119.000
460.505;   42.325;  905.000;  858.000
460.625;  -89.650;  -17.000;  -68.000
460.745;  -16.375;  396.000;  541.000
460.864;  -56.975;  153.000;  469.000
460.984;    2.800;  499.000;  573.000
461.104;  140.625; 1656.000; 1775.000
461.224;   24.275;  657.000;  650.000
461.344;  -20.150;  431.000;  360.000
461.464;  -39.650;  258.000;  513.000
461.584;  -19.700;  283.000;  466.000
461.704;  -47.125;   58.000;  108.000
461.824;  -63.575;  238.000;  259.000
461.943;  -47.625;  191.000;  130.000
462.063;  -70.025;    2.000;  324.000
462.183;   25.000;  639.000;  717.000
462.303;   96.800; 1678.000; 1230.000
462.422;   26.650;  781.000;  840.000
462.542;  -32.975;  271.000;  391.000
462.662;   39.050;  353.000;  380.000
462.782;  218.475;  833.000;  572.000
462.901;  492.400;  545.000;  717.000
463.021;  299.075; 1702.000; 1638.000
463.141;   -7.550;  337.000;  770.000
463.260;  -17.200;  614.000;  474.000
463.380;   14.450;  902.000;  884.000
463.499;  -28.975;  342.000;  332.000
463.619;  -27.375;  581.000;  559.000
463.738;  113.425; 1644.000;  903.000
463.858;   13.175;  657.000;  811.000
463.978;  -31.625;  542.000;  396.000
464.097;   53.400;  921.000; 1114.000
464.217;  107.100; 1196.000; 1143.000
464.336;  116.300; 1068.000; 1130.000
464.455;  -20.200;  328.000;  659.000
464.575;   34.300;  597.000;  602.000
464.694;  171.225; 1204.000; 1179.000
464.814;  141.150; 1190.000; 1138.000
464.933;   82.200; 1095.000; 1027.000
465.052;   97.000; 1412.000; 1054.000
465.172;   83.350;  922.000;  799.000
465.291;  139.275; 1376.000; 1320.000
465.410;    7.100;  462.000;  735.000
465.530;   86.500; 1355.000; 1310.000
465.649;   60.700; 1209.000; 1273.000
465.768;  134.800; 1673.000; 1508.000
465.888;   45.325;  941.000; 1174.000
466.007;  100.200; 1335.000; 1440.000
466.126;   -1.750;  721.000;  641.000
466.245;   43.600; 1176.000; 1187.000
466.364;   17.200;  950.000; 1060.000
466.484;   66.075; 1024.000; 1213.000
466.603;   27.725; 1101.000; 1222.000
466.722;  107.700; 1490.000; 1769.000
466.841;   72.350; 1151.000; 1401.000
466.960;   40.350; 1069.000;  972.000
467.079;  133.475; 1971.000; 1786.000
467.198;   34.425; 1238.000; 1181.000
467.317;   87.300; 1768.000; 1162.000
467.436;   76.125; 1709.000; 1261.000
467.555;  125.575; 1796.000; 1746.000
467.674;   67.200; 1227.000; 1329.000
467.793;   55.475; 1376.000; 1374.000
467.912;   94.500; 1658.000; 1539.000
468.031;  126.725; 2038.000; 1930.000
468.150;  147.075; 1842.000; 1837.000
468.269;  192.200; 2313.000; 2090.000
468.388;  177.325; 2168.000; 2339.000
468.507;  253.050; 2884.000; 2903.000
468.626;  273.725; 2555.000; 2541.000
468.744;  143.425; 2018.000; 2174.000
468.863;  208.600; 2312.000; 2523.000
468.982;   99.525; 1503.000; 1555.000
469.101;  227.550; 2788.000; 2692.000
469.220;  152.650; 2333.000; 2176.000
469.338;  246.575; 2935.000; 3051.000
469.457;  203.200; 2719.000; 2545.000
469.576;  350.900; 3953.000; 3784.000
469.695;  248.950; 2877.000; 3066.000
469.813;  419.500; 4148.000; 4192.000
469.932;  395.375; 4255.000; 4485.000
470.051;  407.425; 4075.000; 4161.000
470.169;  843.825; 4470.000; 4338.000
470.288; 1493.875; 4700.000; 4809.000
470.406;  938.575; 5059.000; 5194.000
470.525;  644.550; 6101.000; 5787.000
470.644;  642.600; 6847.000; 6794.000
470.762;  809.725; 8397.000; 7873.000
470.881;  888.525; 8651.000; 8464.000
470.999; 1027.925; 9685.000; 9151.000
471.118; 1111.900;11174.000;10711.000

