
Integration time [ms]: 200.000
Averaging Nr. [scans]: 10
Smoothing Nr. [pixels]: 0
Data measured with spectrometer [name]: 2101012U2
Wave   ;Sample   ;Dark     ;Reference
[nm]   ;[counts] ;[counts] ;[counts] 

197.733;   96.200;  516.000;  404.000
197.879; -181.200; -610.000; -634.000
198.025;  -98.400; -475.000; -420.000
198.171; -152.600; -602.000; -612.000
198.317;  -53.500; -401.000; -316.000
198.463; -143.500; -655.000; -404.000
198.609;   50.700;  181.000; -137.000
198.755; -159.700; -644.000; -410.000
198.901; -141.500; -505.000; -424.000
199.047; -147.700; -615.000; -488.000
199.193;  -70.900; -230.000; -468.000
199.339;  -92.600; -222.000; -369.000
199.485;   77.000;  330.000;  271.000
199.631;   -6.000;  227.000;  310.000
199.777; -138.100; -466.000; -398.000
199.923; -139.700; -610.000; -424.000
200.069;  -22.800; -141.000;  -58.000
200.215;  104.900;  128.000;  453.000
200.361;   82.400;  243.000;  477.000
200.507; -172.300; -600.000; -373.000
200.653;  -53.600; -371.000; -194.000
200.798;  -97.800; -215.000; -125.000
200.944;   17.600; -146.000;  -41.000
201.090;   86.700;   61.000;  222.000
201.236;    6.300; -116.000; -158.000
201.382;  254.800;  874.000;  903.000
201.528;   52.000;  -58.000;  -48.000
201.674; -113.100; -386.000; -293.000
201.819; -132.800; -540.000; -439.000
201.965; -217.800; -699.000; -447.000
202.111;  -62.100; -273.000; -226.000
202.257;  -78.600; -250.000; -238.000
202.402;    4.100;   13.000;  -36.000
202.548;  -77.100; -169.000; -116.000
202.694;  176.400;  410.000; -183.000
202.840; -164.700; -603.000; -531.000
202.985; -147.200; -681.000; -639.000
203.131; -224.900; -832.000; -666.000
203.277;  -49.300; -199.000; -262.000
203.423; -123.200; -434.000; -520.000
203.568;  -63.200; -462.000; -237.000
203.714; -127.300; -535.000; -542.000
203.860; -183.200; -682.000; -641.000
204.005;    4.200;  112.000;  167.000
204.151;  178.200;  561.000;  556.000
204.296; -115.300; -354.000; -221.000
204.442; -135.400; -600.000; -547.000
204.588; -175.400; -592.000; -579.000
204.733;   52.000;  178.000;  168.000
204.879; -263.000;-1018.000; -822.000
205.025;   10.300;  -99.000;  126.000
205.170;   -5.000;  -17.000;   94.000
205.316;  170.500;  438.000;  661.000
205.461; -169.800; -698.000; -554.000
205.607;  158.200;  609.000;  665.000
205.752; -192.600; -626.000; -551.000
205.898; -128.100; -501.000; -391.000
206.043; -137.400; -578.000; -506.000
206.189;  -91.800; -243.000; -285.000
206.334;  169.100;  554.000;  606.000
206.480;  181.300;  409.000;  239.000
206.625; -184.200; -529.000; -552.000
206.771;  -72.000; -451.000; -373.000
206.916;  -51.200; -210.000; -537.000
207.062; -126.300; -545.000; -591.000
207.207; -120.600; -546.000; -443.000
207.353;  105.600;  185.000;  460.000
207.498;   22.900;  196.000;   85.000
207.643;  -94.300; -501.000; -370.000
207.789; -281.000;-1069.000; -910.000
207.934; -203.400; -665.000; -713.000
208.080;  -48.600; -154.000;   66.000
208.225;    8.400;  -22.000;  -57.000
208.370; -182.200; -727.000; -619.000
208.516; -164.000; -741.000; -487.000
208.661;  -40.700; -127.000;  -69.000
208.806;  -34.300; -165.000; -171.000
208.952; -270.500;-1044.000; -731.000
209.097;  153.800;  378.000;  349.000
209.242;  -93.400; -307.000; -382.000
209.387;   85.900;  392.000;  350.000
209.533; -110.200; -321.000; -350.000
209.678;  170.200;  472.000;  543.000
209.823; -113.600; -408.000; -310.000
209.969; -215.400; -860.000; -757.000
210.114; -238.300; -907.000; -719.000
210.259; -239.200; -939.000; -889.000
210.404;  -30.800; -171.000;  103.000
210.549;   -1.100;  108.000;    3.000
210.695;  -30.200;   -3.000;  -95.000
210.840;   49.600;   94.000;   67.000
210.985; -140.800; -484.000; -303.000
211.130;  138.800;  268.000;  406.000
211.275;    6.700;  207.000;  199.000
211.420;  -95.700; -300.000; -289.000
211.566; -150.000; -536.000; -489.000
211.711;   83.100;  218.000;  157.000
211.856; -135.700; -545.000; -519.000
212.001;    8.000;  151.000;   44.000
212.146;    0.900;  153.000;   49.000
212.291;  -39.800; -210.000; -186.000
212.436;  -49.900; -280.000;   -6.000
212.581; -180.100; -685.000; -653.000
212.726; -149.200; -487.000; -538.000
212.871;  -63.900; -552.000; -217.000
213.016; -316.300;-1172.000;-1029.000
213.161;  160.100;  406.000;  291.000
213.306; -156.500; -435.000; -577.000
213.451; -185.900; -778.000; -689.000
213.596; -109.000; -455.000; -347.000
213.741; -101.300; -448.000; -538.000
213.886; -160.800; -498.000; -517.000
214.031;  -58.300; -294.000; -124.000
214.176; -105.900; -408.000; -341.000
214.321;  -16.900; -296.000; -157.000
214.466;  -39.900; -163.000;  -43.000
214.611;   -1.000;  -61.000;  -10.000
214.756; -241.400; -948.000; -858.000
214.901;  -42.100; -388.000; -226.000
215.046; -265.400; -797.000; -825.000
215.191;   40.700;  128.000;   35.000
215.336;  -32.000; -157.000;  -19.000
215.480; -124.800; -684.000; -505.000
215.625;  -20.300; -175.000;  -19.000
215.770; -141.300; -757.000; -662.000
215.915;  -34.600;   -5.000;  -97.000
216.060;   -8.100; -113.000;  -21.000
216.205; -233.000; -731.000; -779.000
216.349; -148.000; -470.000; -533.000
216.494; -278.200; -939.000; -867.000
216.639; -233.100; -823.000; -888.000
216.784; -184.900; -577.000; -525.000
216.929;  111.900;  392.000;  281.000
217.073;  -10.100; -244.000;  -31.000
217.218;   13.800;   78.000;  -47.000
217.363; -152.600; -656.000; -618.000
217.507; -163.000; -623.000; -588.000
217.652; -291.000; -845.000; -874.000
217.797; -154.200; -708.000; -659.000
217.942; -229.100; -856.000; -720.000
218.086;  140.700;  608.000;  539.000
218.231;  -14.800; -174.000;  -26.000
218.376;  -50.400; -337.000; -229.000
218.520;   29.300;  -41.000;   96.000
218.665;  -76.700; -338.000; -204.000
218.810; -101.400; -275.000; -233.000
218.954;   58.600;  201.000;   35.000
219.099; -234.000; -713.000; -963.000
219.243; -126.300; -589.000; -554.000
219.388;  -64.100; -264.000; -136.000
219.532;   -1.300; -116.000; -116.000
219.677; -157.100; -564.000; -521.000
219.822;    0.200;   33.000;   89.000
219.966;    6.100;   17.000;  -99.000
220.111;  -69.800; -328.000;  -40.000
220.255; -207.400; -797.000; -750.000
220.400;  -52.200; -180.000; -146.000
220.544; -134.300; -516.000; -450.000
220.689; -109.000; -422.000; -451.000
220.833;  -53.200; -123.000;  -58.000
220.978;  -75.700; -393.000; -563.000
221.122;   30.300;  319.000;  307.000
221.267; -241.600; -906.000; -837.000
221.411; -145.400; -478.000; -394.000
221.555;  -11.000; -104.000;  -23.000
221.700;  -91.800; -329.000; -222.000
221.844;  105.400;  255.000;  272.000
221.989;  -93.600; -328.000; -311.000
222.133;  -20.400; -289.000; -307.000
222.277;   -3.100;    5.000;   78.000
222.422;   60.800;  227.000;  113.000
222.566;  -67.900; -381.000; -214.000
222.711; -108.200; -414.000; -479.000
222.855; -141.800; -643.000; -586.000
222.999; -178.800; -642.000; -717.000
223.144;  -51.800; -195.000; -194.000
223.288;  114.000;  423.000;  251.000
223.432;   37.800;  184.000;  230.000
223.576;   52.800;  152.000;  -21.000
223.721;   60.900;  364.000;  273.000
223.865; -117.100; -472.000; -475.000
224.009;  586.000; 1673.000; 1631.000
224.153; -141.700; -660.000; -671.000
224.298; -150.300; -531.000; -489.000
224.442;  -36.500;  -74.000;  -33.000
224.586;  -10.500; -169.000; -106.000
224.730; -196.800; -858.000; -670.000
224.875; -202.400; -739.000; -688.000
225.019;   51.900;  102.000;  188.000
225.163;  104.200;  208.000;  341.000
225.307;   40.900;   97.000;  -91.000
225.451;  126.500;  360.000;  481.000
225.595;   70.700;  264.000;  176.000
225.739;  -16.500; -170.000;  -94.000
225.884;   29.600;   86.000;    5.000
226.028; -215.200; -760.000; -626.000
226.172;  -94.400; -260.000; -273.000
226.316; -227.800; -941.000; -902.000
226.460; -140.500; -645.000; -493.000
226.604;  -92.600; -406.000; -400.000
226.748; -216.900; -836.000; -733.000
226.892;  -41.300; -227.000; -181.000
227.036;  -71.800; -537.000; -447.000
227.180; -139.200; -551.000; -375.000
227.324; -116.300; -561.000; -580.000
227.468; -205.800; -819.000; -717.000
227.612;   66.000;  242.000;  -28.000
227.756; -243.000; -845.000; -698.000
227.900;   75.600;  342.000;  441.000
228.044; -103.900; -509.000; -290.000
228.188;  137.300;  448.000;  568.000
228.332; -216.200; -546.000; -472.000
228.476;  -31.400; -223.000; -149.000
228.620;  -41.400; -210.000; -150.000
228.764;  165.400;  431.000;  349.000
228.908;  -49.600; -155.000;   30.000
229.052; -133.400; -615.000; -528.000
229.195;  -16.700; -172.000;   13.000
229.339;  -42.400; -235.000; -305.000
229.483;  -49.800;    5.000; -162.000
229.627;    0.400; -156.000;  139.000
229.771;  -76.400; -218.000; -294.000
229.915;   31.000;  230.000;   79.000
230.059; -217.800; -648.000; -663.000
230.202;  -78.900; -370.000; -317.000
230.346;  -58.300; -107.000;  107.000
230.490; -115.700; -489.000; -521.000
230.634; -217.200; -736.000; -553.000
230.777;  169.700;  478.000;  509.000
230.921; -101.700; -450.000; -359.000
231.065;  -46.100; -246.000; -286.000
231.209;   71.100;  261.000;  265.000
231.352;   57.400;   54.000;   40.000
231.496;   68.400;  568.000;  188.000
231.640; -153.600; -693.000; -621.000
231.783;  142.300;  546.000;  525.000
231.927;  -67.300; -294.000; -365.000
232.071; -233.400; -962.000; -736.000
232.214; -214.700; -980.000; -764.000
232.358; -227.500; -683.000; -599.000
232.502;   11.100;  -19.000;    7.000
232.645; -303.800;-1090.000; -927.000
232.789;  -46.200; -257.000; -218.000
232.933; -103.600; -407.000; -224.000
233.076; -221.900;-1038.000; -897.000
233.220; -211.200; -752.000; -777.000
233.363; -144.000; -669.000; -477.000
233.507;  119.700;  371.000;  129.000
233.650; -171.800; -764.000; -834.000
233.794;   91.700;  438.000;  461.000
233.938; -115.100; -530.000; -362.000
234.081;  -41.200;  -93.000;   31.000
234.225; -152.200; -631.000; -539.000
234.368; -211.200; -773.000; -723.000
234.512;  -73.800; -385.000; -299.000
234.655; -215.300; -582.000; -555.000
234.798; -133.000; -493.000; -466.000
234.942; -260.700; -884.000;-1002.000
235.085; -157.800; -651.000; -443.000
235.229; -139.000; -405.000; -410.000
235.372;  -83.500; -247.000; -191.000
235.516; -122.400; -397.000; -321.000
235.659;   58.400;   92.000;  121.000
235.802;  -17.300;  -38.000;  -22.000
235.946;   87.400;  335.000;  215.000
236.089;   46.500;  126.000;  250.000
236.233;  137.400;  275.000;  298.000
236.376;  -91.600; -235.000; -378.000
236.519;  -97.700; -297.000; -319.000
236.663;  -63.600; -215.000; -117.000
236.806; -274.700;-1029.000; -999.000
236.949;  121.700;  543.000;  431.000
237.092;  174.500;  412.000;  391.000
237.236; -167.000; -589.000; -502.000
237.379;  164.200;  352.000;  428.000
237.522; -245.500; -879.000; -768.000
237.666;   -0.700; -271.000;   18.000
237.809; -252.900; -851.000; -823.000
237.952;   87.100;  469.000;  271.000
238.095; -142.100; -447.000; -442.000
238.238;  165.800;  688.000;  700.000
238.382;    7.000;  166.000;  103.000
238.525; -120.300; -598.000; -511.000
238.668; -280.400;-1060.000; -985.000
238.811; -151.500; -638.000; -643.000
238.954; -137.800; -483.000; -334.000
239.097;  167.500;  617.000;  664.000
239.241;   45.300;  394.000;  326.000
239.384;  -28.000; -254.000; -214.000
239.527; -113.600; -424.000; -224.000
239.670; -275.700; -994.000;-1091.000
239.813; -230.600; -696.000; -658.000
239.956;  179.600;  579.000;  473.000
240.099; -239.000; -778.000; -725.000
240.242;  140.400;  428.000;  432.000
240.385;  110.900;  466.000;  450.000
240.528; -142.600; -706.000; -473.000
240.671;   28.800;  189.000;  134.000
240.814;  -97.600; -441.000; -158.000
240.957; -205.500; -767.000; -578.000
241.100; -165.900; -779.000; -755.000
241.243; -299.600;-1234.000; -893.000
241.386; -120.800; -508.000; -379.000
241.529; -183.700; -735.000; -547.000
241.672; -118.700; -566.000; -495.000
241.815; -238.600; -832.000; -808.000
241.958;  -18.800; -125.000; -182.000
242.101; -172.100; -545.000; -390.000
242.244;  -72.200; -270.000; -325.000
242.387;  -90.800; -304.000; -246.000
242.530;  163.300;  470.000;  134.000
242.673;  -69.100; -381.000; -309.000
242.815; -233.300; -925.000; -899.000
242.958; -123.600; -482.000; -381.000
243.101;   48.900;  132.000;  187.000
243.244; -169.500; -564.000; -521.000
243.387;  -86.100; -313.000; -316.000
243.530; -197.300; -657.000; -674.000
243.672;  -22.500;   43.000;  -92.000
243.815; -116.200; -355.000; -283.000
243.958;    9.600;   98.000;  -26.000
244.101;   -0.900;   59.000;  -16.000
244.243;  -16.200;  -47.000;  101.000
244.386; -229.000; -761.000; -630.000
244.529;  -29.400; -132.000; -139.000
244.672; -332.000;-1154.000; -951.000
244.814; -204.000; -621.000; -794.000
244.957; -101.400; -380.000; -304.000
245.100; -148.600; -489.000; -489.000
245.242; -118.200; -387.000; -374.000
245.385;  -24.900;  -59.000;  -39.000
245.528; -220.600; -871.000; -705.000
245.670;  175.900;  612.000;  634.000
245.813; -147.700; -599.000; -547.000
245.956;  -40.600; -324.000; -275.000
246.098; -111.900; -508.000; -650.000
246.241;   56.100;  194.000;   48.000
246.383;  -33.200; -119.000;  -73.000
246.526; -149.600; -454.000; -525.000
246.669; -222.000; -889.000; -780.000
246.811;   83.300;  172.000;   -1.000
246.954; -148.700; -512.000; -426.000
247.096;   -0.200;  -84.000;   -6.000
247.239; -145.400; -482.000; -445.000
247.381; -119.700; -647.000; -488.000
247.524;  187.200;  645.000;  679.000
247.666;    2.200;   58.000;   11.000
247.809; -246.800; -887.000; -691.000
247.951;  -13.900;  -75.000;  138.000
248.094;   60.800;  432.000;  308.000
248.236; -310.700;-1262.000;-1238.000
248.378;  -14.000; -356.000;  -81.000
248.521;  -70.800; -334.000; -337.000
248.663;  -42.600; -236.000; -267.000
248.806;  -42.600; -300.000; -266.000
248.948; -210.200; -886.000; -763.000
249.090;  -95.100; -428.000; -398.000
249.233;  -99.400; -344.000; -381.000
249.375; -146.300; -474.000; -451.000
249.518;  -35.000;  -83.000; -133.000
249.660;   -1.200; -103.000;    3.000
249.802; -368.900;-1303.000;-1189.000
249.945; -118.000; -612.000; -540.000
250.087; -236.500; -834.000; -768.000
250.229;  -90.300; -362.000; -480.000
250.371; -111.100; -494.000; -439.000
250.514;  -92.900; -310.000; -244.000
250.656;  -16.000;   69.000;  102.000
250.798; -236.100; -849.000; -800.000
250.940; -114.100; -322.000; -322.000
251.083;  -22.000; -335.000; -111.000
251.225;  136.200;  338.000;  310.000
251.367;  -55.600; -274.000; -373.000
251.509;  -81.500; -265.000; -210.000
251.651; -171.100; -731.000; -671.000
251.794;  129.500;  538.000;  632.000
251.936; -237.900; -821.000; -747.000
252.078; -149.400; -540.000; -461.000
252.220; -143.400; -645.000; -477.000
252.362;  175.600;  344.000;  462.000
252.504; -130.800; -677.000; -584.000
252.646; -223.500; -875.000; -722.000
252.788;   13.900;   14.000; -128.000
252.931;  -65.400; -257.000; -253.000
253.073;  -84.100; -376.000; -317.000
253.215;    4.300;  141.000;  122.000
253.357;  -15.700;   82.000; -153.000
253.499;  -98.500; -374.000; -234.000
253.641; -149.100; -749.000; -594.000
253.783; -168.700; -609.000; -527.000
253.925; -172.900; -586.000; -591.000
254.067; -219.000; -744.000; -667.000
254.209;  -61.500; -391.000; -259.000
254.351; -265.300; -865.000; -883.000
254.493; -106.800; -441.000; -417.000
254.635; -214.700; -936.000; -818.000
254.777; -152.000; -752.000; -687.000
254.918; -181.300; -512.000; -430.000
255.060;  -96.700; -551.000; -395.000
255.202; -136.900; -473.000; -261.000
255.344; -156.800; -658.000; -455.000
255.486; -131.300; -471.000; -406.000
255.628; -211.900; -780.000; -781.000
255.770; -174.700; -676.000; -536.000
255.912; -120.000; -559.000; -468.000
256.053; -197.000; -730.000; -508.000
256.195;  320.300; 1008.000;  903.000
256.337; -183.400; -861.000; -595.000
256.479;  146.600;  532.000;  416.000
256.621;  -65.600; -394.000; -212.000
256.762; -166.900; -789.000; -742.000
256.904;  140.400;  485.000;  487.000
257.046;  -75.100; -381.000; -271.000
257.188;  -99.100; -351.000; -264.000
257.329; -140.300; -525.000; -464.000
257.471; -285.800; -939.000; -807.000
257.613; -119.700; -584.000; -498.000
257.755; -288.200;-1073.000; -982.000
257.896;   91.000;  286.000;  392.000
258.038; -137.100; -403.000; -352.000
258.180;  -44.700; -354.000; -279.000
258.321; -163.300; -581.000; -457.000
258.463;   26.600;  -71.000;  133.000
258.605; -197.000; -562.000; -570.000
258.746; -213.900; -886.000; -772.000
258.888; -315.100;-1026.000;-1020.000
259.029;   58.000;  121.000;   -8.000
259.171; -176.500; -614.000; -550.000
259.313;    7.500;  -49.000;  -47.000
259.454; -128.400; -536.000; -414.000
259.596;  -56.700; -483.000; -390.000
259.737; -135.900; -590.000; -474.000
259.879;   82.400;  217.000;  311.000
260.020;  193.400;  901.000;  636.000
260.162;  -43.800; -146.000; -253.000
260.303; -232.200; -768.000; -687.000
260.445; -145.200; -609.000; -613.000
260.586;   58.700;  392.000;  157.000
260.728;  -40.500; -360.000; -248.000
260.869; -149.500; -350.000; -343.000
261.011;  224.700;  706.000;  537.000
261.152; -113.400; -479.000; -319.000
261.293; -146.800; -576.000; -595.000
261.435;  -62.900; -219.000; -184.000
261.576;  -96.800; -455.000; -325.000
261.718;  114.100;  420.000;  470.000
261.859; -248.700; -940.000; -949.000
262.000; -269.300; -951.000;-1016.000
262.142;  -39.100;  -52.000;  -60.000
262.283; -225.400; -808.000; -691.000
262.424; -150.900; -666.000; -625.000
262.566; -323.200;-1161.000; -983.000
262.707; -223.100; -840.000; -830.000
262.848; -229.800; -769.000; -726.000
262.990;  -97.300; -362.000; -345.000
263.131;  169.900;  650.000;  681.000
263.272;   36.000;  -61.000;  -41.000
263.413; -192.200; -589.000; -561.000
263.555; -108.900; -669.000; -143.000
263.696; -181.500; -550.000; -641.000
263.837;  -95.400; -449.000; -551.000
263.978;   13.900;   -5.000;  -77.000
264.119;  -59.500; -283.000; -264.000
264.261; -246.300; -847.000; -630.000
264.402;   26.400;   33.000;   40.000
264.543; -127.600; -509.000; -524.000
264.684;   20.300;   61.000;  -50.000
264.825; -134.100; -816.000; -538.000
264.966;   19.700;  -84.000;  -67.000
265.107; -227.700; -646.000; -670.000
265.248; -225.100; -825.000; -812.000
265.390;  -27.700;  152.000;   -9.000
265.531;  -32.700; -238.000; -107.000
265.672; -166.900; -557.000; -630.000
265.813;  158.400;  563.000;  439.000
265.954; -274.500; -959.000; -940.000
266.095;   18.800; -372.000; -322.000
266.236; -180.000; -686.000; -548.000
266.377;  -50.300; -243.000; -297.000
266.518; -156.500; -619.000; -547.000
266.659;   76.100;  170.000;  268.000
266.800;    1.500;   83.000;   85.000
266.941;  -96.700; -487.000; -478.000
267.082;   60.600;  354.000;   99.000
267.223;  -98.900; -344.000; -273.000
267.364; -225.900; -892.000; -686.000
267.504;   -4.200;    3.000;  135.000
267.645;   27.700;  160.000;   67.000
267.786;  -49.900; -147.000;  -86.000
267.927; -161.500; -473.000; -379.000
268.068;  -30.400; -186.000;  -61.000
268.209; -117.800; -175.000; -413.000
268.350; -100.300; -388.000; -532.000
268.490; -171.400; -648.000; -521.000
268.631;   78.100;  127.000;  225.000
268.772; -220.000; -874.000; -647.000
268.913;  -78.800; -328.000; -476.000
269.054;   -1.800; -117.000;   12.000
269.194;  -85.400; -418.000; -402.000
269.335; -318.600;-1137.000;-1074.000
269.476;    8.100;   33.000;  -35.000
269.617;  -82.100; -347.000; -392.000
269.757; -160.600; -713.000; -646.000
269.898; -233.400; -856.000; -613.000
270.039; -127.700; -415.000; -405.000
270.180; -284.100; -952.000; -816.000
270.320;  -14.500; -190.000; -250.000
270.461;  -59.200; -277.000; -249.000
270.602;   -6.500; -186.000; -156.000
270.742; -253.200; -868.000; -943.000
270.883; -108.100; -442.000; -390.000
271.023; -125.500; -358.000; -357.000
271.164; -125.400; -607.000; -528.000
271.305; -181.300; -666.000; -654.000
271.445; -150.300; -722.000; -683.000
271.586; -129.400; -462.000; -283.000
271.726;  -88.200; -397.000; -322.000
271.867; -125.300; -594.000; -534.000
272.008;  336.300; -473.000; -285.000
272.148;  242.300;  462.000;  468.000
272.289;   60.700; -113.000; -181.000
272.429;   79.200;   19.000;  185.000
272.570; -173.800; -633.000; -737.000
272.710; -200.700; -825.000; -775.000
272.851;  -17.300;  113.000; -130.000
272.991; -331.900;-1173.000;-1077.000
273.131; -140.100; -419.000; -459.000
273.272; -208.100; -683.000; -723.000
273.412;   27.600; -143.000;  -31.000
273.553;  -98.900; -488.000; -507.000
273.693;  304.500;  913.000;  858.000
273.834; -173.500; -894.000; -692.000
273.974; -132.600; -664.000; -615.000
274.114; -208.200; -772.000; -560.000
274.255;  177.900;  414.000;  373.000
274.395;   23.200; -180.000; -125.000
274.535;  108.700;  199.000;  350.000
274.676;   59.000;  225.000;   94.000
274.816;   24.200;  110.000;   34.000
274.956; -148.800; -624.000; -690.000
275.097; -142.800;-1014.000; -922.000
275.237; -202.100; -913.000; -803.000
275.377; -176.500; -778.000; -689.000
275.517; -283.700; -878.000; -937.000
275.658;  -95.200; -590.000; -555.000
275.798; -125.400; -606.000; -413.000
275.938;   65.000;  215.000;  323.000
276.078; -164.700; -626.000; -395.000
276.218;   27.500;   99.000;  104.000
276.359; -259.800;-1026.000;-1024.000
276.499;  -99.800; -605.000; -446.000
276.639;  -34.800; -305.000; -151.000
276.779;  -69.700; -475.000; -357.000
276.919; -221.300; -783.000; -624.000
277.059;   -1.800; -261.000; -212.000
277.199;  -96.900; -357.000; -259.000
277.340;  124.900;  287.000;  175.000
277.480; -207.200; -840.000; -693.000
277.620;  115.200;  192.000;   16.000
277.760; -388.100;-1533.000;-1294.000
277.900;   60.500;  113.000;   33.000
278.040;   47.100;  137.000;  159.000
278.180;   93.900;  270.000;  170.000
278.320;   29.100;   21.000;   56.000
278.460; -120.000; -443.000; -469.000
278.600; -159.700; -708.000; -598.000
278.740;  141.000;  448.000;  224.000
278.880; -154.500; -768.000; -791.000
279.020;   54.200; -194.000; -144.000
279.160; -165.300; -672.000; -595.000
279.300; -205.400; -926.000; -873.000
279.440; -197.600; -709.000; -622.000
279.579;  -81.200;-1014.000; -929.000
279.719;  -94.300; -410.000; -394.000
279.859;  150.600;   -4.000;   41.000
279.999;   77.100; -208.000;  101.000
280.139;  -24.500; -435.000; -387.000
280.279; -157.200; -708.000; -745.000
280.419;    5.500; -229.000; -147.000
280.559;  -44.600; -259.000; -180.000
280.698; -162.000; -790.000; -639.000
280.838; -173.200; -778.000; -800.000
280.978; -207.000; -846.000; -790.000
281.118; -220.100; -811.000; -704.000
281.257;   45.300;   24.000;    6.000
281.397; -221.000;-1094.000; -960.000
281.537; -127.200; -599.000; -712.000
281.677;  -20.000; -150.000; -101.000
281.816; -132.200; -700.000; -630.000
281.956;  -42.300; -193.000; -257.000
282.096;  -97.200; -539.000; -396.000
282.235; -216.100; -672.000; -638.000
282.375;  -26.200; -243.000;  -98.000
282.515; -170.200; -715.000; -707.000
282.654;   93.600;   29.000;  106.000
282.794;   85.100;  388.000;  244.000
282.934; -101.500; -530.000; -491.000
283.073; -290.100;-1030.000; -857.000
283.213;  -80.900; -460.000; -467.000
283.353;  -72.600; -408.000; -349.000
283.492;  -53.700; -264.000; -296.000
283.632;  -74.300; -254.000; -168.000
283.771; -184.300; -859.000; -730.000
283.911; -125.300; -369.000; -260.000
284.050; -237.900; -794.000; -748.000
284.190; -316.300;-1229.000;-1096.000
284.329; -262.200;-1055.000; -964.000
284.469; -161.600; -516.000; -591.000
284.608;  -91.400; -559.000; -598.000
284.748; -152.500; -614.000; -570.000
284.887;    4.500;  -87.000;  -20.000
285.027; -230.100; -844.000; -892.000
285.166;  -33.900; -192.000; -249.000
285.306;   37.700; -116.000;  -33.000
285.445;  -95.000; -229.000; -343.000
285.584; -174.200; -630.000; -494.000
285.724;  -78.400; -282.000; -322.000
285.863; -215.500; -857.000; -507.000
286.002;  -95.000; -366.000; -276.000
286.142; -199.500; -715.000; -622.000
286.281;  -86.300; -525.000; -493.000
286.420; -133.500; -554.000; -417.000
286.560;  247.100;  653.000;  623.000
286.699; -255.800; -958.000; -912.000
286.838; -137.400; -590.000; -591.000
286.978; -160.000; -533.000; -537.000
287.117; -241.900;-1085.000; -950.000
287.256;  -23.000; -228.000; -211.000
287.395;  -96.000; -197.000; -378.000
287.535;  -77.500; -370.000; -298.000
287.674; -138.000; -509.000; -484.000
287.813;  164.500;  661.000;  533.000
287.952; -242.000;-1010.000; -871.000
288.091; -271.500;-1049.000; -915.000
288.231;   77.100;   13.000;   15.000
288.370; -364.200;-1217.000;-1200.000
288.509; -132.400; -728.000; -645.000
288.648; -185.900; -770.000; -548.000
288.787;  -16.000; -243.000;  -87.000
288.926; -113.100; -454.000; -475.000
289.065;  277.900;  859.000;  672.000
289.204;  -83.700; -377.000; -217.000
289.344; -197.300; -791.000; -690.000
289.483;   81.900;  416.000;  304.000
289.622;  -36.100; -291.000; -149.000
289.761;  -16.700; -309.000; -166.000
289.900; -194.400; -785.000; -626.000
290.039;    6.900;  -12.000;  -95.000
290.178;  -46.000; -274.000; -180.000
290.317; -138.000; -618.000; -479.000
290.456;  -97.900; -463.000; -451.000
290.595; -284.800; -961.000; -833.000
290.734; -248.100; -904.000; -891.000
290.873; -135.900; -456.000; -420.000
291.011; -194.800; -833.000; -843.000
291.150; -204.500; -770.000; -682.000
291.289;  -39.500; -343.000; -110.000
291.428; -183.800; -599.000; -480.000
291.567;  -76.400; -370.000; -442.000
291.706;    8.600;  109.000;  154.000
291.845; -158.500; -597.000; -505.000
291.984; -323.100;-1234.000;-1061.000
292.122;  192.100;  602.000;  582.000
292.261;  126.900;  620.000;  463.000
292.400;   43.500; -144.000;  211.000
292.539; -221.200; -959.000; -813.000
292.678;  -24.900; -325.000; -300.000
292.816; -285.400;-1136.000; -965.000
292.955; -194.200; -844.000; -684.000
293.094;  -54.800; -173.000; -337.000
293.233;  -72.600; -556.000; -400.000
293.371;  -47.600; -225.000;  -84.000
293.510; -196.300; -866.000; -780.000
293.649; -251.800; -959.000; -924.000
293.787;  -76.400;-1083.000;-1012.000
293.926;   25.800; -113.000;  -32.000
294.065;  -67.300; -379.000; -290.000
294.203;  108.600;  298.000;  406.000
294.342;   56.100;   74.000;  156.000
294.481;11679.600;51180.000; -836.000
294.619;  -25.800; -425.000; -582.000
294.758; -271.900;-1230.000;-1137.000
294.896;  172.200; -125.000;    5.000
295.035; -240.700;-1040.000;-1006.000
295.174; -223.800;-1082.000; -954.000
295.312;  -46.200; -323.000; -203.000
295.451;   -9.100; -307.000; -428.000
295.589;  -99.500; -389.000; -518.000
295.728;   57.100; -292.000; -165.000
295.866;   24.300;  -36.000;  -51.000
296.005; -112.900; -584.000; -341.000
296.143; -111.500; -558.000; -596.000
296.282; -193.300; -957.000; -881.000
296.420; -176.000; -657.000; -557.000
296.559; -133.600; -892.000; -633.000
296.697;  -20.800; -847.000; -665.000
296.835;  127.300;-1141.000;-1002.000
296.974;  121.100;  -23.000;   39.000
297.112;   39.200; -443.000; -504.000
297.251; -160.000; -815.000; -755.000
297.389;  200.400; -576.000; -438.000
297.527;   93.500; -145.000;  -83.000
297.666;  -71.100; -486.000; -438.000
297.804;  -86.400; -404.000; -264.000
297.942;   16.500; -136.000; -161.000
298.081;    3.900; -183.000;   63.000
298.219;  181.200;  -17.000;  -19.000
298.357;   89.600; -144.000;  -71.000
298.495;   60.900; -810.000; -812.000
298.634;  168.500;  245.000;  219.000
298.772;  161.600; -220.000; -338.000
298.910;  -40.200; -309.000; -182.000
299.048;   28.100; -130.000; -153.000
299.187;  -25.200; -350.000; -250.000
299.325;   75.100;   52.000;  122.000
299.463;  125.300; -389.000; -299.000
299.601;  253.200; -327.000; -271.000
299.739; -209.700; -908.000; -883.000
299.877; -134.400; -791.000; -703.000
300.016;  -98.700;-1095.000; -935.000
300.154;  307.500;  -19.000; -161.000
300.292;  102.300; -428.000; -348.000
300.430;   84.000; -408.000; -291.000
300.568; -180.100; -940.000; -874.000
300.706;  -87.200; -366.000; -469.000
300.844; -172.200;-1108.000; -979.000
300.982;  242.500;  246.000;  282.000
301.120; -200.400; -965.000; -866.000
301.258; -109.900; -812.000; -705.000
301.396;   83.500;  104.000;  -41.000
301.534;  178.500; -218.000; -293.000
301.672;   -4.900; -664.000; -521.000
301.810;   45.500; -613.000; -545.000
301.948;  293.500;   53.000;  149.000
302.086; 1164.900; -250.000;  -32.000
302.224; 1830.600; -610.000; -585.000
302.362;  107.000; -558.000; -622.000
302.500;  -35.600; -923.000; -893.000
302.638;  245.700;  128.000;  245.000
302.776;   13.200; -352.000; -408.000
302.913;  136.400;  447.000;  236.000
303.051;   -4.700;  -86.000;  -23.000
303.189;  152.300;   90.000;  118.000
303.327;  -74.100; -341.000; -256.000
303.465; -129.200; -832.000; -588.000
303.603; -179.600; -805.000; -604.000
303.740;  196.200;  417.000;  241.000
303.878;   48.400; -800.000; -759.000
304.016; -143.700; -915.000; -790.000
304.154; -242.200;-1123.000;-1152.000
304.291;  -26.200; -505.000; -554.000
304.429;   51.000;  102.000;   74.000
304.567; -244.400; -908.000; -893.000
304.705;  -78.200; -408.000; -515.000
304.842;  178.500; -616.000; -540.000
304.980;  109.600;  215.000;   35.000
305.118;  133.300; -367.000; -365.000
305.255; -101.300; -945.000; -927.000
305.393;  149.600;  178.000;  239.000
305.531; -207.300;-1173.000; -956.000
305.668; -111.200; -663.000; -582.000
305.806;  230.000; -358.000; -439.000
305.943;  223.100; -629.000; -637.000
306.081;  164.000; -378.000; -267.000
306.219; -189.400; -863.000; -748.000
306.356;   56.900;  158.000;   27.000
306.494;  246.000;  981.000;  761.000
306.631;   17.700;  -11.000;  -55.000
306.769;   53.200; -613.000; -485.000
306.906;   20.200; -284.000; -258.000
307.044;  -65.600; -473.000; -488.000
307.181;  -91.000; -410.000; -332.000
307.319;  107.900;  112.000;   87.000
307.456; -320.100;-1191.000;-1153.000
307.594; -169.900; -980.000; -727.000
307.731;    8.800; -371.000; -164.000
307.868;   26.200;  -15.000;   20.000
308.006; -256.800; -961.000; -847.000
308.143;  -91.600; -618.000; -330.000
308.281;  406.000;  -37.000; -254.000
308.418;   55.300; -748.000; -640.000
308.555; -112.200; -400.000; -250.000
308.693; -102.400; -577.000; -573.000
308.830; -170.400; -712.000; -657.000
308.967;    8.100; -215.000;  -95.000
309.105;  -14.000; -507.000; -396.000
309.242;  113.300; -468.000; -367.000
309.379;  822.600; -577.000; -655.000
309.517;  -69.900; -936.000; -948.000
309.654; -169.100; -910.000; -734.000
309.791; -129.200; -662.000; -580.000
309.928; -193.200; -977.000; -914.000
310.065;  366.000;  819.000;  697.000
310.203;  -31.400; -825.000; -850.000
310.340;   48.600; -465.000; -321.000
310.477; -101.900; -412.000; -516.000
310.614;  -89.600; -383.000; -473.000
310.751; -115.900; -427.000; -518.000
310.889;   -2.400;    1.000;   11.000
311.026; -275.900;-1161.000; -939.000
311.163;  -49.100; -386.000; -380.000
311.300; -122.200; -512.000; -479.000
311.437; -126.200; -658.000; -619.000
311.574; -263.000;-1226.000; -985.000
311.711;  -84.500; -595.000; -433.000
311.848;  -54.900; -380.000; -388.000
311.985;   65.200;  270.000;   93.000
312.122; -210.600; -932.000; -762.000
312.259; -183.000; -941.000; -994.000
312.396;  -97.900; -508.000; -551.000
312.533; -132.600; -812.000; -790.000
312.670; -242.200;-1070.000; -898.000
312.807;  -41.900; -352.000; -367.000
312.944; -131.100; -513.000; -611.000
313.081;  -45.000; -150.000; -415.000
313.218; -163.400;-1111.000; -867.000
313.355;   69.500; -531.000; -449.000
313.492;   38.700; -455.000; -292.000
313.629;  303.500;  815.000;  735.000
313.766; -328.500;-1176.000;-1008.000
313.902;   41.600; -186.000;   21.000
314.039;  -79.500; -372.000; -289.000
314.176;  117.300;  286.000;  192.000
314.313; -132.000; -569.000; -473.000
314.450; -126.000; -788.000; -684.000
314.587;  -99.700; -468.000; -480.000
314.723;   46.600;  -78.000;  130.000
314.860;  100.100;  318.000;  332.000
314.997;  112.300;  223.000;  142.000
315.134;  -44.300; -385.000; -368.000
315.270;  -21.000; -480.000; -496.000
315.407; -214.900;-1094.000; -967.000
315.544;  -54.500; -657.000; -538.000
315.681; -107.600; -681.000; -565.000
315.817;   84.900; -133.000; -176.000
315.954;   61.900; -613.000; -392.000
316.091; -226.100;-1045.000;-1023.000
316.227;   -9.500;  -71.000; -179.000
316.364;   38.900;   23.000;    6.000
316.500;  -57.300; -113.000; -300.000
316.637;  -61.600; -181.000; -302.000
316.774; -146.800; -625.000; -358.000
316.910; -151.400; -598.000; -629.000
317.047; -112.600; -487.000; -351.000
317.183;  -65.700; -435.000; -566.000
317.320;   -4.200; -367.000; -321.000
317.456; -110.800; -733.000; -805.000
317.593; -131.400; -598.000; -641.000
317.729;   47.100;  168.000;  -67.000
317.866; -370.500;-1434.000;-1285.000
318.002; -149.300; -708.000; -948.000
318.139; -183.700; -883.000; -867.000
318.275; -182.200;-1003.000; -738.000
318.412; -110.800; -517.000; -336.000
318.548;  -44.300; -751.000; -720.000
318.685; -197.000; -985.000; -888.000
318.821; -138.100; -762.000; -735.000
318.957;   -8.000;   34.000;  -23.000
319.094;  121.200;  297.000;  154.000
319.230; -122.600; -756.000; -742.000
319.367;  262.500; -471.000; -520.000
319.503;  115.200; -538.000; -436.000
319.639; -155.000; -877.000; -793.000
319.775; -105.500; -750.000; -685.000
319.912;  -71.400; -424.000; -519.000
320.048; -199.800;-1184.000;-1184.000
320.184;  190.400;   59.000;   70.000
320.321;  -99.400; -497.000; -467.000
320.457;  194.100;  475.000;  662.000
320.593;  -98.300; -375.000; -382.000
320.729; -186.000; -732.000; -734.000
320.866; -149.300; -577.000; -635.000
321.002;  -86.800; -759.000; -809.000
321.138;   -9.000; -135.000; -211.000
321.274;  175.000; -148.000; -115.000
321.410;  -47.700; -585.000; -353.000
321.546;  -17.500;-1011.000; -911.000
321.683;  173.000;  400.000;  185.000
321.819;   88.000;  -48.000; -117.000
321.955; -207.300; -743.000; -722.000
322.091;  -58.300; -585.000; -540.000
322.227;   -6.100; -382.000; -202.000
322.363;   -9.200; -320.000; -215.000
322.499;  -62.200; -343.000; -331.000
322.635;  347.100;  636.000;  443.000
322.771;   46.800; -139.000;   12.000
322.907;  225.300;  129.000;  327.000
323.043;    3.400; -115.000; -206.000
323.179;  -42.800; -394.000; -363.000
323.315;   49.600; -401.000; -371.000
323.451;  207.800; -328.000; -236.000
323.587;  142.500;  -60.000;  -77.000
323.723;   50.300; -682.000; -601.000
323.859;  -17.800; -258.000;  -76.000
323.995;  -23.600; -467.000; -409.000
324.131; -212.000; -967.000; -892.000
324.267;  -51.600; -254.000; -276.000
324.402; -254.700; -960.000; -983.000
324.538;   19.600; -279.000; -104.000
324.674;   85.600;  164.000;   77.000
324.810;  355.200;  226.000;  308.000
324.946;   83.600; -810.000; -658.000
325.082; -107.000; -568.000; -475.000
325.217;    4.300;  -62.000;   16.000
325.353; -155.800; -764.000; -659.000
325.489; -160.300; -540.000; -506.000
325.625; -104.100; -579.000; -525.000
325.760;  154.200;  517.000;  376.000
325.896;  -35.800; -515.000; -702.000
326.032; -111.500; -403.000; -352.000
326.168;  -79.300; -462.000; -369.000
326.303; -106.100; -352.000; -461.000
326.439;   -6.300; -336.000; -276.000
326.575;   22.900; -190.000;  -29.000
326.710;   31.600; -156.000;  -30.000
326.846;   23.200;  146.000;  103.000
326.982; -130.000; -530.000; -548.000
327.117; -128.300; -481.000; -442.000
327.253; -158.700; -745.000; -742.000
327.388; -336.300;-1137.000;-1153.000
327.524;  -39.900; -811.000; -578.000
327.659;  -15.600;  -58.000;  -22.000
327.795;   10.400;   69.000;   45.000
327.931; -175.200; -723.000; -499.000
328.066;  -12.100; -417.000; -276.000
328.202;    6.900;   12.000; -129.000
328.337;  262.900;  957.000;  713.000
328.473;   28.500;  -12.000;  -74.000
328.608;   -9.300; -256.000; -267.000
328.743; -129.800; -799.000; -664.000
328.879;   79.800;  214.000;  114.000
329.014; -125.600; -102.000; -122.000
329.150; -142.800; -358.000; -483.000
329.285; -131.300; -465.000; -466.000
329.421;  -38.900; -548.000; -246.000
329.556;    4.000;  -36.000;   85.000
329.691; -138.000; -633.000; -615.000
329.827; -122.100; -626.000; -480.000
329.962;  -32.400;  131.000; -301.000
330.097; -141.100; -673.000; -585.000
330.233;  -75.800; -410.000; -223.000
330.368; -229.300; -839.000; -628.000
330.503;   22.100;    3.000;   98.000
330.638;   35.500;  -93.000; -125.000
330.774;  -92.400; -609.000; -530.000
330.909;  -63.100; -434.000; -244.000
331.044; -150.800; -714.000; -708.000
331.179; -334.100;-1217.000;-1109.000
331.315;   51.600;   77.000;   20.000
331.450;   63.800;  157.000;  285.000
331.585; -146.100; -805.000; -706.000
331.720; -142.700; -510.000; -460.000
331.855;    5.000;  -35.000; -102.000
331.990;  473.700;   62.000;  138.000
332.126;  301.700; -110.000;   71.000
332.261;  -14.100; -379.000; -265.000
332.396;   53.000; -135.000; -242.000
332.531; -219.200;-1074.000;-1031.000
332.666;   85.200; -519.000; -363.000
332.801; -177.400; -726.000; -807.000
332.936;   12.500; -192.000; -122.000
333.071; -213.900; -870.000; -817.000
333.206;   70.000;  307.000;  379.000
333.341;  116.500;  344.000;  418.000
333.476; -139.700; -627.000; -623.000
333.611;  -63.100; -251.000; -173.000
333.746;  -46.800; -381.000; -464.000
333.881; -218.200; -973.000; -935.000
334.016; -204.400; -936.000; -917.000
334.151; -244.300; -746.000; -702.000
334.286;   64.400;  152.000;  186.000
334.421;  -11.600; -125.000; -178.000
334.556; -126.300; -611.000; -567.000
334.690; -126.700; -631.000; -577.000
334.825;  172.900;  381.000;   83.000
334.960;  -99.000; -285.000; -413.000
335.095;   24.700;  135.000;  -91.000
335.230; -145.900; -722.000; -738.000
335.365; -235.200;-1084.000; -990.000
335.499; -222.700;-1108.000;-1037.000
335.634;   62.000;    9.000;  534.000
335.769; -172.000; -755.000; -720.000
335.904;  -93.400; -603.000; -561.000
336.038;  -80.900; -735.000; -657.000
336.173; -222.900;-1206.000;-1194.000
336.308;   34.400; -116.000; -189.000
336.443;   24.700; -544.000; -634.000
336.577; -141.500; -936.000; -787.000
336.712;  153.000;   -4.000;  -12.000
336.847;  -88.300; -724.000; -607.000
336.981;  129.000; -272.000; -208.000
337.116;  565.500;  615.000;  501.000
337.250;  340.300; -434.000; -421.000
337.385;  477.800; -297.000; -208.000
337.520;  155.100; -632.000; -603.000
337.654;  -39.100; -215.000; -126.000
337.789; -211.800; -989.000; -933.000
337.923;  -20.900; -104.000; -205.000
338.058; -124.900; -673.000; -738.000
338.192;  -58.600; -611.000; -488.000
338.327;   31.700;  -18.000; -155.000
338.461;  -98.200; -299.000; -469.000
338.596; -153.400; -780.000; -638.000
338.730; -165.200; -767.000; -803.000
338.865;  219.800;  -46.000; -140.000
338.999;  -78.100; -846.000; -702.000
339.134;  -49.200; -634.000; -536.000
339.268;   37.200; -741.000; -603.000
339.403;  688.700; -740.000; -775.000
339.537;  216.600; -894.000; -820.000
339.671; -187.900; -829.000; -813.000
339.806; -118.000; -556.000; -512.000
339.940;   77.400; -261.000; -235.000
340.074; -175.900; -685.000; -510.000
340.209;  -73.900; -351.000; -230.000
340.343; -168.400; -517.000; -573.000
340.477;  362.100;  998.000; 1036.000
340.612;  -97.800;-1033.000; -900.000
340.746;  296.100; -199.000; -243.000
340.880; -122.200; -924.000; -785.000
341.014;    1.500;  -45.000; -154.000
341.149; -204.600; -756.000; -718.000
341.283; -179.100; -839.000; -754.000
341.417; -157.100;-1124.000; -938.000
341.551;  247.700; -768.000; -708.000
341.685;  -40.700; -633.000; -611.000
341.820;  -59.700; -562.000; -493.000
341.954;  -68.300; -218.000; -349.000
342.088; -295.500;-1102.000;-1019.000
342.222;  133.400;  565.000;  618.000
342.356;  -71.100; -395.000; -335.000
342.490; -187.800; -880.000; -841.000
342.624;  -25.400; -339.000; -242.000
342.758;   29.700; -364.000; -312.000
342.892; -110.700; -710.000; -585.000
343.026;  -16.000;  -58.000; -116.000
343.160;  -63.800; -426.000; -376.000
343.294; -119.400; -474.000; -337.000
343.428;  -12.100; -488.000; -448.000
343.562;   17.900; -172.000;  -23.000
343.696;  -42.400; -385.000; -314.000
343.830;    6.700; -362.000; -356.000
343.964;   49.400; -231.000; -168.000
344.098; 1670.500;  199.000;   70.000
344.232; 1426.600; -266.000; -127.000
344.366;  188.800; -567.000; -453.000
344.500;  175.600; -665.000; -744.000
344.634;   66.800; -324.000; -164.000
344.768;  -15.500; -531.000; -341.000
344.902;   74.400;  278.000;  256.000
345.035; -136.100; -556.000; -496.000
345.169; -237.900; -933.000; -656.000
345.303;  -22.700; -308.000; -482.000
345.437; -145.300; -826.000; -717.000
345.571; -116.500; -675.000; -594.000
345.704;  -90.200; -309.000; -532.000
345.838;   15.600; -331.000; -284.000
345.972;  -44.400; -543.000; -495.000
346.106;  327.200; -179.000; -190.000
346.239;  806.500; -312.000; -243.000
346.373;   58.000; -343.000; -302.000
346.507; -265.900; -950.000; -962.000
346.640;  317.900;  -30.000;   13.000
346.774;  -84.600; -650.000; -797.000
346.908;   14.600; -138.000;  -11.000
347.041; -144.700; -646.000; -593.000
347.175;   59.800;  259.000;   27.000
347.309; -119.000; -698.000; -628.000
347.442; -175.600; -883.000; -732.000
347.576;  589.400;  670.000;  668.000
347.709;  382.800; -123.000;  -52.000
347.843; -156.600; -933.000; -825.000
347.976;  131.600;  235.000;  294.000
348.110; -314.200;-1268.000;-1186.000
348.243; -189.000; -679.000; -772.000
348.377;   23.400;  -26.000;   60.000
348.510;  169.900;  403.000;  540.000
348.644;  -26.100;  -37.000; -159.000
348.777;   60.600;  180.000;  191.000
348.911;  -64.300; -142.000; -112.000
349.044;  332.700;  471.000;  448.000
349.178;  298.300;-1069.000;-1006.000
349.311;  277.100;  141.000;  255.000
349.444;  -17.300; -927.000; -813.000
349.578;    9.300; -347.000; -200.000
349.711; -179.200; -959.000; -862.000
349.845;   -7.800; -661.000; -591.000
349.978; -254.600;-1224.000;-1137.000
350.111; -129.300; -546.000; -612.000
350.244; -157.600; -596.000; -700.000
350.378;   60.200; -392.000; -393.000
350.511;  -97.600; -393.000; -426.000
350.644; -174.700; -808.000; -806.000
350.778;   45.400;  168.000;  104.000
350.911;   71.700;  134.000;  140.000
351.044; -155.200; -685.000; -615.000
351.177;  -17.100; -321.000; -281.000
351.310;   -9.400;    3.000; -131.000
351.444; -116.600; -888.000; -788.000
351.577;  256.700;  140.000;   90.000
351.710;  237.900;  593.000;  417.000
351.843;  -42.200; -165.000;  -77.000
351.976;   46.100;  149.000;  -79.000
352.109; -154.700; -621.000; -612.000
352.242;  -21.300; -464.000; -419.000
352.376; -104.600; -580.000; -636.000
352.509;  351.100; -437.000; -356.000
352.642;   37.100; -654.000; -604.000
352.775;  158.600; -141.000;  -98.000
352.908; -198.900; -933.000; -904.000
353.041; -154.000; -814.000; -824.000
353.174; -102.000; -551.000; -424.000
353.307; -124.500; -753.000; -764.000
353.440;  163.900;  541.000;  453.000
353.573; -194.800; -957.000;-1008.000
353.706;  -97.200; -384.000; -558.000
353.839;    2.200; -264.000; -220.000
353.971; -165.700; -657.000; -512.000
354.104; -136.200; -896.000; -835.000
354.237;  -39.100; -627.000; -662.000
354.370; -138.700; -846.000; -879.000
354.503; -347.400;-1231.000;-1308.000
354.636;  -43.600; -529.000; -348.000
354.769; -237.000; -937.000; -860.000
354.902;    7.100; -230.000; -139.000
355.034;  -17.800; -164.000; -220.000
355.167;    3.600; -262.000; -162.000
355.300; -151.100;-1061.000; -880.000
355.433; 1879.700;  -71.000;  -14.000
355.565; 2846.200; -402.000; -384.000
355.698;  769.900; -356.000; -296.000
355.831;   19.800; -882.000; -801.000
355.964;  215.600; -285.000; -170.000
356.096; -141.200; -856.000; -843.000
356.229;   39.500; -523.000; -530.000
356.362;  613.900; -373.000; -266.000
356.494; 1164.300; -229.000; -162.000
356.627;  925.900;  269.000;  377.000
356.760; 1307.800;  120.000;   53.000
356.892; 1796.700; -286.000; -601.000
357.025; 1290.300;  403.000;  389.000
357.157; 1186.100; -167.000; -179.000
357.290; 1224.900; -856.000; -713.000
357.423;  388.400; -667.000; -556.000
357.555;  248.800; -217.000; -228.000
357.688;  233.700; -483.000; -364.000
357.820;  828.200; -870.000; -877.000
357.953; 6603.000; -563.000; -589.000
358.085; 1442.500; -632.000; -612.000
358.218; 2251.200;-1131.000; -932.000
358.350;  405.600;  -58.000;  312.000
358.483; -187.000;-1300.000;-1187.000
358.615;    0.300;-1182.000;-1078.000
358.747;  -60.300;-1187.000;-1058.000
358.880;   87.300; -810.000; -744.000
359.012;   28.700; -376.000; -202.000
359.145;  -30.800; -480.000; -511.000
359.277;   95.100; -962.000; -913.000
359.409; 5545.000;  536.000;  231.000
359.542; 1441.000; -738.000; -688.000
359.674;  137.600;   46.000;   13.000
359.806; -107.200; -565.000; -438.000
359.939;  -61.900; -617.000; -516.000
360.071;  -36.100; -583.000; -579.000
360.203;   -9.700; -411.000; -364.000
360.335;  143.500;  164.000;  -16.000
360.468;  376.400; -249.000; -307.000
360.600; 4472.400; -547.000; -454.000
360.732; 5175.500; -546.000; -423.000
360.864;  723.400;-1216.000;-1044.000
360.996;  582.100; -516.000; -554.000
361.129;   79.600; -389.000; -598.000
361.261;   98.100;  110.000; -113.000
361.393;    4.700; -252.000; -214.000
361.525;   93.600;   94.000;  244.000
361.657;  -70.300; -821.000; -703.000
361.789;   39.600; -139.000; -155.000
361.921;  467.800; -642.000; -593.000
362.053;  583.000;  524.000;  541.000
362.185;  143.800;  288.000;   72.000
362.318;  -87.200; -709.000; -705.000
362.450;  284.200;  294.000;  444.000
362.582;  241.600; -913.000; -870.000
362.714;  -50.000; -353.000; -332.000
362.846;  -98.600; -606.000; -490.000
362.978; -267.900; -941.000; -811.000
363.109;  134.400; -161.000; -260.000
363.241;  887.400; -739.000; -749.000
363.373;  806.200; -649.000; -564.000
363.505; 1272.300; -186.000;  -91.000
363.637;  323.300; -787.000; -601.000
363.769; -232.600;-1067.000;-1080.000
363.901;  -79.800; -596.000; -654.000
364.033; -227.500;-1103.000;-1062.000
364.165;   13.400; -283.000; -283.000
364.296;  170.600; -316.000; -177.000
364.428;  148.700;-1344.000;-1220.000
364.560;  -92.600; -679.000; -661.000
364.692;  -91.400; -738.000; -835.000
364.824;  535.600; -588.000; -456.000
364.955;  860.000; -402.000; -564.000
365.087; 1629.400;-1097.000; -852.000
365.219;   76.100; -686.000; -816.000
365.351;  -81.600; -526.000; -572.000
365.482;  153.300;  300.000;  240.000
365.614;  -46.400; -402.000; -314.000
365.746; -115.300; -729.000; -752.000
365.877; -126.700; -706.000; -672.000
366.009;  530.500;  -35.000;  -62.000
366.141; -166.400;-1249.000;-1134.000
366.272; -180.400; -803.000; -719.000
366.404; -201.100;-1005.000; -874.000
366.535;   34.600; -139.000;  -12.000
366.667; -194.200; -644.000; -649.000
366.799;  111.800;  353.000;  203.000
366.930; -198.800; -862.000; -996.000
367.062;  280.500; -639.000; -613.000
367.193;  257.600; -872.000; -842.000
367.325;  -60.700; -580.000; -684.000
367.456;  152.000; -246.000;   31.000
367.588;  327.300; -371.000; -318.000
367.719;  106.300;  -44.000;  -45.000
367.851;   40.900; -222.000; -241.000
367.982;  -82.000; -875.000; -732.000
368.113;  216.000; -475.000; -358.000
368.245; -193.000; -960.000; -841.000
368.376;   12.200; -254.000; -302.000
368.508;  -38.500; -188.000; -263.000
368.639; -222.800;-1166.000;-1034.000
368.770;  -53.800; -670.000; -589.000
368.902;  -87.800; -836.000; -926.000
369.033; -168.500; -906.000; -855.000
369.164;  -81.600; -720.000; -653.000
369.296; -186.400; -452.000; -601.000
369.427;   56.500; -209.000; -144.000
369.558;  -49.000; -593.000; -377.000
369.689; -108.000; -721.000; -569.000
369.821; -255.800; -951.000; -845.000
369.952;   -2.600;   42.000; -108.000
370.083;  -77.000; -229.000; -108.000
370.214; -123.800; -735.000; -650.000
370.345;   20.300;   65.000;   81.000
370.477; -128.600; -810.000; -790.000
370.608;  451.000; -328.000; -264.000
370.739;  -88.800;-1233.000;-1292.000
370.870;  -77.300;-1102.000; -923.000
371.001;  208.200; -378.000; -467.000
371.132; -128.900; -754.000; -735.000
371.263;  -26.300;  -42.000; -148.000
371.394; -240.300; -841.000; -748.000
371.525;  124.100;  345.000;  225.000
371.657; -145.200; -808.000; -670.000
371.788;  208.400;  103.000;  199.000
371.919;  340.500; -384.000; -304.000
372.050; 6614.300;  -91.000; -156.000
372.181; 1983.200; -188.000; -294.000
372.311;  755.500;   42.000; -127.000
372.442;   84.600; -457.000; -451.000
372.573;   37.900; -444.000; -340.000
372.704; -223.700;-1008.000; -980.000
372.835;  179.900; -228.000; -289.000
372.966;  -68.600; -646.000; -554.000
373.097; -105.300; -575.000; -711.000
373.228;  -48.500; -717.000; -542.000
373.359;  304.700; -824.000; -536.000
373.490; 1758.000; -881.000; -727.000
373.620; 2193.800;-1001.000; -803.000
373.751; 3273.500; -332.000; -396.000
373.882; 1475.900; -663.000; -733.000
374.013;  123.700; -449.000; -262.000
374.143;  -42.900; -581.000; -659.000
374.274; -176.700; -987.000; -908.000
374.405;  350.100; -388.000; -276.000
374.536;  827.700; -526.000; -387.000
374.666; 2068.200; -759.000; -807.000
374.797;  448.000; -817.000; -868.000
374.928; 1662.200; -710.000; -560.000
375.058; 1590.600; -535.000; -500.000
375.189;  165.900;  -59.000;  -93.000
375.320; -193.300; -928.000;-1034.000
375.450;  -26.200; -625.000; -616.000
375.581;  -81.000; -526.000; -436.000
375.712;  -34.000; -574.000; -250.000
375.842;  623.900; -438.000; -415.000
375.973;  458.900; -554.000; -513.000
376.103;  -61.200; -665.000; -648.000
376.234; -134.400; -531.000; -552.000
376.364;  -42.900; -944.000; -867.000
376.495;  683.400;  925.000;  529.000
376.625;   35.000; -472.000; -485.000
376.756;  158.000; -709.000; -678.000
376.886; -126.300;-1178.000;-1026.000
377.017;  123.500;-1048.000;-1061.000
377.147;  651.000; -786.000; -782.000
377.278;  161.300;  174.000;  228.000
377.408; -205.600; -801.000; -815.000
377.538; -142.400; -707.000; -693.000
377.669; -114.700; -537.000; -613.000
377.799; -128.800; -645.000; -635.000
377.929; -102.800; -610.000; -428.000
378.060; -213.800; -781.000; -847.000
378.190;  -55.300; -726.000; -531.000
378.320;  -64.500; -401.000; -406.000
378.451;   33.900; -131.000;  -22.000
378.581;   32.400;  -67.000; -110.000
378.711;  316.900; 1035.000;  866.000
378.841;    3.600; -533.000; -675.000
378.972; -109.200; -871.000; -751.000
379.102;   18.400; -652.000; -579.000
379.232;  -12.000; -126.000;  -73.000
379.362; -171.100;-1001.000; -885.000
379.492;   59.200; -373.000; -424.000
379.623;  232.000;    0.000;  111.000
379.753; -148.700;-1107.000; -974.000
379.883;  483.600;   59.000;  156.000
380.013;   16.200;-1081.000;-1017.000
380.143; -176.900;-1097.000;-1056.000
380.273; -161.100; -985.000; -861.000
380.403;   43.500; -344.000; -257.000
380.533;   -8.600; -651.000; -664.000
380.663;  187.300;  173.000;  128.000
380.793; -159.200;-1027.000;-1074.000
380.923;   10.400; -103.000;  -34.000
381.053; -131.700; -613.000; -623.000
381.183;    6.200; -106.000; -248.000
381.313;   90.500; -656.000; -470.000
381.443;  118.400; -692.000; -473.000
381.573;  448.000; -402.000; -409.000
381.703;  554.400;-1249.000;-1095.000
381.833; -232.800;-1454.000;-1336.000
381.963;  286.200; -134.000;  -87.000
382.093; 2594.800; -925.000; -909.000
382.223;  788.400; -713.000; -602.000
382.353;    2.800; -801.000; -608.000
382.482;  735.100;-1091.000; -964.000
382.612; 1465.600; -872.000; -644.000
382.742;  814.300; -695.000; -622.000
382.872;  552.200; -565.000; -551.000
383.002;  194.500;  347.000; -132.000
383.131;    9.300; -226.000; -160.000
383.261;  -48.600; -706.000; -768.000
383.391;  540.900; -552.000; -377.000
383.521; 5974.900;  451.000;  263.000
383.650; 1254.900; -947.000; -904.000
383.780;   -8.300; -783.000; -656.000
383.910;  302.600;  880.000;  802.000
384.039;   77.300; -794.000; -656.000
384.169;  437.500;-1205.000;-1017.000
384.299;  -16.200; -650.000; -662.000
384.428; -160.600; -764.000; -680.000
384.558;  -42.200; -308.000; -275.000
384.687;  -22.200; -414.000; -334.000
384.817;  102.100;   75.000;   -2.000
384.947;   90.400; -234.000; -141.000
385.076;  637.900;  982.000;  912.000
385.206;  240.400;  369.000;  480.000
385.335;  -17.400; -549.000; -417.000
385.465; -130.800; -655.000; -663.000
385.594;  305.600;  -53.000;  -44.000
385.724;  839.700; -868.000; -838.000
385.853;  286.800; -296.000; -270.000
385.982; 2577.800; -743.000; -787.000
386.112; 3856.900;-1052.000; -871.000
386.241;  272.800; -307.000; -312.000
386.371;  145.300; -174.000;  -87.000
386.500;   36.900; -825.000; -789.000
386.629;   86.300; -874.000; -817.000
386.759;  169.700;  -43.000;   68.000
386.888;   88.900; -170.000; -250.000
387.017; -116.400; -648.000; -620.000
387.147; -100.500; -771.000; -798.000
387.276;   47.700; -410.000; -397.000
387.405;   96.800; -398.000; -342.000
387.535;   -5.000; -452.000; -361.000
387.664;  -78.200; -692.000; -620.000
387.793;  157.400; -198.000; -113.000
387.922; 1058.600;  255.000;  200.000
388.052;   67.300; -576.000; -423.000
388.181;  106.500; -342.000; -472.000
388.310;   14.700; -889.000; -710.000
388.439;  -39.300; -749.000; -742.000
388.568;  401.300;  365.000;  244.000
388.697; 1966.900; -756.000; -653.000
388.826;  364.000; -768.000; -666.000
388.956;  139.900; -285.000; -307.000
389.085;  -29.600; -347.000; -287.000
389.214; -152.000; -842.000; -872.000
389.343;  -78.000; -645.000; -413.000
389.472;  825.000;  126.000;  149.000
389.601;  948.800;   91.000;    0.000
389.730;   74.100; -568.000; -687.000
389.859;  166.900;  226.000;   46.000
389.988;  402.100; -423.000; -408.000
390.117;  281.400; -168.000; -146.000
390.246;   35.100; -331.000; -320.000
390.375;  253.100; -673.000; -626.000
390.504;  -60.400; -703.000; -621.000
390.633; -176.600; -672.000; -726.000
390.761;  -52.100; -732.000; -645.000
390.890;   78.900;   -4.000; -130.000
391.019;  -34.000; -421.000; -441.000
391.148; -215.500; -826.000; -855.000
391.277;  -79.100; -576.000; -493.000
391.406; -105.400; -821.000; -805.000
391.534;  108.300;  574.000; -301.000
391.663;  -95.700; -583.000; -645.000
391.792; -149.100; -673.000; -701.000
391.921;  244.500;   -3.000;   15.000
392.050;  403.700; -287.000; -228.000
392.178;  -29.100;-1206.000;-1061.000
392.307;  313.500; -758.000; -712.000
392.436;  134.800; -427.000; -641.000
392.564;   87.200;  166.000;   -6.000
392.693; -121.900; -860.000; -682.000
392.822;  444.800; -529.000; -534.000
392.950;  200.300; -880.000; -714.000
393.079;  659.300; -188.000; -328.000
393.208;   69.600; -488.000; -511.000
393.336;   34.100; -170.000; -145.000
393.465;  -22.300; -317.000; -199.000
393.593;  100.300;   62.000;   79.000
393.722; -282.700;-1121.000; -916.000
393.850;   -2.500; -188.000;  -61.000
393.979; -270.000; -926.000; -805.000
394.107;  -62.900; -517.000; -537.000
394.236;  -52.200; -570.000; -507.000
394.364;  586.900;  383.000;  206.000
394.493;  889.000; -911.000; -767.000
394.621;   48.200; -955.000; -916.000
394.750; 1459.200; -873.000; -923.000
394.878; 5704.900; -247.000; -149.000
395.007; 7403.000; -721.000; -807.000
395.135;  574.500; -790.000; -721.000
395.263; -129.300;-1038.000;-1040.000
395.392;   84.000;  -25.000; -107.000
395.520; -144.200; -818.000; -679.000
395.648; -164.900; -865.000; -915.000
395.777;   12.700; -366.000; -405.000
395.905;  -41.700; -449.000; -564.000
396.033;   80.000;  217.000;  172.000
396.162; 1490.500; -399.000; -453.000
396.290; 1234.200;  -17.000;   -2.000
396.418;  235.000; -555.000; -514.000
396.546; -104.800; -571.000; -466.000
396.674; -161.100; -850.000; -878.000
396.803;   49.100;  -72.000;  -23.000
396.931;  245.900; -179.000; -199.000
397.059;  117.500;-1026.000; -989.000
397.187; -147.800;-1026.000; -975.000
397.315; -236.900; -884.000; -649.000
397.443; -120.100; -592.000; -443.000
397.572; -147.500; -578.000; -424.000
397.700;   -5.800; -607.000; -614.000
397.828;   90.000;  120.000;  -90.000
397.956;  -38.400; -508.000; -478.000
398.084; -122.800; -767.000; -626.000
398.212;  126.700;  137.000;  124.000
398.340;   90.500;  -56.000;  159.000
398.468;   85.900; -390.000; -169.000
398.596; -214.300; -993.000; -953.000
398.724; -192.600; -762.000; -767.000
398.852; -290.500;-1024.000; -976.000
398.980;  -31.700; -560.000; -560.000
399.108;  -61.900; -982.000; -735.000
399.236;  126.700;   13.000;    8.000
399.363;   64.700;  222.000;  196.000
399.491;  -89.400; -404.000; -398.000
399.619; -202.500; -829.000; -800.000
399.747; -163.400; -859.000; -771.000
399.875;  211.400;  220.000;  234.000
400.003;  -51.600; -359.000; -284.000
400.130; -139.800; -421.000; -341.000
400.258;    2.700;  -83.000;   38.000
400.386;  -75.100; -352.000; -168.000
400.514;  -25.600; -526.000; -587.000
400.641; -107.500; -928.000; -802.000
400.769; -246.600; -979.000; -888.000
400.897; -191.400; -838.000; -793.000
401.025;   51.800; -166.000; -152.000
401.152;   35.700;  220.000;   38.000
401.280; -100.000; -430.000; -429.000
401.408; -217.400; -712.000; -576.000
401.535; -134.000; -735.000; -758.000
401.663; -368.800;-1134.000;-1054.000
401.790; -109.100; -514.000; -525.000
401.918;  149.900;  436.000;  405.000
402.046;   15.300;  134.000;  122.000
402.173;  -16.600;  -18.000;    7.000
402.301;  -65.600; -519.000; -397.000
402.428;  129.600;  528.000;  383.000
402.556; -240.400;-1188.000; -913.000
402.683;   -9.200;  -20.000;   -1.000
402.811;   45.800;  -37.000; -206.000
402.938;   44.600;   20.000;   27.000
403.066;  380.000; -574.000; -558.000
403.193;  570.500;  299.000;  239.000
403.321;  505.500; -396.000; -574.000
403.448;  609.800;   83.000;   27.000
403.575;  297.600;  -90.000;  -46.000
403.703; -175.800; -732.000; -557.000
403.830;  -64.600; -531.000; -496.000
403.957; -272.500;-1117.000;-1023.000
404.085;   69.900;  -61.000; -172.000
404.212;  251.200;  -50.000;   63.000
404.339;  596.200; -566.000; -306.000
404.467;11214.400; -612.000; -524.000
404.594; 6980.600; -287.000; -227.000
404.721; 1642.100; -869.000; -764.000
404.848;  199.600; -113.000; -202.000
404.976; -162.500; -856.000; -783.000
405.103;   21.400;  -14.000;  -82.000
405.230;   85.300;  190.000;  226.000
405.357;  143.100;  117.000;   44.000
405.484;  553.600;  -49.000;    5.000
405.612;   99.300; -548.000; -563.000
405.739;  -72.800; -488.000; -243.000
405.866;  241.100;  669.000;  385.000
405.993;  -60.700; -398.000; -102.000
406.120; -205.600; -801.000; -887.000
406.247;  -74.800; -323.000; -342.000
406.374; 1009.000;  540.000;  629.000
406.501;  189.100; -632.000; -702.000
406.628;  -97.100; -621.000; -589.000
406.755; -149.500; -803.000; -620.000
406.882;  -17.200; -228.000; -277.000
407.009; -167.400; -719.000; -628.000
407.136;  202.400; -480.000; -401.000
407.263;  311.700; -939.000; -829.000
407.390;  -95.100; -692.000; -614.000
407.517; -301.900;-1139.000;-1187.000
407.644;  -30.700; -332.000; -256.000
407.771;  -77.100; -249.000; -287.000
407.898;   72.200;  168.000;  328.000
408.025;  -52.900; -421.000; -313.000
408.151;   58.500;   82.000;  153.000
408.278; -109.400; -267.000; -216.000
408.405; -163.100; -931.000; -899.000
408.532;  -85.500; -549.000; -542.000
408.659; -172.400; -677.000; -648.000
408.785; -363.800;-1298.000;-1170.000
408.912;  -57.500; -412.000; -296.000
409.039; -183.300; -610.000; -686.000
409.166; -137.000; -591.000; -555.000
409.292; -194.100; -571.000; -534.000
409.419; -156.800; -665.000; -649.000
409.546; -119.100; -431.000; -192.000
409.672; -179.800; -713.000; -545.000
409.799;   25.100;  -36.000;   34.000
409.926;    7.600; -180.000; -179.000
410.052; -290.700;-1127.000;-1091.000
410.179;  -60.600; -368.000; -392.000
410.305; -120.300; -375.000; -493.000
410.432;  -30.700; -220.000; -333.000
410.558; -134.400; -305.000; -380.000
410.685; -195.200; -688.000; -431.000
410.812; -166.800; -409.000; -588.000
410.938; -220.100; -964.000; -808.000
411.065; -171.400; -671.000; -645.000
411.191;    8.900; -189.000; -174.000
411.317; -209.000; -823.000; -742.000
411.444;  -75.900; -317.000; -246.000
411.570;  -88.300; -339.000; -294.000
411.697; -195.900; -758.000; -752.000
411.823; -291.700; -989.000; -999.000
411.949;    1.300;  -56.000;   17.000
412.076; -190.000; -539.000; -519.000
412.202; -198.200; -758.000; -757.000
412.329; -206.300; -798.000; -752.000
412.455; -168.800; -821.000; -657.000
412.581;   11.700;  -15.000;  172.000
412.707;  -97.400; -540.000; -457.000
412.834;   92.700;  156.000;  219.000
412.960; -109.200; -785.000; -784.000
413.086; -189.900; -743.000; -701.000
413.212;  363.100;  604.000;  578.000
413.339; -121.000; -685.000; -701.000
413.465;   49.600; -364.000; -310.000
413.591; -155.500; -757.000; -474.000
413.717;  -60.000; -358.000; -366.000
413.843; -252.600; -839.000; -861.000
413.969;  -46.800;  -47.000; -292.000
414.096; -165.100; -679.000; -679.000
414.222;   23.600;  -33.000;   85.000
414.348;   12.000; -652.000; -385.000
414.474;  215.600;   38.000;  -52.000
414.600;   10.600; -126.000; -144.000
414.726;   11.300;  -96.000;  -55.000
414.852;  -77.900; -365.000; -342.000
414.978;  159.800;  104.000;  -18.000
415.104;  119.600;   38.000;   80.000
415.230;   84.500; -329.000; -330.000
415.356;  128.700; -409.000; -514.000
415.482;  433.800;   13.000;  -35.000
415.608;  577.100; -247.000; -323.000
415.734; 2001.800;   67.000;   38.000
415.860;39830.700; -875.000; -767.000
415.986;26217.500; -685.000; -607.000
416.111; 2200.600; -798.000; -652.000
416.237;  502.000; -424.000; -571.000
416.363; 2348.000; -765.000; -733.000
416.489; 7912.100; -324.000; -251.000
416.615;  757.200; -707.000; -742.000
416.741;  -17.200; -677.000; -784.000
416.866; -160.900; -673.000; -736.000
416.992; -155.500; -801.000; -818.000
417.118;   -7.400;  -41.000;  -80.000
417.244;  -50.000; -798.000; -531.000
417.369; -119.000; -801.000; -612.000
417.495;   32.800; -325.000; -254.000
417.621; -104.500;-1015.000; -803.000
417.746;   38.100; -579.000; -572.000
417.872;  169.700; -254.000; -144.000
417.998;  161.900; -515.000; -530.000
418.123; 2195.900;-1073.000; -845.000
418.249;10302.900; -512.000; -601.000
418.374; 1294.600; -916.000; -824.000
418.500;  235.200; -383.000; -482.000
418.626;  269.100;   70.000;  -59.000
418.751;  292.700; -549.000; -448.000
418.877;  445.600; -637.000; -643.000
419.002; 3825.400; -688.000; -560.000
419.128;24218.900; -930.000; -721.000
419.253; 5308.000; -967.000; -837.000
419.379;  775.600; -391.000; -338.000
419.504;  812.900;  325.000;  415.000
419.629; 1071.800; -393.000; -212.000
419.755; 7399.200; -317.000; -254.000
419.880;39134.000;  -98.000;   67.000
420.006;22359.800; -280.000; -221.000
420.131;54151.100; -662.000; -775.000
420.256; 7131.100; -315.000; -316.000
420.382; 1020.300; -665.000; -687.000
420.507;  160.600; -649.000; -778.000
420.632;  297.300; -337.000; -339.000
420.758;  473.500; -251.000; -425.000
420.883; -127.600; -876.000; -672.000
421.008; -143.700; -775.000; -619.000
421.133;  -93.900; -509.000; -467.000
421.259;  -48.800; -325.000; -259.000
421.384; -197.000; -834.000; -693.000
421.509;  -48.600;-1052.000; -862.000
421.634; 2206.600; -936.000; -820.000
421.759;  843.000; -359.000; -327.000
421.885;  -84.600; -717.000; -656.000
422.010; -115.100; -673.000; -542.000
422.135; -262.200; -695.000; -727.000
422.260;   92.300;  340.000;  280.000
422.385;  -24.800;   12.000;  -98.000
422.510;   96.300;  151.000;  -26.000
422.635;   89.700;  -87.000;  -43.000
422.760;  235.900; -766.000; -791.000
422.885;  151.500;  -57.000;  -80.000
423.010;    6.400; -112.000; -169.000
423.135; -116.500; -481.000; -561.000
423.260;   49.000; -150.000; -245.000
423.385;  174.400;  476.000;  222.000
423.510;  137.700;   71.000;  -22.000
423.635;  205.000;  133.000;   45.000
423.760;  197.900;  383.000;  328.000
423.885;  169.800;  336.000;  391.000
424.010;   86.100;  -68.000;  -13.000
424.135;   25.700;    5.000;  -33.000
424.259;  -93.600; -654.000; -457.000
424.384;  -52.000; -279.000; -272.000
424.509;    0.900; -260.000; -186.000
424.634; -141.400; -761.000; -623.000
424.759;   26.400; -688.000; -544.000
424.883;   40.200; -506.000; -527.000
425.008;  431.000; -502.000; -410.000
425.133; 3976.700; -679.000; -653.000
425.258; 1599.600; -517.000; -381.000
425.382; 2057.200; -867.000; -774.000
425.507; 4661.800; -487.000; -543.000
425.632;  714.000; -802.000; -663.000
425.756;  920.000; -256.000; -146.000
425.881;13292.000; -831.000; -857.000
426.006;32100.600; -604.000; -355.000
426.130; 4622.200; -696.000; -508.000
426.255;  659.300; -611.000; -491.000
426.379;  358.400; -189.000; -577.000
426.504;  814.600;  660.000;  544.000
426.629; 8289.100; -519.000; -466.000
426.753; 5006.000;   64.000;  -46.000
426.878;  642.400; -252.000; -288.000
427.002;  418.300; -651.000; -668.000
427.127; 3370.100;  -35.000; -158.000
427.251;21852.100;  372.000;  401.000
427.375; 5621.400; -191.000; -173.000
427.500; 4210.700; -616.000; -610.000
427.624; 1264.100; -234.000; -400.000
427.749;  229.900; -216.000; -225.000
427.873;  -48.100; -499.000; -412.000
427.997;  -14.700; -222.000; -230.000
428.122;  211.600;  795.000;  703.000
428.246;  202.000;  433.000;  434.000
428.371; -212.200; -869.000; -773.000
428.495; -157.900; -624.000; -646.000
428.619;    5.000; -186.000; -117.000
428.743;  146.100;   65.000;  132.000
428.868;   67.600; -732.000; -643.000
428.992; 2641.800; -219.000; -326.000
429.116;  972.000; -329.000; -357.000
429.240;  555.500;  419.000;  426.000
429.365;   47.200; -454.000; -574.000
429.489;  -36.300; -638.000; -647.000
429.613;   93.400; -236.000; -177.000
429.737;  141.700; -563.000; -432.000
429.861;  612.700; -247.000; -133.000
429.985;11380.000; -425.000; -305.000
430.109;11104.100; -770.000; -908.000
430.234; 1313.700;   76.000;  -50.000
430.358;  161.200; -250.000; -160.000
430.482;  -98.800; -672.000; -564.000
430.606;  -82.600; -655.000; -375.000
430.730;  102.300; -437.000; -388.000
430.854;  245.700; -909.000; -835.000
430.978;  -59.600; -795.000; -764.000
431.102; -100.500; -499.000; -422.000
431.226; -156.000; -874.000; -815.000
431.350;  145.400;  345.000;  422.000
431.474;  -95.800; -661.000; -373.000
431.597; -250.900;-1060.000; -848.000
431.721; -109.700; -276.000; -267.000
431.845; -219.300; -704.000; -472.000
431.969;  -70.000; -304.000; -349.000
432.093; -126.000; -395.000; -317.000
432.217;   40.400;   32.000;   82.000
432.341; -116.700; -523.000; -518.000
432.464;   87.000;   96.000;   40.000
432.588;  430.000; -401.000; -329.000
432.712;  205.300;  -52.000;  -52.000
432.836;  163.800;  213.000;  263.000
432.959;   49.500; -372.000; -311.000
433.083;  231.200;   11.000;    2.000
433.207;  827.400;  285.000;  930.000
433.330;10248.700; -391.000; -200.000
433.454;11441.200; -654.000; -638.000
433.578; 6799.700;  583.000;  278.000
433.701; 1122.300; -623.000; -675.000
433.825;  312.200; -292.000; -299.000
433.949;  423.400;   28.000;  -72.000
434.072;  122.600; -410.000; -323.000
434.196;   32.000; -309.000; -117.000
434.319; 7860.100;25482.000;25124.000
434.443; 1573.800; -656.000; -603.000
434.566; 5134.900;  281.000;   62.000
434.690;  784.800; -637.000; -383.000
434.813;  138.100; -251.000; -173.000
434.937; -109.000; -569.000; -696.000
435.060;  -58.100; -423.000; -332.000
435.184;  631.500; -492.000; -217.000
435.307;  381.000;  159.000;  102.000
435.431;   44.900;  -40.000;   24.000
435.554;  -88.000; -399.000; -240.000
435.677; -119.000; -350.000; -258.000
435.801;  -52.900;  -25.000;   49.000
435.924;   64.900;    1.000;  -67.000
436.048; -179.000;-1019.000; -732.000
436.171;  -93.300; -240.000;  -66.000
436.294;  -16.100; -248.000; -229.000
436.417;  206.700; -963.000; -849.000
436.541; -151.600; -814.000; -840.000
436.664;  -33.800; -242.000; -316.000
436.787;   53.700;   13.000;  113.000
436.910; -159.100; -792.000; -422.000
437.034;   80.300;  142.000;  143.000
437.157;  136.700;  -11.000;    0.000
437.280;  -38.700; -392.000; -292.000
437.403; -141.200; -982.000; -869.000
437.526; 1303.100; -903.000; -865.000
437.649; 4182.800; -505.000; -332.000
437.772;  545.900; -692.000; -540.000
437.896;  265.700;  700.000;  544.000
438.019; -135.400; -758.000; -503.000
438.142; -109.100; -596.000; -506.000
438.265;   43.500; -639.000; -670.000
438.388; 1150.700; -520.000; -410.000
438.511;  183.600; -597.000; -394.000
438.634;  -54.800; -247.000; -125.000
438.757; -197.800; -693.000; -619.000
438.880;  -17.100;  -34.000;  -57.000
439.003;  -99.000; -417.000; -437.000
439.126; -100.000; -287.000; -167.000
439.248;  -48.500;  -98.000; -139.000
439.371;  -16.400;    9.000;  -53.000
439.494;  134.400;  510.000;  439.000
439.617;  -39.400;   65.000;  -88.000
439.740; -296.100; -968.000; -816.000
439.863; -234.500; -755.000; -595.000
439.986; -200.000; -476.000; -431.000
440.108;  -66.000; -161.000; -112.000
440.231; -289.800; -950.000; -836.000
440.354;   -7.000;  -64.000; -150.000
440.477;   78.900; -566.000; -542.000
440.599;   86.100; -200.000; -225.000
440.722; -201.400; -709.000; -586.000
440.845;  207.900;  751.000;  928.000
440.968; -191.800; -415.000; -311.000
441.090;  -99.000; -199.000;  -33.000
441.213; -276.300;-1021.000; -825.000
441.336;  -26.800; -159.000;   -5.000
441.458;  -90.500; -549.000; -396.000
441.581;  -89.400; -628.000; -629.000
441.703;  -76.600; -152.000;   13.000
441.826; -154.900; -557.000; -400.000
441.948;  -35.400;   56.000;   51.000
442.071;  155.900;  555.000;  424.000
442.193; -200.600; -531.000; -485.000
442.316;  102.400;  152.000;   97.000
442.438;  137.700; -233.000;  -10.000
442.561;  190.000;  272.000;  262.000
442.683; 1082.000; -809.000; -522.000
442.806; 2111.400;   -8.000;   74.000
442.928;   56.900; -859.000; -604.000
443.051;  -75.900; -577.000; -373.000
443.173; -133.500; -341.000; -339.000
443.295; -128.600; -263.000; -371.000
443.418;  -99.800; -321.000;  -29.000
443.540;   47.300; -106.000;   -4.000
443.662; -233.700; -563.000; -465.000
443.785;   40.900;  335.000;  199.000
443.907; -162.600; -362.000; -208.000
444.029; -192.500; -767.000; -494.000
444.152; -227.100; -644.000; -554.000
444.274;    1.400;  -18.000;  -24.000
444.396; -184.400; -461.000; -221.000
444.518; -184.500; -691.000; -454.000
444.640; -137.400; -268.000; -111.000
444.763;   11.800;  388.000;  249.000
444.885; -189.900; -432.000; -392.000
445.007;    4.100;   35.000;   86.000
445.129; -178.600; -610.000; -515.000
445.251; -131.900; -372.000; -439.000
445.373; -213.400; -537.000; -386.000
445.495;   69.800;  242.000;  350.000
445.617;  172.900;  853.000;  753.000
445.739;  -58.800; -215.000;  -97.000
445.861;  -18.900; -245.000; -112.000
445.984;  -18.400; -267.000; -101.000
446.105;  424.300; -418.000; -251.000
446.227; 1129.900; -176.000;  -19.000
446.349;   33.500; -358.000; -249.000
446.471; -180.200; -615.000; -448.000
446.593;  -73.500; -316.000;   19.000
446.715;   94.300;  -67.000;   41.000
446.837;  182.200;  697.000;  832.000
446.959; -142.300; -457.000; -478.000
447.081; -194.300; -628.000; -518.000
447.203;  163.500;  862.000;  834.000
447.325; -134.600; -270.000;   42.000
447.446;   71.300;  286.000;  530.000
447.568; -277.600; -921.000; -803.000
447.690;  -99.800; -236.000; -245.000
447.812; -258.800; -798.000; -519.000
447.933;   32.300;  155.000;  127.000
448.055;  -98.300; -306.000; -261.000
448.177;  329.300;   31.000;   79.000
448.299;  142.400; -935.000; -727.000
448.420;  125.300;  -25.000;  159.000
448.542;  -38.700;   -3.000;   33.000
448.664;   40.200;  109.000;  322.000
448.785;   29.300;  265.000;   83.000
448.907;  -97.300; -614.000; -353.000
449.028;  -36.100; -771.000; -471.000
449.150;  173.200;  492.000;  589.000
449.272; -335.600;-1044.000; -913.000
449.393;  140.700;  612.000;  694.000
449.515; -242.200; -634.000; -581.000
449.636;  -41.100; -264.000; -155.000
449.758;  250.000;  763.000;  622.000
449.879; -120.000; -498.000; -396.000
450.001;  -88.700; -149.000;  -49.000
450.122;    6.900;  -95.000;  162.000
450.244;    7.700;   37.000;  364.000
450.365; -121.300; -495.000; -301.000
450.486;   17.300;   80.000;  268.000
450.608;  113.400;  393.000;  326.000
450.729;  207.900;  578.000;  645.000
450.850;   56.200; -574.000; -466.000
450.972; 1594.900; -552.000; -389.000
451.093; 9478.300;  190.000;  588.000
451.214; 3586.600; -516.000; -337.000
451.336;  722.900;  773.000;  579.000
451.457;  165.200;  264.000;  393.000
451.578;  -31.500; -118.000;  -74.000
451.699; -188.300; -546.000; -540.000
451.821;  -57.000; -284.000;  -50.000
451.942;   57.100;  278.000;  285.000
452.063;  144.300;  228.000;  419.000
452.184; 1179.400;  -54.000;  -49.000
452.305; 2132.400;  103.000;  170.000
452.427;  224.300; -549.000; -301.000
452.548;   29.100;   23.000;   79.000
452.669;  -58.200; -257.000;  -89.000
452.790;  -22.000;    3.000;  -18.000
452.911;   45.500;  195.000;  259.000
453.032;  -86.100; -289.000;  -60.000
453.153;  -17.200;  -29.000;   81.000
453.274;  188.600;  737.000;  868.000
453.395;  -50.400;  -51.000;  175.000
453.516;  324.800; 1317.000; 1388.000
453.637;  -54.300; -205.000; -150.000
453.758;  -16.900;   15.000;   69.000
453.879; -165.000; -462.000; -250.000
454.000;  267.100; 1086.000;  948.000
454.121; -165.700; -554.000; -326.000
454.242; -175.800; -599.000; -383.000
454.362;  -45.800;  -99.000;  114.000
454.483;   19.100; -309.000; -229.000
454.604;  180.600;  512.000;  580.000
454.725; -188.500; -627.000; -555.000
454.846; -221.800; -474.000; -406.000
454.967;    3.800;  230.000;  539.000
455.087;   -7.000;  179.000;  153.000
455.208;  117.200;  554.000;  856.000
455.329;  -60.400;  -22.000;   82.000
455.450;  147.200;  473.000;  633.000
455.570; -110.200; -234.000; -211.000
455.691;    9.000;  201.000;  407.000
455.812; -128.400; -270.000;  -92.000
455.932;  -63.400;  107.000;  -97.000
456.053;  -95.900;   36.000;   24.000
456.173; -139.300; -433.000; -355.000
456.294; -191.700; -476.000; -303.000
456.415;  -38.600;  -73.000;   70.000
456.535;  -16.200;  297.000;  273.000
456.656;  -22.700;  132.000;  240.000
456.776;  -99.000;    3.000;  298.000
456.897;   79.100;  308.000;  513.000
457.017;  -84.500; -153.000;   -3.000
457.138; -171.500; -402.000; -249.000
457.258;    8.200;  263.000;  224.000
457.379;   27.200;  509.000;  521.000
457.499;   10.900;  443.000;  432.000
457.620; -175.900; -407.000; -231.000
457.740; -156.700; -132.000;  -11.000
457.860;  -33.900;   87.000;   44.000
457.981;  -34.000;  132.000;  124.000
458.101;  -55.900;  -89.000;   40.000
458.221;   38.800;  336.000;  402.000
458.342;  -71.500;   -4.000;  -37.000
458.462;  114.200;  617.000;  352.000
458.582;   -2.300; -302.000; -294.000
458.703;   56.700;  303.000;  154.000
458.823;   10.200;   22.000;  163.000
458.943;   71.900;  341.000;  467.000
459.063;   22.200; 1124.000;  192.000
459.183;   18.100;  328.000;  313.000
459.304;   93.300;  315.000;  517.000
459.424;  -71.000; -246.000;  -89.000
459.544;  768.200;  388.000;  764.000
459.664; 1682.600;  499.000;  506.000
459.784;  571.200; 1004.000; 1175.000
459.904;  175.900;  867.000;  744.000
460.024;  245.800;  867.000;  684.000
460.144;   91.800;  449.000;  554.000
460.264;   63.000;  515.000;  327.000
460.385; -109.700; -145.000; -119.000
460.505;  128.500;  905.000;  858.000
460.625; -136.700;  -17.000;  -68.000
460.745;   14.500;  396.000;  541.000
460.864;  -46.900;  153.000;  469.000
460.984;   89.600;  499.000;  573.000
461.104;  319.100; 1656.000; 1775.000
461.224;  108.800;  657.000;  650.000
461.344;   11.200;  431.000;  360.000
461.464;   -2.700;  258.000;  513.000
461.584;   24.600;  283.000;  466.000
461.704;  -71.400;   58.000;  108.000
461.824;  -54.700;  238.000;  259.000
461.943;  -17.700;  191.000;  130.000
462.063; -100.000;    2.000;  324.000
462.183;  160.800;  639.000;  717.000
462.303;  250.900; 1678.000; 1230.000
462.422;  112.300;  781.000;  840.000
462.542;  -18.500;  271.000;  391.000
462.662;  167.700;  353.000;  380.000
462.782;  544.200;  833.000;  572.000
462.901;  980.400;  545.000;  717.000
463.021;  558.700; 1702.000; 1638.000
463.141;   59.400;  337.000;  770.000
463.260;   30.300;  614.000;  474.000
463.380;  134.500;  902.000;  884.000
463.499;  -12.800;  342.000;  332.000
463.619;   13.400;  581.000;  559.000
463.738;  287.600; 1644.000;  903.000
463.858;   99.800;  657.000;  811.000
463.978;  -25.000;  542.000;  396.000
464.097;  186.100;  921.000; 1114.000
464.217;  303.400; 1196.000; 1143.000
464.336;  287.100; 1068.000; 1130.000
464.455;  -17.000;  328.000;  659.000
464.575;  144.000;  597.000;  602.000
464.694;  388.200; 1204.000; 1179.000
464.814;  325.200; 1190.000; 1138.000
464.933;  203.600; 1095.000; 1027.000
465.052;  295.000; 1412.000; 1054.000
465.172;  226.500;  922.000;  799.000
465.291;  347.700; 1376.000; 1320.000
465.410;   75.100;  462.000;  735.000
465.530;  222.200; 1355.000; 1310.000
465.649;  184.400; 1209.000; 1273.000
465.768;  377.700; 1673.000; 1508.000
465.888;  187.700;  941.000; 1174.000
466.007;  272.500; 1335.000; 1440.000
466.126;   78.800;  721.000;  641.000
466.245;  192.800; 1176.000; 1187.000
466.364;  109.700;  950.000; 1060.000
466.484;  178.300; 1024.000; 1213.000
466.603;  181.200; 1101.000; 1222.000
466.722;  270.400; 1490.000; 1769.000
466.841;  207.400; 1151.000; 1401.000
466.960;  138.400; 1069.000;  972.000
467.079;  369.700; 1971.000; 1786.000
467.198;  173.300; 1238.000; 1181.000
467.317;  222.700; 1768.000; 1162.000
467.436;  224.500; 1709.000; 1261.000
467.555;  295.200; 1796.000; 1746.000
467.674;  218.300; 1227.000; 1329.000
467.793;  106.300; 1376.000; 1374.000
467.912;  264.400; 1658.000; 1539.000
468.031;  379.100; 2038.000; 1930.000
468.150;  413.000; 1842.000; 1837.000
468.269;  460.900; 2313.000; 2090.000
468.388;  472.300; 2168.000; 2339.000
468.507;  565.900; 2884.000; 2903.000
468.626;  662.800; 2555.000; 2541.000
468.744;  383.100; 2018.000; 2174.000
468.863;  449.600; 2312.000; 2523.000
468.982;  239.600; 1503.000; 1555.000
469.101;  536.800; 2788.000; 2692.000
469.220;  378.000; 2333.000; 2176.000
469.338;  551.000; 2935.000; 3051.000
469.457;  445.500; 2719.000; 2545.000
469.576;  802.500; 3953.000; 3784.000
469.695;  548.100; 2877.000; 3066.000
469.813;  934.800; 4148.000; 4192.000
469.932;  950.300; 4255.000; 4485.000
470.051;  978.300; 4075.000; 4161.000
470.169; 1832.900; 4470.000; 4338.000
470.288; 2956.300; 4700.000; 4809.000
470.406; 1699.800; 5059.000; 5194.000
470.525; 1375.700; 6101.000; 5787.000
470.644; 1327.600; 6847.000; 6794.000
470.762; 1734.400; 8397.000; 7873.000
470.881; 1896.700; 8651.000; 8464.000
470.999; 2166.100; 9685.000; 9151.000
471.118; 2303.100;11174.000;10711.000

