
Integration time [ms]: 100.000
Averaging Nr. [scans]: 40
Smoothing Nr. [pixels]: 0
Data measured with spectrometer [name]: 2101012U2
Wave   ;Sample   ;Dark     ;Reference
[nm]   ;[counts] ;[counts] ;[counts] 

197.733;   51.825;  516.000;  404.000
197.879;  -86.350; -610.000; -634.000
198.025;  -45.575; -475.000; -420.000
198.171;  -64.450; -602.000; -612.000
198.317;  -27.325; -401.000; -316.000
198.463;  -57.500; -655.000; -404.000
198.609;   22.675;  181.000; -137.000
198.755;  -79.900; -644.000; -410.000
198.901;  -60.350; -505.000; -424.000
199.047;  -54.575; -615.000; -488.000
199.193;  -38.750; -230.000; -468.000
199.339;  -50.025; -222.000; -369.000
199.485;   37.225;  330.000;  271.000
199.631;    8.850;  227.000;  310.000
199.777;  -57.300; -466.000; -398.000
199.923;  -57.325; -610.000; -424.000
200.069;  -14.325; -141.000;  -58.000
200.215;   51.275;  128.000;  453.000
200.361;   42.375;  243.000;  477.000
200.507;  -64.725; -600.000; -373.000
200.653;  -41.500; -371.000; -194.000
200.798;  -27.125; -215.000; -125.000
200.944;    3.375; -146.000;  -41.000
201.090;   20.975;   61.000;  222.000
201.236;   -8.425; -116.000; -158.000
201.382;  141.600;  874.000;  903.000
201.528;   -7.875;  -58.000;  -48.000
201.674;  -58.900; -386.000; -293.000
201.819;  -69.875; -540.000; -439.000
201.965;  -81.700; -699.000; -447.000
202.111;  -28.100; -273.000; -226.000
202.257;  -34.925; -250.000; -238.000
202.402;    3.450;   13.000;  -36.000
202.548;  -32.650; -169.000; -116.000
202.694;   58.800;  410.000; -183.000
202.840;  -78.625; -603.000; -531.000
202.985;  -58.075; -681.000; -639.000
203.131; -100.125; -832.000; -666.000
203.277;  -11.125; -199.000; -262.000
203.423;  -55.150; -434.000; -520.000
203.568;  -31.650; -462.000; -237.000
203.714;  -59.175; -535.000; -542.000
203.860;  -82.925; -682.000; -641.000
204.005;   12.875;  112.000;  167.000
204.151;   58.900;  561.000;  556.000
204.296;  -46.650; -354.000; -221.000
204.442;  -80.850; -600.000; -547.000
204.588;  -79.200; -592.000; -579.000
204.733;    7.850;  178.000;  168.000
204.879; -132.300;-1018.000; -822.000
205.025;    1.875;  -99.000;  126.000
205.170;   -7.450;  -17.000;   94.000
205.316;   63.500;  438.000;  661.000
205.461;  -75.975; -698.000; -554.000
205.607;   66.350;  609.000;  665.000
205.752;  -73.225; -626.000; -551.000
205.898;  -57.925; -501.000; -391.000
206.043;  -58.900; -578.000; -506.000
206.189;  -39.975; -243.000; -285.000
206.334;   66.300;  554.000;  606.000
206.480;   74.450;  409.000;  239.000
206.625;  -78.600; -529.000; -552.000
206.771;  -49.775; -451.000; -373.000
206.916;  -34.675; -210.000; -537.000
207.062;  -73.725; -545.000; -591.000
207.207;  -63.350; -546.000; -443.000
207.353;   53.925;  185.000;  460.000
207.498;  -12.000;  196.000;   85.000
207.643;  -47.625; -501.000; -370.000
207.789; -134.775;-1069.000; -910.000
207.934;  -91.050; -665.000; -713.000
208.080;  -24.825; -154.000;   66.000
208.225;  -27.825;  -22.000;  -57.000
208.370;  -83.975; -727.000; -619.000
208.516;  -78.650; -741.000; -487.000
208.661;  -28.475; -127.000;  -69.000
208.806;  -18.700; -165.000; -171.000
208.952; -125.850;-1044.000; -731.000
209.097;   62.600;  378.000;  349.000
209.242;  -41.175; -307.000; -382.000
209.387;   47.550;  392.000;  350.000
209.533;  -49.100; -321.000; -350.000
209.678;   76.650;  472.000;  543.000
209.823;  -49.000; -408.000; -310.000
209.969;  -95.875; -860.000; -757.000
210.114; -103.400; -907.000; -719.000
210.259; -103.525; -939.000; -889.000
210.404;   -3.550; -171.000;  103.000
210.549;    3.250;  108.000;    3.000
210.695;  -20.650;   -3.000;  -95.000
210.840;   13.575;   94.000;   67.000
210.985;  -66.275; -484.000; -303.000
211.130;   65.000;  268.000;  406.000
211.275;   -0.275;  207.000;  199.000
211.420;  -50.300; -300.000; -289.000
211.566;  -72.050; -536.000; -489.000
211.711;    6.575;  218.000;  157.000
211.856;  -70.125; -545.000; -519.000
212.001;    2.275;  151.000;   44.000
212.146;   30.525;  153.000;   49.000
212.291;  -34.325; -210.000; -186.000
212.436;  -38.500; -280.000;   -6.000
212.581;  -74.700; -685.000; -653.000
212.726;  -79.925; -487.000; -538.000
212.871;  -47.375; -552.000; -217.000
213.016; -148.375;-1172.000;-1029.000
213.161;   65.225;  406.000;  291.000
213.306;  -70.525; -435.000; -577.000
213.451;  -85.675; -778.000; -689.000
213.596;  -46.200; -455.000; -347.000
213.741;  -51.600; -448.000; -538.000
213.886;  -84.350; -498.000; -517.000
214.031;  -27.875; -294.000; -124.000
214.176;  -54.500; -408.000; -341.000
214.321;  -21.150; -296.000; -157.000
214.466;  -28.475; -163.000;  -43.000
214.611;   -7.875;  -61.000;  -10.000
214.756; -121.775; -948.000; -858.000
214.901;  -17.550; -388.000; -226.000
215.046; -107.700; -797.000; -825.000
215.191;   24.275;  128.000;   35.000
215.336;  -14.675; -157.000;  -19.000
215.480;  -69.300; -684.000; -505.000
215.625;  -17.100; -175.000;  -19.000
215.770;  -90.975; -757.000; -662.000
215.915;   -4.175;   -5.000;  -97.000
216.060;  -19.725; -113.000;  -21.000
216.205; -113.100; -731.000; -779.000
216.349;  -77.300; -470.000; -533.000
216.494; -115.475; -939.000; -867.000
216.639; -110.800; -823.000; -888.000
216.784;  -88.450; -577.000; -525.000
216.929;   38.825;  392.000;  281.000
217.073;  -30.800; -244.000;  -31.000
217.218;    2.725;   78.000;  -47.000
217.363;  -88.525; -656.000; -618.000
217.507;  -89.350; -623.000; -588.000
217.652; -108.925; -845.000; -874.000
217.797;  -97.175; -708.000; -659.000
217.942; -111.100; -856.000; -720.000
218.086;   69.325;  608.000;  539.000
218.231;  -22.850; -174.000;  -26.000
218.376;  -34.200; -337.000; -229.000
218.520;   -3.450;  -41.000;   96.000
218.665;  -22.100; -338.000; -204.000
218.810;  -52.200; -275.000; -233.000
218.954;    6.800;  201.000;   35.000
219.099; -117.000; -713.000; -963.000
219.243;  -81.525; -589.000; -554.000
219.388;  -32.850; -264.000; -136.000
219.532;   -5.375; -116.000; -116.000
219.677;  -71.575; -564.000; -521.000
219.822;    0.050;   33.000;   89.000
219.966;    5.775;   17.000;  -99.000
220.111;  -39.000; -328.000;  -40.000
220.255;  -92.775; -797.000; -750.000
220.400;  -22.225; -180.000; -146.000
220.544;  -74.725; -516.000; -450.000
220.689;  -58.450; -422.000; -451.000
220.833;  -30.025; -123.000;  -58.000
220.978;  -47.250; -393.000; -563.000
221.122;   23.125;  319.000;  307.000
221.267; -119.900; -906.000; -837.000
221.411;  -70.200; -478.000; -394.000
221.555;  -20.200; -104.000;  -23.000
221.700;  -58.650; -329.000; -222.000
221.844;   17.550;  255.000;  272.000
221.989;  -46.725; -328.000; -311.000
222.133;  -35.150; -289.000; -307.000
222.277;  -17.275;    5.000;   78.000
222.422;    3.775;  227.000;  113.000
222.566;  -41.475; -381.000; -214.000
222.711;  -69.025; -414.000; -479.000
222.855;  -75.325; -643.000; -586.000
222.999;  -90.500; -642.000; -717.000
223.144;  -35.225; -195.000; -194.000
223.288;   58.475;  423.000;  251.000
223.432;   35.000;  184.000;  230.000
223.576;   -0.400;  152.000;  -21.000
223.721;   33.600;  364.000;  273.000
223.865;  -66.275; -472.000; -475.000
224.009;  219.375; 1673.000; 1631.000
224.153;  -87.675; -660.000; -671.000
224.298;  -74.250; -531.000; -489.000
224.442;  -22.725;  -74.000;  -33.000
224.586;  -15.425; -169.000; -106.000
224.730;  -97.525; -858.000; -670.000
224.875; -105.175; -739.000; -688.000
225.019;   -0.900;  102.000;  188.000
225.163;   50.350;  208.000;  341.000
225.307;    4.450;   97.000;  -91.000
225.451;   45.100;  360.000;  481.000
225.595;   37.700;  264.000;  176.000
225.739;  -20.100; -170.000;  -94.000
225.884;    7.150;   86.000;    5.000
226.028;  -92.325; -760.000; -626.000
226.172;  -34.175; -260.000; -273.000
226.316; -119.525; -941.000; -902.000
226.460;  -70.600; -645.000; -493.000
226.604;  -57.875; -406.000; -400.000
226.748;  -89.225; -836.000; -733.000
226.892;  -26.050; -227.000; -181.000
227.036;  -43.025; -537.000; -447.000
227.180;  -56.550; -551.000; -375.000
227.324;  -75.225; -561.000; -580.000
227.468; -115.400; -819.000; -717.000
227.612;   11.650;  242.000;  -28.000
227.756; -112.875; -845.000; -698.000
227.900;   58.525;  342.000;  441.000
228.044;  -71.975; -509.000; -290.000
228.188;   47.275;  448.000;  568.000
228.332;  -90.950; -546.000; -472.000
228.476;  -42.675; -223.000; -149.000
228.620;  -27.625; -210.000; -150.000
228.764;   48.950;  431.000;  349.000
228.908;  -23.025; -155.000;   30.000
229.052;  -54.950; -615.000; -528.000
229.195;  -11.100; -172.000;   13.000
229.339;  -37.025; -235.000; -305.000
229.483;  -10.000;    5.000; -162.000
229.627;    1.075; -156.000;  139.000
229.771;  -51.375; -218.000; -294.000
229.915;   22.850;  230.000;   79.000
230.059;  -76.975; -648.000; -663.000
230.202;  -43.600; -370.000; -317.000
230.346;  -25.050; -107.000;  107.000
230.490;  -58.125; -489.000; -521.000
230.634;  -99.900; -736.000; -553.000
230.777;   71.500;  478.000;  509.000
230.921;  -54.775; -450.000; -359.000
231.065;  -43.975; -246.000; -286.000
231.209;   23.350;  261.000;  265.000
231.352;   13.500;   54.000;   40.000
231.496;    7.250;  568.000;  188.000
231.640;  -88.650; -693.000; -621.000
231.783;   47.425;  546.000;  525.000
231.927;  -44.200; -294.000; -365.000
232.071; -122.325; -962.000; -736.000
232.214; -108.875; -980.000; -764.000
232.358; -104.775; -683.000; -599.000
232.502;  -10.250;  -19.000;    7.000
232.645; -138.125;-1090.000; -927.000
232.789;  -33.825; -257.000; -218.000
232.933;  -39.375; -407.000; -224.000
233.076; -125.500;-1038.000; -897.000
233.220; -101.225; -752.000; -777.000
233.363;  -74.675; -669.000; -477.000
233.507;   40.875;  371.000;  129.000
233.650;  -93.200; -764.000; -834.000
233.794;   43.425;  438.000;  461.000
233.938;  -77.750; -530.000; -362.000
234.081;  -27.975;  -93.000;   31.000
234.225;  -74.325; -631.000; -539.000
234.368; -112.775; -773.000; -723.000
234.512;  -38.475; -385.000; -299.000
234.655;  -91.100; -582.000; -555.000
234.798;  -67.800; -493.000; -466.000
234.942; -119.750; -884.000;-1002.000
235.085;  -69.550; -651.000; -443.000
235.229;  -91.100; -405.000; -410.000
235.372;  -41.400; -247.000; -191.000
235.516;  -56.550; -397.000; -321.000
235.659;   22.925;   92.000;  121.000
235.802;  -20.375;  -38.000;  -22.000
235.946;   18.150;  335.000;  215.000
236.089;   25.100;  126.000;  250.000
236.233;   44.475;  275.000;  298.000
236.376;  -59.475; -235.000; -378.000
236.519;  -41.400; -297.000; -319.000
236.663;  -35.050; -215.000; -117.000
236.806; -128.975;-1029.000; -999.000
236.949;   49.625;  543.000;  431.000
237.092;   48.425;  412.000;  391.000
237.236;  -91.700; -589.000; -502.000
237.379;   59.000;  352.000;  428.000
237.522; -111.150; -879.000; -768.000
237.666;  -24.600; -271.000;   18.000
237.809; -125.600; -851.000; -823.000
237.952;   26.875;  469.000;  271.000
238.095;  -70.300; -447.000; -442.000
238.238;   74.350;  688.000;  700.000
238.382;  -10.475;  166.000;  103.000
238.525;  -63.550; -598.000; -511.000
238.668; -138.625;-1060.000; -985.000
238.811;  -82.675; -638.000; -643.000
238.954;  -54.350; -483.000; -334.000
239.097;   88.300;  617.000;  664.000
239.241;   26.200;  394.000;  326.000
239.384;  -42.500; -254.000; -214.000
239.527;  -57.050; -424.000; -224.000
239.670; -140.150; -994.000;-1091.000
239.813; -102.850; -696.000; -658.000
239.956;   70.300;  579.000;  473.000
240.099; -110.250; -778.000; -725.000
240.242;   40.575;  428.000;  432.000
240.385;   36.450;  466.000;  450.000
240.528;  -75.425; -706.000; -473.000
240.671;   11.500;  189.000;  134.000
240.814;  -50.600; -441.000; -158.000
240.957; -104.575; -767.000; -578.000
241.100;  -92.475; -779.000; -755.000
241.243; -134.475;-1234.000; -893.000
241.386;  -63.800; -508.000; -379.000
241.529;  -93.725; -735.000; -547.000
241.672;  -73.150; -566.000; -495.000
241.815; -123.400; -832.000; -808.000
241.958;  -30.750; -125.000; -182.000
242.101;  -85.725; -545.000; -390.000
242.244;  -54.225; -270.000; -325.000
242.387;  -46.200; -304.000; -246.000
242.530;   55.700;  470.000;  134.000
242.673;  -51.175; -381.000; -309.000
242.815; -131.200; -925.000; -899.000
242.958;  -73.425; -482.000; -381.000
243.101;    9.400;  132.000;  187.000
243.244;  -85.975; -564.000; -521.000
243.387;  -53.825; -313.000; -316.000
243.530;  -93.875; -657.000; -674.000
243.672;   -4.525;   43.000;  -92.000
243.815;  -58.550; -355.000; -283.000
243.958;  -11.200;   98.000;  -26.000
244.101;  -24.525;   59.000;  -16.000
244.243;  -19.025;  -47.000;  101.000
244.386; -107.500; -761.000; -630.000
244.529;  -29.875; -132.000; -139.000
244.672; -142.425;-1154.000; -951.000
244.814;  -98.825; -621.000; -794.000
244.957;  -55.375; -380.000; -304.000
245.100;  -82.225; -489.000; -489.000
245.242;  -65.750; -387.000; -374.000
245.385;  -26.275;  -59.000;  -39.000
245.528; -127.625; -871.000; -705.000
245.670;   88.025;  612.000;  634.000
245.813;  -96.425; -599.000; -547.000
245.956;  -38.050; -324.000; -275.000
246.098;  -76.800; -508.000; -650.000
246.241;  -12.275;  194.000;   48.000
246.383;  -29.050; -119.000;  -73.000
246.526;  -81.200; -454.000; -525.000
246.669; -119.200; -889.000; -780.000
246.811;   12.750;  172.000;   -1.000
246.954;  -57.450; -512.000; -426.000
247.096;  -29.675;  -84.000;   -6.000
247.239;  -70.025; -482.000; -445.000
247.381;  -86.975; -647.000; -488.000
247.524;   69.525;  645.000;  679.000
247.666;   -4.300;   58.000;   11.000
247.809; -112.625; -887.000; -691.000
247.951;  -20.425;  -75.000;  138.000
248.094;   17.525;  432.000;  308.000
248.236; -153.550;-1262.000;-1238.000
248.378;  -27.050; -356.000;  -81.000
248.521;  -41.300; -334.000; -337.000
248.663;  -44.775; -236.000; -267.000
248.806;  -34.525; -300.000; -266.000
248.948; -108.875; -886.000; -763.000
249.090;  -59.275; -428.000; -398.000
249.233;  -59.200; -344.000; -381.000
249.375;  -66.500; -474.000; -451.000
249.518;  -27.225;  -83.000; -133.000
249.660;  -21.150; -103.000;    3.000
249.802; -168.550;-1303.000;-1189.000
249.945;  -80.450; -612.000; -540.000
250.087; -105.175; -834.000; -768.000
250.229;  -63.675; -362.000; -480.000
250.371;  -75.200; -494.000; -439.000
250.514;  -61.475; -310.000; -244.000
250.656;  -75.875;   69.000;  102.000
250.798; -124.175; -849.000; -800.000
250.940;  -67.025; -322.000; -322.000
251.083;  -40.800; -335.000; -111.000
251.225;   46.900;  338.000;  310.000
251.367;  -41.575; -274.000; -373.000
251.509;  -38.600; -265.000; -210.000
251.651;  -94.025; -731.000; -671.000
251.794;   42.850;  538.000;  632.000
251.936; -109.775; -821.000; -747.000
252.078;  -89.800; -540.000; -461.000
252.220;  -68.600; -645.000; -477.000
252.362;   58.650;  344.000;  462.000
252.504;  -83.675; -677.000; -584.000
252.646; -114.775; -875.000; -722.000
252.788;  -17.850;   14.000; -128.000
252.931;  -46.275; -257.000; -253.000
253.073;  -46.325; -376.000; -317.000
253.215;  -11.800;  141.000;  122.000
253.357;  -15.975;   82.000; -153.000
253.499;  -52.575; -374.000; -234.000
253.641;  -92.300; -749.000; -594.000
253.783;  -89.775; -609.000; -527.000
253.925;  -84.975; -586.000; -591.000
254.067; -113.275; -744.000; -667.000
254.209;  -40.275; -391.000; -259.000
254.351; -144.750; -865.000; -883.000
254.493;  -67.300; -441.000; -417.000
254.635; -153.575; -936.000; -818.000
254.777;  -99.125; -752.000; -687.000
254.918;  -71.650; -512.000; -430.000
255.060;  -71.175; -551.000; -395.000
255.202;  -68.700; -473.000; -261.000
255.344;  -90.200; -658.000; -455.000
255.486;  -84.950; -471.000; -406.000
255.628; -115.425; -780.000; -781.000
255.770;  -92.750; -676.000; -536.000
255.912;  -66.050; -559.000; -468.000
256.053;  -95.775; -730.000; -508.000
256.195;  141.600; 1008.000;  903.000
256.337; -104.275; -861.000; -595.000
256.479;   62.350;  532.000;  416.000
256.621;  -50.975; -394.000; -212.000
256.762; -102.250; -789.000; -742.000
256.904;   55.325;  485.000;  487.000
257.046;  -51.000; -381.000; -271.000
257.188;  -41.100; -351.000; -264.000
257.329;  -78.900; -525.000; -464.000
257.471; -118.300; -939.000; -807.000
257.613;  -62.775; -584.000; -498.000
257.755; -142.225;-1073.000; -982.000
257.896;    9.925;  286.000;  392.000
258.038;  -67.775; -403.000; -352.000
258.180;  -39.750; -354.000; -279.000
258.321;  -82.300; -581.000; -457.000
258.463;  -18.550;  -71.000;  133.000
258.605; -100.450; -562.000; -570.000
258.746; -109.475; -886.000; -772.000
258.888; -147.425;-1026.000;-1020.000
259.029;    9.850;  121.000;   -8.000
259.171;  -96.825; -614.000; -550.000
259.313;  -14.750;  -49.000;  -47.000
259.454;  -73.350; -536.000; -414.000
259.596;  -59.975; -483.000; -390.000
259.737;  -86.600; -590.000; -474.000
259.879;   21.125;  217.000;  311.000
260.020;   69.900;  901.000;  636.000
260.162;  -46.525; -146.000; -253.000
260.303; -120.975; -768.000; -687.000
260.445;  -79.025; -609.000; -613.000
260.586;   17.125;  392.000;  157.000
260.728;  -45.075; -360.000; -248.000
260.869;  -74.450; -350.000; -343.000
261.011;   70.075;  706.000;  537.000
261.152;  -64.625; -479.000; -319.000
261.293;  -98.575; -576.000; -595.000
261.435;  -30.000; -219.000; -184.000
261.576;  -48.425; -455.000; -325.000
261.718;   32.725;  420.000;  470.000
261.859; -114.675; -940.000; -949.000
262.000; -133.650; -951.000;-1016.000
262.142;  -36.100;  -52.000;  -60.000
262.283; -123.975; -808.000; -691.000
262.424; -100.175; -666.000; -625.000
262.566; -168.025;-1161.000; -983.000
262.707; -125.650; -840.000; -830.000
262.848; -122.075; -769.000; -726.000
262.990;  -45.475; -362.000; -345.000
263.131;   54.350;  650.000;  681.000
263.272;  -21.725;  -61.000;  -41.000
263.413;  -93.625; -589.000; -561.000
263.555;  -73.525; -669.000; -143.000
263.696;  -88.375; -550.000; -641.000
263.837;  -56.350; -449.000; -551.000
263.978;  -10.200;   -5.000;  -77.000
264.119;  -47.350; -283.000; -264.000
264.261; -104.325; -847.000; -630.000
264.402;    3.475;   33.000;   40.000
264.543; -100.050; -509.000; -524.000
264.684;  -17.500;   61.000;  -50.000
264.825;  -83.725; -816.000; -538.000
264.966;  -16.975;  -84.000;  -67.000
265.107; -114.850; -646.000; -670.000
265.248; -118.875; -825.000; -812.000
265.390;  -19.875;  152.000;   -9.000
265.531;  -34.025; -238.000; -107.000
265.672;  -87.800; -557.000; -630.000
265.813;   48.375;  563.000;  439.000
265.954; -149.075; -959.000; -940.000
266.095;  -29.500; -372.000; -322.000
266.236; -111.075; -686.000; -548.000
266.377;  -41.300; -243.000; -297.000
266.518;  -71.575; -619.000; -547.000
266.659;   17.025;  170.000;  268.000
266.800;   -6.075;   83.000;   85.000
266.941;  -84.025; -487.000; -478.000
267.082;   13.150;  354.000;   99.000
267.223;  -55.575; -344.000; -273.000
267.364; -119.450; -892.000; -686.000
267.504;  -18.875;    3.000;  135.000
267.645;   -9.575;  160.000;   67.000
267.786;  -38.925; -147.000;  -86.000
267.927;  -73.275; -473.000; -379.000
268.068;  -24.625; -186.000;  -61.000
268.209;  -48.275; -175.000; -413.000
268.350;  -65.800; -388.000; -532.000
268.490;  -92.325; -648.000; -521.000
268.631;   15.925;  127.000;  225.000
268.772; -122.700; -874.000; -647.000
268.913;  -54.050; -328.000; -476.000
269.054;  -26.525; -117.000;   12.000
269.194;  -52.800; -418.000; -402.000
269.335; -158.975;-1137.000;-1074.000
269.476;  -24.125;   33.000;  -35.000
269.617;  -55.500; -347.000; -392.000
269.757;  -99.750; -713.000; -646.000
269.898; -110.750; -856.000; -613.000
270.039;  -69.500; -415.000; -405.000
270.180; -137.450; -952.000; -816.000
270.320;  -39.250; -190.000; -250.000
270.461;  -40.900; -277.000; -249.000
270.602;  -19.525; -186.000; -156.000
270.742; -137.175; -868.000; -943.000
270.883;  -65.025; -442.000; -390.000
271.023;  -61.775; -358.000; -357.000
271.164;  -85.000; -607.000; -528.000
271.305; -113.875; -666.000; -654.000
271.445;  -87.475; -722.000; -683.000
271.586;  -82.475; -462.000; -283.000
271.726;  -47.900; -397.000; -322.000
271.867;  -78.425; -594.000; -534.000
272.008;   31.325; -473.000; -285.000
272.148;   75.625;  462.000;  468.000
272.289;  -19.650; -113.000; -181.000
272.429;   -7.550;   19.000;  185.000
272.570; -107.500; -633.000; -737.000
272.710; -121.525; -825.000; -775.000
272.851;  -43.975;  113.000; -130.000
272.991; -170.850;-1173.000;-1077.000
273.131;  -67.250; -419.000; -459.000
273.272; -123.725; -683.000; -723.000
273.412;  -33.100; -143.000;  -31.000
273.553;  -85.975; -488.000; -507.000
273.693;  102.125;  913.000;  858.000
273.834; -128.000; -894.000; -692.000
273.974;  -92.275; -664.000; -615.000
274.114;  -96.175; -772.000; -560.000
274.255;   37.575;  414.000;  373.000
274.395;  -30.025; -180.000; -125.000
274.535;    8.950;  199.000;  350.000
274.676;    4.950;  225.000;   94.000
274.816;  -19.425;  110.000;   34.000
274.956;  -88.775; -624.000; -690.000
275.097; -117.750;-1014.000; -922.000
275.237; -128.050; -913.000; -803.000
275.377;  -97.025; -778.000; -689.000
275.517; -149.750; -878.000; -937.000
275.658;  -83.925; -590.000; -555.000
275.798;  -93.100; -606.000; -413.000
275.938;    9.425;  215.000;  323.000
276.078;  -76.775; -626.000; -395.000
276.218;   -2.475;   99.000;  104.000
276.359; -143.425;-1026.000;-1024.000
276.499;  -86.500; -605.000; -446.000
276.639;  -33.950; -305.000; -151.000
276.779;  -56.600; -475.000; -357.000
276.919; -105.525; -783.000; -624.000
277.059;  -40.600; -261.000; -212.000
277.199;  -52.025; -357.000; -259.000
277.340;   27.975;  287.000;  175.000
277.480; -126.325; -840.000; -693.000
277.620;   13.875;  192.000;   16.000
277.760; -194.000;-1533.000;-1294.000
277.900;   -4.300;  113.000;   33.000
278.040;    0.100;  137.000;  159.000
278.180;   17.750;  270.000;  170.000
278.320;  -13.600;   21.000;   56.000
278.460;  -84.050; -443.000; -469.000
278.600; -104.475; -708.000; -598.000
278.740;   40.025;  448.000;  224.000
278.880; -118.800; -768.000; -791.000
279.020;  -37.175; -194.000; -144.000
279.160;  -92.675; -672.000; -595.000
279.300; -121.425; -926.000; -873.000
279.440; -104.575; -709.000; -622.000
279.579; -100.875;-1014.000; -929.000
279.719;  -72.450; -410.000; -394.000
279.859;   28.775;   -4.000;   41.000
279.999;  -12.450; -208.000;  101.000
280.139;  -38.550; -435.000; -387.000
280.279;  -99.400; -708.000; -745.000
280.419;  -29.700; -229.000; -147.000
280.559;  -49.900; -259.000; -180.000
280.698;  -92.950; -790.000; -639.000
280.838; -111.000; -778.000; -800.000
280.978; -104.975; -846.000; -790.000
281.118; -108.350; -811.000; -704.000
281.257;    2.250;   24.000;    6.000
281.397; -144.475;-1094.000; -960.000
281.537; -106.750; -599.000; -712.000
281.677;  -40.350; -150.000; -101.000
281.816;  -94.925; -700.000; -630.000
281.956;  -28.475; -193.000; -257.000
282.096;  -80.600; -539.000; -396.000
282.235; -119.075; -672.000; -638.000
282.375;  -40.375; -243.000;  -98.000
282.515; -111.675; -715.000; -707.000
282.654;  -11.000;   29.000;  106.000
282.794;    2.050;  388.000;  244.000
282.934;  -66.500; -530.000; -491.000
283.073; -144.600;-1030.000; -857.000
283.213;  -71.500; -460.000; -467.000
283.353;  -57.850; -408.000; -349.000
283.492;  -37.100; -264.000; -296.000
283.632;  -58.025; -254.000; -168.000
283.771;  -92.000; -859.000; -730.000
283.911;  -61.625; -369.000; -260.000
284.050; -119.475; -794.000; -748.000
284.190; -175.675;-1229.000;-1096.000
284.329; -137.350;-1055.000; -964.000
284.469;  -85.875; -516.000; -591.000
284.608;  -79.600; -559.000; -598.000
284.748;  -84.725; -614.000; -570.000
284.887;   -6.350;  -87.000;  -20.000
285.027; -134.650; -844.000; -892.000
285.166;  -59.900; -192.000; -249.000
285.306;  -28.475; -116.000;  -33.000
285.445;  -60.950; -229.000; -343.000
285.584;  -95.200; -630.000; -494.000
285.724;  -56.675; -282.000; -322.000
285.863; -120.900; -857.000; -507.000
286.002;  -65.575; -366.000; -276.000
286.142; -118.375; -715.000; -622.000
286.281;  -84.750; -525.000; -493.000
286.420;  -85.825; -554.000; -417.000
286.560;   83.000;  653.000;  623.000
286.699; -139.950; -958.000; -912.000
286.838;  -97.800; -590.000; -591.000
286.978; -100.550; -533.000; -537.000
287.117; -143.900;-1085.000; -950.000
287.256;  -33.550; -228.000; -211.000
287.395;  -63.025; -197.000; -378.000
287.535;  -65.175; -370.000; -298.000
287.674;  -79.875; -509.000; -484.000
287.813;   59.650;  661.000;  533.000
287.952; -135.875;-1010.000; -871.000
288.091; -150.425;-1049.000; -915.000
288.231;  -13.175;   13.000;   15.000
288.370; -171.100;-1217.000;-1200.000
288.509; -104.450; -728.000; -645.000
288.648; -101.325; -770.000; -548.000
288.787;  -34.500; -243.000;  -87.000
288.926;  -67.875; -454.000; -475.000
289.065;   97.725;  859.000;  672.000
289.204;  -51.525; -377.000; -217.000
289.344; -113.250; -791.000; -690.000
289.483;   -8.025;  416.000;  304.000
289.622;  -38.825; -291.000; -149.000
289.761;  -40.175; -309.000; -166.000
289.900; -118.425; -785.000; -626.000
290.039;  -36.475;  -12.000;  -95.000
290.178;  -54.700; -274.000; -180.000
290.317;  -88.675; -618.000; -479.000
290.456;  -67.075; -463.000; -451.000
290.595; -124.100; -961.000; -833.000
290.734; -149.625; -904.000; -891.000
290.873;  -70.550; -456.000; -420.000
291.011; -122.200; -833.000; -843.000
291.150; -105.225; -770.000; -682.000
291.289;  -36.825; -343.000; -110.000
291.428; -101.000; -599.000; -480.000
291.567;  -60.975; -370.000; -442.000
291.706;  -17.325;  109.000;  154.000
291.845; -101.050; -597.000; -505.000
291.984; -161.050;-1234.000;-1061.000
292.122;   46.350;  602.000;  582.000
292.261;   32.850;  620.000;  463.000
292.400;   -1.025; -144.000;  211.000
292.539; -115.725; -959.000; -813.000
292.678;  -59.750; -325.000; -300.000
292.816; -161.000;-1136.000; -965.000
292.955; -100.350; -844.000; -684.000
293.094;  -32.875; -173.000; -337.000
293.233;  -65.075; -556.000; -400.000
293.371;  -38.625; -225.000;  -84.000
293.510; -114.500; -866.000; -780.000
293.649; -137.575; -959.000; -924.000
293.787; -149.450;-1083.000;-1012.000
293.926;  -35.200; -113.000;  -32.000
294.065;  -48.400; -379.000; -290.000
294.203;   18.325;  298.000;  406.000
294.342;   19.925;   74.000;  156.000
294.481; 6672.325;51180.000; -836.000
294.619;  -36.300; -425.000; -582.000
294.758; -158.575;-1230.000;-1137.000
294.896;   14.550; -125.000;    5.000
295.035; -147.750;-1040.000;-1006.000
295.174; -145.775;-1082.000; -954.000
295.312;  -39.175; -323.000; -203.000
295.451;  -53.025; -307.000; -428.000
295.589;  -81.000; -389.000; -518.000
295.728;   -8.300; -292.000; -165.000
295.866;  -25.700;  -36.000;  -51.000
296.005;  -87.725; -584.000; -341.000
296.143;  -75.850; -558.000; -596.000
296.282;  -99.475; -957.000; -881.000
296.420;  -92.850; -657.000; -557.000
296.559;  -94.075; -892.000; -633.000
296.697;  -58.675; -847.000; -665.000
296.835;  -82.025;-1141.000;-1002.000
296.974;   -3.275;  -23.000;   39.000
297.112;  -66.675; -443.000; -504.000
297.251; -108.400; -815.000; -755.000
297.389;  -34.925; -576.000; -438.000
297.527;  -22.850; -145.000;  -83.000
297.666;  -73.375; -486.000; -438.000
297.804;  -61.625; -404.000; -264.000
297.942;  -10.275; -136.000; -161.000
298.081;  -13.775; -183.000;   63.000
298.219;  -12.800;  -17.000;  -19.000
298.357;  -16.050; -144.000;  -71.000
298.495;  -77.225; -810.000; -812.000
298.634;    8.050;  245.000;  219.000
298.772;  -53.025; -220.000; -338.000
298.910;  -65.600; -309.000; -182.000
299.048;  -28.875; -130.000; -153.000
299.187;  -43.675; -350.000; -250.000
299.325;   -4.375;   52.000;  122.000
299.463;  -26.050; -389.000; -299.000
299.601;  -17.775; -327.000; -271.000
299.739; -135.175; -908.000; -883.000
299.877; -100.475; -791.000; -703.000
300.016; -117.525;-1095.000; -935.000
300.154;   23.100;  -19.000; -161.000
300.292;  -39.900; -428.000; -348.000
300.430;  -33.450; -408.000; -291.000
300.568; -127.500; -940.000; -874.000
300.706;  -67.675; -366.000; -469.000
300.844; -143.825;-1108.000; -979.000
300.982;   51.575;  246.000;  282.000
301.120; -128.225; -965.000; -866.000
301.258;  -95.925; -812.000; -705.000
301.396;    1.350;  104.000;  -41.000
301.534;  -39.600; -218.000; -293.000
301.672;  -88.075; -664.000; -521.000
301.810;  -67.975; -613.000; -545.000
301.948;    2.750;   53.000;  149.000
302.086;  178.675; -250.000;  -32.000
302.224;  213.725; -610.000; -585.000
302.362;  -68.525; -558.000; -622.000
302.500; -106.050; -923.000; -893.000
302.638;   20.650;  128.000;  245.000
302.776;  -50.925; -352.000; -408.000
302.913;   27.275;  447.000;  236.000
303.051;  -27.625;  -86.000;  -23.000
303.189;    5.725;   90.000;  118.000
303.327;  -45.950; -341.000; -256.000
303.465;  -92.125; -832.000; -588.000
303.603; -109.775; -805.000; -604.000
303.740;   38.225;  417.000;  241.000
303.878;  -81.300; -800.000; -759.000
304.016; -110.875; -915.000; -790.000
304.154; -155.575;-1123.000;-1152.000
304.291;  -66.300; -505.000; -554.000
304.429;   -6.150;  102.000;   74.000
304.567; -148.275; -908.000; -893.000
304.705;  -77.025; -408.000; -515.000
304.842;  -45.475; -616.000; -540.000
304.980;    5.425;  215.000;   35.000
305.118;  -31.450; -367.000; -365.000
305.255; -119.925; -945.000; -927.000
305.393;   35.125;  178.000;  239.000
305.531; -135.250;-1173.000; -956.000
305.668;  -90.225; -663.000; -582.000
305.806;   -5.875; -358.000; -439.000
305.943;  -25.975; -629.000; -637.000
306.081;  -26.950; -378.000; -267.000
306.219; -119.000; -863.000; -748.000
306.356;   -3.400;  158.000;   27.000
306.494;  100.500;  981.000;  761.000
306.631;  -16.975;  -11.000;  -55.000
306.769;  -44.175; -613.000; -485.000
306.906;  -49.050; -284.000; -258.000
307.044;  -65.950; -473.000; -488.000
307.181;  -70.825; -410.000; -332.000
307.319;    0.300;  112.000;   87.000
307.456; -177.400;-1191.000;-1153.000
307.594; -110.400; -980.000; -727.000
307.731;  -40.600; -371.000; -164.000
307.868;  -13.675;  -15.000;   20.000
308.006; -150.325; -961.000; -847.000
308.143;  -80.225; -618.000; -330.000
308.281;   20.175;  -37.000; -254.000
308.418;  -72.300; -748.000; -640.000
308.555;  -83.275; -400.000; -250.000
308.693;  -82.450; -577.000; -573.000
308.830; -119.625; -712.000; -657.000
308.967;  -28.125; -215.000;  -95.000
309.105;  -62.350; -507.000; -396.000
309.242;  -22.625; -468.000; -367.000
309.379;   25.850; -577.000; -655.000
309.517; -112.750; -936.000; -948.000
309.654; -116.200; -910.000; -734.000
309.791;  -83.675; -662.000; -580.000
309.928; -123.875; -977.000; -914.000
310.065;  110.125;  819.000;  697.000
310.203;  -69.275; -825.000; -850.000
310.340;  -49.700; -465.000; -321.000
310.477;  -85.825; -412.000; -516.000
310.614;  -61.025; -383.000; -473.000
310.751;  -82.525; -427.000; -518.000
310.889;  -25.675;    1.000;   11.000
311.026; -158.050;-1161.000; -939.000
311.163;  -48.475; -386.000; -380.000
311.300;  -77.975; -512.000; -479.000
311.437;  -76.625; -658.000; -619.000
311.574; -163.875;-1226.000; -985.000
311.711;  -74.675; -595.000; -433.000
311.848;  -41.700; -380.000; -388.000
311.985;   15.500;  270.000;   93.000
312.122; -129.775; -932.000; -762.000
312.259; -115.900; -941.000; -994.000
312.396;  -80.600; -508.000; -551.000
312.533;  -91.350; -812.000; -790.000
312.670; -137.400;-1070.000; -898.000
312.807;  -35.025; -352.000; -367.000
312.944;  -81.700; -513.000; -611.000
313.081;  -36.925; -150.000; -415.000
313.218;  -98.725;-1111.000; -867.000
313.355;  -25.325; -531.000; -449.000
313.492;  -28.375; -455.000; -292.000
313.629;  111.200;  815.000;  735.000
313.766; -156.900;-1176.000;-1008.000
313.902;  -20.200; -186.000;   21.000
314.039;  -59.600; -372.000; -289.000
314.176;   19.050;  286.000;  192.000
314.313;  -80.225; -569.000; -473.000
314.450;  -85.225; -788.000; -684.000
314.587;  -69.925; -468.000; -480.000
314.723;    0.300;  -78.000;  130.000
314.860;   30.050;  318.000;  332.000
314.997;   29.675;  223.000;  142.000
315.134;  -49.625; -385.000; -368.000
315.270;  -33.900; -480.000; -496.000
315.407; -137.675;-1094.000; -967.000
315.544;  -36.475; -657.000; -538.000
315.681;  -80.625; -681.000; -565.000
315.817;   29.275; -133.000; -176.000
315.954;   34.275; -613.000; -392.000
316.091; -129.425;-1045.000;-1023.000
316.227;  -32.875;  -71.000; -179.000
316.364;   -7.425;   23.000;    6.000
316.500;  -45.525; -113.000; -300.000
316.637;  -49.625; -181.000; -302.000
316.774; -100.400; -625.000; -358.000
316.910;  -98.225; -598.000; -629.000
317.047;  -80.825; -487.000; -351.000
317.183;  -54.650; -435.000; -566.000
317.320;   15.400; -367.000; -321.000
317.456;  -45.575; -733.000; -805.000
317.593; -102.700; -598.000; -641.000
317.729;  -12.575;  168.000;  -67.000
317.866; -198.750;-1434.000;-1285.000
318.002; -113.300; -708.000; -948.000
318.139; -123.050; -883.000; -867.000
318.275; -115.200;-1003.000; -738.000
318.412;  -66.525; -517.000; -336.000
318.548;  -76.100; -751.000; -720.000
318.685; -116.000; -985.000; -888.000
318.821; -100.000; -762.000; -735.000
318.957;  -31.275;   34.000;  -23.000
319.094;   17.650;  297.000;  154.000
319.230;  -95.675; -756.000; -742.000
319.367;   -6.750; -471.000; -520.000
319.503;  -39.675; -538.000; -436.000
319.639; -121.800; -877.000; -793.000
319.775; -101.250; -750.000; -685.000
319.912;  -71.250; -424.000; -519.000
320.048; -111.925;-1184.000;-1184.000
320.184;   73.000;   59.000;   70.000
320.321;  -66.850; -497.000; -467.000
320.457;   64.250;  475.000;  662.000
320.593;  -84.825; -375.000; -382.000
320.729; -114.825; -732.000; -734.000
320.866;  -88.200; -577.000; -635.000
321.002; -116.600; -759.000; -809.000
321.138;  -39.400; -135.000; -211.000
321.274;   -5.350; -148.000; -115.000
321.410;  -67.050; -585.000; -353.000
321.546; -104.950;-1011.000; -911.000
321.683;   19.925;  400.000;  185.000
321.819;  -27.025;  -48.000; -117.000
321.955; -124.900; -743.000; -722.000
322.091;  -72.350; -585.000; -540.000
322.227;  -48.350; -382.000; -202.000
322.363;  -54.425; -320.000; -215.000
322.499;  -72.500; -343.000; -331.000
322.635;   72.575;  636.000;  443.000
322.771;  -17.425; -139.000;   12.000
322.907;   32.325;  129.000;  327.000
323.043;  -43.400; -115.000; -206.000
323.179;  -80.450; -394.000; -363.000
323.315;  -61.225; -401.000; -371.000
323.451;    3.075; -328.000; -236.000
323.587;   41.200;  -60.000;  -77.000
323.723;  -60.925; -682.000; -601.000
323.859;  -36.375; -258.000;  -76.000
323.995;  -54.225; -467.000; -409.000
324.131; -137.800; -967.000; -892.000
324.267;  -57.600; -254.000; -276.000
324.402; -143.825; -960.000; -983.000
324.538;  -49.600; -279.000; -104.000
324.674;    9.650;  164.000;   77.000
324.810;   41.825;  226.000;  308.000
324.946;  -49.325; -810.000; -658.000
325.082;  -96.975; -568.000; -475.000
325.217;  -30.750;  -62.000;   16.000
325.353; -114.175; -764.000; -659.000
325.489; -104.475; -540.000; -506.000
325.625;  -87.925; -579.000; -525.000
325.760;   79.275;  517.000;  376.000
325.896;    7.175; -515.000; -702.000
326.032;  -53.650; -403.000; -352.000
326.168;  -76.025; -462.000; -369.000
326.303;  -85.175; -352.000; -461.000
326.439;  -27.825; -336.000; -276.000
326.575;  -14.225; -190.000;  -29.000
326.710;  -30.600; -156.000;  -30.000
326.846;  -24.225;  146.000;  103.000
326.982; -103.225; -530.000; -548.000
327.117;  -74.500; -481.000; -442.000
327.253;  -87.075; -745.000; -742.000
327.388; -191.325;-1137.000;-1153.000
327.524;  -94.150; -811.000; -578.000
327.659;  -28.575;  -58.000;  -22.000
327.795;  -28.050;   69.000;   45.000
327.931;  -74.800; -723.000; -499.000
328.066;  -32.925; -417.000; -276.000
328.202;  -20.450;   12.000; -129.000
328.337;   97.550;  957.000;  713.000
328.473;   24.225;  -12.000;  -74.000
328.608;  -34.575; -256.000; -267.000
328.743; -108.925; -799.000; -664.000
328.879;   10.500;  214.000;  114.000
329.014;  -37.850; -102.000; -122.000
329.150;  -86.300; -358.000; -483.000
329.285;  -84.825; -465.000; -466.000
329.421;  -51.225; -548.000; -246.000
329.556;  -39.475;  -36.000;   85.000
329.691; -108.225; -633.000; -615.000
329.827;  -85.125; -626.000; -480.000
329.962;  -49.450;  131.000; -301.000
330.097;  -83.725; -673.000; -585.000
330.233;  -61.550; -410.000; -223.000
330.368; -118.225; -839.000; -628.000
330.503;  -24.550;    3.000;   98.000
330.638;  -29.725;  -93.000; -125.000
330.774;  -84.025; -609.000; -530.000
330.909;  -55.175; -434.000; -244.000
331.044;  -92.150; -714.000; -708.000
331.179; -191.825;-1217.000;-1109.000
331.315;  -11.150;   77.000;   20.000
331.450;   -6.575;  157.000;  285.000
331.585;  -91.725; -805.000; -706.000
331.720;  -85.750; -510.000; -460.000
331.855;   -0.075;  -35.000; -102.000
331.990;  404.500;   62.000;  138.000
332.126;  208.275; -110.000;   71.000
332.261;    1.900; -379.000; -265.000
332.396;   21.725; -135.000; -242.000
332.531;  -75.500;-1074.000;-1031.000
332.666;   83.300; -519.000; -363.000
332.801;  -99.825; -726.000; -807.000
332.936;  -23.125; -192.000; -122.000
333.071; -136.775; -870.000; -817.000
333.206;   20.525;  307.000;  379.000
333.341;   14.350;  344.000;  418.000
333.476;  -83.675; -627.000; -623.000
333.611;  -39.050; -251.000; -173.000
333.746;  -75.600; -381.000; -464.000
333.881; -124.500; -973.000; -935.000
334.016; -134.775; -936.000; -917.000
334.151; -118.625; -746.000; -702.000
334.286;    9.125;  152.000;  186.000
334.421;  -23.850; -125.000; -178.000
334.556;  -81.650; -611.000; -567.000
334.690; -100.325; -631.000; -577.000
334.825;   39.750;  381.000;   83.000
334.960;  -62.000; -285.000; -413.000
335.095;   -4.675;  135.000;  -91.000
335.230; -102.450; -722.000; -738.000
335.365; -137.475;-1084.000; -990.000
335.499; -136.050;-1108.000;-1037.000
335.634;    1.150;    9.000;  534.000
335.769;  -98.125; -755.000; -720.000
335.904;  -67.175; -603.000; -561.000
336.038;  -53.850; -735.000; -657.000
336.173; -108.700;-1206.000;-1194.000
336.308;    7.000; -116.000; -189.000
336.443;   52.250; -544.000; -634.000
336.577;  -55.850; -936.000; -787.000
336.712;   68.700;   -4.000;  -12.000
336.847;  -29.000; -724.000; -607.000
336.981;   65.125; -272.000; -208.000
337.116;  283.950;  615.000;  501.000
337.250;  119.475; -434.000; -421.000
337.385;  458.400; -297.000; -208.000
337.520;  223.725; -632.000; -603.000
337.654;  -37.525; -215.000; -126.000
337.789; -145.200; -989.000; -933.000
337.923;  -47.375; -104.000; -205.000
338.058; -113.200; -673.000; -738.000
338.192;  -68.225; -611.000; -488.000
338.327;  -20.475;  -18.000; -155.000
338.461;  -95.000; -299.000; -469.000
338.596; -107.200; -780.000; -638.000
338.730;  -97.225; -767.000; -803.000
338.865;  165.175;  -46.000; -140.000
338.999;    0.025; -846.000; -702.000
339.134;    3.625; -634.000; -536.000
339.268;   28.350; -741.000; -603.000
339.403;  549.850; -740.000; -775.000
339.537;  256.175; -894.000; -820.000
339.671; -105.800; -829.000; -813.000
339.806;  -29.975; -556.000; -512.000
339.940;   29.975; -261.000; -235.000
340.074; -103.625; -685.000; -510.000
340.209;  -51.675; -351.000; -230.000
340.343; -100.450; -517.000; -573.000
340.477;  128.275;  998.000; 1036.000
340.612;   -2.425;-1033.000; -900.000
340.746;  223.200; -199.000; -243.000
340.880;  -97.425; -924.000; -785.000
341.014;  -39.775;  -45.000; -154.000
341.149; -125.100; -756.000; -718.000
341.283; -127.800; -839.000; -754.000
341.417; -150.475;-1124.000; -938.000
341.551;  -32.125; -768.000; -708.000
341.685;  -71.675; -633.000; -611.000
341.820;  -66.475; -562.000; -493.000
341.954;  -62.200; -218.000; -349.000
342.088; -159.350;-1102.000;-1019.000
342.222;   36.150;  565.000;  618.000
342.356;  -87.125; -395.000; -335.000
342.490; -129.175; -880.000; -841.000
342.624;  -58.950; -339.000; -242.000
342.758;  -73.850; -364.000; -312.000
342.892; -111.950; -710.000; -585.000
343.026;  -58.750;  -58.000; -116.000
343.160;  -63.100; -426.000; -376.000
343.294;  -96.150; -474.000; -337.000
343.428;  -79.350; -488.000; -448.000
343.562;  -48.275; -172.000;  -23.000
343.696;  -62.800; -385.000; -314.000
343.830;  -63.875; -362.000; -356.000
343.964;  -26.900; -231.000; -168.000
344.098;  261.125;  199.000;   70.000
344.232;  215.075; -266.000; -127.000
344.366;   55.275; -567.000; -453.000
344.500;  -58.025; -665.000; -744.000
344.634;  -41.300; -324.000; -164.000
344.768;  -66.600; -531.000; -341.000
344.902;   -0.550;  278.000;  256.000
345.035;  -90.225; -556.000; -496.000
345.169; -141.050; -933.000; -656.000
345.303;  -55.675; -308.000; -482.000
345.437; -101.500; -826.000; -717.000
345.571;  -66.750; -675.000; -594.000
345.704;  -65.600; -309.000; -532.000
345.838;  -33.975; -331.000; -284.000
345.972;  -75.775; -543.000; -495.000
346.106;  254.700; -179.000; -190.000
346.239;  468.825; -312.000; -243.000
346.373;  -14.400; -343.000; -302.000
346.507; -141.100; -950.000; -962.000
346.640;    9.400;  -30.000;   13.000
346.774; -102.300; -650.000; -797.000
346.908;  -37.075; -138.000;  -11.000
347.041; -111.000; -646.000; -593.000
347.175;   -5.250;  259.000;   27.000
347.309; -110.950; -698.000; -628.000
347.442; -116.250; -883.000; -732.000
347.576;  106.300;  670.000;  668.000
347.709;   24.375; -123.000;  -52.000
347.843; -123.050; -933.000; -825.000
347.976;   18.975;  235.000;  294.000
348.110; -186.825;-1268.000;-1186.000
348.243; -114.475; -679.000; -772.000
348.377;    6.500;  -26.000;   60.000
348.510;   34.800;  403.000;  540.000
348.644;  -64.500;  -37.000; -159.000
348.777;  -21.325;  180.000;  191.000
348.911;  -49.550; -142.000; -112.000
349.044;   79.950;  471.000;  448.000
349.178;  -50.175;-1069.000;-1006.000
349.311;   89.175;  141.000;  255.000
349.444;   11.675; -927.000; -813.000
349.578;  -45.125; -347.000; -200.000
349.711; -124.175; -959.000; -862.000
349.845;  -84.325; -661.000; -591.000
349.978; -177.025;-1224.000;-1137.000
350.111;  -89.450; -546.000; -612.000
350.244; -110.150; -596.000; -700.000
350.378;  -62.650; -392.000; -393.000
350.511;  -86.425; -393.000; -426.000
350.644; -100.525; -808.000; -806.000
350.778;  -13.025;  168.000;  104.000
350.911;  -16.975;  134.000;  140.000
351.044; -113.725; -685.000; -615.000
351.177;  -54.725; -321.000; -281.000
351.310;  -46.250;    3.000; -131.000
351.444; -113.925; -888.000; -788.000
351.577;   25.750;  140.000;   90.000
351.710;   61.125;  593.000;  417.000
351.843;  -34.675; -165.000;  -77.000
351.976;  -12.650;  149.000;  -79.000
352.109; -106.775; -621.000; -612.000
352.242;  -74.475; -464.000; -419.000
352.376;  -92.450; -580.000; -636.000
352.509;   19.750; -437.000; -356.000
352.642;  -98.225; -654.000; -604.000
352.775;    2.450; -141.000;  -98.000
352.908; -132.975; -933.000; -904.000
353.041; -105.575; -814.000; -824.000
353.174;  -64.950; -551.000; -424.000
353.307; -103.025; -753.000; -764.000
353.440;   48.900;  541.000;  453.000
353.573; -103.825; -957.000;-1008.000
353.706;  -56.700; -384.000; -558.000
353.839;  -38.850; -264.000; -220.000
353.971; -101.625; -657.000; -512.000
354.104; -113.600; -896.000; -835.000
354.237;  -88.300; -627.000; -662.000
354.370; -106.150; -846.000; -879.000
354.503; -170.000;-1231.000;-1308.000
354.636;  -43.325; -529.000; -348.000
354.769; -125.825; -937.000; -860.000
354.902;  -31.150; -230.000; -139.000
355.034;  -14.325; -164.000; -220.000
355.167;  -26.050; -262.000; -162.000
355.300;  -73.825;-1061.000; -880.000
355.433; 1403.925;  -71.000;  -14.000
355.565; 2195.175; -402.000; -384.000
355.698;  587.000; -356.000; -296.000
355.831;  -15.150; -882.000; -801.000
355.964;   11.100; -285.000; -170.000
356.096;  -84.025; -856.000; -843.000
356.229;  -14.650; -523.000; -530.000
356.362;  514.500; -373.000; -266.000
356.494;  898.475; -229.000; -162.000
356.627;  313.400;  269.000;  377.000
356.760;  871.100;  120.000;   53.000
356.892; 1466.425; -286.000; -601.000
357.025;  314.800;  403.000;  389.000
357.157;  201.125; -167.000; -179.000
357.290; 1222.375; -856.000; -713.000
357.423;  359.625; -667.000; -556.000
357.555;  100.125; -217.000; -228.000
357.688;  120.850; -483.000; -364.000
357.820;  156.350; -870.000; -877.000
357.953; 1416.525; -563.000; -589.000
358.085;  208.925; -632.000; -612.000
358.218;   76.100;-1131.000; -932.000
358.350;   27.800;  -58.000;  312.000
358.483; -165.750;-1300.000;-1187.000
358.615; -139.325;-1182.000;-1078.000
358.747; -154.400;-1187.000;-1058.000
358.880;  -65.375; -810.000; -744.000
359.012;  -47.800; -376.000; -202.000
359.145;  -80.400; -480.000; -511.000
359.277;  -63.025; -962.000; -913.000
359.409; 1181.250;  536.000;  231.000
359.542;  251.725; -738.000; -688.000
359.674;    0.700;   46.000;   13.000
359.806;  -81.475; -565.000; -438.000
359.939;  -63.650; -617.000; -516.000
360.071;   23.850; -583.000; -579.000
360.203;  -43.300; -411.000; -364.000
360.335;   33.350;  164.000;  -16.000
360.468;  100.650; -249.000; -307.000
360.600; 1274.550; -547.000; -454.000
360.732; 4248.175; -546.000; -423.000
360.864;  647.025;-1216.000;-1044.000
360.996;   60.075; -516.000; -554.000
361.129;  -54.625; -389.000; -598.000
361.261;   -9.575;  110.000; -113.000
361.393;  -58.150; -252.000; -214.000
361.525;  -10.825;   94.000;  244.000
361.657; -110.025; -821.000; -703.000
361.789;  -40.925; -139.000; -155.000
361.921;  -68.150; -642.000; -593.000
362.053;   66.100;  524.000;  541.000
362.185;    6.425;  288.000;   72.000
362.318; -117.700; -709.000; -705.000
362.450;   36.900;  294.000;  444.000
362.582;  -97.725; -913.000; -870.000
362.714;  -67.150; -353.000; -332.000
362.846;  -98.775; -606.000; -490.000
362.978; -150.725; -941.000; -811.000
363.109;  -32.625; -161.000; -260.000
363.241;  121.875; -739.000; -749.000
363.373;  613.500; -649.000; -564.000
363.505; 1029.175; -186.000;  -91.000
363.637;  228.225; -787.000; -601.000
363.769; -140.550;-1067.000;-1080.000
363.901;  -89.175; -596.000; -654.000
364.033; -164.325;-1103.000;-1062.000
364.165;  -51.700; -283.000; -283.000
364.296;   94.550; -316.000; -177.000
364.428;  201.950;-1344.000;-1220.000
364.560;  -78.475; -679.000; -661.000
364.692;  -92.725; -738.000; -835.000
364.824;  -25.650; -588.000; -456.000
364.955;  501.775; -402.000; -564.000
365.087; 1723.525;-1097.000; -852.000
365.219;  102.550; -686.000; -816.000
365.351;  -79.725; -526.000; -572.000
365.482;   13.750;  300.000;  240.000
365.614;  -60.325; -402.000; -314.000
365.746; -126.725; -729.000; -752.000
365.877;  -93.675; -706.000; -672.000
366.009;  415.825;  -35.000;  -62.000
366.141;  -33.425;-1249.000;-1134.000
366.272; -119.125; -803.000; -719.000
366.404; -122.825;-1005.000; -874.000
366.535;  -13.400; -139.000;  -12.000
366.667; -118.825; -644.000; -649.000
366.799;   22.700;  353.000;  203.000
366.930; -148.625; -862.000; -996.000
367.062;  177.700; -639.000; -613.000
367.193;  336.000; -872.000; -842.000
367.325;  -58.675; -580.000; -684.000
367.456;   -7.650; -246.000;   31.000
367.588;  275.275; -371.000; -318.000
367.719;   36.275;  -44.000;  -45.000
367.851;  -64.850; -222.000; -241.000
367.982; -116.475; -875.000; -732.000
368.113;  -23.400; -475.000; -358.000
368.245; -154.425; -960.000; -841.000
368.376;  -56.925; -254.000; -302.000
368.508;  -76.300; -188.000; -263.000
368.639; -161.900;-1166.000;-1034.000
368.770; -106.750; -670.000; -589.000
368.902; -123.250; -836.000; -926.000
369.033; -120.775; -906.000; -855.000
369.164;  -44.350; -720.000; -653.000
369.296; -109.675; -452.000; -601.000
369.427;  -48.525; -209.000; -144.000
369.558;  -90.575; -593.000; -377.000
369.689;  -96.625; -721.000; -569.000
369.821; -143.400; -951.000; -845.000
369.952;  -40.125;   42.000; -108.000
370.083;  -60.025; -229.000; -108.000
370.214; -111.150; -735.000; -650.000
370.345;  -31.025;   65.000;   81.000
370.477; -115.825; -810.000; -790.000
370.608;   12.425; -328.000; -264.000
370.739; -146.750;-1233.000;-1292.000
370.870; -116.075;-1102.000; -923.000
371.001;  -31.825; -378.000; -467.000
371.132; -108.700; -754.000; -735.000
371.263;  -53.200;  -42.000; -148.000
371.394; -140.525; -841.000; -748.000
371.525;   -1.075;  345.000;  225.000
371.657; -124.050; -808.000; -670.000
371.788;   17.750;  103.000;  199.000
371.919;    1.250; -384.000; -304.000
372.050; 1202.950;  -91.000; -156.000
372.181;  344.350; -188.000; -294.000
372.311;   72.950;   42.000; -127.000
372.442;  -61.200; -457.000; -451.000
372.573;  -60.350; -444.000; -340.000
372.704; -163.900;-1008.000; -980.000
372.835;  -42.100; -228.000; -289.000
372.966;  -85.225; -646.000; -554.000
373.097; -109.850; -575.000; -711.000
373.228;  -92.275; -717.000; -542.000
373.359;  -45.100; -824.000; -536.000
373.490;  127.050; -881.000; -727.000
373.620;  210.925;-1001.000; -803.000
373.751;  466.075; -332.000; -396.000
373.882;  173.400; -663.000; -733.000
374.013;  -33.425; -449.000; -262.000
374.143;  -95.875; -581.000; -659.000
374.274; -134.525; -987.000; -908.000
374.405;   50.225; -388.000; -276.000
374.536;   84.775; -526.000; -387.000
374.666;  228.425; -759.000; -807.000
374.797;  -36.650; -817.000; -868.000
374.928;  141.100; -710.000; -560.000
375.058;  172.025; -535.000; -500.000
375.189;   -5.400;  -59.000;  -93.000
375.320; -136.325; -928.000;-1034.000
375.450;  -69.950; -625.000; -616.000
375.581;  -55.525; -526.000; -436.000
375.712;  -66.300; -574.000; -250.000
375.842;   -3.550; -438.000; -415.000
375.973;  -24.800; -554.000; -513.000
376.103; -109.750; -665.000; -648.000
376.234;  -99.225; -531.000; -552.000
376.364; -129.575; -944.000; -867.000
376.495;  143.200;  925.000;  529.000
376.625;  -71.250; -472.000; -485.000
376.756;  -58.750; -709.000; -678.000
376.886; -150.425;-1178.000;-1026.000
377.017;  132.700;-1048.000;-1061.000
377.147;  625.100; -786.000; -782.000
377.278;   75.250;  174.000;  228.000
377.408; -138.275; -801.000; -815.000
377.538; -116.600; -707.000; -693.000
377.669;  -91.450; -537.000; -613.000
377.799; -113.175; -645.000; -635.000
377.929;  -97.225; -610.000; -428.000
378.060; -141.600; -781.000; -847.000
378.190;  -67.850; -726.000; -531.000
378.320;  -53.325; -401.000; -406.000
378.451;  -47.000; -131.000;  -22.000
378.581;  -35.675;  -67.000; -110.000
378.711;   91.425; 1035.000;  866.000
378.841;  -78.225; -533.000; -675.000
378.972; -140.625; -871.000; -751.000
379.102;  -63.225; -652.000; -579.000
379.232;  -57.500; -126.000;  -73.000
379.362; -129.350;-1001.000; -885.000
379.492;  -71.750; -373.000; -424.000
379.623;   26.875;    0.000;  111.000
379.753; -128.550;-1107.000; -974.000
379.883;   75.200;   59.000;  156.000
380.013; -100.625;-1081.000;-1017.000
380.143; -123.075;-1097.000;-1056.000
380.273; -120.200; -985.000; -861.000
380.403;  -11.200; -344.000; -257.000
380.533;  -62.725; -651.000; -664.000
380.663;    0.400;  173.000;  128.000
380.793; -167.600;-1027.000;-1074.000
380.923;  -59.250; -103.000;  -34.000
381.053; -108.800; -613.000; -623.000
381.183;  -57.550; -106.000; -248.000
381.313;  -79.125; -656.000; -470.000
381.443;  -65.725; -692.000; -473.000
381.573;  -50.575; -402.000; -409.000
381.703; -103.225;-1249.000;-1095.000
381.833; -200.125;-1454.000;-1336.000
381.963;    2.200; -134.000;  -87.000
382.093;  372.300; -925.000; -909.000
382.223;   70.325; -713.000; -602.000
382.353; -102.950; -801.000; -608.000
382.482;   -2.775;-1091.000; -964.000
382.612;  151.175; -872.000; -644.000
382.742;   63.850; -695.000; -622.000
382.872;  -26.925; -565.000; -551.000
383.002;   17.525;  347.000; -132.000
383.131;  -34.025; -226.000; -160.000
383.261;  -51.225; -706.000; -768.000
383.391;  316.675; -552.000; -377.000
383.521; 5097.850;  451.000;  263.000
383.650; 1483.525; -947.000; -904.000
383.780;   24.825; -783.000; -656.000
383.910;   97.875;  880.000;  802.000
384.039;  -85.450; -794.000; -656.000
384.169; -107.050;-1205.000;-1017.000
384.299;  -99.775; -650.000; -662.000
384.428; -119.000; -764.000; -680.000
384.558;  -72.400; -308.000; -275.000
384.687;  -82.825; -414.000; -334.000
384.817;  -22.725;   75.000;   -2.000
384.947;  -45.250; -234.000; -141.000
385.076;  136.200;  982.000;  912.000
385.206;   31.925;  369.000;  480.000
385.335;  -76.525; -549.000; -417.000
385.465; -110.525; -655.000; -663.000
385.594;    1.550;  -53.000;  -44.000
385.724;    8.225; -868.000; -838.000
385.853;  -21.350; -296.000; -270.000
385.982;  321.650; -743.000; -787.000
386.112;  599.550;-1052.000; -871.000
386.241;   -7.975; -307.000; -312.000
386.371;  -25.575; -174.000;  -87.000
386.500;  -60.975; -825.000; -789.000
386.629;  -17.500; -874.000; -817.000
386.759;   71.650;  -43.000;   68.000
386.888;  -31.475; -170.000; -250.000
387.017; -107.150; -648.000; -620.000
387.147; -115.300; -771.000; -798.000
387.276;  -75.475; -410.000; -397.000
387.405;  -54.650; -398.000; -342.000
387.535;  -85.275; -452.000; -361.000
387.664;  -70.725; -692.000; -620.000
387.793;  -29.675; -198.000; -113.000
387.922;  124.325;  255.000;  200.000
388.052;  -74.875; -576.000; -423.000
388.181;  -59.775; -342.000; -472.000
388.310; -104.850; -889.000; -710.000
388.439; -142.425; -749.000; -742.000
388.568;   32.575;  365.000;  244.000
388.697;  212.375; -756.000; -653.000
388.826;  -21.875; -768.000; -666.000
388.956;  -57.975; -285.000; -307.000
389.085;  -72.400; -347.000; -287.000
389.214; -124.325; -842.000; -872.000
389.343;  -75.950; -645.000; -413.000
389.472;  544.775;  126.000;  149.000
389.601;  617.250;   91.000;    0.000
389.730;  -36.050; -568.000; -687.000
389.859;    3.575;  226.000;   46.000
389.988;   11.050; -423.000; -408.000
390.117;    8.175; -168.000; -146.000
390.246;  -59.200; -331.000; -320.000
390.375;  -70.450; -673.000; -626.000
390.504; -108.000; -703.000; -621.000
390.633; -122.050; -672.000; -726.000
390.761; -113.000; -732.000; -645.000
390.890;  -36.725;   -4.000; -130.000
391.019;  -91.650; -421.000; -441.000
391.148; -147.500; -826.000; -855.000
391.277; -109.900; -576.000; -493.000
391.406; -119.225; -821.000; -805.000
391.534;  -21.075;  574.000; -301.000
391.663;  -98.875; -583.000; -645.000
391.792; -113.200; -673.000; -701.000
391.921;    0.950;   -3.000;   15.000
392.050;  -22.350; -287.000; -228.000
392.178; -152.450;-1206.000;-1061.000
392.307;  -66.775; -758.000; -712.000
392.436;  -64.750; -427.000; -641.000
392.564;  -11.100;  166.000;   -6.000
392.693; -117.925; -860.000; -682.000
392.822;  -28.700; -529.000; -534.000
392.950;  -58.600; -880.000; -714.000
393.079;   34.125; -188.000; -328.000
393.208;  -71.375; -488.000; -511.000
393.336;  -35.725; -170.000; -145.000
393.465;  -69.225; -317.000; -199.000
393.593;  -16.750;   62.000;   79.000
393.722; -157.850;-1121.000; -916.000
393.850;  -25.400; -188.000;  -61.000
393.979; -144.425; -926.000; -805.000
394.107;  -67.275; -517.000; -537.000
394.236;  -68.350; -570.000; -507.000
394.364;   86.375;  383.000;  206.000
394.493;   46.150; -911.000; -767.000
394.621;   -3.075; -955.000; -916.000
394.750; 1111.750; -873.000; -923.000
394.878; 4384.475; -247.000; -149.000
395.007; 6362.175; -721.000; -807.000
395.135;  557.425; -790.000; -721.000
395.263;  -59.325;-1038.000;-1040.000
395.392;   -7.050;  -25.000; -107.000
395.520; -142.075; -818.000; -679.000
395.648; -132.850; -865.000; -915.000
395.777;  -75.975; -366.000; -405.000
395.905;  -83.800; -449.000; -564.000
396.033;  -20.000;  217.000;  172.000
396.162;   90.425; -399.000; -453.000
396.290;   83.225;  -17.000;   -2.000
396.418;  -58.325; -555.000; -514.000
396.546; -123.300; -571.000; -466.000
396.674; -128.625; -850.000; -878.000
396.803;  -40.500;  -72.000;  -23.000
396.931;  -35.675; -179.000; -199.000
397.059; -145.675;-1026.000; -989.000
397.187; -137.400;-1026.000; -975.000
397.315; -157.300; -884.000; -649.000
397.443; -106.825; -592.000; -443.000
397.572; -114.050; -578.000; -424.000
397.700;  -89.525; -607.000; -614.000
397.828;  -48.675;  120.000;  -90.000
397.956;  -44.475; -508.000; -478.000
398.084;  -47.325; -767.000; -626.000
398.212;    4.825;  137.000;  124.000
398.340;  -27.075;  -56.000;  159.000
398.468;  -55.875; -390.000; -169.000
398.596; -161.250; -993.000; -953.000
398.724; -121.425; -762.000; -767.000
398.852; -154.425;-1024.000; -976.000
398.980;  -89.550; -560.000; -560.000
399.108; -104.650; -982.000; -735.000
399.236;  -25.925;   13.000;    8.000
399.363;  -12.200;  222.000;  196.000
399.491;  -81.950; -404.000; -398.000
399.619; -128.550; -829.000; -800.000
399.747; -114.875; -859.000; -771.000
399.875;   23.625;  220.000;  234.000
400.003;  -74.100; -359.000; -284.000
400.130; -106.300; -421.000; -341.000
400.258;  -46.850;  -83.000;   38.000
400.386;  -75.725; -352.000; -168.000
400.514;  -98.075; -526.000; -587.000
400.641; -148.225; -928.000; -802.000
400.769; -160.025; -979.000; -888.000
400.897; -141.675; -838.000; -793.000
401.025;  -53.200; -166.000; -152.000
401.152;  -18.525;  220.000;   38.000
401.280; -106.650; -430.000; -429.000
401.408; -122.350; -712.000; -576.000
401.535; -118.700; -735.000; -758.000
401.663; -189.925;-1134.000;-1054.000
401.790; -104.950; -514.000; -525.000
401.918;   19.500;  436.000;  405.000
402.046;  -14.150;  134.000;  122.000
402.173;  -56.475;  -18.000;    7.000
402.301;  -87.850; -519.000; -397.000
402.428;   30.750;  528.000;  383.000
402.556; -167.025;-1188.000; -913.000
402.683;  -40.400;  -20.000;   -1.000
402.811;  -44.300;  -37.000; -206.000
402.938;  -13.450;   20.000;   27.000
403.066;  -17.725; -574.000; -558.000
403.193;   79.100;  299.000;  239.000
403.321;   45.975; -396.000; -574.000
403.448;   94.850;   83.000;   27.000
403.575;   17.250;  -90.000;  -46.000
403.703; -120.725; -732.000; -557.000
403.830;  -61.025; -531.000; -496.000
403.957; -138.375;-1117.000;-1023.000
404.085;   14.375;  -61.000; -172.000
404.212;   96.225;  -50.000;   63.000
404.339;  411.725; -566.000; -306.000
404.467; 8829.150; -612.000; -524.000
404.594; 5352.550; -287.000; -227.000
404.721;  873.675; -869.000; -764.000
404.848;   88.925; -113.000; -202.000
404.976; -107.650; -856.000; -783.000
405.103;  -14.150;  -14.000;  -82.000
405.230;  -13.125;  190.000;  226.000
405.357;   37.250;  117.000;   44.000
405.484;  412.275;  -49.000;    5.000
405.612;   85.250; -548.000; -563.000
405.739;  -60.700; -488.000; -243.000
405.866;   70.875;  669.000;  385.000
405.993;  -58.475; -398.000; -102.000
406.120; -141.225; -801.000; -887.000
406.247;  -96.150; -323.000; -342.000
406.374;   87.750;  540.000;  629.000
406.501;  -95.175; -632.000; -702.000
406.628; -111.525; -621.000; -589.000
406.755; -131.350; -803.000; -620.000
406.882;  -66.300; -228.000; -277.000
407.009; -113.725; -719.000; -628.000
407.136;  -60.400; -480.000; -401.000
407.263;  -78.600; -939.000; -829.000
407.390;  -99.925; -692.000; -614.000
407.517; -188.125;-1139.000;-1187.000
407.644;  -84.375; -332.000; -256.000
407.771;  -89.475; -249.000; -287.000
407.898;  -10.575;  168.000;  328.000
408.025;  -91.675; -421.000; -313.000
408.151;  -30.450;   82.000;  153.000
408.278;  -83.750; -267.000; -216.000
408.405; -146.875; -931.000; -899.000
408.532;  -90.525; -549.000; -542.000
408.659; -123.200; -677.000; -648.000
408.785; -190.650;-1298.000;-1170.000
408.912;  -75.025; -412.000; -296.000
409.039; -120.400; -610.000; -686.000
409.166; -112.225; -591.000; -555.000
409.292; -125.475; -571.000; -534.000
409.419; -116.375; -665.000; -649.000
409.546;  -97.475; -431.000; -192.000
409.672; -118.075; -713.000; -545.000
409.799;  -51.275;  -36.000;   34.000
409.926;  -54.900; -180.000; -179.000
410.052; -197.975;-1127.000;-1091.000
410.179;  -80.450; -368.000; -392.000
410.305;  -97.850; -375.000; -493.000
410.432;  -55.625; -220.000; -333.000
410.558; -105.775; -305.000; -380.000
410.685; -117.200; -688.000; -431.000
410.812; -116.925; -409.000; -588.000
410.938; -154.025; -964.000; -808.000
411.065; -123.250; -671.000; -645.000
411.191;  -52.350; -189.000; -174.000
411.317; -131.800; -823.000; -742.000
411.444;  -79.900; -317.000; -246.000
411.570;  -66.850; -339.000; -294.000
411.697; -126.500; -758.000; -752.000
411.823; -176.525; -989.000; -999.000
411.949;  -53.475;  -56.000;   17.000
412.076; -138.325; -539.000; -519.000
412.202; -134.075; -758.000; -757.000
412.329; -147.725; -798.000; -752.000
412.455; -125.800; -821.000; -657.000
412.581;  -20.525;  -15.000;  172.000
412.707; -100.125; -540.000; -457.000
412.834;   -8.225;  156.000;  219.000
412.960; -100.275; -785.000; -784.000
413.086; -123.875; -743.000; -701.000
413.212;   76.300;  604.000;  578.000
413.339; -109.550; -685.000; -701.000
413.465;  -57.450; -364.000; -310.000
413.591; -116.725; -757.000; -474.000
413.717;  -75.350; -358.000; -366.000
413.843; -140.525; -839.000; -861.000
413.969;  -65.775;  -47.000; -292.000
414.096; -101.950; -679.000; -679.000
414.222;  -16.500;  -33.000;   85.000
414.348;  -95.775; -652.000; -385.000
414.474;   -7.550;   38.000;  -52.000
414.600;  -29.650; -126.000; -144.000
414.726;  -10.025;  -96.000;  -55.000
414.852;  -52.550; -365.000; -342.000
414.978;   35.850;  104.000;  -18.000
415.104;   44.575;   38.000;   80.000
415.230;   35.625; -329.000; -330.000
415.356;   45.125; -409.000; -514.000
415.482;  227.450;   13.000;  -35.000
415.608;  391.100; -247.000; -323.000
415.734; 1282.100;   67.000;   38.000
415.860;27036.425; -875.000; -767.000
415.986;21827.675; -685.000; -607.000
416.111; 2015.250; -798.000; -652.000
416.237;  433.375; -424.000; -571.000
416.363; 1651.650; -765.000; -733.000
416.489; 6648.350; -324.000; -251.000
416.615;  873.750; -707.000; -742.000
416.741;   37.150; -677.000; -784.000
416.866;  -76.875; -673.000; -736.000
416.992; -103.375; -801.000; -818.000
417.118;  -37.825;  -41.000;  -80.000
417.244;  -84.250; -798.000; -531.000
417.369;  -98.325; -801.000; -612.000
417.495;  -19.750; -325.000; -254.000
417.621;  -94.275;-1015.000; -803.000
417.746;   -1.900; -579.000; -572.000
417.872;   46.375; -254.000; -144.000
417.998;  104.075; -515.000; -530.000
418.123; 1534.400;-1073.000; -845.000
418.249; 8336.825; -512.000; -601.000
418.374; 1389.800; -916.000; -824.000
418.500;  206.825; -383.000; -482.000
418.626;  161.600;   70.000;  -59.000
418.751;  143.875; -549.000; -448.000
418.877;  284.725; -637.000; -643.000
419.002; 2563.100; -688.000; -560.000
419.128;19254.050; -930.000; -721.000
419.253; 5326.350; -967.000; -837.000
419.379;  744.900; -391.000; -338.000
419.504;  570.550;  325.000;  415.000
419.629;  801.000; -393.000; -212.000
419.755; 5297.275; -317.000; -254.000
419.880;34386.800;  -98.000;   67.000
420.006;17211.825; -280.000; -221.000
420.131;42716.275; -662.000; -775.000
420.256; 6764.775; -315.000; -316.000
420.382;  914.600; -665.000; -687.000
420.507;  148.025; -649.000; -778.000
420.632;   26.700; -337.000; -339.000
420.758;   25.450; -251.000; -425.000
420.883; -115.825; -876.000; -672.000
421.008; -110.900; -775.000; -619.000
421.133; -111.950; -509.000; -467.000
421.259;  -58.325; -325.000; -259.000
421.384; -141.400; -834.000; -693.000
421.509; -124.775;-1052.000; -862.000
421.634;  125.025; -936.000; -820.000
421.759;   54.250; -359.000; -327.000
421.885; -109.800; -717.000; -656.000
422.010; -108.225; -673.000; -542.000
422.135; -160.625; -695.000; -727.000
422.260;   16.300;  340.000;  280.000
422.385;  -56.975;   12.000;  -98.000
422.510;  -21.725;  151.000;  -26.000
422.635;  -22.475;  -87.000;  -43.000
422.760;  -24.875; -766.000; -791.000
422.885;    0.025;  -57.000;  -80.000
423.010;  -42.325; -112.000; -169.000
423.135;  -98.600; -481.000; -561.000
423.260;  -48.650; -150.000; -245.000
423.385;    9.400;  476.000;  222.000
423.510;  -18.700;   71.000;  -22.000
423.635;   -2.175;  133.000;   45.000
423.760;   36.550;  383.000;  328.000
423.885;   21.525;  336.000;  391.000
424.010;  -13.900;  -68.000;  -13.000
424.135;  -26.675;    5.000;  -33.000
424.259;  -73.525; -654.000; -457.000
424.384;  -57.675; -279.000; -272.000
424.509;  -30.800; -260.000; -186.000
424.634;  -85.800; -761.000; -623.000
424.759;  -45.150; -688.000; -544.000
424.883;   -6.200; -506.000; -527.000
425.008;  196.650; -502.000; -410.000
425.133; 2812.975; -679.000; -653.000
425.258; 1496.450; -517.000; -381.000
425.382;  472.150; -867.000; -774.000
425.507; 1067.700; -487.000; -543.000
425.632;  364.225; -802.000; -663.000
425.756;  679.650; -256.000; -146.000
425.881;10167.950; -831.000; -857.000
426.006;30781.375; -604.000; -355.000
426.130; 4972.900; -696.000; -508.000
426.255;  668.950; -611.000; -491.000
426.379;  253.250; -189.000; -577.000
426.504;  473.200;  660.000;  544.000
426.629; 5515.550; -519.000; -466.000
426.753; 4255.325;   64.000;  -46.000
426.878;  504.550; -252.000; -288.000
427.002;  289.300; -651.000; -668.000
427.127; 2051.300;  -35.000; -158.000
427.251;17024.275;  372.000;  401.000
427.375; 5478.050; -191.000; -173.000
427.500; 1224.925; -616.000; -610.000
427.624;  388.375; -234.000; -400.000
427.749;   69.950; -216.000; -225.000
427.873;  -32.100; -499.000; -412.000
427.997;  -36.650; -222.000; -230.000
428.122;   64.575;  795.000;  703.000
428.246;   42.525;  433.000;  434.000
428.371; -148.400; -869.000; -773.000
428.495; -129.350; -624.000; -646.000
428.619;  -45.325; -186.000; -117.000
428.743;   -4.000;   65.000;  132.000
428.868;  -89.675; -732.000; -643.000
428.992;  436.850; -219.000; -326.000
429.116;  168.050; -329.000; -357.000
429.240;   92.300;  419.000;  426.000
429.365;  -45.675; -454.000; -574.000
429.489;  -65.825; -638.000; -647.000
429.613;   20.675; -236.000; -177.000
429.737;   80.450; -563.000; -432.000
429.861;  377.100; -247.000; -133.000
429.985; 7859.375; -425.000; -305.000
430.109; 9775.925; -770.000; -908.000
430.234; 1172.475;   76.000;  -50.000
430.358;  113.625; -250.000; -160.000
430.482;  -50.200; -672.000; -564.000
430.606;  -85.250; -655.000; -375.000
430.730;  -69.275; -437.000; -388.000
430.854;  -93.350; -909.000; -835.000
430.978; -106.025; -795.000; -764.000
431.102; -106.625; -499.000; -422.000
431.226; -128.925; -874.000; -815.000
431.350;   24.175;  345.000;  422.000
431.474;  -89.700; -661.000; -373.000
431.597; -165.650;-1060.000; -848.000
431.721;  -76.925; -276.000; -267.000
431.845; -126.225; -704.000; -472.000
431.969;  -83.775; -304.000; -349.000
432.093;  -95.550; -395.000; -317.000
432.217;  -22.525;   32.000;   82.000
432.341;  -88.100; -523.000; -518.000
432.464;  -19.975;   96.000;   40.000
432.588;  -32.600; -401.000; -329.000
432.712;    7.700;  -52.000;  -52.000
432.836;   46.450;  213.000;  263.000
432.959;   19.725; -372.000; -311.000
433.083;  136.675;   11.000;    2.000
433.207;  534.925;  285.000;  930.000
433.330; 7600.600; -391.000; -200.000
433.454;10270.400; -654.000; -638.000
433.578; 5727.525;  583.000;  278.000
433.701; 1184.525; -623.000; -675.000
433.825;  137.575; -292.000; -299.000
433.949;   39.925;   28.000;  -72.000
434.072;  -27.175; -410.000; -323.000
434.196;  -17.425; -309.000; -117.000
434.319; 3539.950;25482.000;25124.000
434.443;  875.100; -656.000; -603.000
434.566; 4047.000;  281.000;   62.000
434.690;  856.175; -637.000; -383.000
434.813;  130.200; -251.000; -173.000
434.937;  -56.500; -569.000; -696.000
435.060;  -76.850; -423.000; -332.000
435.184;  -33.775; -492.000; -217.000
435.307;    2.200;  159.000;  102.000
435.431;  -39.350;  -40.000;   24.000
435.554;  -81.550; -399.000; -240.000
435.677;  -99.425; -350.000; -258.000
435.801;  -45.250;  -25.000;   49.000
435.924;  -45.625;    1.000;  -67.000
436.048; -148.550;-1019.000; -732.000
436.171;  -84.225; -240.000;  -66.000
436.294;  -28.225; -248.000; -229.000
436.417;  216.575; -963.000; -849.000
436.541;  -42.000; -814.000; -840.000
436.664;  -60.600; -242.000; -316.000
436.787;  -36.925;   13.000;  113.000
436.910; -128.900; -792.000; -422.000
437.034;  -25.050;  142.000;  143.000
437.157;  -11.775;  -11.000;    0.000
437.280;  -95.650; -392.000; -292.000
437.403; -161.275; -982.000; -869.000
437.526;  -29.125; -903.000; -865.000
437.649;  377.850; -505.000; -332.000
437.772;  -22.250; -692.000; -540.000
437.896;   48.425;  700.000;  544.000
438.019; -113.975; -758.000; -503.000
438.142; -121.350; -596.000; -506.000
438.265; -135.000; -639.000; -670.000
438.388;   -4.875; -520.000; -410.000
438.511;  -76.325; -597.000; -394.000
438.634;  -82.325; -247.000; -125.000
438.757; -155.600; -693.000; -619.000
438.880;  -59.775;  -34.000;  -57.000
439.003;  -95.875; -417.000; -437.000
439.126;  -69.625; -287.000; -167.000
439.248;  -75.450;  -98.000; -139.000
439.371;  -51.625;    9.000;  -53.000
439.494;   32.825;  510.000;  439.000
439.617;  -62.050;   65.000;  -88.000
439.740; -172.175; -968.000; -816.000
439.863; -146.600; -755.000; -595.000
439.986; -122.775; -476.000; -431.000
440.108;  -53.225; -161.000; -112.000
440.231; -169.925; -950.000; -836.000
440.354;  -79.900;  -64.000; -150.000
440.477; -111.350; -566.000; -542.000
440.599; -101.050; -200.000; -225.000
440.722; -139.100; -709.000; -586.000
440.845;   46.150;  751.000;  928.000
440.968; -110.900; -415.000; -311.000
441.090;  -76.300; -199.000;  -33.000
441.213; -179.650;-1021.000; -825.000
441.336;  -63.625; -159.000;   -5.000
441.458;  -96.550; -549.000; -396.000
441.581; -117.550; -628.000; -629.000
441.703;  -87.525; -152.000;   13.000
441.826; -135.375; -557.000; -400.000
441.948;  -55.700;   56.000;   51.000
442.071;   -3.400;  555.000;  424.000
442.193; -130.625; -531.000; -485.000
442.316;   -9.250;  152.000;   97.000
442.438;   70.125; -233.000;  -10.000
442.561;   43.725;  272.000;  262.000
442.683;   11.750; -809.000; -522.000
442.806;  218.100;   -8.000;   74.000
442.928; -115.250; -859.000; -604.000
443.051; -106.775; -577.000; -373.000
443.173; -109.350; -341.000; -339.000
443.295; -103.125; -263.000; -371.000
443.418; -104.425; -321.000;  -29.000
443.540;  -43.850; -106.000;   -4.000
443.662; -134.475; -563.000; -465.000
443.785;  -24.200;  335.000;  199.000
443.907; -114.825; -362.000; -208.000
444.029; -134.525; -767.000; -494.000
444.152; -151.825; -644.000; -554.000
444.274;  -68.800;  -18.000;  -24.000
444.396; -122.575; -461.000; -221.000
444.518; -139.575; -691.000; -454.000
444.640; -110.625; -268.000; -111.000
444.763;  -21.925;  388.000;  249.000
444.885; -124.625; -432.000; -392.000
445.007;  -32.400;   35.000;   86.000
445.129; -129.100; -610.000; -515.000
445.251; -114.800; -372.000; -439.000
445.373; -138.725; -537.000; -386.000
445.495;  -20.375;  242.000;  350.000
445.617;   41.350;  853.000;  753.000
445.739;  -87.125; -215.000;  -97.000
445.861;  -68.775; -245.000; -112.000
445.984;  -58.825; -267.000; -101.000
446.105;  -38.175; -418.000; -251.000
446.227;   67.950; -176.000;  -19.000
446.349;  -97.325; -358.000; -249.000
446.471; -123.725; -615.000; -448.000
446.593;  -88.550; -316.000;   19.000
446.715;  -65.750;  -67.000;   41.000
446.837;   35.600;  697.000;  832.000
446.959; -117.625; -457.000; -478.000
447.081; -148.175; -628.000; -518.000
447.203;   28.350;  862.000;  834.000
447.325;  -92.050; -270.000;   42.000
447.446;   -6.700;  286.000;  530.000
447.568; -169.325; -921.000; -803.000
447.690;  -93.425; -236.000; -245.000
447.812; -144.700; -798.000; -519.000
447.933;  -33.075;  155.000;  127.000
448.055;  -79.350; -306.000; -261.000
448.177;   -4.875;   31.000;   79.000
448.299; -120.825; -935.000; -727.000
448.420;  -30.750;  -25.000;  159.000
448.542;  -83.275;   -3.000;   33.000
448.664;  -14.375;  109.000;  322.000
448.785;  -46.925;  265.000;   83.000
448.907; -112.025; -614.000; -353.000
449.028; -114.375; -771.000; -471.000
449.150;   31.650;  492.000;  589.000
449.272; -182.675;-1044.000; -913.000
449.393;    4.475;  612.000;  694.000
449.515; -155.750; -634.000; -581.000
449.636;  -67.925; -264.000; -155.000
449.758;   35.000;  763.000;  622.000
449.879;  -86.600; -498.000; -396.000
450.001;  -78.350; -149.000;  -49.000
450.122;  -49.225;  -95.000;  162.000
450.244;  -35.650;   37.000;  364.000
450.365;  -78.975; -495.000; -301.000
450.486;  -18.225;   80.000;  268.000
450.608;   49.750;  393.000;  326.000
450.729;  100.400;  578.000;  645.000
450.850;   94.575; -574.000; -466.000
450.972; 1225.175; -552.000; -389.000
451.093; 7882.500;  190.000;  588.000
451.214; 3993.125; -516.000; -337.000
451.336;  681.600;  773.000;  579.000
451.457;   99.400;  264.000;  393.000
451.578;  -18.950; -118.000;  -74.000
451.699; -105.875; -546.000; -540.000
451.821;  -61.775; -284.000;  -50.000
451.942;    2.475;  278.000;  285.000
452.063;   53.100;  228.000;  419.000
452.184;  799.725;  -54.000;  -49.000
452.305; 1684.900;  103.000;  170.000
452.427;  313.650; -549.000; -301.000
452.548;    3.700;   23.000;   79.000
452.669;  -79.000; -257.000;  -89.000
452.790;  -57.175;    3.000;  -18.000
452.911;  -33.775;  195.000;  259.000
453.032;  -83.875; -289.000;  -60.000
453.153;  -76.075;  -29.000;   81.000
453.274;   54.300;  737.000;  868.000
453.395;  -66.800;  -51.000;  175.000
453.516;   87.450; 1317.000; 1388.000
453.637;  -99.650; -205.000; -150.000
453.758;  -66.800;   15.000;   69.000
453.879; -120.725; -462.000; -250.000
454.000;   56.175; 1086.000;  948.000
454.121; -128.075; -554.000; -326.000
454.242; -119.975; -599.000; -383.000
454.362;  -74.300;  -99.000;  114.000
454.483;  -14.075; -309.000; -229.000
454.604;   60.000;  512.000;  580.000
454.725; -129.075; -627.000; -555.000
454.846; -147.325; -474.000; -406.000
454.967;  -35.825;  230.000;  539.000
455.087;  -46.725;  179.000;  153.000
455.208;    7.675;  554.000;  856.000
455.329;  -63.975;  -22.000;   82.000
455.450;   57.575;  473.000;  633.000
455.570;  -73.100; -234.000; -211.000
455.691;  -50.525;  201.000;  407.000
455.812; -110.525; -270.000;  -92.000
455.932;  -71.025;  107.000;  -97.000
456.053;  -96.950;   36.000;   24.000
456.173; -111.475; -433.000; -355.000
456.294; -118.525; -476.000; -303.000
456.415;  -78.500;  -73.000;   70.000
456.535;  -44.600;  297.000;  273.000
456.656;  -47.125;  132.000;  240.000
456.776;  -75.750;    3.000;  298.000
456.897;   -4.750;  308.000;  513.000
457.017;  -73.950; -153.000;   -3.000
457.138; -119.550; -402.000; -249.000
457.258;  -49.150;  263.000;  224.000
457.379;  -20.275;  509.000;  521.000
457.499;  -35.125;  443.000;  432.000
457.620; -123.225; -407.000; -231.000
457.740; -102.475; -132.000;  -11.000
457.860;  -61.550;   87.000;   44.000
457.981;  -47.125;  132.000;  124.000
458.101;  -84.250;  -89.000;   40.000
458.221;  -22.300;  336.000;  402.000
458.342;  -60.000;   -4.000;  -37.000
458.462;   45.125;  617.000;  352.000
458.582;   10.775; -302.000; -294.000
458.703;   62.200;  303.000;  154.000
458.823;    3.300;   22.000;  163.000
458.943;   52.975;  341.000;  467.000
459.063;    0.400; 1124.000;  192.000
459.183;  -15.200;  328.000;  313.000
459.304;   -5.700;  315.000;  517.000
459.424;  -39.625; -246.000;  -89.000
459.544;  456.400;  388.000;  764.000
459.664; 1270.450;  499.000;  506.000
459.784;  491.350; 1004.000; 1175.000
459.904;   88.275;  867.000;  744.000
460.024;   50.125;  867.000;  684.000
460.144;  -22.400;  449.000;  554.000
460.264;  -15.175;  515.000;  327.000
460.385; -100.775; -145.000; -119.000
460.505;   12.875;  905.000;  858.000
460.625;  -93.875;  -17.000;  -68.000
460.745;  -28.225;  396.000;  541.000
460.864;  -55.525;  153.000;  469.000
460.984;   27.275;  499.000;  573.000
461.104;  123.450; 1656.000; 1775.000
461.224;   10.225;  657.000;  650.000
461.344;  -28.025;  431.000;  360.000
461.464;  -47.375;  258.000;  513.000
461.584;  -41.675;  283.000;  466.000
461.704;  -73.450;   58.000;  108.000
461.824;  -68.175;  238.000;  259.000
461.943;  -62.525;  191.000;  130.000
462.063;  -76.350;    2.000;  324.000
462.183;   11.350;  639.000;  717.000
462.303;   68.925; 1678.000; 1230.000
462.422;   25.575;  781.000;  840.000
462.542;  -45.850;  271.000;  391.000
462.662;   48.575;  353.000;  380.000
462.782;  320.925;  833.000;  572.000
462.901;  724.750;  545.000;  717.000
463.021;  399.725; 1702.000; 1638.000
463.141;   -2.425;  337.000;  770.000
463.260;  -14.675;  614.000;  474.000
463.380;    6.750;  902.000;  884.000
463.499;  -59.825;  342.000;  332.000
463.619;  -37.650;  581.000;  559.000
463.738;  102.000; 1644.000;  903.000
463.858;   16.800;  657.000;  811.000
463.978;  -40.325;  542.000;  396.000
464.097;   40.525;  921.000; 1114.000
464.217;  141.575; 1196.000; 1143.000
464.336;  132.975; 1068.000; 1130.000
464.455;  -15.275;  328.000;  659.000
464.575;   -7.300;  597.000;  602.000
464.694;  108.625; 1204.000; 1179.000
464.814;  152.575; 1190.000; 1138.000
464.933;   73.875; 1095.000; 1027.000
465.052;   74.225; 1412.000; 1054.000
465.172;   68.175;  922.000;  799.000
465.291;  118.700; 1376.000; 1320.000
465.410;    3.875;  462.000;  735.000
465.530;   70.750; 1355.000; 1310.000
465.649;   46.175; 1209.000; 1273.000
465.768;  122.100; 1673.000; 1508.000
465.888;   52.250;  941.000; 1174.000
466.007;   71.575; 1335.000; 1440.000
466.126;   -4.925;  721.000;  641.000
466.245;   47.875; 1176.000; 1187.000
466.364;   22.625;  950.000; 1060.000
466.484;   41.475; 1024.000; 1213.000
466.603;   17.050; 1101.000; 1222.000
466.722;  101.525; 1490.000; 1769.000
466.841;   56.750; 1151.000; 1401.000
466.960;   22.050; 1069.000;  972.000
467.079;  127.025; 1971.000; 1786.000
467.198;   43.425; 1238.000; 1181.000
467.317;   63.175; 1768.000; 1162.000
467.436;   65.600; 1709.000; 1261.000
467.555;  113.100; 1796.000; 1746.000
467.674;   56.700; 1227.000; 1329.000
467.793;   41.175; 1376.000; 1374.000
467.912;   75.575; 1658.000; 1539.000
468.031;  133.525; 2038.000; 1930.000
468.150;  110.425; 1842.000; 1837.000
468.269;  183.750; 2313.000; 2090.000
468.388;  181.525; 2168.000; 2339.000
468.507;  237.675; 2884.000; 2903.000
468.626;  276.350; 2555.000; 2541.000
468.744;  144.500; 2018.000; 2174.000
468.863;  193.725; 2312.000; 2523.000
468.982;   91.625; 1503.000; 1555.000
469.101;  205.250; 2788.000; 2692.000
469.220;  141.800; 2333.000; 2176.000
469.338;  243.700; 2935.000; 3051.000
469.457;  186.200; 2719.000; 2545.000
469.576;  344.700; 3953.000; 3784.000
469.695;  231.875; 2877.000; 3066.000
469.813;  415.825; 4148.000; 4192.000
469.932;  394.150; 4255.000; 4485.000
470.051;  445.375; 4075.000; 4161.000
470.169; 1035.850; 4470.000; 4338.000
470.288; 1972.075; 4700.000; 4809.000
470.406; 1151.550; 5059.000; 5194.000
470.525;  670.475; 6101.000; 5787.000
470.644;  641.500; 6847.000; 6794.000
470.762;  807.450; 8397.000; 7873.000
470.881;  914.750; 8651.000; 8464.000
470.999; 1068.800; 9685.000; 9151.000
471.118; 1113.175;11174.000;10711.000

