
Integration time [ms]: 100.000
Averaging Nr. [scans]: 40
Smoothing Nr. [pixels]: 0
Data measured with spectrometer [name]: 2101012U2
Wave   ;Sample   ;Dark     ;Reference
[nm]   ;[counts] ;[counts] ;[counts] 

197.733;   66.300;  516.000;  404.000
197.879;  -91.500; -610.000; -634.000
198.025;  -42.500; -475.000; -420.000
198.171;  -77.275; -602.000; -612.000
198.317;  -23.700; -401.000; -316.000
198.463;  -59.525; -655.000; -404.000
198.609;   39.175;  181.000; -137.000
198.755;  -87.725; -644.000; -410.000
198.901;  -70.225; -505.000; -424.000
199.047;  -70.125; -615.000; -488.000
199.193;  -31.825; -230.000; -468.000
199.339;  -47.400; -222.000; -369.000
199.485;   43.100;  330.000;  271.000
199.631;   16.600;  227.000;  310.000
199.777;  -37.825; -466.000; -398.000
199.923;  -68.950; -610.000; -424.000
200.069;   -1.675; -141.000;  -58.000
200.215;   66.375;  128.000;  453.000
200.361;   57.725;  243.000;  477.000
200.507;  -68.875; -600.000; -373.000
200.653;  -31.225; -371.000; -194.000
200.798;  -52.750; -215.000; -125.000
200.944;   -8.125; -146.000;  -41.000
201.090;   48.625;   61.000;  222.000
201.236;    6.550; -116.000; -158.000
201.382;  124.150;  874.000;  903.000
201.528;    1.200;  -58.000;  -48.000
201.674;  -51.550; -386.000; -293.000
201.819;  -66.400; -540.000; -439.000
201.965; -107.800; -699.000; -447.000
202.111;  -19.150; -273.000; -226.000
202.257;  -38.025; -250.000; -238.000
202.402;    6.500;   13.000;  -36.000
202.548;  -40.100; -169.000; -116.000
202.694;   93.625;  410.000; -183.000
202.840;  -84.450; -603.000; -531.000
202.985;  -68.625; -681.000; -639.000
203.131; -104.775; -832.000; -666.000
203.277;  -13.425; -199.000; -262.000
203.423;  -62.025; -434.000; -520.000
203.568;  -42.025; -462.000; -237.000
203.714;  -61.175; -535.000; -542.000
203.860;  -72.750; -682.000; -641.000
204.005;    8.700;  112.000;  167.000
204.151;   91.250;  561.000;  556.000
204.296;  -54.375; -354.000; -221.000
204.442;  -52.400; -600.000; -547.000
204.588;  -67.700; -592.000; -579.000
204.733;   28.375;  178.000;  168.000
204.879; -135.775;-1018.000; -822.000
205.025;   13.000;  -99.000;  126.000
205.170;    9.825;  -17.000;   94.000
205.316;   94.800;  438.000;  661.000
205.461;  -76.250; -698.000; -554.000
205.607;   79.400;  609.000;  665.000
205.752; -100.075; -626.000; -551.000
205.898;  -50.100; -501.000; -391.000
206.043;  -65.525; -578.000; -506.000
206.189;  -30.975; -243.000; -285.000
206.334;   79.025;  554.000;  606.000
206.480;   92.625;  409.000;  239.000
206.625;  -86.675; -529.000; -552.000
206.771;  -41.150; -451.000; -373.000
206.916;  -36.775; -210.000; -537.000
207.062;  -66.825; -545.000; -591.000
207.207;  -75.050; -546.000; -443.000
207.353;   40.675;  185.000;  460.000
207.498;   12.050;  196.000;   85.000
207.643;  -49.500; -501.000; -370.000
207.789; -123.975;-1069.000; -910.000
207.934;  -98.550; -665.000; -713.000
208.080;  -29.150; -154.000;   66.000
208.225;    3.300;  -22.000;  -57.000
208.370;  -86.225; -727.000; -619.000
208.516;  -67.525; -741.000; -487.000
208.661;  -26.625; -127.000;  -69.000
208.806;  -22.975; -165.000; -171.000
208.952; -130.500;-1044.000; -731.000
209.097;   73.750;  378.000;  349.000
209.242;  -56.850; -307.000; -382.000
209.387;   68.700;  392.000;  350.000
209.533;  -62.850; -321.000; -350.000
209.678;   88.250;  472.000;  543.000
209.823;  -43.675; -408.000; -310.000
209.969; -102.725; -860.000; -757.000
210.114; -111.025; -907.000; -719.000
210.259; -120.750; -939.000; -889.000
210.404;   -9.725; -171.000;  103.000
210.549;   17.950;  108.000;    3.000
210.695;  -24.300;   -3.000;  -95.000
210.840;   38.900;   94.000;   67.000
210.985;  -67.275; -484.000; -303.000
211.130;   75.000;  268.000;  406.000
211.275;   24.225;  207.000;  199.000
211.420;  -41.925; -300.000; -289.000
211.566;  -82.450; -536.000; -489.000
211.711;   29.175;  218.000;  157.000
211.856;  -72.750; -545.000; -519.000
212.001;    7.250;  151.000;   44.000
212.146;   24.150;  153.000;   49.000
212.291;  -13.575; -210.000; -186.000
212.436;  -28.200; -280.000;   -6.000
212.581;  -81.700; -685.000; -653.000
212.726;  -74.325; -487.000; -538.000
212.871;  -50.100; -552.000; -217.000
213.016; -168.300;-1172.000;-1029.000
213.161;   62.175;  406.000;  291.000
213.306;  -71.350; -435.000; -577.000
213.451;  -88.025; -778.000; -689.000
213.596;  -46.575; -455.000; -347.000
213.741;  -49.575; -448.000; -538.000
213.886;  -84.925; -498.000; -517.000
214.031;  -21.475; -294.000; -124.000
214.176;  -38.550; -408.000; -341.000
214.321;  -16.000; -296.000; -157.000
214.466;  -30.650; -163.000;  -43.000
214.611;   -9.000;  -61.000;  -10.000
214.756; -124.925; -948.000; -858.000
214.901;   -8.150; -388.000; -226.000
215.046; -129.250; -797.000; -825.000
215.191;   19.250;  128.000;   35.000
215.336;  -24.950; -157.000;  -19.000
215.480;  -75.075; -684.000; -505.000
215.625;  -23.225; -175.000;  -19.000
215.770;  -78.100; -757.000; -662.000
215.915;  -12.275;   -5.000;  -97.000
216.060;    7.550; -113.000;  -21.000
216.205; -111.875; -731.000; -779.000
216.349;  -70.000; -470.000; -533.000
216.494; -150.175; -939.000; -867.000
216.639; -118.825; -823.000; -888.000
216.784;  -77.825; -577.000; -525.000
216.929;   54.575;  392.000;  281.000
217.073;  -15.275; -244.000;  -31.000
217.218;    5.350;   78.000;  -47.000
217.363;  -77.200; -656.000; -618.000
217.507;  -70.925; -623.000; -588.000
217.652; -131.600; -845.000; -874.000
217.797;  -77.550; -708.000; -659.000
217.942; -109.350; -856.000; -720.000
218.086;   81.550;  608.000;  539.000
218.231;  -17.025; -174.000;  -26.000
218.376;  -32.875; -337.000; -229.000
218.520;   -0.825;  -41.000;   96.000
218.665;  -33.925; -338.000; -204.000
218.810;  -47.050; -275.000; -233.000
218.954;   28.800;  201.000;   35.000
219.099; -122.025; -713.000; -963.000
219.243;  -73.825; -589.000; -554.000
219.388;  -42.500; -264.000; -136.000
219.532;   -0.125; -116.000; -116.000
219.677;  -79.850; -564.000; -521.000
219.822;    3.850;   33.000;   89.000
219.966;    8.300;   17.000;  -99.000
220.111;  -31.150; -328.000;  -40.000
220.255; -106.775; -797.000; -750.000
220.400;   -1.075; -180.000; -146.000
220.544;  -74.550; -516.000; -450.000
220.689;  -54.550; -422.000; -451.000
220.833;  -15.525; -123.000;  -58.000
220.978;  -33.100; -393.000; -563.000
221.122;   19.650;  319.000;  307.000
221.267; -113.900; -906.000; -837.000
221.411;  -83.100; -478.000; -394.000
221.555;   -8.825; -104.000;  -23.000
221.700;  -46.250; -329.000; -222.000
221.844;   44.750;  255.000;  272.000
221.989;  -52.950; -328.000; -311.000
222.133;  -34.625; -289.000; -307.000
222.277;  -20.675;    5.000;   78.000
222.422;   25.525;  227.000;  113.000
222.566;  -42.875; -381.000; -214.000
222.711;  -51.650; -414.000; -479.000
222.855;  -74.550; -643.000; -586.000
222.999;  -73.550; -642.000; -717.000
223.144;  -33.900; -195.000; -194.000
223.288;   63.850;  423.000;  251.000
223.432;   24.250;  184.000;  230.000
223.576;   39.725;  152.000;  -21.000
223.721;   42.975;  364.000;  273.000
223.865;  -53.625; -472.000; -475.000
224.009;  246.125; 1673.000; 1631.000
224.153;  -90.350; -660.000; -671.000
224.298;  -69.825; -531.000; -489.000
224.442;   -9.825;  -74.000;  -33.000
224.586;   -5.075; -169.000; -106.000
224.730; -103.475; -858.000; -670.000
224.875; -111.375; -739.000; -688.000
225.019;   34.550;  102.000;  188.000
225.163;   51.200;  208.000;  341.000
225.307;   17.525;   97.000;  -91.000
225.451;   40.150;  360.000;  481.000
225.595;   24.275;  264.000;  176.000
225.739;  -23.925; -170.000;  -94.000
225.884;    6.775;   86.000;    5.000
226.028; -100.850; -760.000; -626.000
226.172;  -37.975; -260.000; -273.000
226.316; -133.225; -941.000; -902.000
226.460;  -63.000; -645.000; -493.000
226.604;  -58.575; -406.000; -400.000
226.748; -109.725; -836.000; -733.000
226.892;  -32.150; -227.000; -181.000
227.036;  -53.375; -537.000; -447.000
227.180;  -68.775; -551.000; -375.000
227.324;  -65.925; -561.000; -580.000
227.468; -112.175; -819.000; -717.000
227.612;   20.050;  242.000;  -28.000
227.756; -111.600; -845.000; -698.000
227.900;   62.050;  342.000;  441.000
228.044;  -62.525; -509.000; -290.000
228.188;   59.525;  448.000;  568.000
228.332; -102.900; -546.000; -472.000
228.476;  -13.800; -223.000; -149.000
228.620;  -39.125; -210.000; -150.000
228.764;   70.475;  431.000;  349.000
228.908;  -11.925; -155.000;   30.000
229.052;  -58.525; -615.000; -528.000
229.195;   -9.450; -172.000;   13.000
229.339;  -18.950; -235.000; -305.000
229.483;  -33.825;    5.000; -162.000
229.627;   -0.600; -156.000;  139.000
229.771;  -45.425; -218.000; -294.000
229.915;   10.950;  230.000;   79.000
230.059;  -87.125; -648.000; -663.000
230.202;  -38.500; -370.000; -317.000
230.346;  -26.925; -107.000;  107.000
230.490;  -57.175; -489.000; -521.000
230.634; -119.675; -736.000; -553.000
230.777;   83.225;  478.000;  509.000
230.921;  -58.900; -450.000; -359.000
231.065;  -46.325; -246.000; -286.000
231.209;   31.500;  261.000;  265.000
231.352;   34.325;   54.000;   40.000
231.496;    2.475;  568.000;  188.000
231.640;  -73.025; -693.000; -621.000
231.783;   65.925;  546.000;  525.000
231.927;  -35.025; -294.000; -365.000
232.071; -118.300; -962.000; -736.000
232.214;  -99.350; -980.000; -764.000
232.358; -102.700; -683.000; -599.000
232.502;    9.625;  -19.000;    7.000
232.645; -146.175;-1090.000; -927.000
232.789;  -14.750; -257.000; -218.000
232.933;  -47.850; -407.000; -224.000
233.076; -121.175;-1038.000; -897.000
233.220; -125.750; -752.000; -777.000
233.363;  -70.275; -669.000; -477.000
233.507;   57.000;  371.000;  129.000
233.650;  -86.500; -764.000; -834.000
233.794;   41.200;  438.000;  461.000
233.938;  -55.000; -530.000; -362.000
234.081;  -24.450;  -93.000;   31.000
234.225;  -68.300; -631.000; -539.000
234.368; -122.750; -773.000; -723.000
234.512;  -44.575; -385.000; -299.000
234.655;  -96.925; -582.000; -555.000
234.798;  -64.875; -493.000; -466.000
234.942; -134.675; -884.000;-1002.000
235.085;  -65.350; -651.000; -443.000
235.229;  -76.050; -405.000; -410.000
235.372;  -46.725; -247.000; -191.000
235.516;  -70.050; -397.000; -321.000
235.659;   24.675;   92.000;  121.000
235.802;  -24.150;  -38.000;  -22.000
235.946;   20.150;  335.000;  215.000
236.089;   19.300;  126.000;  250.000
236.233;   74.500;  275.000;  298.000
236.376;  -56.775; -235.000; -378.000
236.519;  -32.675; -297.000; -319.000
236.663;  -30.800; -215.000; -117.000
236.806; -131.550;-1029.000; -999.000
236.949;   65.850;  543.000;  431.000
237.092;   61.150;  412.000;  391.000
237.236;  -96.275; -589.000; -502.000
237.379;   82.150;  352.000;  428.000
237.522; -124.725; -879.000; -768.000
237.666;   -5.925; -271.000;   18.000
237.809; -125.700; -851.000; -823.000
237.952;   42.025;  469.000;  271.000
238.095;  -51.975; -447.000; -442.000
238.238;  102.775;  688.000;  700.000
238.382;   -6.450;  166.000;  103.000
238.525;  -65.900; -598.000; -511.000
238.668; -143.525;-1060.000; -985.000
238.811;  -78.875; -638.000; -643.000
238.954;  -53.250; -483.000; -334.000
239.097;  102.750;  617.000;  664.000
239.241;   12.500;  394.000;  326.000
239.384;  -28.650; -254.000; -214.000
239.527;  -69.350; -424.000; -224.000
239.670; -150.775; -994.000;-1091.000
239.813; -113.225; -696.000; -658.000
239.956;   95.025;  579.000;  473.000
240.099; -125.700; -778.000; -725.000
240.242;   68.450;  428.000;  432.000
240.385;   23.800;  466.000;  450.000
240.528;  -80.200; -706.000; -473.000
240.671;    1.400;  189.000;  134.000
240.814;  -47.450; -441.000; -158.000
240.957;  -99.375; -767.000; -578.000
241.100;  -93.500; -779.000; -755.000
241.243; -144.575;-1234.000; -893.000
241.386;  -55.025; -508.000; -379.000
241.529;  -90.950; -735.000; -547.000
241.672;  -63.475; -566.000; -495.000
241.815; -121.575; -832.000; -808.000
241.958;  -21.475; -125.000; -182.000
242.101;  -82.325; -545.000; -390.000
242.244;  -33.325; -270.000; -325.000
242.387;  -47.200; -304.000; -246.000
242.530;   67.650;  470.000;  134.000
242.673;  -44.725; -381.000; -309.000
242.815; -125.925; -925.000; -899.000
242.958;  -67.300; -482.000; -381.000
243.101;    9.725;  132.000;  187.000
243.244;  -82.600; -564.000; -521.000
243.387;  -37.675; -313.000; -316.000
243.530;  -95.200; -657.000; -674.000
243.672;    3.800;   43.000;  -92.000
243.815;  -55.775; -355.000; -283.000
243.958;   -4.600;   98.000;  -26.000
244.101;   -4.300;   59.000;  -16.000
244.243;    0.300;  -47.000;  101.000
244.386; -118.300; -761.000; -630.000
244.529;  -20.150; -132.000; -139.000
244.672; -159.125;-1154.000; -951.000
244.814; -101.600; -621.000; -794.000
244.957;  -60.025; -380.000; -304.000
245.100;  -74.375; -489.000; -489.000
245.242;  -61.475; -387.000; -374.000
245.385;   -3.400;  -59.000;  -39.000
245.528; -131.000; -871.000; -705.000
245.670;  102.375;  612.000;  634.000
245.813; -110.525; -599.000; -547.000
245.956;  -36.425; -324.000; -275.000
246.098;  -90.725; -508.000; -650.000
246.241;   14.800;  194.000;   48.000
246.383;  -19.850; -119.000;  -73.000
246.526;  -60.125; -454.000; -525.000
246.669; -129.950; -889.000; -780.000
246.811;   22.050;  172.000;   -1.000
246.954;  -88.825; -512.000; -426.000
247.096;  -24.650;  -84.000;   -6.000
247.239;  -68.675; -482.000; -445.000
247.381;  -75.075; -647.000; -488.000
247.524;   85.225;  645.000;  679.000
247.666;   -2.000;   58.000;   11.000
247.809; -128.500; -887.000; -691.000
247.951;   -7.100;  -75.000;  138.000
248.094;   24.350;  432.000;  308.000
248.236; -159.700;-1262.000;-1238.000
248.378;   -7.400; -356.000;  -81.000
248.521;   -9.375; -334.000; -337.000
248.663;  -41.900; -236.000; -267.000
248.806;  -20.500; -300.000; -266.000
248.948;  -85.550; -886.000; -763.000
249.090;  -43.075; -428.000; -398.000
249.233;  -40.775; -344.000; -381.000
249.375;  -54.925; -474.000; -451.000
249.518;  -33.150;  -83.000; -133.000
249.660;   -3.150; -103.000;    3.000
249.802; -173.725;-1303.000;-1189.000
249.945;  -55.800; -612.000; -540.000
250.087; -118.575; -834.000; -768.000
250.229;  -38.800; -362.000; -480.000
250.371;  -69.050; -494.000; -439.000
250.514;  -33.400; -310.000; -244.000
250.656;  -69.700;   69.000;  102.000
250.798; -115.325; -849.000; -800.000
250.940;  -75.050; -322.000; -322.000
251.083;  -22.275; -335.000; -111.000
251.225;   58.625;  338.000;  310.000
251.367;  -38.000; -274.000; -373.000
251.509;  -43.925; -265.000; -210.000
251.651;  -97.325; -731.000; -671.000
251.794;   57.675;  538.000;  632.000
251.936; -106.600; -821.000; -747.000
252.078;  -85.250; -540.000; -461.000
252.220;  -71.325; -645.000; -477.000
252.362;   78.750;  344.000;  462.000
252.504;  -74.175; -677.000; -584.000
252.646; -128.550; -875.000; -722.000
252.788;    2.725;   14.000; -128.000
252.931;  -43.375; -257.000; -253.000
253.073;  -35.350; -376.000; -317.000
253.215;  -12.650;  141.000;  122.000
253.357;   -5.575;   82.000; -153.000
253.499;  -55.775; -374.000; -234.000
253.641;  -81.675; -749.000; -594.000
253.783;  -88.175; -609.000; -527.000
253.925;  -87.225; -586.000; -591.000
254.067; -119.675; -744.000; -667.000
254.209;  -31.325; -391.000; -259.000
254.351; -130.325; -865.000; -883.000
254.493;  -58.300; -441.000; -417.000
254.635; -128.075; -936.000; -818.000
254.777;  -76.100; -752.000; -687.000
254.918;  -61.150; -512.000; -430.000
255.060;  -54.875; -551.000; -395.000
255.202;  -63.000; -473.000; -261.000
255.344;  -70.650; -658.000; -455.000
255.486;  -72.225; -471.000; -406.000
255.628;  -99.675; -780.000; -781.000
255.770;  -82.150; -676.000; -536.000
255.912;  -66.225; -559.000; -468.000
256.053;  -98.675; -730.000; -508.000
256.195;  151.400; 1008.000;  903.000
256.337;  -99.000; -861.000; -595.000
256.479;   68.800;  532.000;  416.000
256.621;  -50.050; -394.000; -212.000
256.762;  -92.825; -789.000; -742.000
256.904;   44.775;  485.000;  487.000
257.046;  -40.500; -381.000; -271.000
257.188;  -38.475; -351.000; -264.000
257.329;  -70.950; -525.000; -464.000
257.471; -116.925; -939.000; -807.000
257.613;  -66.475; -584.000; -498.000
257.755; -154.025;-1073.000; -982.000
257.896;   48.475;  286.000;  392.000
258.038;  -70.225; -403.000; -352.000
258.180;  -40.400; -354.000; -279.000
258.321;  -82.325; -581.000; -457.000
258.463;    4.550;  -71.000;  133.000
258.605;  -84.525; -562.000; -570.000
258.746;  -96.675; -886.000; -772.000
258.888; -158.125;-1026.000;-1020.000
259.029;   18.200;  121.000;   -8.000
259.171;  -89.925; -614.000; -550.000
259.313;   -7.500;  -49.000;  -47.000
259.454;  -86.700; -536.000; -414.000
259.596;  -50.125; -483.000; -390.000
259.737;  -87.625; -590.000; -474.000
259.879;   37.425;  217.000;  311.000
260.020;   72.500;  901.000;  636.000
260.162;  -25.400; -146.000; -253.000
260.303; -121.775; -768.000; -687.000
260.445;  -77.925; -609.000; -613.000
260.586;   33.700;  392.000;  157.000
260.728;  -23.500; -360.000; -248.000
260.869; -118.950; -350.000; -343.000
261.011;   97.150;  706.000;  537.000
261.152;  -72.875; -479.000; -319.000
261.293;  -72.625; -576.000; -595.000
261.435;  -31.425; -219.000; -184.000
261.576;  -44.125; -455.000; -325.000
261.718;   50.050;  420.000;  470.000
261.859; -127.800; -940.000; -949.000
262.000; -149.050; -951.000;-1016.000
262.142;  -14.925;  -52.000;  -60.000
262.283; -121.875; -808.000; -691.000
262.424;  -78.975; -666.000; -625.000
262.566; -164.525;-1161.000; -983.000
262.707; -112.950; -840.000; -830.000
262.848; -135.700; -769.000; -726.000
262.990;  -43.475; -362.000; -345.000
263.131;   80.600;  650.000;  681.000
263.272;    5.725;  -61.000;  -41.000
263.413;  -88.675; -589.000; -561.000
263.555;  -58.925; -669.000; -143.000
263.696;  -87.425; -550.000; -641.000
263.837;  -58.675; -449.000; -551.000
263.978;    6.650;   -5.000;  -77.000
264.119;  -45.100; -283.000; -264.000
264.261; -116.850; -847.000; -630.000
264.402;   12.125;   33.000;   40.000
264.543;  -71.600; -509.000; -524.000
264.684;   -7.050;   61.000;  -50.000
264.825;  -86.000; -816.000; -538.000
264.966;    2.675;  -84.000;  -67.000
265.107; -123.150; -646.000; -670.000
265.248; -116.625; -825.000; -812.000
265.390;   -0.900;  152.000;   -9.000
265.531;  -21.575; -238.000; -107.000
265.672;  -96.925; -557.000; -630.000
265.813;   61.425;  563.000;  439.000
265.954; -147.400; -959.000; -940.000
266.095;  -11.300; -372.000; -322.000
266.236; -104.275; -686.000; -548.000
266.377;  -31.425; -243.000; -297.000
266.518;  -75.825; -619.000; -547.000
266.659;   36.025;  170.000;  268.000
266.800;   11.575;   83.000;   85.000
266.941;  -72.150; -487.000; -478.000
267.082;   17.450;  354.000;   99.000
267.223;  -43.275; -344.000; -273.000
267.364; -117.200; -892.000; -686.000
267.504;  -16.225;    3.000;  135.000
267.645;   -9.675;  160.000;   67.000
267.786;  -29.250; -147.000;  -86.000
267.927;  -80.400; -473.000; -379.000
268.068;  -20.475; -186.000;  -61.000
268.209;  -52.325; -175.000; -413.000
268.350;  -51.675; -388.000; -532.000
268.490;  -88.450; -648.000; -521.000
268.631;   43.125;  127.000;  225.000
268.772; -118.675; -874.000; -647.000
268.913;  -25.875; -328.000; -476.000
269.054;   -8.050; -117.000;   12.000
269.194;  -49.875; -418.000; -402.000
269.335; -159.825;-1137.000;-1074.000
269.476;  -15.425;   33.000;  -35.000
269.617;  -44.350; -347.000; -392.000
269.757;  -81.750; -713.000; -646.000
269.898; -116.275; -856.000; -613.000
270.039;  -55.025; -415.000; -405.000
270.180; -144.500; -952.000; -816.000
270.320;  -13.700; -190.000; -250.000
270.461;  -36.425; -277.000; -249.000
270.602;  -18.725; -186.000; -156.000
270.742; -128.625; -868.000; -943.000
270.883;  -54.150; -442.000; -390.000
271.023;  -61.900; -358.000; -357.000
271.164;  -62.700; -607.000; -528.000
271.305; -112.200; -666.000; -654.000
271.445;  -89.275; -722.000; -683.000
271.586;  -72.450; -462.000; -283.000
271.726;  -36.850; -397.000; -322.000
271.867;  -64.725; -594.000; -534.000
272.008;  184.375; -473.000; -285.000
272.148;  133.150;  462.000;  468.000
272.289;   32.200; -113.000; -181.000
272.429;   18.825;   19.000;  185.000
272.570;  -84.175; -633.000; -737.000
272.710; -100.400; -825.000; -775.000
272.851;   -7.375;  113.000; -130.000
272.991; -172.225;-1173.000;-1077.000
273.131;  -51.375; -419.000; -459.000
273.272; -108.175; -683.000; -723.000
273.412;   19.425; -143.000;  -31.000
273.553;  -58.075; -488.000; -507.000
273.693;  154.325;  913.000;  858.000
273.834;  -93.450; -894.000; -692.000
273.974;  -66.575; -664.000; -615.000
274.114;  -96.850; -772.000; -560.000
274.255;   73.025;  414.000;  373.000
274.395;    5.625; -180.000; -125.000
274.535;   52.575;  199.000;  350.000
274.676;   24.675;  225.000;   94.000
274.816;   15.800;  110.000;   34.000
274.956;  -82.975; -624.000; -690.000
275.097;  -53.425;-1014.000; -922.000
275.237; -117.175; -913.000; -803.000
275.377;  -89.625; -778.000; -689.000
275.517; -153.725; -878.000; -937.000
275.658;  -40.575; -590.000; -555.000
275.798;  -65.925; -606.000; -413.000
275.938;   27.850;  215.000;  323.000
276.078;  -89.275; -626.000; -395.000
276.218;   28.775;   99.000;  104.000
276.359; -135.175;-1026.000;-1024.000
276.499;  -68.750; -605.000; -446.000
276.639;  -33.325; -305.000; -151.000
276.779;  -35.300; -475.000; -357.000
276.919;  -99.000; -783.000; -624.000
277.059;   -8.850; -261.000; -212.000
277.199;  -45.600; -357.000; -259.000
277.340;   56.725;  287.000;  175.000
277.480; -109.175; -840.000; -693.000
277.620;   34.975;  192.000;   16.000
277.760; -200.175;-1533.000;-1294.000
277.900;   31.625;  113.000;   33.000
278.040;   24.125;  137.000;  159.000
278.180;   36.100;  270.000;  170.000
278.320;   -5.100;   21.000;   56.000
278.460;  -53.650; -443.000; -469.000
278.600;  -87.825; -708.000; -598.000
278.740;   51.950;  448.000;  224.000
278.880;  -23.075; -768.000; -791.000
279.020;   30.225; -194.000; -144.000
279.160;  -92.375; -672.000; -595.000
279.300; -119.100; -926.000; -873.000
279.440;  -94.250; -709.000; -622.000
279.579;  -26.525;-1014.000; -929.000
279.719;  -47.175; -410.000; -394.000
279.859;   74.875;   -4.000;   41.000
279.999;   35.875; -208.000;  101.000
280.139;  -22.225; -435.000; -387.000
280.279;  -68.825; -708.000; -745.000
280.419;   -3.825; -229.000; -147.000
280.559;  -23.300; -259.000; -180.000
280.698;  -85.675; -790.000; -639.000
280.838;  -84.825; -778.000; -800.000
280.978;  -95.000; -846.000; -790.000
281.118; -129.775; -811.000; -704.000
281.257;   14.125;   24.000;    6.000
281.397; -107.050;-1094.000; -960.000
281.537;  -76.975; -599.000; -712.000
281.677;  -23.650; -150.000; -101.000
281.816;  -81.100; -700.000; -630.000
281.956;  -26.250; -193.000; -257.000
282.096;  -59.450; -539.000; -396.000
282.235; -107.450; -672.000; -638.000
282.375;   -1.175; -243.000;  -98.000
282.515;  -95.200; -715.000; -707.000
282.654;   37.700;   29.000;  106.000
282.794;   34.900;  388.000;  244.000
282.934;  -35.825; -530.000; -491.000
283.073; -130.725;-1030.000; -857.000
283.213;  -46.600; -460.000; -467.000
283.353;  -26.425; -408.000; -349.000
283.492;  -25.400; -264.000; -296.000
283.632;  -47.050; -254.000; -168.000
283.771;  -95.850; -859.000; -730.000
283.911;  -37.775; -369.000; -260.000
284.050; -104.550; -794.000; -748.000
284.190; -164.175;-1229.000;-1096.000
284.329; -142.150;-1055.000; -964.000
284.469;  -53.925; -516.000; -591.000
284.608;  -57.850; -559.000; -598.000
284.748;  -87.100; -614.000; -570.000
284.887;    8.750;  -87.000;  -20.000
285.027; -114.900; -844.000; -892.000
285.166;  -17.350; -192.000; -249.000
285.306;   12.325; -116.000;  -33.000
285.445;  -34.875; -229.000; -343.000
285.584; -100.525; -630.000; -494.000
285.724;  -25.150; -282.000; -322.000
285.863; -103.400; -857.000; -507.000
286.002;  -48.375; -366.000; -276.000
286.142; -104.300; -715.000; -622.000
286.281;  -66.650; -525.000; -493.000
286.420;  -75.825; -554.000; -417.000
286.560;  131.275;  653.000;  623.000
286.699; -146.225; -958.000; -912.000
286.838;  -86.875; -590.000; -591.000
286.978;  -93.900; -533.000; -537.000
287.117; -124.450;-1085.000; -950.000
287.256;  -40.900; -228.000; -211.000
287.395;  -44.725; -197.000; -378.000
287.535;  -63.500; -370.000; -298.000
287.674;  -70.625; -509.000; -484.000
287.813;   54.875;  661.000;  533.000
287.952; -120.075;-1010.000; -871.000
288.091; -154.075;-1049.000; -915.000
288.231;   31.400;   13.000;   15.000
288.370; -170.700;-1217.000;-1200.000
288.509;  -71.225; -728.000; -645.000
288.648;  -96.050; -770.000; -548.000
288.787;  -22.575; -243.000;  -87.000
288.926;  -61.100; -454.000; -475.000
289.065;  142.200;  859.000;  672.000
289.204;  -47.275; -377.000; -217.000
289.344;  -91.350; -791.000; -690.000
289.483;   36.325;  416.000;  304.000
289.622;   -3.075; -291.000; -149.000
289.761;  -21.850; -309.000; -166.000
289.900; -100.750; -785.000; -626.000
290.039;  -17.950;  -12.000;  -95.000
290.178;  -25.125; -274.000; -180.000
290.317;  -82.650; -618.000; -479.000
290.456;  -60.625; -463.000; -451.000
290.595; -145.775; -961.000; -833.000
290.734; -130.725; -904.000; -891.000
290.873;  -63.125; -456.000; -420.000
291.011; -109.625; -833.000; -843.000
291.150; -114.225; -770.000; -682.000
291.289;   -5.825; -343.000; -110.000
291.428;  -87.650; -599.000; -480.000
291.567;  -46.050; -370.000; -442.000
291.706;    0.125;  109.000;  154.000
291.845;  -86.175; -597.000; -505.000
291.984; -170.400;-1234.000;-1061.000
292.122;   84.700;  602.000;  582.000
292.261;   39.625;  620.000;  463.000
292.400;   17.950; -144.000;  211.000
292.539; -125.200; -959.000; -813.000
292.678;  -27.500; -325.000; -300.000
292.816; -152.325;-1136.000; -965.000
292.955;  -81.325; -844.000; -684.000
293.094;  -16.800; -173.000; -337.000
293.233;  -45.175; -556.000; -400.000
293.371;  -40.675; -225.000;  -84.000
293.510; -105.175; -866.000; -780.000
293.649; -135.075; -959.000; -924.000
293.787;  -49.325;-1083.000;-1012.000
293.926;    9.625; -113.000;  -32.000
294.065;  -35.500; -379.000; -290.000
294.203;   56.825;  298.000;  406.000
294.342;   47.200;   74.000;  156.000
294.481; 6340.200;51180.000; -836.000
294.619;  -27.675; -425.000; -582.000
294.758; -138.625;-1230.000;-1137.000
294.896;  108.425; -125.000;    5.000
295.035; -128.075;-1040.000;-1006.000
295.174; -104.425;-1082.000; -954.000
295.312;  -35.325; -323.000; -203.000
295.451;    5.550; -307.000; -428.000
295.589;  -64.225; -389.000; -518.000
295.728;   31.475; -292.000; -165.000
295.866;   -2.200;  -36.000;  -51.000
296.005;  -65.025; -584.000; -341.000
296.143;  -60.325; -558.000; -596.000
296.282; -108.150; -957.000; -881.000
296.420;  -75.625; -657.000; -557.000
296.559;  -67.675; -892.000; -633.000
296.697;   38.375; -847.000; -665.000
296.835;  112.150;-1141.000;-1002.000
296.974;   50.575;  -23.000;   39.000
297.112;   40.625; -443.000; -504.000
297.251;  -64.925; -815.000; -755.000
297.389;  136.375; -576.000; -438.000
297.527;   49.075; -145.000;  -83.000
297.666;  -39.250; -486.000; -438.000
297.804;  -43.200; -404.000; -264.000
297.942;    6.425; -136.000; -161.000
298.081;   -9.025; -183.000;   63.000
298.219;   99.150;  -17.000;  -19.000
298.357;   68.275; -144.000;  -71.000
298.495;   56.675; -810.000; -812.000
298.634;  105.775;  245.000;  219.000
298.772;   88.500; -220.000; -338.000
298.910;  -40.025; -309.000; -182.000
299.048;   10.300; -130.000; -153.000
299.187;  -34.125; -350.000; -250.000
299.325;   39.950;   52.000;  122.000
299.463;   70.625; -389.000; -299.000
299.601;  164.100; -327.000; -271.000
299.739;  -92.950; -908.000; -883.000
299.877;  -77.725; -791.000; -703.000
300.016;  -34.175;-1095.000; -935.000
300.154;  200.500;  -19.000; -161.000
300.292;   88.000; -428.000; -348.000
300.430;   53.100; -408.000; -291.000
300.568;  -95.275; -940.000; -874.000
300.706;  -35.375; -366.000; -469.000
300.844;  -58.650;-1108.000; -979.000
300.982;  136.850;  246.000;  282.000
301.120;  -98.300; -965.000; -866.000
301.258;  -58.600; -812.000; -705.000
301.396;   50.975;  104.000;  -41.000
301.534;  109.400; -218.000; -293.000
301.672;   24.700; -664.000; -521.000
301.810;   66.575; -613.000; -545.000
301.948;  135.775;   53.000;  149.000
302.086;  694.925; -250.000;  -32.000
302.224; 1093.100; -610.000; -585.000
302.362;   64.725; -558.000; -622.000
302.500;    5.100; -923.000; -893.000
302.638;  138.175;  128.000;  245.000
302.776;    8.775; -352.000; -408.000
302.913;   60.500;  447.000;  236.000
303.051;   17.050;  -86.000;  -23.000
303.189;   75.650;   90.000;  118.000
303.327;  -26.900; -341.000; -256.000
303.465;  -67.625; -832.000; -588.000
303.603;  -96.100; -805.000; -604.000
303.740;  115.275;  417.000;  241.000
303.878;   48.775; -800.000; -759.000
304.016;  -97.975; -915.000; -790.000
304.154; -115.750;-1123.000;-1152.000
304.291;  -23.100; -505.000; -554.000
304.429;    7.900;  102.000;   74.000
304.567; -114.800; -908.000; -893.000
304.705;  -37.075; -408.000; -515.000
304.842;  118.350; -616.000; -540.000
304.980;   61.800;  215.000;   35.000
305.118;   90.975; -367.000; -365.000
305.255;  -57.100; -945.000; -927.000
305.393;   75.500;  178.000;  239.000
305.531;  -94.050;-1173.000; -956.000
305.668;  -54.975; -663.000; -582.000
305.806;   89.825; -358.000; -439.000
305.943;  135.800; -629.000; -637.000
306.081;   75.400; -378.000; -267.000
306.219; -105.725; -863.000; -748.000
306.356;    3.625;  158.000;   27.000
306.494;  134.025;  981.000;  761.000
306.631;   -1.775;  -11.000;  -55.000
306.769;   14.725; -613.000; -485.000
306.906;  -16.475; -284.000; -258.000
307.044;  -59.225; -473.000; -488.000
307.181;  -64.250; -410.000; -332.000
307.319;   26.175;  112.000;   87.000
307.456; -164.850;-1191.000;-1153.000
307.594;  -96.550; -980.000; -727.000
307.731;   -9.150; -371.000; -164.000
307.868;   13.950;  -15.000;   20.000
308.006; -138.025; -961.000; -847.000
308.143;  -54.350; -618.000; -330.000
308.281;  129.725;  -37.000; -254.000
308.418;  -15.650; -748.000; -640.000
308.555;  -71.300; -400.000; -250.000
308.693;  -57.125; -577.000; -573.000
308.830; -115.650; -712.000; -657.000
308.967;   -5.900; -215.000;  -95.000
309.105;  -42.100; -507.000; -396.000
309.242;   34.900; -468.000; -367.000
309.379;  239.550; -577.000; -655.000
309.517;  -55.725; -936.000; -948.000
309.654; -102.725; -910.000; -734.000
309.791;  -57.150; -662.000; -580.000
309.928; -101.625; -977.000; -914.000
310.065;  209.200;  819.000;  697.000
310.203;   14.600; -825.000; -850.000
310.340;   18.750; -465.000; -321.000
310.477;  -78.800; -412.000; -516.000
310.614;  -56.650; -383.000; -473.000
310.751;  -84.600; -427.000; -518.000
310.889;   -7.900;    1.000;   11.000
311.026; -148.450;-1161.000; -939.000
311.163;  -24.800; -386.000; -380.000
311.300;  -80.950; -512.000; -479.000
311.437;  -60.125; -658.000; -619.000
311.574; -160.275;-1226.000; -985.000
311.711;  -52.800; -595.000; -433.000
311.848;  -42.275; -380.000; -388.000
311.985;   32.000;  270.000;   93.000
312.122; -104.250; -932.000; -762.000
312.259; -109.500; -941.000; -994.000
312.396;  -70.975; -508.000; -551.000
312.533;  -70.875; -812.000; -790.000
312.670; -135.200;-1070.000; -898.000
312.807;  -27.600; -352.000; -367.000
312.944;  -80.375; -513.000; -611.000
313.081;   -4.625; -150.000; -415.000
313.218;  -93.175;-1111.000; -867.000
313.355;   14.025; -531.000; -449.000
313.492;   20.475; -455.000; -292.000
313.629;  166.650;  815.000;  735.000
313.766; -153.025;-1176.000;-1008.000
313.902;   -3.550; -186.000;   21.000
314.039;  -41.775; -372.000; -289.000
314.176;   30.200;  286.000;  192.000
314.313;  -59.025; -569.000; -473.000
314.450;  -60.425; -788.000; -684.000
314.587;  -41.350; -468.000; -480.000
314.723;   17.650;  -78.000;  130.000
314.860;   45.425;  318.000;  332.000
314.997;   46.675;  223.000;  142.000
315.134;  -27.875; -385.000; -368.000
315.270;  -13.875; -480.000; -496.000
315.407; -122.200;-1094.000; -967.000
315.544;  -24.775; -657.000; -538.000
315.681;  -55.475; -681.000; -565.000
315.817;   52.225; -133.000; -176.000
315.954;   33.375; -613.000; -392.000
316.091; -104.325;-1045.000;-1023.000
316.227;  -27.900;  -71.000; -179.000
316.364;   11.450;   23.000;    6.000
316.500;  -42.825; -113.000; -300.000
316.637;  -39.875; -181.000; -302.000
316.774;  -80.425; -625.000; -358.000
316.910;  -81.075; -598.000; -629.000
317.047;  -81.950; -487.000; -351.000
317.183;  -45.525; -435.000; -566.000
317.320;  -42.400; -367.000; -321.000
317.456;  -81.000; -733.000; -805.000
317.593;  -84.075; -598.000; -641.000
317.729;   21.075;  168.000;  -67.000
317.866; -204.175;-1434.000;-1285.000
318.002;  -77.075; -708.000; -948.000
318.139;  -92.100; -883.000; -867.000
318.275;  -87.750;-1003.000; -738.000
318.412;  -68.850; -517.000; -336.000
318.548;   -4.700; -751.000; -720.000
318.685;  -88.275; -985.000; -888.000
318.821;  -78.075; -762.000; -735.000
318.957;  -19.225;   34.000;  -23.000
319.094;   56.650;  297.000;  154.000
319.230;  -48.750; -756.000; -742.000
319.367;  162.075; -471.000; -520.000
319.503;   65.125; -538.000; -436.000
319.639;  -91.375; -877.000; -793.000
319.775;  -63.600; -750.000; -685.000
319.912;  -23.600; -424.000; -519.000
320.048;  -94.650;-1184.000;-1184.000
320.184;   80.300;   59.000;   70.000
320.321;  -56.400; -497.000; -467.000
320.457;   76.450;  475.000;  662.000
320.593;  -65.775; -375.000; -382.000
320.729;  -89.575; -732.000; -734.000
320.866;  -74.250; -577.000; -635.000
321.002;  -73.500; -759.000; -809.000
321.138;   -5.000; -135.000; -211.000
321.274;   85.175; -148.000; -115.000
321.410;  -17.850; -585.000; -353.000
321.546;   -5.600;-1011.000; -911.000
321.683;   46.400;  400.000;  185.000
321.819;   20.175;  -48.000; -117.000
321.955; -102.800; -743.000; -722.000
322.091;  -39.875; -585.000; -540.000
322.227;   -3.200; -382.000; -202.000
322.363;   -2.800; -320.000; -215.000
322.499;  -35.950; -343.000; -331.000
322.635;  176.375;  636.000;  443.000
322.771;   28.800; -139.000;   12.000
322.907;  117.025;  129.000;  327.000
323.043;   -2.250; -115.000; -206.000
323.179;  -22.900; -394.000; -363.000
323.315;   59.775; -401.000; -371.000
323.451;  140.700; -328.000; -236.000
323.587;   67.600;  -60.000;  -77.000
323.723;   48.825; -682.000; -601.000
323.859;  -10.925; -258.000;  -76.000
323.995;  -20.175; -467.000; -409.000
324.131; -110.500; -967.000; -892.000
324.267;  -30.075; -254.000; -276.000
324.402; -122.725; -960.000; -983.000
324.538;   -3.900; -279.000; -104.000
324.674;   24.750;  164.000;   77.000
324.810;  195.325;  226.000;  308.000
324.946;   27.775; -810.000; -658.000
325.082;  -71.525; -568.000; -475.000
325.217;   -1.800;  -62.000;   16.000
325.353;  -81.100; -764.000; -659.000
325.489;  -78.650; -540.000; -506.000
325.625;  -53.025; -579.000; -525.000
325.760;   45.675;  517.000;  376.000
325.896;  -33.025; -515.000; -702.000
326.032;  -50.300; -403.000; -352.000
326.168;  -60.000; -462.000; -369.000
326.303;  -42.725; -352.000; -461.000
326.439;  -15.500; -336.000; -276.000
326.575;   13.275; -190.000;  -29.000
326.710;   16.450; -156.000;  -30.000
326.846;  -16.700;  146.000;  103.000
326.982;  -82.425; -530.000; -548.000
327.117;  -71.700; -481.000; -442.000
327.253;  -83.400; -745.000; -742.000
327.388; -136.875;-1137.000;-1153.000
327.524;  -20.700; -811.000; -578.000
327.659;   -7.350;  -58.000;  -22.000
327.795;   -2.550;   69.000;   45.000
327.931;  -85.300; -723.000; -499.000
328.066;   -3.275; -417.000; -276.000
328.202;    8.750;   12.000; -129.000
328.337;  105.775;  957.000;  713.000
328.473;   36.300;  -12.000;  -74.000
328.608;  -12.675; -256.000; -267.000
328.743;  -74.200; -799.000; -664.000
328.879;   18.925;  214.000;  114.000
329.014;  -35.550; -102.000; -122.000
329.150;  -62.575; -358.000; -483.000
329.285;  -71.275; -465.000; -466.000
329.421;  -35.950; -548.000; -246.000
329.556;  -33.450;  -36.000;   85.000
329.691;  -91.075; -633.000; -615.000
329.827;  -90.475; -626.000; -480.000
329.962;  -34.900;  131.000; -301.000
330.097; -102.875; -673.000; -585.000
330.233;  -47.650; -410.000; -223.000
330.368; -127.125; -839.000; -628.000
330.503;   -4.900;    3.000;   98.000
330.638;   15.925;  -93.000; -125.000
330.774;  -48.575; -609.000; -530.000
330.909;  -31.825; -434.000; -244.000
331.044;  -79.675; -714.000; -708.000
331.179; -183.075;-1217.000;-1109.000
331.315;   35.575;   77.000;   20.000
331.450;   24.050;  157.000;  285.000
331.585;  -76.025; -805.000; -706.000
331.720;  -83.400; -510.000; -460.000
331.855;    3.875;  -35.000; -102.000
331.990;  174.650;   62.000;  138.000
332.126;   88.075; -110.000;   71.000
332.261;  -16.075; -379.000; -265.000
332.396;   -7.000; -135.000; -242.000
332.531; -113.450;-1074.000;-1031.000
332.666;   19.800; -519.000; -363.000
332.801; -101.400; -726.000; -807.000
332.936;   -0.450; -192.000; -122.000
333.071; -139.375; -870.000; -817.000
333.206;   34.225;  307.000;  379.000
333.341;   34.950;  344.000;  418.000
333.476;  -64.325; -627.000; -623.000
333.611;  -37.050; -251.000; -173.000
333.746;  -28.700; -381.000; -464.000
333.881;  -93.300; -973.000; -935.000
334.016; -110.350; -936.000; -917.000
334.151; -115.525; -746.000; -702.000
334.286;   49.050;  152.000;  186.000
334.421;   -8.250; -125.000; -178.000
334.556;  -61.700; -611.000; -567.000
334.690;  -74.550; -631.000; -577.000
334.825;   70.175;  381.000;   83.000
334.960;  -35.750; -285.000; -413.000
335.095;   24.525;  135.000;  -91.000
335.230;  -95.375; -722.000; -738.000
335.365; -110.050;-1084.000; -990.000
335.499; -112.650;-1108.000;-1037.000
335.634;   60.425;    9.000;  534.000
335.769;  -79.225; -755.000; -720.000
335.904;  -28.200; -603.000; -561.000
336.038;  -31.950; -735.000; -657.000
336.173;  -69.425;-1206.000;-1194.000
336.308;   45.125; -116.000; -189.000
336.443;   43.300; -544.000; -634.000
336.577;  -48.450; -936.000; -787.000
336.712;  103.650;   -4.000;  -12.000
336.847;  -12.750; -724.000; -607.000
336.981;  114.550; -272.000; -208.000
337.116;  335.000;  615.000;  501.000
337.250;  215.050; -434.000; -421.000
337.385;  164.025; -297.000; -208.000
337.520;   44.925; -632.000; -603.000
337.654;  -31.375; -215.000; -126.000
337.789; -122.775; -989.000; -933.000
337.923;  -15.475; -104.000; -205.000
338.058;  -53.875; -673.000; -738.000
338.192;  -26.925; -611.000; -488.000
338.327;   -1.150;  -18.000; -155.000
338.461;  -62.750; -299.000; -469.000
338.596;  -81.850; -780.000; -638.000
338.730;  -96.600; -767.000; -803.000
338.865;   55.050;  -46.000; -140.000
338.999;  -82.350; -846.000; -702.000
339.134;  -40.800; -634.000; -536.000
339.268;   -2.650; -741.000; -603.000
339.403;  275.000; -740.000; -775.000
339.537;   42.800; -894.000; -820.000
339.671; -113.125; -829.000; -813.000
339.806;  -69.375; -556.000; -512.000
339.940;   14.750; -261.000; -235.000
340.074;  -92.025; -685.000; -510.000
340.209;  -42.750; -351.000; -230.000
340.343;  -73.950; -517.000; -573.000
340.477;  175.675;  998.000; 1036.000
340.612;  -86.600;-1033.000; -900.000
340.746;  101.300; -199.000; -243.000
340.880;  -58.325; -924.000; -785.000
341.014;    1.450;  -45.000; -154.000
341.149; -118.825; -756.000; -718.000
341.283;  -99.275; -839.000; -754.000
341.417;  -83.300;-1124.000; -938.000
341.551;  208.275; -768.000; -708.000
341.685;  -11.275; -633.000; -611.000
341.820;  -53.950; -562.000; -493.000
341.954;  -51.275; -218.000; -349.000
342.088; -151.500;-1102.000;-1019.000
342.222;   64.625;  565.000;  618.000
342.356;  -49.650; -395.000; -335.000
342.490;  -74.325; -880.000; -841.000
342.624;  -31.925; -339.000; -242.000
342.758;   10.300; -364.000; -312.000
342.892;  -42.350; -710.000; -585.000
343.026;  -26.775;  -58.000; -116.000
343.160;  -49.975; -426.000; -376.000
343.294;  -76.525; -474.000; -337.000
343.428;    2.800; -488.000; -448.000
343.562;   -8.675; -172.000;  -23.000
343.696;   -7.300; -385.000; -314.000
343.830;  -21.225; -362.000; -356.000
343.964;   56.250; -231.000; -168.000
344.098; 1139.450;  199.000;   70.000
344.232;  919.250; -266.000; -127.000
344.366;   78.175; -567.000; -453.000
344.500;   84.850; -665.000; -744.000
344.634;   38.375; -324.000; -164.000
344.768;   22.350; -531.000; -341.000
344.902;   31.225;  278.000;  256.000
345.035;  -57.125; -556.000; -496.000
345.169; -124.600; -933.000; -656.000
345.303;   -8.325; -308.000; -482.000
345.437;  -57.600; -826.000; -717.000
345.571;  -63.750; -675.000; -594.000
345.704;  -49.625; -309.000; -532.000
345.838;    9.125; -331.000; -284.000
345.972;  -34.525; -543.000; -495.000
346.106;  131.225; -179.000; -190.000
346.239;  408.650; -312.000; -243.000
346.373;   35.775; -343.000; -302.000
346.507; -145.875; -950.000; -962.000
346.640;  176.275;  -30.000;   13.000
346.774;  -31.900; -650.000; -797.000
346.908;    7.725; -138.000;  -11.000
347.041;  -94.325; -646.000; -593.000
347.175;    5.525;  259.000;   27.000
347.309;  -68.750; -698.000; -628.000
347.442;  -77.100; -883.000; -732.000
347.576;  341.250;  670.000;  668.000
347.709;  264.375; -123.000;  -52.000
347.843;  -77.150; -933.000; -825.000
347.976;   58.100;  235.000;  294.000
348.110; -181.175;-1268.000;-1186.000
348.243;  -93.800; -679.000; -772.000
348.377;    2.700;  -26.000;   60.000
348.510;   50.700;  403.000;  540.000
348.644;  -22.525;  -37.000; -159.000
348.777;   13.675;  180.000;  191.000
348.911;  -46.700; -142.000; -112.000
349.044;  218.700;  471.000;  448.000
349.178;  237.450;-1069.000;-1006.000
349.311;  127.450;  141.000;  255.000
349.444;  -27.275; -927.000; -813.000
349.578;    0.125; -347.000; -200.000
349.711;  -87.650; -959.000; -862.000
349.845;   25.150; -661.000; -591.000
349.978; -133.875;-1224.000;-1137.000
350.111;  -79.975; -546.000; -612.000
350.244;  -63.900; -596.000; -700.000
350.378;   17.025; -392.000; -393.000
350.511;  -54.750; -393.000; -426.000
350.644;  -93.225; -808.000; -806.000
350.778;    7.975;  168.000;  104.000
350.911;    8.950;  134.000;  140.000
351.044;  -82.625; -685.000; -615.000
351.177;  -10.950; -321.000; -281.000
351.310;  -11.625;    3.000; -131.000
351.444;  -54.375; -888.000; -788.000
351.577;  160.800;  140.000;   90.000
351.710;  121.975;  593.000;  417.000
351.843;  -35.675; -165.000;  -77.000
351.976;    3.475;  149.000;  -79.000
352.109;  -96.150; -621.000; -612.000
352.242;    1.850; -464.000; -419.000
352.376;  -32.550; -580.000; -636.000
352.509;  247.725; -437.000; -356.000
352.642;   51.925; -654.000; -604.000
352.775;   95.325; -141.000;  -98.000
352.908; -114.125; -933.000; -904.000
353.041;  -81.625; -814.000; -824.000
353.174;  -60.275; -551.000; -424.000
353.307;  -79.800; -753.000; -764.000
353.440;   87.850;  541.000;  453.000
353.573; -110.475; -957.000;-1008.000
353.706;  -45.325; -384.000; -558.000
353.839;    7.800; -264.000; -220.000
353.971;  -84.075; -657.000; -512.000
354.104;  -80.175; -896.000; -835.000
354.237;  -13.800; -627.000; -662.000
354.370;  -71.600; -846.000; -879.000
354.503; -180.425;-1231.000;-1308.000
354.636;  -29.900; -529.000; -348.000
354.769; -126.325; -937.000; -860.000
354.902;   13.425; -230.000; -139.000
355.034;  -16.000; -164.000; -220.000
355.167;   -3.025; -262.000; -162.000
355.300;  -90.050;-1061.000; -880.000
355.433;  772.175;  -71.000;  -14.000
355.565; 1171.950; -402.000; -384.000
355.698;  294.775; -356.000; -296.000
355.831;    4.275; -882.000; -801.000
355.964;  119.400; -285.000; -170.000
356.096;  -53.475; -856.000; -843.000
356.229;   30.525; -523.000; -530.000
356.362;  237.900; -373.000; -266.000
356.494;  475.150; -229.000; -162.000
356.627;  566.600;  269.000;  377.000
356.760;  547.600;  120.000;   53.000
356.892;  709.175; -286.000; -601.000
357.025;  773.450;  403.000;  389.000
357.157;  711.625; -167.000; -179.000
357.290;  447.325; -856.000; -713.000
357.423;  152.125; -667.000; -556.000
357.555;  141.000; -217.000; -228.000
357.688;  151.700; -483.000; -364.000
357.820;  511.250; -870.000; -877.000
357.953; 3950.375; -563.000; -589.000
358.085;  961.700; -632.000; -612.000
358.218; 1609.450;-1131.000; -932.000
358.350;  303.825;  -58.000;  312.000
358.483; -104.750;-1300.000;-1187.000
358.615;   33.425;-1182.000;-1078.000
358.747;   -1.025;-1187.000;-1058.000
358.880;   75.550; -810.000; -744.000
359.012;    0.125; -376.000; -202.000
359.145;  -32.800; -480.000; -511.000
359.277;   75.025; -962.000; -913.000
359.409; 3366.325;  536.000;  231.000
359.542;  874.100; -738.000; -688.000
359.674;   89.200;   46.000;   13.000
359.806;  -46.650; -565.000; -438.000
359.939;  -47.250; -617.000; -516.000
360.071;  -30.750; -583.000; -579.000
360.203;   -9.900; -411.000; -364.000
360.335;   57.900;  164.000;  -16.000
360.468;  215.875; -249.000; -307.000
360.600; 2558.950; -547.000; -454.000
360.732; 2104.575; -546.000; -423.000
360.864;  270.800;-1216.000;-1044.000
360.996;  385.250; -516.000; -554.000
361.129;   76.175; -389.000; -598.000
361.261;   38.200;  110.000; -113.000
361.393;  -32.225; -252.000; -214.000
361.525;   44.475;   94.000;  244.000
361.657;  -34.425; -821.000; -703.000
361.789;   38.050; -139.000; -155.000
361.921;  313.075; -642.000; -593.000
362.053;  319.225;  524.000;  541.000
362.185;   63.950;  288.000;   72.000
362.318;  -51.300; -709.000; -705.000
362.450;  173.725;  294.000;  444.000
362.582;  280.325; -913.000; -870.000
362.714;   -8.000; -353.000; -332.000
362.846;  -77.950; -606.000; -490.000
362.978; -138.125; -941.000; -811.000
363.109;   98.500; -161.000; -260.000
363.241;  538.525; -739.000; -749.000
363.373;  355.125; -649.000; -564.000
363.505;  489.275; -186.000;  -91.000
363.637;  129.925; -787.000; -601.000
363.769; -127.100;-1067.000;-1080.000
363.901;  -57.750; -596.000; -654.000
364.033; -105.325;-1103.000;-1062.000
364.165;   19.400; -283.000; -283.000
364.296;   47.550; -316.000; -177.000
364.428;    2.250;-1344.000;-1220.000
364.560;  -65.950; -679.000; -661.000
364.692;  -50.175; -738.000; -835.000
364.824;  376.025; -588.000; -456.000
364.955;  406.200; -402.000; -564.000
365.087;  546.625;-1097.000; -852.000
365.219;    3.425; -686.000; -816.000
365.351;  -63.925; -526.000; -572.000
365.482;   66.475;  300.000;  240.000
365.614;  -38.575; -402.000; -314.000
365.746;  -81.625; -729.000; -752.000
365.877; -114.675; -706.000; -672.000
366.009;  201.950;  -35.000;  -62.000
366.141; -124.350;-1249.000;-1134.000
366.272;  -94.450; -803.000; -719.000
366.404; -116.150;-1005.000; -874.000
366.535;   -2.550; -139.000;  -12.000
366.667;  -95.950; -644.000; -649.000
366.799;   48.275;  353.000;  203.000
366.930; -110.875; -862.000; -996.000
367.062;  116.350; -639.000; -613.000
367.193;   69.725; -872.000; -842.000
367.325;  -63.025; -580.000; -684.000
367.456;  125.525; -246.000;   31.000
367.588;  144.275; -371.000; -318.000
367.719;   20.350;  -44.000;  -45.000
367.851;    6.650; -222.000; -241.000
367.982;  -29.175; -875.000; -732.000
368.113;  160.050; -475.000; -358.000
368.245; -115.850; -960.000; -841.000
368.376;   -3.900; -254.000; -302.000
368.508;  -22.625; -188.000; -263.000
368.639; -127.350;-1166.000;-1034.000
368.770;    8.375; -670.000; -589.000
368.902;  -41.025; -836.000; -926.000
369.033;  -95.500; -906.000; -855.000
369.164;  -50.725; -720.000; -653.000
369.296; -102.775; -452.000; -601.000
369.427;   16.050; -209.000; -144.000
369.558;  -55.225; -593.000; -377.000
369.689;  -76.325; -721.000; -569.000
369.821; -121.700; -951.000; -845.000
369.952;    0.150;   42.000; -108.000
370.083;  -40.525; -229.000; -108.000
370.214;  -63.100; -735.000; -650.000
370.345;    0.250;   65.000;   81.000
370.477;  -64.600; -810.000; -790.000
370.608;  304.450; -328.000; -264.000
370.739;    0.525;-1233.000;-1292.000
370.870;   -4.125;-1102.000; -923.000
371.001;  143.250; -378.000; -467.000
371.132;  -72.075; -754.000; -735.000
371.263;   -7.675;  -42.000; -148.000
371.394; -114.050; -841.000; -748.000
371.525;   42.900;  345.000;  225.000
371.657;  -88.250; -808.000; -670.000
371.788;   80.850;  103.000;  199.000
371.919;  229.875; -384.000; -304.000
372.050; 4291.050;  -91.000; -156.000
372.181; 1254.175; -188.000; -294.000
372.311;  473.200;   42.000; -127.000
372.442;   64.475; -457.000; -451.000
372.573;    1.900; -444.000; -340.000
372.704; -119.725;-1008.000; -980.000
372.835;  113.875; -228.000; -289.000
372.966;  -46.975; -646.000; -554.000
373.097;  -46.050; -575.000; -711.000
373.228;  -23.275; -717.000; -542.000
373.359;  213.025; -824.000; -536.000
373.490; 1185.225; -881.000; -727.000
373.620; 1451.725;-1001.000; -803.000
373.751; 2207.800; -332.000; -396.000
373.882;  979.050; -663.000; -733.000
374.013;  117.425; -449.000; -262.000
374.143;   -2.350; -581.000; -659.000
374.274;  -99.075; -987.000; -908.000
374.405;  225.275; -388.000; -276.000
374.536;  581.050; -526.000; -387.000
374.666; 1444.400; -759.000; -807.000
374.797;  310.900; -817.000; -868.000
374.928; 1127.550; -710.000; -560.000
375.058; 1089.400; -535.000; -500.000
375.189;  112.225;  -59.000;  -93.000
375.320; -105.350; -928.000;-1034.000
375.450;  -21.425; -625.000; -616.000
375.581;  -39.700; -526.000; -436.000
375.712;  -12.450; -574.000; -250.000
375.842;  386.000; -438.000; -415.000
375.973;  295.675; -554.000; -513.000
376.103;  -11.275; -665.000; -648.000
376.234;  -63.400; -531.000; -552.000
376.364;   -7.350; -944.000; -867.000
376.495;  377.950;  925.000;  529.000
376.625;   25.000; -472.000; -485.000
376.756;  115.575; -709.000; -678.000
376.886;  -51.425;-1178.000;-1026.000
377.017;    7.350;-1048.000;-1061.000
377.147;  201.500; -786.000; -782.000
377.278;   49.200;  174.000;  228.000
377.408; -121.575; -801.000; -815.000
377.538; -104.375; -707.000; -693.000
377.669;  -76.700; -537.000; -613.000
377.799;  -65.750; -645.000; -635.000
377.929;  -35.925; -610.000; -428.000
378.060; -100.325; -781.000; -847.000
378.190;  -66.525; -726.000; -531.000
378.320;  -35.725; -401.000; -406.000
378.451;    6.650; -131.000;  -22.000
378.581;    9.500;  -67.000; -110.000
378.711;  183.800; 1035.000;  866.000
378.841;   14.075; -533.000; -675.000
378.972;  -58.850; -871.000; -751.000
379.102;   25.250; -652.000; -579.000
379.232;   -3.100; -126.000;  -73.000
379.362;  -83.575;-1001.000; -885.000
379.492;   51.925; -373.000; -424.000
379.623;  138.325;    0.000;  111.000
379.753;  -79.350;-1107.000; -974.000
379.883;  239.450;   59.000;  156.000
380.013;   57.450;-1081.000;-1017.000
380.143;  -76.075;-1097.000;-1056.000
380.273;  -82.050; -985.000; -861.000
380.403;   20.825; -344.000; -257.000
380.533;   -8.275; -651.000; -664.000
380.663;  109.525;  173.000;  128.000
380.793;  -81.825;-1027.000;-1074.000
380.923;   -8.575; -103.000;  -34.000
381.053;  -87.800; -613.000; -623.000
381.183;  -12.050; -106.000; -248.000
381.313;   74.550; -656.000; -470.000
381.443;   79.375; -692.000; -473.000
381.573;  280.150; -402.000; -409.000
381.703;  422.675;-1249.000;-1095.000
381.833; -102.825;-1454.000;-1336.000
381.963;  132.000; -134.000;  -87.000
382.093; 1598.450; -925.000; -909.000
382.223;  492.675; -713.000; -602.000
382.353;   30.400; -801.000; -608.000
382.482;  506.875;-1091.000; -964.000
382.612;  912.000; -872.000; -644.000
382.742;  490.775; -695.000; -622.000
382.872;  368.050; -565.000; -551.000
383.002;   97.925;  347.000; -132.000
383.131;   -3.975; -226.000; -160.000
383.261;  -29.125; -706.000; -768.000
383.391;  260.375; -552.000; -377.000
383.521; 2295.675;  451.000;  263.000
383.650;  455.325; -947.000; -904.000
383.780;  -16.200; -783.000; -656.000
383.910;  105.300;  880.000;  802.000
384.039;   72.175; -794.000; -656.000
384.169;  298.450;-1205.000;-1017.000
384.299;   14.175; -650.000; -662.000
384.428;  -75.775; -764.000; -680.000
384.558;  -18.525; -308.000; -275.000
384.687;  -21.225; -414.000; -334.000
384.817;   36.750;   75.000;   -2.000
384.947;   55.250; -234.000; -141.000
385.076;  359.150;  982.000;  912.000
385.206;  126.475;  369.000;  480.000
385.335;  -16.025; -549.000; -417.000
385.465;  -60.050; -655.000; -663.000
385.594;  214.025;  -53.000;  -44.000
385.724;  578.950; -868.000; -838.000
385.853;  172.525; -296.000; -270.000
385.982; 1734.325; -743.000; -787.000
386.112; 2650.675;-1052.000; -871.000
386.241;  209.975; -307.000; -312.000
386.371;   53.800; -174.000;  -87.000
386.500;   22.575; -825.000; -789.000
386.629;   31.875; -874.000; -817.000
386.759;   84.050;  -43.000;   68.000
386.888;   27.900; -170.000; -250.000
387.017;  -53.225; -648.000; -620.000
387.147;  -45.475; -771.000; -798.000
387.276;   36.125; -410.000; -397.000
387.405;   56.775; -398.000; -342.000
387.535;  -32.225; -452.000; -361.000
387.664;  -42.025; -692.000; -620.000
387.793;   93.900; -198.000; -113.000
387.922;  684.675;  255.000;  200.000
388.052;   65.250; -576.000; -423.000
388.181;   86.625; -342.000; -472.000
388.310;   83.225; -889.000; -710.000
388.439;    5.400; -749.000; -742.000
388.568;  244.700;  365.000;  244.000
388.697; 1377.375; -756.000; -653.000
388.826;  284.225; -768.000; -666.000
388.956;   95.875; -285.000; -307.000
389.085;   -2.475; -347.000; -287.000
389.214;  -92.875; -842.000; -872.000
389.343;  -50.225; -645.000; -413.000
389.472;  329.250;  126.000;  149.000
389.601;  462.775;   91.000;    0.000
389.730;   34.325; -568.000; -687.000
389.859;   84.775;  226.000;   46.000
389.988;  260.175; -423.000; -408.000
390.117;  177.550; -168.000; -146.000
390.246;   26.850; -331.000; -320.000
390.375;  163.575; -673.000; -626.000
390.504;  -36.450; -703.000; -621.000
390.633;  -80.650; -672.000; -726.000
390.761;  -48.950; -732.000; -645.000
390.890;   47.150;   -4.000; -130.000
391.019;   -3.775; -421.000; -441.000
391.148; -118.675; -826.000; -855.000
391.277;  -44.550; -576.000; -493.000
391.406;  -49.300; -821.000; -805.000
391.534;   23.700;  574.000; -301.000
391.663;  -34.900; -583.000; -645.000
391.792;  -65.875; -673.000; -701.000
391.921;  167.775;   -3.000;   15.000
392.050;  320.650; -287.000; -228.000
392.178;    2.175;-1206.000;-1061.000
392.307;  212.075; -758.000; -712.000
392.436;  121.525; -427.000; -641.000
392.564;   45.300;  166.000;   -6.000
392.693;  -81.250; -860.000; -682.000
392.822;  302.500; -529.000; -534.000
392.950;  162.650; -880.000; -714.000
393.079;  425.625; -188.000; -328.000
393.208;   54.075; -488.000; -511.000
393.336;  -10.450; -170.000; -145.000
393.465;  -52.575; -317.000; -199.000
393.593;   10.625;   62.000;   79.000
393.722; -161.675;-1121.000; -916.000
393.850;  -21.475; -188.000;  -61.000
393.979; -156.250; -926.000; -805.000
394.107;  -43.150; -517.000; -537.000
394.236;   -7.800; -570.000; -507.000
394.364;  201.925;  383.000;  206.000
394.493;  270.525; -911.000; -767.000
394.621;  -12.775; -955.000; -916.000
394.750;  523.600; -873.000; -923.000
394.878; 2302.050; -247.000; -149.000
395.007; 3035.575; -721.000; -807.000
395.135;  211.700; -790.000; -721.000
395.263; -101.950;-1038.000;-1040.000
395.392;    7.825;  -25.000; -107.000
395.520; -157.650; -818.000; -679.000
395.648;  -72.425; -865.000; -915.000
395.777;    3.375; -366.000; -405.000
395.905;  -45.375; -449.000; -564.000
396.033;   16.550;  217.000;  172.000
396.162;  468.200; -399.000; -453.000
396.290;  404.725;  -17.000;   -2.000
396.418;  127.250; -555.000; -514.000
396.546;  -60.450; -571.000; -466.000
396.674;  -74.500; -850.000; -878.000
396.803;   16.050;  -72.000;  -23.000
396.931;  148.325; -179.000; -199.000
397.059;  116.950;-1026.000; -989.000
397.187; -103.025;-1026.000; -975.000
397.315; -122.000; -884.000; -649.000
397.443;  -85.125; -592.000; -443.000
397.572;  -93.600; -578.000; -424.000
397.700;   21.375; -607.000; -614.000
397.828;   22.625;  120.000;  -90.000
397.956;  -37.700; -508.000; -478.000
398.084;  -77.225; -767.000; -626.000
398.212;   56.800;  137.000;  124.000
398.340;    8.225;  -56.000;  159.000
398.468;   69.925; -390.000; -169.000
398.596; -108.225; -993.000; -953.000
398.724; -108.525; -762.000; -767.000
398.852; -157.850;-1024.000; -976.000
398.980;  -44.575; -560.000; -560.000
399.108;  -36.975; -982.000; -735.000
399.236;   66.950;   13.000;    8.000
399.363;   10.775;  222.000;  196.000
399.491;  -51.525; -404.000; -398.000
399.619; -125.175; -829.000; -800.000
399.747;  -87.425; -859.000; -771.000
399.875;   95.625;  220.000;  234.000
400.003;  -48.225; -359.000; -284.000
400.130;  -88.950; -421.000; -341.000
400.258;  -29.975;  -83.000;   38.000
400.386;  -62.200; -352.000; -168.000
400.514;  -18.825; -526.000; -587.000
400.641;  -69.075; -928.000; -802.000
400.769; -135.250; -979.000; -888.000
400.897; -106.725; -838.000; -793.000
401.025;    4.775; -166.000; -152.000
401.152;    3.300;  220.000;   38.000
401.280;  -72.950; -430.000; -429.000
401.408; -109.750; -712.000; -576.000
401.535;  -81.850; -735.000; -758.000
401.663; -187.850;-1134.000;-1054.000
401.790;  -72.850; -514.000; -525.000
401.918;   47.825;  436.000;  405.000
402.046;   -8.600;  134.000;  122.000
402.173;  -13.625;  -18.000;    7.000
402.301;  -60.350; -519.000; -397.000
402.428;   42.350;  528.000;  383.000
402.556; -133.700;-1188.000; -913.000
402.683;  -26.625;  -20.000;   -1.000
402.811;    1.650;  -37.000; -206.000
402.938;  -13.900;   20.000;   27.000
403.066;  288.550; -574.000; -558.000
403.193;  402.150;  299.000;  239.000
403.321;  338.375; -396.000; -574.000
403.448;  397.325;   83.000;   27.000
403.575;  209.300;  -90.000;  -46.000
403.703;  -85.475; -732.000; -557.000
403.830;  -50.950; -531.000; -496.000
403.957; -134.175;-1117.000;-1023.000
404.085;   17.175;  -61.000; -172.000
404.212;   95.150;  -50.000;   63.000
404.339;  212.050; -566.000; -306.000
404.467; 4464.075; -612.000; -524.000
404.594; 3301.950; -287.000; -227.000
404.721;  899.500; -869.000; -764.000
404.848;   82.850; -113.000; -202.000
404.976;  -99.050; -856.000; -783.000
405.103;    9.375;  -14.000;  -82.000
405.230;  -10.475;  190.000;  226.000
405.357;   29.275;  117.000;   44.000
405.484;  187.850;  -49.000;    5.000
405.612;   45.000; -548.000; -563.000
405.739;  -52.425; -488.000; -243.000
405.866;  100.475;  669.000;  385.000
405.993;  -21.525; -398.000; -102.000
406.120; -129.525; -801.000; -887.000
406.247;  -45.850; -323.000; -342.000
406.374;  578.400;  540.000;  629.000
406.501;  177.025; -632.000; -702.000
406.628;  -51.075; -621.000; -589.000
406.755; -104.050; -803.000; -620.000
406.882;  -25.950; -228.000; -277.000
407.009; -110.575; -719.000; -628.000
407.136;   84.575; -480.000; -401.000
407.263;  214.925; -939.000; -829.000
407.390;  -41.050; -692.000; -614.000
407.517; -160.675;-1139.000;-1187.000
407.644;  -47.325; -332.000; -256.000
407.771;  -63.825; -249.000; -287.000
407.898;   19.625;  168.000;  328.000
408.025;  -50.100; -421.000; -313.000
408.151;  -10.325;   82.000;  153.000
408.278;  -67.850; -267.000; -216.000
408.405; -106.375; -931.000; -899.000
408.532;  -79.075; -549.000; -542.000
408.659; -114.725; -677.000; -648.000
408.785; -216.050;-1298.000;-1170.000
408.912;  -48.250; -412.000; -296.000
409.039; -116.550; -610.000; -686.000
409.166; -103.675; -591.000; -555.000
409.292; -100.625; -571.000; -534.000
409.419; -106.725; -665.000; -649.000
409.546;  -93.375; -431.000; -192.000
409.672;  -96.775; -713.000; -545.000
409.799;  -22.425;  -36.000;   34.000
409.926;  -23.525; -180.000; -179.000
410.052; -185.550;-1127.000;-1091.000
410.179;  -61.425; -368.000; -392.000
410.305;  -90.775; -375.000; -493.000
410.432;  -20.550; -220.000; -333.000
410.558;  -88.050; -305.000; -380.000
410.685;  -90.650; -688.000; -431.000
410.812;  -92.900; -409.000; -588.000
410.938; -127.300; -964.000; -808.000
411.065; -100.700; -671.000; -645.000
411.191;  -12.025; -189.000; -174.000
411.317; -126.975; -823.000; -742.000
411.444;  -55.075; -317.000; -246.000
411.570;  -78.650; -339.000; -294.000
411.697; -121.825; -758.000; -752.000
411.823; -163.650; -989.000; -999.000
411.949;  -28.075;  -56.000;   17.000
412.076; -106.500; -539.000; -519.000
412.202; -108.375; -758.000; -757.000
412.329; -121.875; -798.000; -752.000
412.455; -113.650; -821.000; -657.000
412.581;  -18.675;  -15.000;  172.000
412.707;  -38.200; -540.000; -457.000
412.834;   22.700;  156.000;  219.000
412.960;  -84.700; -785.000; -784.000
413.086; -103.925; -743.000; -701.000
413.212;  199.300;  604.000;  578.000
413.339;  -33.550; -685.000; -701.000
413.465;   33.425; -364.000; -310.000
413.591;  -78.275; -757.000; -474.000
413.717;  -47.250; -358.000; -366.000
413.843; -150.325; -839.000; -861.000
413.969;  -67.375;  -47.000; -292.000
414.096;  -96.950; -679.000; -679.000
414.222;    1.225;  -33.000;   85.000
414.348;  -12.100; -652.000; -385.000
414.474;  154.700;   38.000;  -52.000
414.600;  -26.750; -126.000; -144.000
414.726;  -16.325;  -96.000;  -55.000
414.852;  -71.900; -365.000; -342.000
414.978;   33.825;  104.000;  -18.000
415.104;   39.275;   38.000;   80.000
415.230;   17.450; -329.000; -330.000
415.356;   25.425; -409.000; -514.000
415.482;  204.275;   13.000;  -35.000
415.608;  215.575; -247.000; -323.000
415.734;  836.575;   67.000;   38.000
415.860;17057.200; -875.000; -767.000
415.986;11867.500; -685.000; -607.000
416.111;  964.275; -798.000; -652.000
416.237;  188.950; -424.000; -571.000
416.363;  889.000; -765.000; -733.000
416.489; 3161.050; -324.000; -251.000
416.615;  305.175; -707.000; -742.000
416.741;  -46.450; -677.000; -784.000
416.866; -107.525; -673.000; -736.000
416.992; -137.850; -801.000; -818.000
417.118;  -29.350;  -41.000;  -80.000
417.244;  -70.500; -798.000; -531.000
417.369;  -94.150; -801.000; -612.000
417.495;   -0.925; -325.000; -254.000
417.621;  -89.225;-1015.000; -803.000
417.746;   -2.725; -579.000; -572.000
417.872;   28.475; -254.000; -144.000
417.998;   20.950; -515.000; -530.000
418.123;  824.625;-1073.000; -845.000
418.249; 4229.350; -512.000; -601.000
418.374;  531.100; -916.000; -824.000
418.500;   90.450; -383.000; -482.000
418.626;   86.050;   70.000;  -59.000
418.751;   99.725; -549.000; -448.000
418.877;  139.425; -637.000; -643.000
419.002; 1475.100; -688.000; -560.000
419.128; 9882.325; -930.000; -721.000
419.253; 2217.725; -967.000; -837.000
419.379;  282.200; -391.000; -338.000
419.504;  320.350;  325.000;  415.000
419.629;  378.600; -393.000; -212.000
419.755; 2707.625; -317.000; -254.000
419.880;15402.975;  -98.000;   67.000
420.006; 9073.675; -280.000; -221.000
420.131;23726.075; -662.000; -775.000
420.256; 3331.125; -315.000; -316.000
420.382;  401.900; -665.000; -687.000
420.507;   45.975; -649.000; -778.000
420.632;  184.225; -337.000; -339.000
420.758;  347.675; -251.000; -425.000
420.883;  -75.275; -876.000; -672.000
421.008;  -95.825; -775.000; -619.000
421.133;  -92.525; -509.000; -467.000
421.259;  -46.175; -325.000; -259.000
421.384; -108.175; -834.000; -693.000
421.509;    3.375;-1052.000; -862.000
421.634; 1709.500; -936.000; -820.000
421.759;  700.950; -359.000; -327.000
421.885;  -38.775; -717.000; -656.000
422.010;  -54.300; -673.000; -542.000
422.135; -154.925; -695.000; -727.000
422.260;   34.225;  340.000;  280.000
422.385;  -35.500;   12.000;  -98.000
422.510;    0.075;  151.000;  -26.000
422.635;   12.150;  -87.000;  -43.000
422.760;   95.125; -766.000; -791.000
422.885;   50.475;  -57.000;  -80.000
423.010;  -16.950; -112.000; -169.000
423.135;  -89.850; -481.000; -561.000
423.260;    5.900; -150.000; -245.000
423.385;   88.175;  476.000;  222.000
423.510;   52.675;   71.000;  -22.000
423.635;   92.425;  133.000;   45.000
423.760;   65.300;  383.000;  328.000
423.885;   53.875;  336.000;  391.000
424.010;   24.200;  -68.000;  -13.000
424.135;  -20.375;    5.000;  -33.000
424.259;  -83.750; -654.000; -457.000
424.384;  -68.700; -279.000; -272.000
424.509;  -23.875; -260.000; -186.000
424.634; -107.825; -761.000; -623.000
424.759;  -30.050; -688.000; -544.000
424.883;  -33.500; -506.000; -527.000
425.008;  135.700; -502.000; -410.000
425.133; 1611.075; -679.000; -653.000
425.258;  709.100; -517.000; -381.000
425.382; 1208.750; -867.000; -774.000
425.507; 3035.875; -487.000; -543.000
425.632;  406.625; -802.000; -663.000
425.756;  339.550; -256.000; -146.000
425.881; 4693.950; -831.000; -857.000
426.006;12043.675; -604.000; -355.000
426.130; 1875.800; -696.000; -508.000
426.255;  228.825; -611.000; -491.000
426.379;  100.500; -189.000; -577.000
426.504;  323.775;  660.000;  544.000
426.629; 3461.975; -519.000; -466.000
426.753; 2304.025;   64.000;  -46.000
426.878;  250.650; -252.000; -288.000
427.002;  105.875; -651.000; -668.000
427.127; 1353.175;  -35.000; -158.000
427.251; 8981.400;  372.000;  401.000
427.375; 2500.650; -191.000; -173.000
427.500; 2620.350; -616.000; -610.000
427.624;  846.800; -234.000; -400.000
427.749;  118.425; -216.000; -225.000
427.873;  -29.900; -499.000; -412.000
427.997;  -16.950; -222.000; -230.000
428.122;   83.325;  795.000;  703.000
428.246;  103.500;  433.000;  434.000
428.371; -137.850; -869.000; -773.000
428.495; -103.900; -624.000; -646.000
428.619;  -13.650; -186.000; -117.000
428.743;   30.650;   65.000;  132.000
428.868;   35.125; -732.000; -643.000
428.992; 1720.025; -219.000; -326.000
429.116;  689.300; -329.000; -357.000
429.240;  358.525;  419.000;  426.000
429.365;   -2.425; -454.000; -574.000
429.489;  -29.625; -638.000; -647.000
429.613;   17.750; -236.000; -177.000
429.737;   28.500; -563.000; -432.000
429.861;  215.575; -247.000; -133.000
429.985; 4582.800; -425.000; -305.000
430.109; 4794.250; -770.000; -908.000
430.234;  530.175;   76.000;  -50.000
430.358;   36.475; -250.000; -160.000
430.482;  -78.175; -672.000; -564.000
430.606;  -66.175; -655.000; -375.000
430.730;   39.200; -437.000; -388.000
430.854;  198.825; -909.000; -835.000
430.978;  -51.300; -795.000; -764.000
431.102;  -88.675; -499.000; -422.000
431.226;  -91.075; -874.000; -815.000
431.350;   63.925;  345.000;  422.000
431.474;  -54.950; -661.000; -373.000
431.597; -147.650;-1060.000; -848.000
431.721;  -83.475; -276.000; -267.000
431.845; -126.525; -704.000; -472.000
431.969;  -83.350; -304.000; -349.000
432.093;  -98.925; -395.000; -317.000
432.217;   -9.475;   32.000;   82.000
432.341;  -86.350; -523.000; -518.000
432.464;   10.375;   96.000;   40.000
432.588;  298.225; -401.000; -329.000
432.712;  142.350;  -52.000;  -52.000
432.836;   46.575;  213.000;  263.000
432.959;  -30.700; -372.000; -311.000
433.083;   67.750;   11.000;    2.000
433.207;  320.575;  285.000;  930.000
433.330; 3943.225; -391.000; -200.000
433.454; 4714.075; -654.000; -638.000
433.578; 2765.475;  583.000;  278.000
433.701;  508.925; -623.000; -675.000
433.825;  180.300; -292.000; -299.000
433.949;  312.850;   28.000;  -72.000
434.072;  126.500; -410.000; -323.000
434.196;    1.575; -309.000; -117.000
434.319; 3778.500;25482.000;25124.000
434.443;  721.500; -656.000; -603.000
434.566; 2109.400;  281.000;   62.000
434.690;  324.950; -637.000; -383.000
434.813;   36.775; -251.000; -173.000
434.937;  -60.500; -569.000; -696.000
435.060;  -10.425; -423.000; -332.000
435.184;  554.550; -492.000; -217.000
435.307;  283.275;  159.000;  102.000
435.431;    6.650;  -40.000;   24.000
435.554;  -76.325; -399.000; -240.000
435.677;  -68.425; -350.000; -258.000
435.801;  -45.875;  -25.000;   49.000
435.924;   26.550;    1.000;  -67.000
436.048;  -78.600;-1019.000; -732.000
436.171;  -49.475; -240.000;  -66.000
436.294;  -44.975; -248.000; -229.000
436.417;   46.250; -963.000; -849.000
436.541; -104.550; -814.000; -840.000
436.664;  -44.525; -242.000; -316.000
436.787;  -19.300;   13.000;  113.000
436.910; -101.375; -792.000; -422.000
437.034;   25.825;  142.000;  143.000
437.157;  117.350;  -11.000;    0.000
437.280;  -24.850; -392.000; -292.000
437.403;  -43.450; -982.000; -869.000
437.526; 1027.550; -903.000; -865.000
437.649; 3389.000; -505.000; -332.000
437.772;  526.450; -692.000; -540.000
437.896;  159.025;  700.000;  544.000
438.019;  -82.150; -758.000; -503.000
438.142;  -80.625; -596.000; -506.000
438.265;   16.650; -639.000; -670.000
438.388;  788.250; -520.000; -410.000
438.511;  160.700; -597.000; -394.000
438.634;  -33.875; -247.000; -125.000
438.757; -144.300; -693.000; -619.000
438.880;  -12.700;  -34.000;  -57.000
439.003;  -82.950; -417.000; -437.000
439.126;  -64.550; -287.000; -167.000
439.248;  -60.950;  -98.000; -139.000
439.371;  -26.900;    9.000;  -53.000
439.494;   27.225;  510.000;  439.000
439.617;  -56.425;   65.000;  -88.000
439.740; -189.275; -968.000; -816.000
439.863; -141.750; -755.000; -595.000
439.986; -134.750; -476.000; -431.000
440.108;  -35.925; -161.000; -112.000
440.231; -154.125; -950.000; -836.000
440.354;  -30.300;  -64.000; -150.000
440.477;   77.825; -566.000; -542.000
440.599;   27.975; -200.000; -225.000
440.722; -118.975; -709.000; -586.000
440.845;   66.425;  751.000;  928.000
440.968; -109.200; -415.000; -311.000
441.090;  -67.700; -199.000;  -33.000
441.213; -182.050;-1021.000; -825.000
441.336;  -41.325; -159.000;   -5.000
441.458;  -78.725; -549.000; -396.000
441.581;  -80.700; -628.000; -629.000
441.703;  -59.750; -152.000;   13.000
441.826; -114.200; -557.000; -400.000
441.948;  -45.875;   56.000;   51.000
442.071;   33.700;  555.000;  424.000
442.193; -115.400; -531.000; -485.000
442.316;   36.475;  152.000;   97.000
442.438;   14.850; -233.000;  -10.000
442.561;   92.875;  272.000;  262.000
442.683;  826.950; -809.000; -522.000
442.806; 1657.800;   -8.000;   74.000
442.928;   77.750; -859.000; -604.000
443.051;  -45.250; -577.000; -373.000
443.173;  -93.575; -341.000; -339.000
443.295;  -77.750; -263.000; -371.000
443.418;  -86.250; -321.000;  -29.000
443.540;    8.900; -106.000;   -4.000
443.662; -125.000; -563.000; -465.000
443.785;   -6.925;  335.000;  199.000
443.907; -134.750; -362.000; -208.000
444.029; -128.775; -767.000; -494.000
444.152; -153.100; -644.000; -554.000
444.274;  -37.100;  -18.000;  -24.000
444.396; -124.500; -461.000; -221.000
444.518; -127.125; -691.000; -454.000
444.640; -123.950; -268.000; -111.000
444.763;   -6.750;  388.000;  249.000
444.885; -112.925; -432.000; -392.000
445.007;  -26.750;   35.000;   86.000
445.129; -124.275; -610.000; -515.000
445.251; -105.675; -372.000; -439.000
445.373; -144.450; -537.000; -386.000
445.495;   11.900;  242.000;  350.000
445.617;   53.050;  853.000;  753.000
445.739;  -61.050; -215.000;  -97.000
445.861;  -32.150; -245.000; -112.000
445.984;  -24.550; -267.000; -101.000
446.105;  286.875; -418.000; -251.000
446.227;  811.125; -176.000;  -19.000
446.349;   38.775; -358.000; -249.000
446.471;  -85.475; -615.000; -448.000
446.593;  -57.225; -316.000;   19.000
446.715;   16.275;  -67.000;   41.000
446.837;   57.200;  697.000;  832.000
446.959; -108.350; -457.000; -478.000
447.081; -150.550; -628.000; -518.000
447.203;   40.175;  862.000;  834.000
447.325; -105.225; -270.000;   42.000
447.446;    4.800;  286.000;  530.000
447.568; -154.225; -921.000; -803.000
447.690;  -73.700; -236.000; -245.000
447.812; -153.750; -798.000; -519.000
447.933;  -37.450;  155.000;  127.000
448.055;  -78.875; -306.000; -261.000
448.177;  213.175;   31.000;   79.000
448.299;  135.050; -935.000; -727.000
448.420;   35.150;  -25.000;  159.000
448.542;  -57.025;   -3.000;   33.000
448.664;  -26.500;  109.000;  322.000
448.785;  -43.050;  265.000;   83.000
448.907;  -65.625; -614.000; -353.000
449.028;  -38.300; -771.000; -471.000
449.150;   72.000;  492.000;  589.000
449.272; -195.075;-1044.000; -913.000
449.393;   22.800;  612.000;  694.000
449.515; -147.200; -634.000; -581.000
449.636;  -48.875; -264.000; -155.000
449.758;   77.400;  763.000;  622.000
449.879;  -95.175; -498.000; -396.000
450.001;  -80.650; -149.000;  -49.000
450.122;  -49.750;  -95.000;  162.000
450.244;  -26.275;   37.000;  364.000
450.365; -101.225; -495.000; -301.000
450.486;  -39.575;   80.000;  268.000
450.608;   18.525;  393.000;  326.000
450.729;   50.300;  578.000;  645.000
450.850;  -29.775; -574.000; -466.000
450.972;  519.625; -552.000; -389.000
451.093; 3621.175;  190.000;  588.000
451.214; 1442.025; -516.000; -337.000
451.336;  270.950;  773.000;  579.000
451.457;   38.675;  264.000;  393.000
451.578;  -58.200; -118.000;  -74.000
451.699; -133.275; -546.000; -540.000
451.821;  -72.050; -284.000;  -50.000
451.942;  -11.675;  278.000;  285.000
452.063;   31.650;  228.000;  419.000
452.184;  411.975;  -54.000;  -49.000
452.305;  835.650;  103.000;  170.000
452.427;   70.475; -549.000; -301.000
452.548;  -34.525;   23.000;   79.000
452.669;  -33.000; -257.000;  -89.000
452.790;  -35.150;    3.000;  -18.000
452.911;  -19.925;  195.000;  259.000
453.032;  -60.425; -289.000;  -60.000
453.153;  -39.150;  -29.000;   81.000
453.274;   77.650;  737.000;  868.000
453.395;  -55.150;  -51.000;  175.000
453.516;  142.350; 1317.000; 1388.000
453.637;  -75.325; -205.000; -150.000
453.758;  -47.175;   15.000;   69.000
453.879; -126.775; -462.000; -250.000
454.000;   78.675; 1086.000;  948.000
454.121; -121.975; -554.000; -326.000
454.242; -116.675; -599.000; -383.000
454.362;  -71.600;  -99.000;  114.000
454.483;  -32.025; -309.000; -229.000
454.604;   64.300;  512.000;  580.000
454.725; -132.525; -627.000; -555.000
454.846; -129.200; -474.000; -406.000
454.967;  -20.125;  230.000;  539.000
455.087;  -55.700;  179.000;  153.000
455.208;   19.300;  554.000;  856.000
455.329;  -79.775;  -22.000;   82.000
455.450;   34.675;  473.000;  633.000
455.570;  -96.025; -234.000; -211.000
455.691;  -37.275;  201.000;  407.000
455.812; -125.725; -270.000;  -92.000
455.932;  -60.825;  107.000;  -97.000
456.053;  -81.700;   36.000;   24.000
456.173; -111.850; -433.000; -355.000
456.294; -145.350; -476.000; -303.000
456.415;  -64.975;  -73.000;   70.000
456.535;  -49.550;  297.000;  273.000
456.656;  -48.950;  132.000;  240.000
456.776;  -80.975;    3.000;  298.000
456.897;   -3.750;  308.000;  513.000
457.017;  -87.750; -153.000;   -3.000
457.138;  -92.250; -402.000; -249.000
457.258;  -23.800;  263.000;  224.000
457.379;  -13.775;  509.000;  521.000
457.499;  -34.050;  443.000;  432.000
457.620; -133.225; -407.000; -231.000
457.740; -102.450; -132.000;  -11.000
457.860;  -60.200;   87.000;   44.000
457.981;  -57.675;  132.000;  124.000
458.101;  -73.175;  -89.000;   40.000
458.221;  -21.600;  336.000;  402.000
458.342;  -68.200;   -4.000;  -37.000
458.462;   -6.275;  617.000;  352.000
458.582;  -62.450; -302.000; -294.000
458.703;  -15.100;  303.000;  154.000
458.823;  -30.575;   22.000;  163.000
458.943;    5.600;  341.000;  467.000
459.063;  -19.875; 1124.000;  192.000
459.183;  -26.125;  328.000;  313.000
459.304;    5.850;  315.000;  517.000
459.424;  -68.925; -246.000;  -89.000
459.544;  247.200;  388.000;  764.000
459.664;  647.225;  499.000;  506.000
459.784;  250.475; 1004.000; 1175.000
459.904;   40.825;  867.000;  744.000
460.024;   86.275;  867.000;  684.000
460.144;   18.225;  449.000;  554.000
460.264;  -11.725;  515.000;  327.000
460.385;  -96.100; -145.000; -119.000
460.505;   36.100;  905.000;  858.000
460.625; -103.075;  -17.000;  -68.000
460.745;  -21.125;  396.000;  541.000
460.864;  -49.125;  153.000;  469.000
460.984;   22.875;  499.000;  573.000
461.104;  128.125; 1656.000; 1775.000
461.224;   15.350;  657.000;  650.000
461.344;  -34.325;  431.000;  360.000
461.464;  -28.600;  258.000;  513.000
461.584;  -16.975;  283.000;  466.000
461.704;  -33.475;   58.000;  108.000
461.824;  -46.175;  238.000;  259.000
461.943;  -33.200;  191.000;  130.000
462.063;  -73.675;    2.000;  324.000
462.183;   52.325;  639.000;  717.000
462.303;   98.450; 1678.000; 1230.000
462.422;   34.750;  781.000;  840.000
462.542;  -41.100;  271.000;  391.000
462.662;   39.650;  353.000;  380.000
462.782;  197.475;  833.000;  572.000
462.901;  389.600;  545.000;  717.000
463.021;  239.150; 1702.000; 1638.000
463.141;   -6.625;  337.000;  770.000
463.260;  -37.225;  614.000;  474.000
463.380;   17.225;  902.000;  884.000
463.499;  -38.100;  342.000;  332.000
463.619;  -35.050;  581.000;  559.000
463.738;  115.325; 1644.000;  903.000
463.858;   26.325;  657.000;  811.000
463.978;  -46.875;  542.000;  396.000
464.097;   46.925;  921.000; 1114.000
464.217;   86.450; 1196.000; 1143.000
464.336;   89.550; 1068.000; 1130.000
464.455;  -32.250;  328.000;  659.000
464.575;   57.075;  597.000;  602.000
464.694;  185.075; 1204.000; 1179.000
464.814;  117.600; 1190.000; 1138.000
464.933;   66.975; 1095.000; 1027.000
465.052;  110.475; 1412.000; 1054.000
465.172;   79.500;  922.000;  799.000
465.291;  148.150; 1376.000; 1320.000
465.410;    6.900;  462.000;  735.000
465.530;  101.300; 1355.000; 1310.000
465.649;   63.425; 1209.000; 1273.000
465.768;  145.200; 1673.000; 1508.000
465.888;   51.900;  941.000; 1174.000
466.007;  101.075; 1335.000; 1440.000
466.126;   -0.700;  721.000;  641.000
466.245;   53.925; 1176.000; 1187.000
466.364;   14.625;  950.000; 1060.000
466.484;   67.225; 1024.000; 1213.000
466.603;   45.900; 1101.000; 1222.000
466.722;  141.050; 1490.000; 1769.000
466.841;   83.400; 1151.000; 1401.000
466.960;   52.525; 1069.000;  972.000
467.079;  138.750; 1971.000; 1786.000
467.198;   47.225; 1238.000; 1181.000
467.317;   78.400; 1768.000; 1162.000
467.436;   75.400; 1709.000; 1261.000
467.555;  116.725; 1796.000; 1746.000
467.674;   71.750; 1227.000; 1329.000
467.793;   50.675; 1376.000; 1374.000
467.912;   91.475; 1658.000; 1539.000
468.031;  125.050; 2038.000; 1930.000
468.150;  133.100; 1842.000; 1837.000
468.269;  197.750; 2313.000; 2090.000
468.388;  206.950; 2168.000; 2339.000
468.507;  246.375; 2884.000; 2903.000
468.626;  259.850; 2555.000; 2541.000
468.744;  136.025; 2018.000; 2174.000
468.863;  200.225; 2312.000; 2523.000
468.982;   91.975; 1503.000; 1555.000
469.101;  218.025; 2788.000; 2692.000
469.220;  162.950; 2333.000; 2176.000
469.338;  245.525; 2935.000; 3051.000
469.457;  184.700; 2719.000; 2545.000
469.576;  337.325; 3953.000; 3784.000
469.695;  229.525; 2877.000; 3066.000
469.813;  428.825; 4148.000; 4192.000
469.932;  388.550; 4255.000; 4485.000
470.051;  419.150; 4075.000; 4161.000
470.169;  774.825; 4470.000; 4338.000
470.288; 1257.200; 4700.000; 4809.000
470.406;  770.650; 5059.000; 5194.000
470.525;  633.000; 6101.000; 5787.000
470.644;  649.575; 6847.000; 6794.000
470.762;  825.275; 8397.000; 7873.000
470.881;  883.400; 8651.000; 8464.000
470.999; 1030.450; 9685.000; 9151.000
471.118; 1080.650;11174.000;10711.000

