
Integration time [ms]: 200.000
Averaging Nr. [scans]: 10
Smoothing Nr. [pixels]: 0
Data measured with spectrometer [name]: 2101012U2
Wave   ;Sample   ;Dark     ;Reference
[nm]   ;[counts] ;[counts] ;[counts] 

197.733;  136.800;  516.000;  404.000
197.879; -196.700; -610.000; -634.000
198.025; -106.600; -475.000; -420.000
198.171; -156.900; -602.000; -612.000
198.317;  -52.400; -401.000; -316.000
198.463; -169.600; -655.000; -404.000
198.609;  101.200;  181.000; -137.000
198.755; -160.200; -644.000; -410.000
198.901; -135.600; -505.000; -424.000
199.047; -116.800; -615.000; -488.000
199.193;  -81.000; -230.000; -468.000
199.339;  -57.300; -222.000; -369.000
199.485;   80.600;  330.000;  271.000
199.631;   33.100;  227.000;  310.000
199.777; -110.900; -466.000; -398.000
199.923; -104.500; -610.000; -424.000
200.069;   12.400; -141.000;  -58.000
200.215;  121.700;  128.000;  453.000
200.361;   74.100;  243.000;  477.000
200.507; -127.800; -600.000; -373.000
200.653;  -54.900; -371.000; -194.000
200.798;  -73.700; -215.000; -125.000
200.944;    0.200; -146.000;  -41.000
201.090;   79.400;   61.000;  222.000
201.236;   10.800; -116.000; -158.000
201.382;  277.900;  874.000;  903.000
201.528;    2.400;  -58.000;  -48.000
201.674;  -53.200; -386.000; -293.000
201.819; -106.000; -540.000; -439.000
201.965; -213.200; -699.000; -447.000
202.111;  -59.100; -273.000; -226.000
202.257;  -86.600; -250.000; -238.000
202.402;   34.100;   13.000;  -36.000
202.548;  -63.100; -169.000; -116.000
202.694;  187.300;  410.000; -183.000
202.840; -177.700; -603.000; -531.000
202.985; -143.100; -681.000; -639.000
203.131; -225.900; -832.000; -666.000
203.277;  -13.600; -199.000; -262.000
203.423; -112.000; -434.000; -520.000
203.568;  -90.100; -462.000; -237.000
203.714; -117.600; -535.000; -542.000
203.860; -188.100; -682.000; -641.000
204.005;   38.800;  112.000;  167.000
204.151;  182.500;  561.000;  556.000
204.296; -108.100; -354.000; -221.000
204.442; -159.200; -600.000; -547.000
204.588; -140.300; -592.000; -579.000
204.733;   63.100;  178.000;  168.000
204.879; -306.200;-1018.000; -822.000
205.025;   11.600;  -99.000;  126.000
205.170;   30.000;  -17.000;   94.000
205.316;  190.600;  438.000;  661.000
205.461; -180.200; -698.000; -554.000
205.607;  216.800;  609.000;  665.000
205.752; -172.800; -626.000; -551.000
205.898; -108.000; -501.000; -391.000
206.043; -128.800; -578.000; -506.000
206.189;  -90.700; -243.000; -285.000
206.334;  181.600;  554.000;  606.000
206.480;  161.600;  409.000;  239.000
206.625; -161.700; -529.000; -552.000
206.771;  -92.700; -451.000; -373.000
206.916;  -61.400; -210.000; -537.000
207.062; -165.400; -545.000; -591.000
207.207; -117.700; -546.000; -443.000
207.353;  135.200;  185.000;  460.000
207.498;   52.400;  196.000;   85.000
207.643; -112.700; -501.000; -370.000
207.789; -253.800;-1069.000; -910.000
207.934; -199.500; -665.000; -713.000
208.080;  -40.600; -154.000;   66.000
208.225;   13.600;  -22.000;  -57.000
208.370; -156.500; -727.000; -619.000
208.516; -143.100; -741.000; -487.000
208.661;  -20.800; -127.000;  -69.000
208.806;  -34.500; -165.000; -171.000
208.952; -289.200;-1044.000; -731.000
209.097;  180.500;  378.000;  349.000
209.242;  -85.000; -307.000; -382.000
209.387;   99.800;  392.000;  350.000
209.533;  -96.200; -321.000; -350.000
209.678;  178.900;  472.000;  543.000
209.823; -113.600; -408.000; -310.000
209.969; -228.400; -860.000; -757.000
210.114; -227.000; -907.000; -719.000
210.259; -257.200; -939.000; -889.000
210.404;  -11.000; -171.000;  103.000
210.549;   39.700;  108.000;    3.000
210.695;  -15.000;   -3.000;  -95.000
210.840;   96.300;   94.000;   67.000
210.985; -142.000; -484.000; -303.000
211.130;  162.800;  268.000;  406.000
211.275;   52.100;  207.000;  199.000
211.420;  -85.900; -300.000; -289.000
211.566; -121.600; -536.000; -489.000
211.711;   49.800;  218.000;  157.000
211.856; -141.800; -545.000; -519.000
212.001;   23.900;  151.000;   44.000
212.146;    4.100;  153.000;   49.000
212.291;  -47.200; -210.000; -186.000
212.436;  -28.300; -280.000;   -6.000
212.581; -144.700; -685.000; -653.000
212.726; -147.500; -487.000; -538.000
212.871;  -76.600; -552.000; -217.000
213.016; -321.600;-1172.000;-1029.000
213.161;  134.700;  406.000;  291.000
213.306; -154.900; -435.000; -577.000
213.451; -189.100; -778.000; -689.000
213.596; -124.000; -455.000; -347.000
213.741; -109.000; -448.000; -538.000
213.886; -151.200; -498.000; -517.000
214.031;  -37.600; -294.000; -124.000
214.176; -108.900; -408.000; -341.000
214.321;  -39.700; -296.000; -157.000
214.466;  -45.400; -163.000;  -43.000
214.611;   16.600;  -61.000;  -10.000
214.756; -252.200; -948.000; -858.000
214.901;  -35.800; -388.000; -226.000
215.046; -259.100; -797.000; -825.000
215.191;   67.800;  128.000;   35.000
215.336;  -19.900; -157.000;  -19.000
215.480; -111.700; -684.000; -505.000
215.625;   -8.600; -175.000;  -19.000
215.770; -155.900; -757.000; -662.000
215.915;    4.900;   -5.000;  -97.000
216.060;   17.400; -113.000;  -21.000
216.205; -253.500; -731.000; -779.000
216.349; -109.500; -470.000; -533.000
216.494; -276.100; -939.000; -867.000
216.639; -232.200; -823.000; -888.000
216.784; -173.900; -577.000; -525.000
216.929;  117.200;  392.000;  281.000
217.073;  -58.900; -244.000;  -31.000
217.218;   32.300;   78.000;  -47.000
217.363; -178.500; -656.000; -618.000
217.507; -149.600; -623.000; -588.000
217.652; -267.000; -845.000; -874.000
217.797; -170.800; -708.000; -659.000
217.942; -227.300; -856.000; -720.000
218.086;  178.100;  608.000;  539.000
218.231;  -62.100; -174.000;  -26.000
218.376;  -81.900; -337.000; -229.000
218.520;   -4.900;  -41.000;   96.000
218.665;  -74.900; -338.000; -204.000
218.810; -105.000; -275.000; -233.000
218.954;   25.900;  201.000;   35.000
219.099; -221.600; -713.000; -963.000
219.243; -112.700; -589.000; -554.000
219.388;  -70.800; -264.000; -136.000
219.532;  -13.700; -116.000; -116.000
219.677; -177.500; -564.000; -521.000
219.822;   24.200;   33.000;   89.000
219.966;    5.600;   17.000;  -99.000
220.111;  -27.800; -328.000;  -40.000
220.255; -220.100; -797.000; -750.000
220.400;   -5.900; -180.000; -146.000
220.544; -145.700; -516.000; -450.000
220.689;  -77.800; -422.000; -451.000
220.833;   -7.700; -123.000;  -58.000
220.978;  -93.000; -393.000; -563.000
221.122;   96.100;  319.000;  307.000
221.267; -242.800; -906.000; -837.000
221.411; -122.300; -478.000; -394.000
221.555;  -22.700; -104.000;  -23.000
221.700;  -99.400; -329.000; -222.000
221.844;   89.500;  255.000;  272.000
221.989;  -79.300; -328.000; -311.000
222.133;  -64.700; -289.000; -307.000
222.277;  -17.100;    5.000;   78.000
222.422;   40.600;  227.000;  113.000
222.566;  -57.300; -381.000; -214.000
222.711; -132.600; -414.000; -479.000
222.855; -177.200; -643.000; -586.000
222.999; -135.500; -642.000; -717.000
223.144;  -42.500; -195.000; -194.000
223.288;  124.200;  423.000;  251.000
223.432;   58.300;  184.000;  230.000
223.576;   40.800;  152.000;  -21.000
223.721;   97.300;  364.000;  273.000
223.865; -101.600; -472.000; -475.000
224.009;  593.400; 1673.000; 1631.000
224.153; -164.800; -660.000; -671.000
224.298; -142.300; -531.000; -489.000
224.442;    8.400;  -74.000;  -33.000
224.586;   -4.500; -169.000; -106.000
224.730; -189.700; -858.000; -670.000
224.875; -227.600; -739.000; -688.000
225.019;   50.500;  102.000;  188.000
225.163;  125.800;  208.000;  341.000
225.307;   59.400;   97.000;  -91.000
225.451;  120.800;  360.000;  481.000
225.595;   59.200;  264.000;  176.000
225.739;  -38.400; -170.000;  -94.000
225.884;   28.400;   86.000;    5.000
226.028; -204.600; -760.000; -626.000
226.172;  -69.700; -260.000; -273.000
226.316; -258.700; -941.000; -902.000
226.460; -142.300; -645.000; -493.000
226.604; -110.400; -406.000; -400.000
226.748; -199.400; -836.000; -733.000
226.892;  -36.300; -227.000; -181.000
227.036; -103.400; -537.000; -447.000
227.180; -131.400; -551.000; -375.000
227.324; -131.000; -561.000; -580.000
227.468; -219.700; -819.000; -717.000
227.612;   61.700;  242.000;  -28.000
227.756; -189.100; -845.000; -698.000
227.900;  109.300;  342.000;  441.000
228.044; -121.400; -509.000; -290.000
228.188;  128.300;  448.000;  568.000
228.332; -192.300; -546.000; -472.000
228.476;  -44.500; -223.000; -149.000
228.620;  -49.700; -210.000; -150.000
228.764;  178.500;  431.000;  349.000
228.908;  -47.400; -155.000;   30.000
229.052; -112.300; -615.000; -528.000
229.195;    5.400; -172.000;   13.000
229.339;  -38.600; -235.000; -305.000
229.483;  -65.300;    5.000; -162.000
229.627;    0.000; -156.000;  139.000
229.771;  -67.100; -218.000; -294.000
229.915;   49.000;  230.000;   79.000
230.059; -179.000; -648.000; -663.000
230.202;  -67.700; -370.000; -317.000
230.346;  -48.200; -107.000;  107.000
230.490; -133.200; -489.000; -521.000
230.634; -226.300; -736.000; -553.000
230.777;  172.600;  478.000;  509.000
230.921; -115.900; -450.000; -359.000
231.065;  -84.500; -246.000; -286.000
231.209;   75.300;  261.000;  265.000
231.352;   66.700;   54.000;   40.000
231.496;   44.600;  568.000;  188.000
231.640; -152.800; -693.000; -621.000
231.783;  120.200;  546.000;  525.000
231.927;  -70.500; -294.000; -365.000
232.071; -259.900; -962.000; -736.000
232.214; -223.900; -980.000; -764.000
232.358; -207.700; -683.000; -599.000
232.502;   22.900;  -19.000;    7.000
232.645; -292.600;-1090.000; -927.000
232.789;  -12.300; -257.000; -218.000
232.933;  -89.300; -407.000; -224.000
233.076; -282.000;-1038.000; -897.000
233.220; -226.200; -752.000; -777.000
233.363; -144.900; -669.000; -477.000
233.507;  145.000;  371.000;  129.000
233.650; -190.900; -764.000; -834.000
233.794;  106.000;  438.000;  461.000
233.938; -106.500; -530.000; -362.000
234.081;  -74.300;  -93.000;   31.000
234.225; -139.700; -631.000; -539.000
234.368; -250.700; -773.000; -723.000
234.512;  -55.700; -385.000; -299.000
234.655; -175.100; -582.000; -555.000
234.798; -137.200; -493.000; -466.000
234.942; -256.300; -884.000;-1002.000
235.085; -142.000; -651.000; -443.000
235.229; -146.700; -405.000; -410.000
235.372;  -76.400; -247.000; -191.000
235.516; -106.600; -397.000; -321.000
235.659;   55.900;   92.000;  121.000
235.802;   -2.700;  -38.000;  -22.000
235.946;   49.900;  335.000;  215.000
236.089;   61.200;  126.000;  250.000
236.233;  131.900;  275.000;  298.000
236.376;  -72.100; -235.000; -378.000
236.519;  -70.500; -297.000; -319.000
236.663;  -13.400; -215.000; -117.000
236.806; -261.600;-1029.000; -999.000
236.949;  110.500;  543.000;  431.000
237.092;  142.000;  412.000;  391.000
237.236; -180.400; -589.000; -502.000
237.379;  157.400;  352.000;  428.000
237.522; -226.600; -879.000; -768.000
237.666;  -13.500; -271.000;   18.000
237.809; -268.400; -851.000; -823.000
237.952;  114.400;  469.000;  271.000
238.095; -156.800; -447.000; -442.000
238.238;  221.400;  688.000;  700.000
238.382;   -0.300;  166.000;  103.000
238.525; -126.800; -598.000; -511.000
238.668; -279.000;-1060.000; -985.000
238.811; -174.100; -638.000; -643.000
238.954; -125.300; -483.000; -334.000
239.097;  205.600;  617.000;  664.000
239.241;   38.700;  394.000;  326.000
239.384;  -70.300; -254.000; -214.000
239.527; -117.800; -424.000; -224.000
239.670; -280.200; -994.000;-1091.000
239.813; -231.700; -696.000; -658.000
239.956;  183.200;  579.000;  473.000
240.099; -227.400; -778.000; -725.000
240.242;  163.700;  428.000;  432.000
240.385;  133.600;  466.000;  450.000
240.528; -141.600; -706.000; -473.000
240.671;   43.000;  189.000;  134.000
240.814;  -83.800; -441.000; -158.000
240.957; -228.800; -767.000; -578.000
241.100; -187.300; -779.000; -755.000
241.243; -280.500;-1234.000; -893.000
241.386; -131.300; -508.000; -379.000
241.529; -172.900; -735.000; -547.000
241.672; -113.500; -566.000; -495.000
241.815; -241.400; -832.000; -808.000
241.958;    1.700; -125.000; -182.000
242.101; -144.300; -545.000; -390.000
242.244;  -41.100; -270.000; -325.000
242.387;  -42.400; -304.000; -246.000
242.530;  162.700;  470.000;  134.000
242.673;  -90.800; -381.000; -309.000
242.815; -242.400; -925.000; -899.000
242.958; -123.000; -482.000; -381.000
243.101;   28.300;  132.000;  187.000
243.244; -150.800; -564.000; -521.000
243.387;  -87.100; -313.000; -316.000
243.530; -193.600; -657.000; -674.000
243.672;    7.900;   43.000;  -92.000
243.815; -115.700; -355.000; -283.000
243.958;    7.300;   98.000;  -26.000
244.101;   17.000;   59.000;  -16.000
244.243;   32.000;  -47.000;  101.000
244.386; -241.100; -761.000; -630.000
244.529;  -26.200; -132.000; -139.000
244.672; -323.800;-1154.000; -951.000
244.814; -190.700; -621.000; -794.000
244.957; -117.100; -380.000; -304.000
245.100; -160.100; -489.000; -489.000
245.242; -127.800; -387.000; -374.000
245.385;   16.000;  -59.000;  -39.000
245.528; -246.300; -871.000; -705.000
245.670;  202.500;  612.000;  634.000
245.813; -139.500; -599.000; -547.000
245.956;  -36.500; -324.000; -275.000
246.098; -112.900; -508.000; -650.000
246.241;    5.800;  194.000;   48.000
246.383;   -5.600; -119.000;  -73.000
246.526; -174.000; -454.000; -525.000
246.669; -251.100; -889.000; -780.000
246.811;   57.000;  172.000;   -1.000
246.954; -119.000; -512.000; -426.000
247.096;  -63.000;  -84.000;   -6.000
247.239; -160.900; -482.000; -445.000
247.381; -135.400; -647.000; -488.000
247.524;  210.600;  645.000;  679.000
247.666;   19.700;   58.000;   11.000
247.809; -252.600; -887.000; -691.000
247.951;  -14.900;  -75.000;  138.000
248.094;   93.900;  432.000;  308.000
248.236; -326.400;-1262.000;-1238.000
248.378;   -0.900; -356.000;  -81.000
248.521;  -49.800; -334.000; -337.000
248.663;  -76.400; -236.000; -267.000
248.806;  -17.200; -300.000; -266.000
248.948; -219.900; -886.000; -763.000
249.090; -115.700; -428.000; -398.000
249.233; -110.000; -344.000; -381.000
249.375; -111.000; -474.000; -451.000
249.518;  -27.700;  -83.000; -133.000
249.660;   20.600; -103.000;    3.000
249.802; -367.500;-1303.000;-1189.000
249.945; -164.100; -612.000; -540.000
250.087; -225.400; -834.000; -768.000
250.229; -112.600; -362.000; -480.000
250.371; -127.100; -494.000; -439.000
250.514;  -98.700; -310.000; -244.000
250.656; -129.200;   69.000;  102.000
250.798; -235.700; -849.000; -800.000
250.940; -124.600; -322.000; -322.000
251.083;  -48.600; -335.000; -111.000
251.225;  113.800;  338.000;  310.000
251.367;  -52.300; -274.000; -373.000
251.509;  -53.600; -265.000; -210.000
251.651; -174.800; -731.000; -671.000
251.794;  133.000;  538.000;  632.000
251.936; -204.600; -821.000; -747.000
252.078; -150.300; -540.000; -461.000
252.220; -167.400; -645.000; -477.000
252.362;  149.200;  344.000;  462.000
252.504; -133.200; -677.000; -584.000
252.646; -235.800; -875.000; -722.000
252.788;   16.900;   14.000; -128.000
252.931; -101.700; -257.000; -253.000
253.073;  -88.700; -376.000; -317.000
253.215;   13.400;  141.000;  122.000
253.357;   -7.200;   82.000; -153.000
253.499; -103.000; -374.000; -234.000
253.641; -169.800; -749.000; -594.000
253.783; -148.400; -609.000; -527.000
253.925; -171.900; -586.000; -591.000
254.067; -199.500; -744.000; -667.000
254.209;  -69.900; -391.000; -259.000
254.351; -283.700; -865.000; -883.000
254.493; -143.200; -441.000; -417.000
254.635; -195.200; -936.000; -818.000
254.777; -188.500; -752.000; -687.000
254.918; -157.100; -512.000; -430.000
255.060; -135.100; -551.000; -395.000
255.202; -100.900; -473.000; -261.000
255.344; -155.300; -658.000; -455.000
255.486; -162.400; -471.000; -406.000
255.628; -218.600; -780.000; -781.000
255.770; -179.600; -676.000; -536.000
255.912; -132.400; -559.000; -468.000
256.053; -176.700; -730.000; -508.000
256.195;  327.800; 1008.000;  903.000
256.337; -186.900; -861.000; -595.000
256.479;  175.600;  532.000;  416.000
256.621;  -75.900; -394.000; -212.000
256.762; -202.300; -789.000; -742.000
256.904;  129.600;  485.000;  487.000
257.046;  -81.800; -381.000; -271.000
257.188;  -66.500; -351.000; -264.000
257.329; -139.200; -525.000; -464.000
257.471; -224.400; -939.000; -807.000
257.613; -113.600; -584.000; -498.000
257.755; -302.300;-1073.000; -982.000
257.896;   60.300;  286.000;  392.000
258.038; -140.300; -403.000; -352.000
258.180;  -58.200; -354.000; -279.000
258.321; -170.400; -581.000; -457.000
258.463;   24.700;  -71.000;  133.000
258.605; -202.500; -562.000; -570.000
258.746; -204.800; -886.000; -772.000
258.888; -316.300;-1026.000;-1020.000
259.029;   63.900;  121.000;   -8.000
259.171; -162.700; -614.000; -550.000
259.313;   26.500;  -49.000;  -47.000
259.454; -162.900; -536.000; -414.000
259.596; -126.200; -483.000; -390.000
259.737; -127.500; -590.000; -474.000
259.879;  102.500;  217.000;  311.000
260.020;  228.400;  901.000;  636.000
260.162;  -26.600; -146.000; -253.000
260.303; -222.600; -768.000; -687.000
260.445; -151.900; -609.000; -613.000
260.586;   71.000;  392.000;  157.000
260.728;  -76.000; -360.000; -248.000
260.869; -141.300; -350.000; -343.000
261.011;  229.000;  706.000;  537.000
261.152;  -93.700; -479.000; -319.000
261.293; -131.400; -576.000; -595.000
261.435;  -75.500; -219.000; -184.000
261.576;  -87.500; -455.000; -325.000
261.718;  144.100;  420.000;  470.000
261.859; -245.100; -940.000; -949.000
262.000; -264.000; -951.000;-1016.000
262.142;  -29.700;  -52.000;  -60.000
262.283; -250.900; -808.000; -691.000
262.424; -154.100; -666.000; -625.000
262.566; -327.400;-1161.000; -983.000
262.707; -218.600; -840.000; -830.000
262.848; -249.800; -769.000; -726.000
262.990;  -96.700; -362.000; -345.000
263.131;  242.600;  650.000;  681.000
263.272;   24.200;  -61.000;  -41.000
263.413; -165.900; -589.000; -561.000
263.555; -126.800; -669.000; -143.000
263.696; -131.400; -550.000; -641.000
263.837;  -84.100; -449.000; -551.000
263.978;   19.400;   -5.000;  -77.000
264.119;  -74.300; -283.000; -264.000
264.261; -250.700; -847.000; -630.000
264.402;   13.800;   33.000;   40.000
264.543; -129.300; -509.000; -524.000
264.684;   -8.900;   61.000;  -50.000
264.825; -149.300; -816.000; -538.000
264.966;   23.900;  -84.000;  -67.000
265.107; -213.300; -646.000; -670.000
265.248; -215.100; -825.000; -812.000
265.390;  -10.800;  152.000;   -9.000
265.531;  -18.600; -238.000; -107.000
265.672; -185.300; -557.000; -630.000
265.813;  171.600;  563.000;  439.000
265.954; -311.500; -959.000; -940.000
266.095;   11.400; -372.000; -322.000
266.236; -161.200; -686.000; -548.000
266.377;  -48.500; -243.000; -297.000
266.518; -130.600; -619.000; -547.000
266.659;   82.100;  170.000;  268.000
266.800;   28.000;   83.000;   85.000
266.941; -139.300; -487.000; -478.000
267.082;   55.200;  354.000;   99.000
267.223;  -72.600; -344.000; -273.000
267.364; -231.000; -892.000; -686.000
267.504;  -13.900;    3.000;  135.000
267.645;   18.400;  160.000;   67.000
267.786;  -53.900; -147.000;  -86.000
267.927; -136.900; -473.000; -379.000
268.068;  -29.700; -186.000;  -61.000
268.209; -101.800; -175.000; -413.000
268.350; -124.700; -388.000; -532.000
268.490; -141.300; -648.000; -521.000
268.631;  103.800;  127.000;  225.000
268.772; -235.400; -874.000; -647.000
268.913; -114.100; -328.000; -476.000
269.054;  -29.700; -117.000;   12.000
269.194;  -81.200; -418.000; -402.000
269.335; -290.000;-1137.000;-1074.000
269.476;  -20.300;   33.000;  -35.000
269.617;  -78.400; -347.000; -392.000
269.757; -194.200; -713.000; -646.000
269.898; -182.900; -856.000; -613.000
270.039;  -81.200; -415.000; -405.000
270.180; -285.900; -952.000; -816.000
270.320;  -54.500; -190.000; -250.000
270.461;  -60.900; -277.000; -249.000
270.602;  -17.400; -186.000; -156.000
270.742; -288.000; -868.000; -943.000
270.883;  -74.600; -442.000; -390.000
271.023;  -88.600; -358.000; -357.000
271.164; -149.600; -607.000; -528.000
271.305; -194.100; -666.000; -654.000
271.445; -175.900; -722.000; -683.000
271.586; -104.600; -462.000; -283.000
271.726;  -58.300; -397.000; -322.000
271.867; -144.700; -594.000; -534.000
272.008;  264.100; -473.000; -285.000
272.148;  257.300;  462.000;  468.000
272.289;   68.100; -113.000; -181.000
272.429;   22.500;   19.000;  185.000
272.570; -164.700; -633.000; -737.000
272.710; -214.400; -825.000; -775.000
272.851;    1.500;  113.000; -130.000
272.991; -313.600;-1173.000;-1077.000
273.131; -113.500; -419.000; -459.000
273.272; -191.700; -683.000; -723.000
273.412;   40.900; -143.000;  -31.000
273.553;  -96.500; -488.000; -507.000
273.693;  312.200;  913.000;  858.000
273.834; -187.300; -894.000; -692.000
273.974; -118.200; -664.000; -615.000
274.114; -214.800; -772.000; -560.000
274.255;  160.300;  414.000;  373.000
274.395;  -31.900; -180.000; -125.000
274.535;  127.000;  199.000;  350.000
274.676;   93.200;  225.000;   94.000
274.816;   14.700;  110.000;   34.000
274.956; -172.000; -624.000; -690.000
275.097; -159.400;-1014.000; -922.000
275.237; -226.000; -913.000; -803.000
275.377; -183.700; -778.000; -689.000
275.517; -276.800; -878.000; -937.000
275.658; -135.500; -590.000; -555.000
275.798; -153.700; -606.000; -413.000
275.938;   74.900;  215.000;  323.000
276.078; -138.700; -626.000; -395.000
276.218;   45.200;   99.000;  104.000
276.359; -282.000;-1026.000;-1024.000
276.499; -120.600; -605.000; -446.000
276.639;  -46.800; -305.000; -151.000
276.779;  -68.600; -475.000; -357.000
276.919; -205.200; -783.000; -624.000
277.059;  -35.000; -261.000; -212.000
277.199;  -83.400; -357.000; -259.000
277.340;  133.500;  287.000;  175.000
277.480; -219.700; -840.000; -693.000
277.620;   70.900;  192.000;   16.000
277.760; -396.700;-1533.000;-1294.000
277.900;   50.500;  113.000;   33.000
278.040;   53.200;  137.000;  159.000
278.180;   91.900;  270.000;  170.000
278.320;    0.900;   21.000;   56.000
278.460; -111.200; -443.000; -469.000
278.600; -177.400; -708.000; -598.000
278.740;  134.400;  448.000;  224.000
278.880; -160.000; -768.000; -791.000
279.020;   62.600; -194.000; -144.000
279.160; -176.800; -672.000; -595.000
279.300; -210.200; -926.000; -873.000
279.440; -189.500; -709.000; -622.000
279.579; -113.400;-1014.000; -929.000
279.719;  -95.600; -410.000; -394.000
279.859;  121.300;   -4.000;   41.000
279.999;   45.800; -208.000;  101.000
280.139;  -56.700; -435.000; -387.000
280.279; -134.400; -708.000; -745.000
280.419;   21.200; -229.000; -147.000
280.559;  -32.900; -259.000; -180.000
280.698; -169.000; -790.000; -639.000
280.838; -189.800; -778.000; -800.000
280.978; -177.500; -846.000; -790.000
281.118; -227.300; -811.000; -704.000
281.257;   50.100;   24.000;    6.000
281.397; -251.000;-1094.000; -960.000
281.537; -172.100; -599.000; -712.000
281.677;  -48.300; -150.000; -101.000
281.816; -161.600; -700.000; -630.000
281.956;  -67.800; -193.000; -257.000
282.096;  -90.100; -539.000; -396.000
282.235; -184.000; -672.000; -638.000
282.375;  -29.100; -243.000;  -98.000
282.515; -218.100; -715.000; -707.000
282.654;   78.100;   29.000;  106.000
282.794;   78.000;  388.000;  244.000
282.934;  -94.300; -530.000; -491.000
283.073; -272.000;-1030.000; -857.000
283.213;  -84.200; -460.000; -467.000
283.353;  -95.700; -408.000; -349.000
283.492;  -17.100; -264.000; -296.000
283.632;  -69.600; -254.000; -168.000
283.771; -199.900; -859.000; -730.000
283.911;  -89.800; -369.000; -260.000
284.050; -214.300; -794.000; -748.000
284.190; -322.500;-1229.000;-1096.000
284.329; -297.400;-1055.000; -964.000
284.469; -144.100; -516.000; -591.000
284.608; -107.300; -559.000; -598.000
284.748; -148.200; -614.000; -570.000
284.887;   -1.900;  -87.000;  -20.000
285.027; -239.100; -844.000; -892.000
285.166;  -27.300; -192.000; -249.000
285.306;   24.600; -116.000;  -33.000
285.445;  -33.400; -229.000; -343.000
285.584; -188.400; -630.000; -494.000
285.724;  -47.400; -282.000; -322.000
285.863; -214.900; -857.000; -507.000
286.002;  -80.100; -366.000; -276.000
286.142; -172.500; -715.000; -622.000
286.281; -123.500; -525.000; -493.000
286.420; -163.200; -554.000; -417.000
286.560;  236.400;  653.000;  623.000
286.699; -280.200; -958.000; -912.000
286.838; -152.300; -590.000; -591.000
286.978; -162.100; -533.000; -537.000
287.117; -277.000;-1085.000; -950.000
287.256;  -40.600; -228.000; -211.000
287.395;  -90.300; -197.000; -378.000
287.535;  -91.000; -370.000; -298.000
287.674; -128.100; -509.000; -484.000
287.813;  142.800;  661.000;  533.000
287.952; -243.700;-1010.000; -871.000
288.091; -285.600;-1049.000; -915.000
288.231;   28.000;   13.000;   15.000
288.370; -350.900;-1217.000;-1200.000
288.509; -156.400; -728.000; -645.000
288.648; -178.900; -770.000; -548.000
288.787;  -31.900; -243.000;  -87.000
288.926; -142.700; -454.000; -475.000
289.065;  268.400;  859.000;  672.000
289.204;  -71.300; -377.000; -217.000
289.344; -177.900; -791.000; -690.000
289.483;   83.300;  416.000;  304.000
289.622;  -32.400; -291.000; -149.000
289.761;  -34.700; -309.000; -166.000
289.900; -199.800; -785.000; -626.000
290.039;  -19.300;  -12.000;  -95.000
290.178;  -30.700; -274.000; -180.000
290.317; -149.900; -618.000; -479.000
290.456; -130.300; -463.000; -451.000
290.595; -280.400; -961.000; -833.000
290.734; -261.600; -904.000; -891.000
290.873; -113.300; -456.000; -420.000
291.011; -219.600; -833.000; -843.000
291.150; -189.300; -770.000; -682.000
291.289;  -34.700; -343.000; -110.000
291.428; -175.600; -599.000; -480.000
291.567; -106.100; -370.000; -442.000
291.706;   -2.100;  109.000;  154.000
291.845; -149.700; -597.000; -505.000
291.984; -326.500;-1234.000;-1061.000
292.122;  162.600;  602.000;  582.000
292.261;  127.200;  620.000;  463.000
292.400;   20.700; -144.000;  211.000
292.539; -245.100; -959.000; -813.000
292.678;  -42.200; -325.000; -300.000
292.816; -300.800;-1136.000; -965.000
292.955; -170.200; -844.000; -684.000
293.094;  -23.900; -173.000; -337.000
293.233;  -87.700; -556.000; -400.000
293.371;  -28.700; -225.000;  -84.000
293.510; -196.100; -866.000; -780.000
293.649; -277.900; -959.000; -924.000
293.787; -156.400;-1083.000;-1012.000
293.926;  -12.000; -113.000;  -32.000
294.065;  -72.300; -379.000; -290.000
294.203;  129.100;  298.000;  406.000
294.342;   61.100;   74.000;  156.000
294.481;13103.800;51180.000; -836.000
294.619;  -29.300; -425.000; -582.000
294.758; -300.400;-1230.000;-1137.000
294.896;  101.400; -125.000;    5.000
295.035; -252.600;-1040.000;-1006.000
295.174; -229.800;-1082.000; -954.000
295.312; -111.500; -323.000; -203.000
295.451;  -68.300; -307.000; -428.000
295.589;  -78.900; -389.000; -518.000
295.728;   65.900; -292.000; -165.000
295.866;   15.100;  -36.000;  -51.000
296.005; -134.000; -584.000; -341.000
296.143; -144.500; -558.000; -596.000
296.282; -186.000; -957.000; -881.000
296.420; -157.100; -657.000; -557.000
296.559; -170.900; -892.000; -633.000
296.697;  -45.400; -847.000; -665.000
296.835;   -6.400;-1141.000;-1002.000
296.974;  137.500;  -23.000;   39.000
297.112;   -7.700; -443.000; -504.000
297.251; -157.300; -815.000; -755.000
297.389;   75.600; -576.000; -438.000
297.527;   61.500; -145.000;  -83.000
297.666;  -91.500; -486.000; -438.000
297.804;  -97.500; -404.000; -264.000
297.942;   -3.100; -136.000; -161.000
298.081;   -0.700; -183.000;   63.000
298.219;  131.500;  -17.000;  -19.000
298.357;   53.100; -144.000;  -71.000
298.495;  -10.600; -810.000; -812.000
298.634;  126.700;  245.000;  219.000
298.772;   63.700; -220.000; -338.000
298.910;  -90.000; -309.000; -182.000
299.048;   22.400; -130.000; -153.000
299.187;  -80.000; -350.000; -250.000
299.325;   63.400;   52.000;  122.000
299.463;   41.300; -389.000; -299.000
299.601;  130.700; -327.000; -271.000
299.739; -247.400; -908.000; -883.000
299.877; -156.600; -791.000; -703.000
300.016; -182.400;-1095.000; -935.000
300.154;  224.800;  -19.000; -161.000
300.292;   62.500; -428.000; -348.000
300.430;   34.400; -408.000; -291.000
300.568; -226.400; -940.000; -874.000
300.706; -109.300; -366.000; -469.000
300.844; -175.100;-1108.000; -979.000
300.982;  253.500;  246.000;  282.000
301.120; -265.600; -965.000; -866.000
301.258; -119.900; -812.000; -705.000
301.396;   63.800;  104.000;  -41.000
301.534;   73.800; -218.000; -293.000
301.672;  -41.400; -664.000; -521.000
301.810;    5.300; -613.000; -545.000
301.948;  186.200;   53.000;  149.000
302.086;  834.000; -250.000;  -32.000
302.224; 1159.900; -610.000; -585.000
302.362;   25.500; -558.000; -622.000
302.500; -120.100; -923.000; -893.000
302.638;  192.800;  128.000;  245.000
302.776;   -5.200; -352.000; -408.000
302.913;  125.200;  447.000;  236.000
303.051;   -5.700;  -86.000;  -23.000
303.189;  121.300;   90.000;  118.000
303.327;  -40.900; -341.000; -256.000
303.465; -154.900; -832.000; -588.000
303.603; -173.600; -805.000; -604.000
303.740;  188.900;  417.000;  241.000
303.878;  -75.100; -800.000; -759.000
304.016; -204.800; -915.000; -790.000
304.154; -278.100;-1123.000;-1152.000
304.291;  -66.900; -505.000; -554.000
304.429;   73.900;  102.000;   74.000
304.567; -243.500; -908.000; -893.000
304.705;  -99.300; -408.000; -515.000
304.842;   95.400; -616.000; -540.000
304.980;  122.000;  215.000;   35.000
305.118;   43.700; -367.000; -365.000
305.255; -177.400; -945.000; -927.000
305.393;  108.400;  178.000;  239.000
305.531; -231.900;-1173.000; -956.000
305.668;  -98.400; -663.000; -582.000
305.806;  131.300; -358.000; -439.000
305.943;  129.200; -629.000; -637.000
306.081;  105.900; -378.000; -267.000
306.219; -188.200; -863.000; -748.000
306.356;   55.900;  158.000;   27.000
306.494;  259.900;  981.000;  761.000
306.631;    1.500;  -11.000;  -55.000
306.769;   -7.500; -613.000; -485.000
306.906;  -58.200; -284.000; -258.000
307.044;  -79.500; -473.000; -488.000
307.181; -102.600; -410.000; -332.000
307.319;  125.900;  112.000;   87.000
307.456; -341.500;-1191.000;-1153.000
307.594; -205.900; -980.000; -727.000
307.731;   -7.200; -371.000; -164.000
307.868;    8.000;  -15.000;   20.000
308.006; -252.300; -961.000; -847.000
308.143;  -74.900; -618.000; -330.000
308.281;  363.000;  -37.000; -254.000
308.418;    4.700; -748.000; -640.000
308.555; -133.600; -400.000; -250.000
308.693;  -90.900; -577.000; -573.000
308.830; -177.900; -712.000; -657.000
308.967;   24.200; -215.000;  -95.000
309.105;  -62.100; -507.000; -396.000
309.242;   68.200; -468.000; -367.000
309.379;  609.700; -577.000; -655.000
309.517;  -86.900; -936.000; -948.000
309.654; -190.300; -910.000; -734.000
309.791; -111.300; -662.000; -580.000
309.928; -239.300; -977.000; -914.000
310.065;  340.300;  819.000;  697.000
310.203;  -69.900; -825.000; -850.000
310.340;  -57.800; -465.000; -321.000
310.477; -136.600; -412.000; -516.000
310.614; -106.000; -383.000; -473.000
310.751; -124.700; -427.000; -518.000
310.889;   -6.400;    1.000;   11.000
311.026; -288.000;-1161.000; -939.000
311.163;  -73.600; -386.000; -380.000
311.300; -127.800; -512.000; -479.000
311.437; -125.300; -658.000; -619.000
311.574; -319.300;-1226.000; -985.000
311.711; -118.200; -595.000; -433.000
311.848;  -64.400; -380.000; -388.000
311.985;   78.500;  270.000;   93.000
312.122; -227.400; -932.000; -762.000
312.259; -218.400; -941.000; -994.000
312.396; -124.900; -508.000; -551.000
312.533; -164.900; -812.000; -790.000
312.670; -247.300;-1070.000; -898.000
312.807;  -37.900; -352.000; -367.000
312.944; -138.800; -513.000; -611.000
313.081;  -57.500; -150.000; -415.000
313.218; -203.200;-1111.000; -867.000
313.355;  -15.800; -531.000; -449.000
313.492;   12.100; -455.000; -292.000
313.629;  289.600;  815.000;  735.000
313.766; -303.900;-1176.000;-1008.000
313.902;    0.500; -186.000;   21.000
314.039;  -84.800; -372.000; -289.000
314.176;   85.200;  286.000;  192.000
314.313; -164.800; -569.000; -473.000
314.450; -124.000; -788.000; -684.000
314.587; -104.300; -468.000; -480.000
314.723;   27.700;  -78.000;  130.000
314.860;   74.700;  318.000;  332.000
314.997;   85.700;  223.000;  142.000
315.134;  -76.400; -385.000; -368.000
315.270;  -67.300; -480.000; -496.000
315.407; -280.200;-1094.000; -967.000
315.544; -102.200; -657.000; -538.000
315.681; -122.500; -681.000; -565.000
315.817;   53.300; -133.000; -176.000
315.954;  -48.100; -613.000; -392.000
316.091; -259.500;-1045.000;-1023.000
316.227;  -27.100;  -71.000; -179.000
316.364;   63.300;   23.000;    6.000
316.500;  -59.000; -113.000; -300.000
316.637;  -70.700; -181.000; -302.000
316.774; -156.300; -625.000; -358.000
316.910; -138.100; -598.000; -629.000
317.047; -101.200; -487.000; -351.000
317.183; -116.400; -435.000; -566.000
317.320;  -34.300; -367.000; -321.000
317.456; -124.700; -733.000; -805.000
317.593; -179.300; -598.000; -641.000
317.729;   57.800;  168.000;  -67.000
317.866; -390.900;-1434.000;-1285.000
318.002; -164.300; -708.000; -948.000
318.139; -215.700; -883.000; -867.000
318.275; -212.100;-1003.000; -738.000
318.412;  -96.300; -517.000; -336.000
318.548;  -88.300; -751.000; -720.000
318.685; -183.600; -985.000; -888.000
318.821; -151.200; -762.000; -735.000
318.957;   -9.700;   34.000;  -23.000
319.094;   97.300;  297.000;  154.000
319.230; -166.800; -756.000; -742.000
319.367;  178.100; -471.000; -520.000
319.503;   50.700; -538.000; -436.000
319.639; -184.500; -877.000; -793.000
319.775; -160.200; -750.000; -685.000
319.912;  -88.000; -424.000; -519.000
320.048; -207.900;-1184.000;-1184.000
320.184;  154.800;   59.000;   70.000
320.321; -119.800; -497.000; -467.000
320.457;  163.000;  475.000;  662.000
320.593; -107.300; -375.000; -382.000
320.729; -196.200; -732.000; -734.000
320.866; -108.000; -577.000; -635.000
321.002; -140.300; -759.000; -809.000
321.138;  -24.700; -135.000; -211.000
321.274;  121.900; -148.000; -115.000
321.410;  -61.200; -585.000; -353.000
321.546; -120.100;-1011.000; -911.000
321.683;  144.500;  400.000;  185.000
321.819;   30.600;  -48.000; -117.000
321.955; -209.200; -743.000; -722.000
322.091;  -85.200; -585.000; -540.000
322.227;  -12.800; -382.000; -202.000
322.363;  -36.900; -320.000; -215.000
322.499;  -93.600; -343.000; -331.000
322.635;  297.200;  636.000;  443.000
322.771;   63.900; -139.000;   12.000
322.907;  198.600;  129.000;  327.000
323.043;  -17.800; -115.000; -206.000
323.179;  -54.700; -394.000; -363.000
323.315;   -1.000; -401.000; -371.000
323.451;  128.600; -328.000; -236.000
323.587;  121.700;  -60.000;  -77.000
323.723;    8.100; -682.000; -601.000
323.859;  -15.600; -258.000;  -76.000
323.995;  -71.500; -467.000; -409.000
324.131; -221.500; -967.000; -892.000
324.267;  -57.000; -254.000; -276.000
324.402; -277.100; -960.000; -983.000
324.538;    7.900; -279.000; -104.000
324.674;   48.400;  164.000;   77.000
324.810;  206.300;  226.000;  308.000
324.946;  -36.900; -810.000; -658.000
325.082;  -98.400; -568.000; -475.000
325.217;    2.200;  -62.000;   16.000
325.353; -184.800; -764.000; -659.000
325.489; -168.600; -540.000; -506.000
325.625; -144.700; -579.000; -525.000
325.760;  186.600;  517.000;  376.000
325.896;  -36.100; -515.000; -702.000
326.032;  -73.200; -403.000; -352.000
326.168;  -61.100; -462.000; -369.000
326.303;  -79.800; -352.000; -461.000
326.439;   -9.900; -336.000; -276.000
326.575;   17.400; -190.000;  -29.000
326.710;   20.600; -156.000;  -30.000
326.846;  -24.800;  146.000;  103.000
326.982; -149.100; -530.000; -548.000
327.117; -132.200; -481.000; -442.000
327.253; -154.500; -745.000; -742.000
327.388; -224.000;-1137.000;-1153.000
327.524;  -82.900; -811.000; -578.000
327.659;   -4.400;  -58.000;  -22.000
327.795;    4.900;   69.000;   45.000
327.931; -146.000; -723.000; -499.000
328.066;  -34.900; -417.000; -276.000
328.202;    9.100;   12.000; -129.000
328.337;  250.400;  957.000;  713.000
328.473;   17.000;  -12.000;  -74.000
328.608;  -38.600; -256.000; -267.000
328.743; -149.400; -799.000; -664.000
328.879;   42.200;  214.000;  114.000
329.014;  -74.500; -102.000; -122.000
329.150; -146.200; -358.000; -483.000
329.285; -150.500; -465.000; -466.000
329.421;  -95.600; -548.000; -246.000
329.556;    3.900;  -36.000;   85.000
329.691; -173.500; -633.000; -615.000
329.827; -110.700; -626.000; -480.000
329.962;  -35.800;  131.000; -301.000
330.097; -165.400; -673.000; -585.000
330.233;  -73.200; -410.000; -223.000
330.368; -211.300; -839.000; -628.000
330.503;   16.400;    3.000;   98.000
330.638;   56.900;  -93.000; -125.000
330.774; -138.800; -609.000; -530.000
330.909;  -55.900; -434.000; -244.000
331.044; -149.000; -714.000; -708.000
331.179; -344.800;-1217.000;-1109.000
331.315;   77.700;   77.000;   20.000
331.450;   78.700;  157.000;  285.000
331.585; -136.600; -805.000; -706.000
331.720; -147.800; -510.000; -460.000
331.855;   44.100;  -35.000; -102.000
331.990;  417.700;   62.000;  138.000
332.126;  233.500; -110.000;   71.000
332.261;  -32.700; -379.000; -265.000
332.396;   14.800; -135.000; -242.000
332.531; -166.100;-1074.000;-1031.000
332.666;   77.100; -519.000; -363.000
332.801; -211.900; -726.000; -807.000
332.936;   17.000; -192.000; -122.000
333.071; -223.900; -870.000; -817.000
333.206;   92.600;  307.000;  379.000
333.341;  105.700;  344.000;  418.000
333.476; -148.700; -627.000; -623.000
333.611;  -31.100; -251.000; -173.000
333.746;  -64.200; -381.000; -464.000
333.881; -248.700; -973.000; -935.000
334.016; -217.600; -936.000; -917.000
334.151; -231.400; -746.000; -702.000
334.286;   90.700;  152.000;  186.000
334.421;   14.100; -125.000; -178.000
334.556; -162.700; -611.000; -567.000
334.690; -155.100; -631.000; -577.000
334.825;  162.700;  381.000;   83.000
334.960;  -99.100; -285.000; -413.000
335.095;   37.000;  135.000;  -91.000
335.230; -164.800; -722.000; -738.000
335.365; -244.800;-1084.000; -990.000
335.499; -270.400;-1108.000;-1037.000
335.634;   42.700;    9.000;  534.000
335.769; -188.700; -755.000; -720.000
335.904; -101.200; -603.000; -561.000
336.038; -134.000; -735.000; -657.000
336.173; -226.400;-1206.000;-1194.000
336.308;   -4.500; -116.000; -189.000
336.443;   53.300; -544.000; -634.000
336.577; -186.300; -936.000; -787.000
336.712;  109.600;   -4.000;  -12.000
336.847; -113.600; -724.000; -607.000
336.981;   84.400; -272.000; -208.000
337.116;  454.400;  615.000;  501.000
337.250;  179.100; -434.000; -421.000
337.385;  386.500; -297.000; -208.000
337.520;  106.400; -632.000; -603.000
337.654;  -45.600; -215.000; -126.000
337.789; -243.100; -989.000; -933.000
337.923;  -30.200; -104.000; -205.000
338.058; -158.200; -673.000; -738.000
338.192;  -98.900; -611.000; -488.000
338.327;   21.400;  -18.000; -155.000
338.461;  -95.800; -299.000; -469.000
338.596; -160.000; -780.000; -638.000
338.730; -207.300; -767.000; -803.000
338.865;  176.100;  -46.000; -140.000
338.999; -115.100; -846.000; -702.000
339.134;  -51.800; -634.000; -536.000
339.268;   -9.300; -741.000; -603.000
339.403;  486.800; -740.000; -775.000
339.537;  144.700; -894.000; -820.000
339.671; -197.600; -829.000; -813.000
339.806;  -86.700; -556.000; -512.000
339.940;   37.200; -261.000; -235.000
340.074; -194.400; -685.000; -510.000
340.209;  -39.600; -351.000; -230.000
340.343; -173.300; -517.000; -573.000
340.477;  345.900;  998.000; 1036.000
340.612; -127.900;-1033.000; -900.000
340.746;  264.500; -199.000; -243.000
340.880; -165.400; -924.000; -785.000
341.014;   28.100;  -45.000; -154.000
341.149; -243.600; -756.000; -718.000
341.283; -203.300; -839.000; -754.000
341.417; -235.000;-1124.000; -938.000
341.551;  140.800; -768.000; -708.000
341.685;  -88.700; -633.000; -611.000
341.820; -104.600; -562.000; -493.000
341.954;  -75.500; -218.000; -349.000
342.088; -265.600;-1102.000;-1019.000
342.222;  109.200;  565.000;  618.000
342.356; -100.400; -395.000; -335.000
342.490; -187.700; -880.000; -841.000
342.624;  -99.400; -339.000; -242.000
342.758;   -8.300; -364.000; -312.000
342.892; -119.600; -710.000; -585.000
343.026;  -34.400;  -58.000; -116.000
343.160;  -94.400; -426.000; -376.000
343.294; -148.900; -474.000; -337.000
343.428;  -72.600; -488.000; -448.000
343.562;   -8.900; -172.000;  -23.000
343.696;  -42.300; -385.000; -314.000
343.830;  -16.900; -362.000; -356.000
343.964;   36.100; -231.000; -168.000
344.098; 1247.300;  199.000;   70.000
344.232;  987.200; -266.000; -127.000
344.366;   98.500; -567.000; -453.000
344.500;   44.300; -665.000; -744.000
344.634;   66.400; -324.000; -164.000
344.768;  -20.100; -531.000; -341.000
344.902;   54.300;  278.000;  256.000
345.035; -131.400; -556.000; -496.000
345.169; -252.600; -933.000; -656.000
345.303;  -81.200; -308.000; -482.000
345.437; -153.100; -826.000; -717.000
345.571; -129.500; -675.000; -594.000
345.704; -109.100; -309.000; -532.000
345.838;    4.400; -331.000; -284.000
345.972;  -88.200; -543.000; -495.000
346.106;  257.200; -179.000; -190.000
346.239;  590.900; -312.000; -243.000
346.373;   -0.100; -343.000; -302.000
346.507; -295.500; -950.000; -962.000
346.640;  228.900;  -30.000;   13.000
346.774; -123.700; -650.000; -797.000
346.908;    0.300; -138.000;  -11.000
347.041; -180.400; -646.000; -593.000
347.175;   65.200;  259.000;   27.000
347.309; -161.800; -698.000; -628.000
347.442; -201.900; -883.000; -732.000
347.576;  477.800;  670.000;  668.000
347.709;  281.700; -123.000;  -52.000
347.843; -195.200; -933.000; -825.000
347.976;   94.500;  235.000;  294.000
348.110; -333.900;-1268.000;-1186.000
348.243; -179.600; -679.000; -772.000
348.377;   23.300;  -26.000;   60.000
348.510;  123.200;  403.000;  540.000
348.644;  -19.900;  -37.000; -159.000
348.777;   87.400;  180.000;  191.000
348.911;  -67.700; -142.000; -112.000
349.044;  306.800;  471.000;  448.000
349.178;  124.300;-1069.000;-1006.000
349.311;  232.600;  141.000;  255.000
349.444;  -69.300; -927.000; -813.000
349.578;  -29.100; -347.000; -200.000
349.711; -195.600; -959.000; -862.000
349.845;  -35.300; -661.000; -591.000
349.978; -294.700;-1224.000;-1137.000
350.111; -128.400; -546.000; -612.000
350.244; -116.500; -596.000; -700.000
350.378;   26.000; -392.000; -393.000
350.511; -120.000; -393.000; -426.000
350.644; -199.400; -808.000; -806.000
350.778;   36.900;  168.000;  104.000
350.911;   47.600;  134.000;  140.000
351.044; -153.000; -685.000; -615.000
351.177;  -58.900; -321.000; -281.000
351.310;  -18.200;    3.000; -131.000
351.444; -184.600; -888.000; -788.000
351.577;  165.700;  140.000;   90.000
351.710;  247.800;  593.000;  417.000
351.843;  -52.300; -165.000;  -77.000
351.976;   42.600;  149.000;  -79.000
352.109; -186.300; -621.000; -612.000
352.242;  -32.800; -464.000; -419.000
352.376; -133.100; -580.000; -636.000
352.509;  172.900; -437.000; -356.000
352.642;  -93.200; -654.000; -604.000
352.775;  104.900; -141.000;  -98.000
352.908; -207.000; -933.000; -904.000
353.041; -222.900; -814.000; -824.000
353.174;  -88.600; -551.000; -424.000
353.307; -188.200; -753.000; -764.000
353.440;  145.000;  541.000;  453.000
353.573; -220.800; -957.000;-1008.000
353.706;  -72.100; -384.000; -558.000
353.839;  -20.500; -264.000; -220.000
353.971; -149.200; -657.000; -512.000
354.104; -159.100; -896.000; -835.000
354.237;  -87.400; -627.000; -662.000
354.370; -151.100; -846.000; -879.000
354.503; -365.000;-1231.000;-1308.000
354.636;  -37.300; -529.000; -348.000
354.769; -267.700; -937.000; -860.000
354.902;  -17.600; -230.000; -139.000
355.034;   -7.100; -164.000; -220.000
355.167;  -32.800; -262.000; -162.000
355.300; -205.100;-1061.000; -880.000
355.433; 1459.700;  -71.000;  -14.000
355.565; 2190.200; -402.000; -384.000
355.698;  561.300; -356.000; -296.000
355.831;  -69.900; -882.000; -801.000
355.964;  124.800; -285.000; -170.000
356.096; -193.500; -856.000; -843.000
356.229;   -0.900; -523.000; -530.000
356.362;  486.300; -373.000; -266.000
356.494;  940.700; -229.000; -162.000
356.627;  696.900;  269.000;  377.000
356.760; 1048.400;  120.000;   53.000
356.892; 1429.000; -286.000; -601.000
357.025;  935.100;  403.000;  389.000
357.157;  777.900; -167.000; -179.000
357.290; 1051.000; -856.000; -713.000
357.423;  257.700; -667.000; -556.000
357.555;  196.800; -217.000; -228.000
357.688;  136.800; -483.000; -364.000
357.820;  535.700; -870.000; -877.000
357.953; 5065.200; -563.000; -589.000
358.085;  981.800; -632.000; -612.000
358.218; 1320.300;-1131.000; -932.000
358.350;  287.700;  -58.000;  312.000
358.483; -295.600;-1300.000;-1187.000
358.615; -116.500;-1182.000;-1078.000
358.747; -196.800;-1187.000;-1058.000
358.880;   -3.100; -810.000; -744.000
359.012;  -18.200; -376.000; -202.000
359.145;  -85.900; -480.000; -511.000
359.277;  -25.500; -962.000; -913.000
359.409; 4214.300;  536.000;  231.000
359.542;  987.000; -738.000; -688.000
359.674;  156.400;   46.000;   13.000
359.806; -115.700; -565.000; -438.000
359.939;  -87.700; -617.000; -516.000
360.071;  -44.700; -583.000; -579.000
360.203;  -18.500; -411.000; -364.000
360.335;  111.000;  164.000;  -16.000
360.468;  294.200; -249.000; -307.000
360.600; 3337.600; -547.000; -454.000
360.732; 4293.300; -546.000; -423.000
360.864;  483.400;-1216.000;-1044.000
360.996;  345.100; -516.000; -554.000
361.129;   22.000; -389.000; -598.000
361.261;   73.000;  110.000; -113.000
361.393;  -47.200; -252.000; -214.000
361.525;   96.500;   94.000;  244.000
361.657; -112.700; -821.000; -703.000
361.789;   50.600; -139.000; -155.000
361.921;  245.300; -642.000; -593.000
362.053;  408.800;  524.000;  541.000
362.185;  124.200;  288.000;   72.000
362.318; -172.000; -709.000; -705.000
362.450;  234.900;  294.000;  444.000
362.582;   52.000; -913.000; -870.000
362.714; -104.200; -353.000; -332.000
362.846; -118.000; -606.000; -490.000
362.978; -276.900; -941.000; -811.000
363.109;   32.700; -161.000; -260.000
363.241;  503.100; -739.000; -749.000
363.373;  607.000; -649.000; -564.000
363.505; 1125.100; -186.000;  -91.000
363.637;  233.400; -787.000; -601.000
363.769; -241.800;-1067.000;-1080.000
363.901; -131.400; -596.000; -654.000
364.033; -240.300;-1103.000;-1062.000
364.165;   31.900; -283.000; -283.000
364.296;   83.700; -316.000; -177.000
364.428;   44.000;-1344.000;-1220.000
364.560; -104.700; -679.000; -661.000
364.692; -123.700; -738.000; -835.000
364.824;  278.200; -588.000; -456.000
364.955;  671.600; -402.000; -564.000
365.087; 1370.800;-1097.000; -852.000
365.219;    2.200; -686.000; -816.000
365.351; -103.100; -526.000; -572.000
365.482;  113.100;  300.000;  240.000
365.614;  -77.600; -402.000; -314.000
365.746; -170.200; -729.000; -752.000
365.877; -189.300; -706.000; -672.000
366.009;  407.200;  -35.000;  -62.000
366.141; -191.500;-1249.000;-1134.000
366.272; -179.800; -803.000; -719.000
366.404; -218.400;-1005.000; -874.000
366.535;   19.800; -139.000;  -12.000
366.667; -182.200; -644.000; -649.000
366.799;  131.600;  353.000;  203.000
366.930; -254.300; -862.000; -996.000
367.062;  186.000; -639.000; -613.000
367.193;  188.900; -872.000; -842.000
367.325;  -89.200; -580.000; -684.000
367.456;   46.800; -246.000;   31.000
367.588;  250.500; -371.000; -318.000
367.719;   75.600;  -44.000;  -45.000
367.851;  -21.200; -222.000; -241.000
367.982;  -91.700; -875.000; -732.000
368.113;  113.100; -475.000; -358.000
368.245; -269.900; -960.000; -841.000
368.376;  -36.000; -254.000; -302.000
368.508;  -28.800; -188.000; -263.000
368.639; -278.000;-1166.000;-1034.000
368.770;  -80.400; -670.000; -589.000
368.902; -156.900; -836.000; -926.000
369.033; -211.500; -906.000; -855.000
369.164; -103.800; -720.000; -653.000
369.296; -191.000; -452.000; -601.000
369.427;   -5.600; -209.000; -144.000
369.558; -102.800; -593.000; -377.000
369.689; -129.700; -721.000; -569.000
369.821; -209.300; -951.000; -845.000
369.952;   -8.700;   42.000; -108.000
370.083;  -72.300; -229.000; -108.000
370.214; -125.600; -735.000; -650.000
370.345;   20.400;   65.000;   81.000
370.477; -150.500; -810.000; -790.000
370.608;  314.800; -328.000; -264.000
370.739; -139.100;-1233.000;-1292.000
370.870; -136.400;-1102.000; -923.000
371.001;  116.400; -378.000; -467.000
371.132; -134.700; -754.000; -735.000
371.263;   18.000;  -42.000; -148.000
371.394; -216.100; -841.000; -748.000
371.525;  102.200;  345.000;  225.000
371.657; -219.800; -808.000; -670.000
371.788;  150.200;  103.000;  199.000
371.919;  266.500; -384.000; -304.000
372.050; 5105.700;  -91.000; -156.000
372.181; 1421.300; -188.000; -294.000
372.311;  497.600;   42.000; -127.000
372.442;   24.400; -457.000; -451.000
372.573;    1.200; -444.000; -340.000
372.704; -249.300;-1008.000; -980.000
372.835;  118.000; -228.000; -289.000
372.966;  -94.600; -646.000; -554.000
373.097; -138.200; -575.000; -711.000
373.228; -109.100; -717.000; -542.000
373.359;  126.300; -824.000; -536.000
373.490; 1195.000; -881.000; -727.000
373.620; 1404.200;-1001.000; -803.000
373.751; 2418.900; -332.000; -396.000
373.882;  947.100; -663.000; -733.000
374.013;   27.600; -449.000; -262.000
374.143;  -85.300; -581.000; -659.000
374.274; -215.500; -987.000; -908.000
374.405;  238.000; -388.000; -276.000
374.536;  569.200; -526.000; -387.000
374.666; 1454.600; -759.000; -807.000
374.797;  210.300; -817.000; -868.000
374.928; 1096.400; -710.000; -560.000
375.058; 1065.700; -535.000; -500.000
375.189;  135.800;  -59.000;  -93.000
375.320; -224.500; -928.000;-1034.000
375.450;  -68.600; -625.000; -616.000
375.581;  -86.100; -526.000; -436.000
375.712;  -44.300; -574.000; -250.000
375.842;  391.400; -438.000; -415.000
375.973;  254.000; -554.000; -513.000
376.103; -145.300; -665.000; -648.000
376.234; -142.600; -531.000; -552.000
376.364; -138.200; -944.000; -867.000
376.495;  542.400;  925.000;  529.000
376.625;  -33.000; -472.000; -485.000
376.756;   42.000; -709.000; -678.000
376.886; -238.200;-1178.000;-1026.000
377.017;   70.100;-1048.000;-1061.000
377.147;  501.200; -786.000; -782.000
377.278;  158.700;  174.000;  228.000
377.408; -240.900; -801.000; -815.000
377.538; -188.600; -707.000; -693.000
377.669; -110.500; -537.000; -613.000
377.799; -159.500; -645.000; -635.000
377.929; -113.100; -610.000; -428.000
378.060; -228.600; -781.000; -847.000
378.190; -121.900; -726.000; -531.000
378.320;  -88.400; -401.000; -406.000
378.451;   22.500; -131.000;  -22.000
378.581;   45.900;  -67.000; -110.000
378.711;  331.200; 1035.000;  866.000
378.841;  -64.400; -533.000; -675.000
378.972; -180.400; -871.000; -751.000
379.102;  -40.700; -652.000; -579.000
379.232;  -23.600; -126.000;  -73.000
379.362; -207.200;-1001.000; -885.000
379.492;   -1.600; -373.000; -424.000
379.623;  177.900;    0.000;  111.000
379.753; -216.400;-1107.000; -974.000
379.883;  315.200;   59.000;  156.000
380.013; -109.600;-1081.000;-1017.000
380.143; -227.400;-1097.000;-1056.000
380.273; -190.800; -985.000; -861.000
380.403;    2.900; -344.000; -257.000
380.533;  -76.400; -651.000; -664.000
380.663;  157.100;  173.000;  128.000
380.793; -215.500;-1027.000;-1074.000
380.923;  -14.200; -103.000;  -34.000
381.053; -172.600; -613.000; -623.000
381.183;   -7.000; -106.000; -248.000
381.313;   26.700; -656.000; -470.000
381.443;   54.100; -692.000; -473.000
381.573;  236.800; -402.000; -409.000
381.703;  230.400;-1249.000;-1095.000
381.833; -327.100;-1454.000;-1336.000
381.963;  215.000; -134.000;  -87.000
382.093; 1885.800; -925.000; -909.000
382.223;  498.500; -713.000; -602.000
382.353;  -63.700; -801.000; -608.000
382.482;  419.400;-1091.000; -964.000
382.612; 1050.000; -872.000; -644.000
382.742;  541.300; -695.000; -622.000
382.872;  278.100; -565.000; -551.000
383.002;  139.500;  347.000; -132.000
383.131;  -45.400; -226.000; -160.000
383.261;  -90.400; -706.000; -768.000
383.391;  359.800; -552.000; -377.000
383.521; 5067.600;  451.000;  263.000
383.650; 1083.200; -947.000; -904.000
383.780;  -37.100; -783.000; -656.000
383.910;  256.700;  880.000;  802.000
384.039;  -23.000; -794.000; -656.000
384.169;  161.300;-1205.000;-1017.000
384.299;  -90.200; -650.000; -662.000
384.428; -151.000; -764.000; -680.000
384.558;  -88.000; -308.000; -275.000
384.687;  -68.200; -414.000; -334.000
384.817;   38.700;   75.000;   -2.000
384.947;   17.400; -234.000; -141.000
385.076;  511.100;  982.000;  912.000
385.206;  188.300;  369.000;  480.000
385.335;  -61.100; -549.000; -417.000
385.465; -184.100; -655.000; -663.000
385.594;  212.300;  -53.000;  -44.000
385.724;  465.700; -868.000; -838.000
385.853;  182.600; -296.000; -270.000
385.982; 1887.100; -743.000; -787.000
386.112; 2803.800;-1052.000; -871.000
386.241;  181.300; -307.000; -312.000
386.371;   17.700; -174.000;  -87.000
386.500;  -62.000; -825.000; -789.000
386.629;   16.800; -874.000; -817.000
386.759;  121.900;  -43.000;   68.000
386.888;   -0.100; -170.000; -250.000
387.017; -125.600; -648.000; -620.000
387.147; -190.000; -771.000; -798.000
387.276;  -47.000; -410.000; -397.000
387.405;   20.800; -398.000; -342.000
387.535; -102.800; -452.000; -361.000
387.664; -103.600; -692.000; -620.000
387.793;  128.000; -198.000; -113.000
387.922;  731.000;  255.000;  200.000
388.052;  -27.600; -576.000; -423.000
388.181;    5.200; -342.000; -472.000
388.310;  -84.000; -889.000; -710.000
388.439; -152.100; -749.000; -742.000
388.568;  303.600;  365.000;  244.000
388.697; 1391.600; -756.000; -653.000
388.826;  195.200; -768.000; -666.000
388.956;   55.200; -285.000; -307.000
389.085;  -24.100; -347.000; -287.000
389.214; -166.700; -842.000; -872.000
389.343; -142.400; -645.000; -413.000
389.472;  711.000;  126.000;  149.000
389.601;  829.800;   91.000;    0.000
389.730;   -6.400; -568.000; -687.000
389.859;  140.800;  226.000;   46.000
389.988;  245.600; -423.000; -408.000
390.117;  195.500; -168.000; -146.000
390.246;   18.700; -331.000; -320.000
390.375;  102.800; -673.000; -626.000
390.504;  -85.100; -703.000; -621.000
390.633; -151.000; -672.000; -726.000
390.761;  -88.700; -732.000; -645.000
390.890;   82.200;   -4.000; -130.000
391.019;  -41.500; -421.000; -441.000
391.148; -237.200; -826.000; -855.000
391.277; -126.800; -576.000; -493.000
391.406; -182.600; -821.000; -805.000
391.534;  123.700;  574.000; -301.000
391.663; -121.100; -583.000; -645.000
391.792; -157.100; -673.000; -701.000
391.921;  163.700;   -3.000;   15.000
392.050;  253.200; -287.000; -228.000
392.178; -166.600;-1206.000;-1061.000
392.307;  177.600; -758.000; -712.000
392.436;   59.700; -427.000; -641.000
392.564;   44.500;  166.000;   -6.000
392.693; -170.000; -860.000; -682.000
392.822;  291.900; -529.000; -534.000
392.950;   71.300; -880.000; -714.000
393.079;  442.200; -188.000; -328.000
393.208;    9.600; -488.000; -511.000
393.336;    3.700; -170.000; -145.000
393.465;  -56.300; -317.000; -199.000
393.593;   47.800;   62.000;   79.000
393.722; -267.700;-1121.000; -916.000
393.850;  -10.200; -188.000;  -61.000
393.979; -288.500; -926.000; -805.000
394.107; -113.900; -517.000; -537.000
394.236;  -44.300; -570.000; -507.000
394.364;  455.200;  383.000;  206.000
394.493;  655.300; -911.000; -767.000
394.621;  -31.400; -955.000; -916.000
394.750; 1078.400; -873.000; -923.000
394.878; 4596.000; -247.000; -149.000
395.007; 5863.500; -721.000; -807.000
395.135;  366.800; -790.000; -721.000
395.263; -202.500;-1038.000;-1040.000
395.392;   66.400;  -25.000; -107.000
395.520; -261.200; -818.000; -679.000
395.648; -182.900; -865.000; -915.000
395.777;  -27.600; -366.000; -405.000
395.905;  -70.300; -449.000; -564.000
396.033;   64.100;  217.000;  172.000
396.162; 1206.300; -399.000; -453.000
396.290; 1010.300;  -17.000;   -2.000
396.418;  148.900; -555.000; -514.000
396.546; -172.200; -571.000; -466.000
396.674; -181.200; -850.000; -878.000
396.803;   47.300;  -72.000;  -23.000
396.931;  148.700; -179.000; -199.000
397.059;  -47.100;-1026.000; -989.000
397.187; -194.800;-1026.000; -975.000
397.315; -260.000; -884.000; -649.000
397.443; -176.200; -592.000; -443.000
397.572; -138.200; -578.000; -424.000
397.700;  -79.200; -607.000; -614.000
397.828;   25.700;  120.000;  -90.000
397.956;  -75.700; -508.000; -478.000
398.084; -150.700; -767.000; -626.000
398.212;  110.000;  137.000;  124.000
398.340;   59.600;  -56.000;  159.000
398.468;   26.500; -390.000; -169.000
398.596; -248.000; -993.000; -953.000
398.724; -207.000; -762.000; -767.000
398.852; -294.800;-1024.000; -976.000
398.980;  -84.000; -560.000; -560.000
399.108; -113.800; -982.000; -735.000
399.236;   93.500;   13.000;    8.000
399.363;   67.900;  222.000;  196.000
399.491; -103.800; -404.000; -398.000
399.619; -206.000; -829.000; -800.000
399.747; -174.400; -859.000; -771.000
399.875;  175.300;  220.000;  234.000
400.003;  -75.600; -359.000; -284.000
400.130; -148.500; -421.000; -341.000
400.258;   20.600;  -83.000;   38.000
400.386;  -53.200; -352.000; -168.000
400.514;  -64.700; -526.000; -587.000
400.641; -189.300; -928.000; -802.000
400.769; -252.000; -979.000; -888.000
400.897; -216.300; -838.000; -793.000
401.025;  -25.200; -166.000; -152.000
401.152;   20.100;  220.000;   38.000
401.280; -124.100; -430.000; -429.000
401.408; -212.000; -712.000; -576.000
401.535; -179.700; -735.000; -758.000
401.663; -355.500;-1134.000;-1054.000
401.790;  -97.300; -514.000; -525.000
401.918;  141.400;  436.000;  405.000
402.046;   20.600;  134.000;  122.000
402.173;   -3.700;  -18.000;    7.000
402.301; -113.900; -519.000; -397.000
402.428;  117.700;  528.000;  383.000
402.556; -285.600;-1188.000; -913.000
402.683;   10.500;  -20.000;   -1.000
402.811;   -1.500;  -37.000; -206.000
402.938;    7.900;   20.000;   27.000
403.066;  271.800; -574.000; -558.000
403.193;  492.400;  299.000;  239.000
403.321;  353.700; -396.000; -574.000
403.448;  490.300;   83.000;   27.000
403.575;  221.500;  -90.000;  -46.000
403.703; -157.000; -732.000; -557.000
403.830;  -77.600; -531.000; -496.000
403.957; -259.100;-1117.000;-1023.000
404.085;   44.300;  -61.000; -172.000
404.212;  196.200;  -50.000;   63.000
404.339;  435.100; -566.000; -306.000
404.467; 9176.000; -612.000; -524.000
404.594; 5468.400; -287.000; -227.000
404.721; 1135.900; -869.000; -764.000
404.848;  109.400; -113.000; -202.000
404.976; -201.800; -856.000; -783.000
405.103;   27.800;  -14.000;  -82.000
405.230;   45.900;  190.000;  226.000
405.357;   96.600;  117.000;   44.000
405.484;  464.600;  -49.000;    5.000
405.612;   64.300; -548.000; -563.000
405.739;  -88.300; -488.000; -243.000
405.866;  218.000;  669.000;  385.000
405.993;  -59.300; -398.000; -102.000
406.120; -239.700; -801.000; -887.000
406.247;  -75.900; -323.000; -342.000
406.374;  680.400;  540.000;  629.000
406.501;   40.700; -632.000; -702.000
406.628; -122.000; -621.000; -589.000
406.755; -167.200; -803.000; -620.000
406.882;  -17.000; -228.000; -277.000
407.009; -178.800; -719.000; -628.000
407.136;  112.100; -480.000; -401.000
407.263;   94.500; -939.000; -829.000
407.390; -151.300; -692.000; -614.000
407.517; -350.400;-1139.000;-1187.000
407.644;  -70.300; -332.000; -256.000
407.771; -101.200; -249.000; -287.000
407.898;   60.800;  168.000;  328.000
408.025;  -86.100; -421.000; -313.000
408.151;   42.900;   82.000;  153.000
408.278;  -78.000; -267.000; -216.000
408.405; -197.500; -931.000; -899.000
408.532; -117.700; -549.000; -542.000
408.659; -170.500; -677.000; -648.000
408.785; -366.600;-1298.000;-1170.000
408.912;  -76.500; -412.000; -296.000
409.039; -156.300; -610.000; -686.000
409.166; -167.600; -591.000; -555.000
409.292; -183.800; -571.000; -534.000
409.419; -182.600; -665.000; -649.000
409.546; -130.000; -431.000; -192.000
409.672; -179.200; -713.000; -545.000
409.799;  -18.400;  -36.000;   34.000
409.926;  -34.400; -180.000; -179.000
410.052; -304.500;-1127.000;-1091.000
410.179;  -59.200; -368.000; -392.000
410.305; -127.300; -375.000; -493.000
410.432;  -73.900; -220.000; -333.000
410.558; -153.700; -305.000; -380.000
410.685; -163.300; -688.000; -431.000
410.812; -156.000; -409.000; -588.000
410.938; -196.800; -964.000; -808.000
411.065; -157.800; -671.000; -645.000
411.191;   20.300; -189.000; -174.000
411.317; -170.800; -823.000; -742.000
411.444;  -80.600; -317.000; -246.000
411.570;  -84.300; -339.000; -294.000
411.697; -192.300; -758.000; -752.000
411.823; -314.200; -989.000; -999.000
411.949;  -23.100;  -56.000;   17.000
412.076; -184.500; -539.000; -519.000
412.202; -205.400; -758.000; -757.000
412.329; -243.200; -798.000; -752.000
412.455; -206.900; -821.000; -657.000
412.581;   40.400;  -15.000;  172.000
412.707; -128.300; -540.000; -457.000
412.834;   46.900;  156.000;  219.000
412.960; -115.900; -785.000; -784.000
413.086; -157.500; -743.000; -701.000
413.212;  323.900;  604.000;  578.000
413.339; -164.300; -685.000; -701.000
413.465;  -29.300; -364.000; -310.000
413.591; -178.700; -757.000; -474.000
413.717;  -70.400; -358.000; -366.000
413.843; -264.900; -839.000; -861.000
413.969;  -90.000;  -47.000; -292.000
414.096; -160.600; -679.000; -679.000
414.222;   16.100;  -33.000;   85.000
414.348;  -73.800; -652.000; -385.000
414.474;  167.800;   38.000;  -52.000
414.600;  -20.000; -126.000; -144.000
414.726;   13.900;  -96.000;  -55.000
414.852;  -78.200; -365.000; -342.000
414.978;   97.100;  104.000;  -18.000
415.104;   69.700;   38.000;   80.000
415.230;   55.500; -329.000; -330.000
415.356;   56.800; -409.000; -514.000
415.482;  354.000;   13.000;  -35.000
415.608;  435.400; -247.000; -323.000
415.734; 1588.000;   67.000;   38.000
415.860;31926.800; -875.000; -767.000
415.986;20668.100; -685.000; -607.000
416.111; 1674.400; -798.000; -652.000
416.237;  369.300; -424.000; -571.000
416.363; 1843.200; -765.000; -733.000
416.489; 6377.800; -324.000; -251.000
416.615;  595.800; -707.000; -742.000
416.741;  -53.400; -677.000; -784.000
416.866; -190.600; -673.000; -736.000
416.992; -205.100; -801.000; -818.000
417.118;  -15.600;  -41.000;  -80.000
417.244; -130.300; -798.000; -531.000
417.369; -171.500; -801.000; -612.000
417.495;    1.400; -325.000; -254.000
417.621; -141.800;-1015.000; -803.000
417.746;    3.600; -579.000; -572.000
417.872;   82.400; -254.000; -144.000
417.998;   99.600; -515.000; -530.000
418.123; 1771.700;-1073.000; -845.000
418.249; 8228.600; -512.000; -601.000
418.374;  987.900; -916.000; -824.000
418.500;  185.500; -383.000; -482.000
418.626;  224.400;   70.000;  -59.000
418.751;  166.400; -549.000; -448.000
418.877;  271.800; -637.000; -643.000
419.002; 3126.000; -688.000; -560.000
419.128;19615.300; -930.000; -721.000
419.253; 4258.500; -967.000; -837.000
419.379;  606.700; -391.000; -338.000
419.504;  680.700;  325.000;  415.000
419.629;  787.200; -393.000; -212.000
419.755; 6120.600; -317.000; -254.000
419.880;33075.200;  -98.000;   67.000
420.006;18194.800; -280.000; -221.000
420.131;44290.200; -662.000; -775.000
420.256; 5712.500; -315.000; -316.000
420.382;  723.300; -665.000; -687.000
420.507;   68.000; -649.000; -778.000
420.632;  195.000; -337.000; -339.000
420.758;  290.500; -251.000; -425.000
420.883; -169.500; -876.000; -672.000
421.008; -174.100; -775.000; -619.000
421.133; -162.700; -509.000; -467.000
421.259;  -47.300; -325.000; -259.000
421.384; -193.000; -834.000; -693.000
421.509;  -93.800;-1052.000; -862.000
421.634; 1448.300; -936.000; -820.000
421.759;  576.700; -359.000; -327.000
421.885; -104.300; -717.000; -656.000
422.010;  -97.400; -673.000; -542.000
422.135; -243.300; -695.000; -727.000
422.260;  114.100;  340.000;  280.000
422.385;  -25.300;   12.000;  -98.000
422.510;   58.200;  151.000;  -26.000
422.635;   24.700;  -87.000;  -43.000
422.760;  153.300; -766.000; -791.000
422.885;  135.400;  -57.000;  -80.000
423.010;   11.200; -112.000; -169.000
423.135; -165.100; -481.000; -561.000
423.260;    4.100; -150.000; -245.000
423.385;  128.300;  476.000;  222.000
423.510;   69.500;   71.000;  -22.000
423.635;  114.500;  133.000;   45.000
423.760;  119.800;  383.000;  328.000
423.885;  142.800;  336.000;  391.000
424.010;   41.300;  -68.000;  -13.000
424.135;   -9.900;    5.000;  -33.000
424.259; -114.400; -654.000; -457.000
424.384;  -83.200; -279.000; -272.000
424.509;   11.200; -260.000; -186.000
424.634; -197.500; -761.000; -623.000
424.759;  -48.200; -688.000; -544.000
424.883;   -5.000; -506.000; -527.000
425.008;  276.300; -502.000; -410.000
425.133; 3178.500; -679.000; -653.000
425.258; 1323.800; -517.000; -381.000
425.382; 1490.400; -867.000; -774.000
425.507; 3463.900; -487.000; -543.000
425.632;  571.400; -802.000; -663.000
425.756;  763.800; -256.000; -146.000
425.881;11402.200; -831.000; -857.000
426.006;27308.400; -604.000; -355.000
426.130; 3784.500; -696.000; -508.000
426.255;  484.900; -611.000; -491.000
426.379;  290.000; -189.000; -577.000
426.504;  704.800;  660.000;  544.000
426.629; 6508.100; -519.000; -466.000
426.753; 3945.900;   64.000;  -46.000
426.878;  474.100; -252.000; -288.000
427.002;  295.700; -651.000; -668.000
427.127; 2756.100;  -35.000; -158.000
427.251;18138.200;  372.000;  401.000
427.375; 4459.500; -191.000; -173.000
427.500; 3221.900; -616.000; -610.000
427.624;  959.400; -234.000; -400.000
427.749;  163.900; -216.000; -225.000
427.873;  -51.700; -499.000; -412.000
427.997;  -19.500; -222.000; -230.000
428.122;  218.100;  795.000;  703.000
428.246;  194.300;  433.000;  434.000
428.371; -228.000; -869.000; -773.000
428.495; -196.100; -624.000; -646.000
428.619;  -29.300; -186.000; -117.000
428.743;   86.900;   65.000;  132.000
428.868;  -27.300; -732.000; -643.000
428.992; 1971.200; -219.000; -326.000
429.116;  673.200; -329.000; -357.000
429.240;  415.600;  419.000;  426.000
429.365;  -71.200; -454.000; -574.000
429.489;  -73.800; -638.000; -647.000
429.613;   65.300; -236.000; -177.000
429.737;  100.700; -563.000; -432.000
429.861;  472.800; -247.000; -133.000
429.985; 9098.000; -425.000; -305.000
430.109; 8863.200; -770.000; -908.000
430.234; 1018.900;   76.000;  -50.000
430.358;  106.000; -250.000; -160.000
430.482;  -83.500; -672.000; -564.000
430.606;  -78.400; -655.000; -375.000
430.730;   -1.200; -437.000; -388.000
430.854;   59.400; -909.000; -835.000
430.978; -134.700; -795.000; -764.000
431.102; -139.300; -499.000; -422.000
431.226; -185.500; -874.000; -815.000
431.350;   93.400;  345.000;  422.000
431.474; -153.800; -661.000; -373.000
431.597; -270.400;-1060.000; -848.000
431.721; -100.200; -276.000; -267.000
431.845; -204.900; -704.000; -472.000
431.969; -100.400; -304.000; -349.000
432.093; -123.000; -395.000; -317.000
432.217;   31.900;   32.000;   82.000
432.341; -143.300; -523.000; -518.000
432.464;   75.800;   96.000;   40.000
432.588;  208.600; -401.000; -329.000
432.712;  133.200;  -52.000;  -52.000
432.836;  134.500;  213.000;  263.000
432.959;   -3.400; -372.000; -311.000
433.083;  178.400;   11.000;    2.000
433.207;  662.200;  285.000;  930.000
433.330; 8369.500; -391.000; -200.000
433.454; 9383.300; -654.000; -638.000
433.578; 5457.500;  583.000;  278.000
433.701;  849.000; -623.000; -675.000
433.825;  198.500; -292.000; -299.000
433.949;  274.200;   28.000;  -72.000
434.072;   43.300; -410.000; -323.000
434.196;   -8.000; -309.000; -117.000
434.319; 7928.500;25482.000;25124.000
434.443; 1190.700; -656.000; -603.000
434.566; 4059.300;  281.000;   62.000
434.690;  567.900; -637.000; -383.000
434.813;   66.800; -251.000; -173.000
434.937; -127.900; -569.000; -696.000
435.060;  -90.100; -423.000; -332.000
435.184;  353.700; -492.000; -217.000
435.307;  177.100;  159.000;  102.000
435.431;   42.600;  -40.000;   24.000
435.554; -113.300; -399.000; -240.000
435.677; -115.300; -350.000; -258.000
435.801;  -36.000;  -25.000;   49.000
435.924;    9.600;    1.000;  -67.000
436.048; -231.100;-1019.000; -732.000
436.171;  -83.800; -240.000;  -66.000
436.294;  -19.300; -248.000; -229.000
436.417;  134.200; -963.000; -849.000
436.541; -149.000; -814.000; -840.000
436.664;  -48.400; -242.000; -316.000
436.787;   53.900;   13.000;  113.000
436.910; -192.000; -792.000; -422.000
437.034;   47.700;  142.000;  143.000
437.157;  129.500;  -11.000;    0.000
437.280; -114.900; -392.000; -292.000
437.403; -173.700; -982.000; -869.000
437.526;  797.500; -903.000; -865.000
437.649; 2797.300; -505.000; -332.000
437.772;  287.800; -692.000; -540.000
437.896;  253.200;  700.000;  544.000
438.019; -165.400; -758.000; -503.000
438.142; -123.600; -596.000; -506.000
438.265;  -71.800; -639.000; -670.000
438.388;  680.500; -520.000; -410.000
438.511;   48.800; -597.000; -394.000
438.634;  -58.000; -247.000; -125.000
438.757; -238.800; -693.000; -619.000
438.880;   27.900;  -34.000;  -57.000
439.003; -118.100; -417.000; -437.000
439.126;  -69.800; -287.000; -167.000
439.248;  -62.800;  -98.000; -139.000
439.371;  -30.200;    9.000;  -53.000
439.494;  104.900;  510.000;  439.000
439.617;  -40.500;   65.000;  -88.000
439.740; -325.700; -968.000; -816.000
439.863; -232.700; -755.000; -595.000
439.986; -203.300; -476.000; -431.000
440.108;   -1.100; -161.000; -112.000
440.231; -293.400; -950.000; -836.000
440.354;  -28.500;  -64.000; -150.000
440.477;   22.900; -566.000; -542.000
440.599;  -43.000; -200.000; -225.000
440.722; -205.500; -709.000; -586.000
440.845;  225.700;  751.000;  928.000
440.968; -159.200; -415.000; -311.000
441.090;  -81.200; -199.000;  -33.000
441.213; -264.600;-1021.000; -825.000
441.336;  -35.100; -159.000;   -5.000
441.458; -115.900; -549.000; -396.000
441.581; -178.000; -628.000; -629.000
441.703; -105.700; -152.000;   13.000
441.826; -172.500; -557.000; -400.000
441.948;   -9.500;   56.000;   51.000
442.071;  103.800;  555.000;  424.000
442.193; -200.100; -531.000; -485.000
442.316;   74.200;  152.000;   97.000
442.438;   58.500; -233.000;  -10.000
442.561;  187.100;  272.000;  262.000
442.683;  708.200; -809.000; -522.000
442.806; 1491.500;   -8.000;   74.000
442.928;  -59.300; -859.000; -604.000
443.051; -110.900; -577.000; -373.000
443.173; -153.000; -341.000; -339.000
443.295; -128.700; -263.000; -371.000
443.418;  -80.400; -321.000;  -29.000
443.540;   30.100; -106.000;   -4.000
443.662; -202.800; -563.000; -465.000
443.785;   -1.600;  335.000;  199.000
443.907; -151.100; -362.000; -208.000
444.029; -205.600; -767.000; -494.000
444.152; -211.100; -644.000; -554.000
444.274;    4.700;  -18.000;  -24.000
444.396; -152.400; -461.000; -221.000
444.518; -224.100; -691.000; -454.000
444.640; -159.900; -268.000; -111.000
444.763;   10.800;  388.000;  249.000
444.885; -193.400; -432.000; -392.000
445.007;    1.800;   35.000;   86.000
445.129; -201.900; -610.000; -515.000
445.251; -155.900; -372.000; -439.000
445.373; -231.800; -537.000; -386.000
445.495;   50.500;  242.000;  350.000
445.617;  201.800;  853.000;  753.000
445.739; -110.000; -215.000;  -97.000
445.861;  -35.900; -245.000; -112.000
445.984;  -46.300; -267.000; -101.000
446.105;  274.700; -418.000; -251.000
446.227;  853.800; -176.000;  -19.000
446.349;  -48.500; -358.000; -249.000
446.471; -148.900; -615.000; -448.000
446.593; -100.000; -316.000;   19.000
446.715;   44.100;  -67.000;   41.000
446.837;  185.700;  697.000;  832.000
446.959; -160.700; -457.000; -478.000
447.081; -224.600; -628.000; -518.000
447.203;  201.500;  862.000;  834.000
447.325; -129.800; -270.000;   42.000
447.446;   56.500;  286.000;  530.000
447.568; -293.700; -921.000; -803.000
447.690; -130.600; -236.000; -245.000
447.812; -267.300; -798.000; -519.000
447.933;   21.400;  155.000;  127.000
448.055;  -81.000; -306.000; -261.000
448.177;  263.500;   31.000;   79.000
448.299;   -0.500; -935.000; -727.000
448.420;   86.500;  -25.000;  159.000
448.542;  -36.600;   -3.000;   33.000
448.664;   29.600;  109.000;  322.000
448.785;    3.500;  265.000;   83.000
448.907; -127.000; -614.000; -353.000
449.028;  -82.400; -771.000; -471.000
449.150;  170.300;  492.000;  589.000
449.272; -315.400;-1044.000; -913.000
449.393;  136.300;  612.000;  694.000
449.515; -245.400; -634.000; -581.000
449.636;  -76.200; -264.000; -155.000
449.758;  195.700;  763.000;  622.000
449.879; -146.900; -498.000; -396.000
450.001; -110.100; -149.000;  -49.000
450.122;    5.000;  -95.000;  162.000
450.244;   23.400;   37.000;  364.000
450.365; -143.500; -495.000; -301.000
450.486;  -21.000;   80.000;  268.000
450.608;  138.000;  393.000;  326.000
450.729;  180.400;  578.000;  645.000
450.850;   32.100; -574.000; -466.000
450.972; 1261.700; -552.000; -389.000
451.093; 8097.200;  190.000;  588.000
451.214; 3012.900; -516.000; -337.000
451.336;  653.200;  773.000;  579.000
451.457;  146.600;  264.000;  393.000
451.578;  -36.100; -118.000;  -74.000
451.699; -178.800; -546.000; -540.000
451.821;  -35.700; -284.000;  -50.000
451.942;   39.400;  278.000;  285.000
452.063;  138.600;  228.000;  419.000
452.184; 1015.700;  -54.000;  -49.000
452.305; 1692.900;  103.000;  170.000
452.427;  133.600; -549.000; -301.000
452.548;   43.000;   23.000;   79.000
452.669;  -51.700; -257.000;  -89.000
452.790;  -43.000;    3.000;  -18.000
452.911;   54.500;  195.000;  259.000
453.032;  -69.100; -289.000;  -60.000
453.153;  -67.000;  -29.000;   81.000
453.274;  202.100;  737.000;  868.000
453.395;  -22.500;  -51.000;  175.000
453.516;  323.200; 1317.000; 1388.000
453.637;  -77.900; -205.000; -150.000
453.758;  -43.100;   15.000;   69.000
453.879; -174.800; -462.000; -250.000
454.000;  198.200; 1086.000;  948.000
454.121; -185.000; -554.000; -326.000
454.242; -163.500; -599.000; -383.000
454.362;  -33.800;  -99.000;  114.000
454.483;  -35.600; -309.000; -229.000
454.604;  127.100;  512.000;  580.000
454.725; -213.500; -627.000; -555.000
454.846; -195.200; -474.000; -406.000
454.967;   43.200;  230.000;  539.000
455.087;  -26.200;  179.000;  153.000
455.208;  109.600;  554.000;  856.000
455.329;  -49.600;  -22.000;   82.000
455.450;  151.900;  473.000;  633.000
455.570;  -94.900; -234.000; -211.000
455.691;  -51.500;  201.000;  407.000
455.812; -169.800; -270.000;  -92.000
455.932;  -39.500;  107.000;  -97.000
456.053;  -72.400;   36.000;   24.000
456.173; -181.300; -433.000; -355.000
456.294; -202.800; -476.000; -303.000
456.415;  -79.100;  -73.000;   70.000
456.535;   13.200;  297.000;  273.000
456.656;   -3.200;  132.000;  240.000
456.776;  -73.900;    3.000;  298.000
456.897;   82.000;  308.000;  513.000
457.017;  -70.400; -153.000;   -3.000
457.138; -153.300; -402.000; -249.000
457.258;   -7.800;  263.000;  224.000
457.379;   59.800;  509.000;  521.000
457.499;   -2.200;  443.000;  432.000
457.620; -180.200; -407.000; -231.000
457.740; -111.500; -132.000;  -11.000
457.860;  -32.700;   87.000;   44.000
457.981;  -39.200;  132.000;  124.000
458.101;  -75.200;  -89.000;   40.000
458.221;   29.100;  336.000;  402.000
458.342;  -33.800;   -4.000;  -37.000
458.462;  122.500;  617.000;  352.000
458.582;  -25.700; -302.000; -294.000
458.703;   51.500;  303.000;  154.000
458.823;   -7.400;   22.000;  163.000
458.943;   92.300;  341.000;  467.000
459.063;   54.000; 1124.000;  192.000
459.183;   15.300;  328.000;  313.000
459.304;   98.900;  315.000;  517.000
459.424;  -77.600; -246.000;  -89.000
459.544;  629.500;  388.000;  764.000
459.664; 1367.000;  499.000;  506.000
459.784;  506.900; 1004.000; 1175.000
459.904;  169.400;  867.000;  744.000
460.024;  202.300;  867.000;  684.000
460.144;   64.700;  449.000;  554.000
460.264;   55.700;  515.000;  327.000
460.385; -135.900; -145.000; -119.000
460.505;  139.400;  905.000;  858.000
460.625; -132.000;  -17.000;  -68.000
460.745;   39.000;  396.000;  541.000
460.864;  -36.800;  153.000;  469.000
460.984;   90.700;  499.000;  573.000
461.104;  346.700; 1656.000; 1775.000
461.224;  130.700;  657.000;  650.000
461.344;   14.100;  431.000;  360.000
461.464;   25.200;  258.000;  513.000
461.584;    1.400;  283.000;  466.000
461.704;  -44.200;   58.000;  108.000
461.824;  -62.100;  238.000;  259.000
461.943;  -43.100;  191.000;  130.000
462.063; -113.600;    2.000;  324.000
462.183;  146.500;  639.000;  717.000
462.303;  291.300; 1678.000; 1230.000
462.422;  122.000;  781.000;  840.000
462.542;    2.700;  271.000;  391.000
462.662;  110.000;  353.000;  380.000
462.782;  458.000;  833.000;  572.000
462.901;  806.400;  545.000;  717.000
463.021;  515.800; 1702.000; 1638.000
463.141;   40.000;  337.000;  770.000
463.260;   -7.500;  614.000;  474.000
463.380;   96.800;  902.000;  884.000
463.499;  -20.600;  342.000;  332.000
463.619;    0.000;  581.000;  559.000
463.738;  296.700; 1644.000;  903.000
463.858;  112.200;  657.000;  811.000
463.978;  -16.400;  542.000;  396.000
464.097;  150.400;  921.000; 1114.000
464.217;  313.900; 1196.000; 1143.000
464.336;  244.600; 1068.000; 1130.000
464.455;  -32.500;  328.000;  659.000
464.575;  117.800;  597.000;  602.000
464.694;  356.200; 1204.000; 1179.000
464.814;  304.300; 1190.000; 1138.000
464.933;  197.800; 1095.000; 1027.000
465.052;  307.700; 1412.000; 1054.000
465.172;  176.800;  922.000;  799.000
465.291;  333.600; 1376.000; 1320.000
465.410;   79.000;  462.000;  735.000
465.530;  212.600; 1355.000; 1310.000
465.649;  218.400; 1209.000; 1273.000
465.768;  358.700; 1673.000; 1508.000
465.888;  175.700;  941.000; 1174.000
466.007;  303.700; 1335.000; 1440.000
466.126;   27.600;  721.000;  641.000
466.245;  165.600; 1176.000; 1187.000
466.364;  108.300;  950.000; 1060.000
466.484;  206.900; 1024.000; 1213.000
466.603;  130.000; 1101.000; 1222.000
466.722;  325.000; 1490.000; 1769.000
466.841;  211.500; 1151.000; 1401.000
466.960;  142.900; 1069.000;  972.000
467.079;  360.300; 1971.000; 1786.000
467.198;  184.000; 1238.000; 1181.000
467.317;  257.800; 1768.000; 1162.000
467.436;  206.700; 1709.000; 1261.000
467.555;  349.000; 1796.000; 1746.000
467.674;  199.000; 1227.000; 1329.000
467.793;  171.100; 1376.000; 1374.000
467.912;  247.300; 1658.000; 1539.000
468.031;  348.500; 2038.000; 1930.000
468.150;  357.700; 1842.000; 1837.000
468.269;  480.000; 2313.000; 2090.000
468.388;  453.200; 2168.000; 2339.000
468.507;  576.700; 2884.000; 2903.000
468.626;  662.000; 2555.000; 2541.000
468.744;  387.700; 2018.000; 2174.000
468.863;  492.200; 2312.000; 2523.000
468.982;  222.800; 1503.000; 1555.000
469.101;  534.000; 2788.000; 2692.000
469.220;  358.800; 2333.000; 2176.000
469.338;  584.800; 2935.000; 3051.000
469.457;  460.800; 2719.000; 2545.000
469.576;  762.200; 3953.000; 3784.000
469.695;  551.500; 2877.000; 3066.000
469.813;  971.400; 4148.000; 4192.000
469.932;  924.100; 4255.000; 4485.000
470.051;  935.900; 4075.000; 4161.000
470.169; 1691.400; 4470.000; 4338.000
470.288; 2600.100; 4700.000; 4809.000
470.406; 1562.400; 5059.000; 5194.000
470.525; 1334.400; 6101.000; 5787.000
470.644; 1406.700; 6847.000; 6794.000
470.762; 1749.100; 8397.000; 7873.000
470.881; 1882.500; 8651.000; 8464.000
470.999; 2217.600; 9685.000; 9151.000
471.118; 2314.800;11174.000;10711.000

