
Integration time [ms]: 100.000
Averaging Nr. [scans]: 40
Smoothing Nr. [pixels]: 0
Data measured with spectrometer [name]: 2101012U2
Wave   ;Sample   ;Dark     ;Reference
[nm]   ;[counts] ;[counts] ;[counts] 

197.733;   59.050;  516.000;  404.000
197.879;  -85.725; -610.000; -634.000
198.025;  -50.325; -475.000; -420.000
198.171;  -79.075; -602.000; -612.000
198.317;  -36.175; -401.000; -316.000
198.463;  -64.800; -655.000; -404.000
198.609;   28.425;  181.000; -137.000
198.755;  -79.550; -644.000; -410.000
198.901;  -65.825; -505.000; -424.000
199.047;  -66.200; -615.000; -488.000
199.193;  -24.400; -230.000; -468.000
199.339;  -42.300; -222.000; -369.000
199.485;   45.050;  330.000;  271.000
199.631;    8.100;  227.000;  310.000
199.777;  -51.950; -466.000; -398.000
199.923;  -73.475; -610.000; -424.000
200.069;    3.525; -141.000;  -58.000
200.215;   57.450;  128.000;  453.000
200.361;   55.300;  243.000;  477.000
200.507;  -76.825; -600.000; -373.000
200.653;  -16.400; -371.000; -194.000
200.798;  -38.450; -215.000; -125.000
200.944;   -7.175; -146.000;  -41.000
201.090;   22.275;   61.000;  222.000
201.236;    4.525; -116.000; -158.000
201.382;  138.875;  874.000;  903.000
201.528;    1.350;  -58.000;  -48.000
201.674;  -56.025; -386.000; -293.000
201.819;  -63.250; -540.000; -439.000
201.965;  -95.225; -699.000; -447.000
202.111;  -20.525; -273.000; -226.000
202.257;  -35.625; -250.000; -238.000
202.402;    8.200;   13.000;  -36.000
202.548;  -32.025; -169.000; -116.000
202.694;   79.250;  410.000; -183.000
202.840;  -79.200; -603.000; -531.000
202.985;  -70.050; -681.000; -639.000
203.131; -112.425; -832.000; -666.000
203.277;  -17.075; -199.000; -262.000
203.423;  -59.700; -434.000; -520.000
203.568;  -42.075; -462.000; -237.000
203.714;  -59.100; -535.000; -542.000
203.860;  -75.100; -682.000; -641.000
204.005;   16.550;  112.000;  167.000
204.151;   88.400;  561.000;  556.000
204.296;  -50.125; -354.000; -221.000
204.442;  -73.075; -600.000; -547.000
204.588;  -73.550; -592.000; -579.000
204.733;   35.975;  178.000;  168.000
204.879; -127.900;-1018.000; -822.000
205.025;   15.825;  -99.000;  126.000
205.170;   -8.725;  -17.000;   94.000
205.316;   77.600;  438.000;  661.000
205.461;  -83.875; -698.000; -554.000
205.607;   88.025;  609.000;  665.000
205.752;  -77.200; -626.000; -551.000
205.898;  -50.375; -501.000; -391.000
206.043;  -66.050; -578.000; -506.000
206.189;  -46.225; -243.000; -285.000
206.334;   90.675;  554.000;  606.000
206.480;   76.475;  409.000;  239.000
206.625;  -95.000; -529.000; -552.000
206.771;  -51.100; -451.000; -373.000
206.916;  -34.625; -210.000; -537.000
207.062;  -62.000; -545.000; -591.000
207.207;  -67.125; -546.000; -443.000
207.353;   59.550;  185.000;  460.000
207.498;   11.325;  196.000;   85.000
207.643;  -53.975; -501.000; -370.000
207.789; -133.600;-1069.000; -910.000
207.934;  -86.950; -665.000; -713.000
208.080;  -29.525; -154.000;   66.000
208.225;   -1.825;  -22.000;  -57.000
208.370;  -89.500; -727.000; -619.000
208.516;  -81.750; -741.000; -487.000
208.661;  -32.550; -127.000;  -69.000
208.806;  -19.700; -165.000; -171.000
208.952; -120.300;-1044.000; -731.000
209.097;   73.000;  378.000;  349.000
209.242;  -43.925; -307.000; -382.000
209.387;   57.975;  392.000;  350.000
209.533;  -51.550; -321.000; -350.000
209.678;   89.325;  472.000;  543.000
209.823;  -68.425; -408.000; -310.000
209.969;  -94.775; -860.000; -757.000
210.114; -109.700; -907.000; -719.000
210.259; -119.200; -939.000; -889.000
210.404;   -3.475; -171.000;  103.000
210.549;    2.775;  108.000;    3.000
210.695;  -10.475;   -3.000;  -95.000
210.840;   37.900;   94.000;   67.000
210.985;  -57.600; -484.000; -303.000
211.130;   67.325;  268.000;  406.000
211.275;    0.950;  207.000;  199.000
211.420;  -49.325; -300.000; -289.000
211.566;  -80.600; -536.000; -489.000
211.711;   23.675;  218.000;  157.000
211.856;  -72.475; -545.000; -519.000
212.001;   21.650;  151.000;   44.000
212.146;   19.900;  153.000;   49.000
212.291;  -23.450; -210.000; -186.000
212.436;  -22.675; -280.000;   -6.000
212.581;  -88.175; -685.000; -653.000
212.726;  -83.900; -487.000; -538.000
212.871;  -54.350; -552.000; -217.000
213.016; -150.550;-1172.000;-1029.000
213.161;   64.875;  406.000;  291.000
213.306;  -78.725; -435.000; -577.000
213.451;  -89.325; -778.000; -689.000
213.596;  -44.000; -455.000; -347.000
213.741;  -60.075; -448.000; -538.000
213.886;  -76.025; -498.000; -517.000
214.031;  -25.775; -294.000; -124.000
214.176;  -43.325; -408.000; -341.000
214.321;  -21.200; -296.000; -157.000
214.466;  -27.050; -163.000;  -43.000
214.611;    2.275;  -61.000;  -10.000
214.756; -133.175; -948.000; -858.000
214.901;   -7.975; -388.000; -226.000
215.046; -116.700; -797.000; -825.000
215.191;   23.650;  128.000;   35.000
215.336;  -10.025; -157.000;  -19.000
215.480;  -53.775; -684.000; -505.000
215.625;  -14.075; -175.000;  -19.000
215.770;  -70.225; -757.000; -662.000
215.915;  -16.450;   -5.000;  -97.000
216.060;   -2.925; -113.000;  -21.000
216.205; -111.375; -731.000; -779.000
216.349;  -69.825; -470.000; -533.000
216.494; -136.125; -939.000; -867.000
216.639; -111.775; -823.000; -888.000
216.784;  -86.925; -577.000; -525.000
216.929;   44.000;  392.000;  281.000
217.073;  -19.200; -244.000;  -31.000
217.218;    7.975;   78.000;  -47.000
217.363;  -91.900; -656.000; -618.000
217.507;  -85.475; -623.000; -588.000
217.652; -132.575; -845.000; -874.000
217.797;  -97.650; -708.000; -659.000
217.942; -108.075; -856.000; -720.000
218.086;   62.325;  608.000;  539.000
218.231;  -19.975; -174.000;  -26.000
218.376;  -35.775; -337.000; -229.000
218.520;    4.200;  -41.000;   96.000
218.665;  -36.875; -338.000; -204.000
218.810;  -52.225; -275.000; -233.000
218.954;   18.050;  201.000;   35.000
219.099; -118.925; -713.000; -963.000
219.243;  -69.650; -589.000; -554.000
219.388;  -40.700; -264.000; -136.000
219.532;   -5.625; -116.000; -116.000
219.677;  -74.000; -564.000; -521.000
219.822;    4.650;   33.000;   89.000
219.966;    4.650;   17.000;  -99.000
220.111;  -30.525; -328.000;  -40.000
220.255;  -98.775; -797.000; -750.000
220.400;  -26.150; -180.000; -146.000
220.544;  -73.000; -516.000; -450.000
220.689;  -45.775; -422.000; -451.000
220.833;  -29.150; -123.000;  -58.000
220.978;  -48.100; -393.000; -563.000
221.122;    7.950;  319.000;  307.000
221.267; -106.300; -906.000; -837.000
221.411;  -76.975; -478.000; -394.000
221.555;  -13.500; -104.000;  -23.000
221.700;  -53.425; -329.000; -222.000
221.844;   37.600;  255.000;  272.000
221.989;  -51.800; -328.000; -311.000
222.133;  -42.900; -289.000; -307.000
222.277;  -12.150;    5.000;   78.000
222.422;   10.825;  227.000;  113.000
222.566;  -52.350; -381.000; -214.000
222.711;  -56.450; -414.000; -479.000
222.855;  -86.000; -643.000; -586.000
222.999;  -86.650; -642.000; -717.000
223.144;  -28.475; -195.000; -194.000
223.288;   42.875;  423.000;  251.000
223.432;   36.175;  184.000;  230.000
223.576;   18.400;  152.000;  -21.000
223.721;   33.775;  364.000;  273.000
223.865;  -50.000; -472.000; -475.000
224.009;  226.950; 1673.000; 1631.000
224.153;  -84.100; -660.000; -671.000
224.298;  -73.075; -531.000; -489.000
224.442;   -9.700;  -74.000;  -33.000
224.586;  -18.725; -169.000; -106.000
224.730; -102.350; -858.000; -670.000
224.875; -110.825; -739.000; -688.000
225.019;   11.125;  102.000;  188.000
225.163;   58.750;  208.000;  341.000
225.307;   18.925;   97.000;  -91.000
225.451;   41.600;  360.000;  481.000
225.595;   24.025;  264.000;  176.000
225.739;   -6.200; -170.000;  -94.000
225.884;    7.800;   86.000;    5.000
226.028; -109.575; -760.000; -626.000
226.172;  -30.800; -260.000; -273.000
226.316; -126.775; -941.000; -902.000
226.460;  -62.825; -645.000; -493.000
226.604;  -60.225; -406.000; -400.000
226.748;  -96.575; -836.000; -733.000
226.892;  -42.000; -227.000; -181.000
227.036;  -46.025; -537.000; -447.000
227.180;  -60.000; -551.000; -375.000
227.324;  -67.825; -561.000; -580.000
227.468; -128.925; -819.000; -717.000
227.612;   14.100;  242.000;  -28.000
227.756; -104.225; -845.000; -698.000
227.900;   52.375;  342.000;  441.000
228.044;  -59.125; -509.000; -290.000
228.188;   50.700;  448.000;  568.000
228.332;  -85.450; -546.000; -472.000
228.476;  -27.500; -223.000; -149.000
228.620;  -31.925; -210.000; -150.000
228.764;   63.025;  431.000;  349.000
228.908;  -25.075; -155.000;   30.000
229.052;  -55.750; -615.000; -528.000
229.195;  -19.100; -172.000;   13.000
229.339;  -10.650; -235.000; -305.000
229.483;  -37.275;    5.000; -162.000
229.627;  -15.450; -156.000;  139.000
229.771;  -60.225; -218.000; -294.000
229.915;    0.050;  230.000;   79.000
230.059; -104.075; -648.000; -663.000
230.202;  -49.250; -370.000; -317.000
230.346;  -11.475; -107.000;  107.000
230.490;  -67.575; -489.000; -521.000
230.634; -110.000; -736.000; -553.000
230.777;   74.900;  478.000;  509.000
230.921;  -55.600; -450.000; -359.000
231.065;  -43.200; -246.000; -286.000
231.209;   18.825;  261.000;  265.000
231.352;   28.125;   54.000;   40.000
231.496;   20.475;  568.000;  188.000
231.640;  -74.425; -693.000; -621.000
231.783;   57.925;  546.000;  525.000
231.927;  -40.475; -294.000; -365.000
232.071; -112.275; -962.000; -736.000
232.214; -123.775; -980.000; -764.000
232.358;  -92.725; -683.000; -599.000
232.502;    8.225;  -19.000;    7.000
232.645; -133.175;-1090.000; -927.000
232.789;  -25.950; -257.000; -218.000
232.933;  -57.275; -407.000; -224.000
233.076; -126.925;-1038.000; -897.000
233.220; -109.775; -752.000; -777.000
233.363;  -75.775; -669.000; -477.000
233.507;   31.575;  371.000;  129.000
233.650;  -91.500; -764.000; -834.000
233.794;   24.300;  438.000;  461.000
233.938;  -63.925; -530.000; -362.000
234.081;  -17.875;  -93.000;   31.000
234.225;  -76.200; -631.000; -539.000
234.368; -112.525; -773.000; -723.000
234.512;  -45.025; -385.000; -299.000
234.655;  -86.875; -582.000; -555.000
234.798;  -65.250; -493.000; -466.000
234.942; -139.250; -884.000;-1002.000
235.085;  -72.100; -651.000; -443.000
235.229;  -91.000; -405.000; -410.000
235.372;  -45.250; -247.000; -191.000
235.516;  -74.750; -397.000; -321.000
235.659;   30.650;   92.000;  121.000
235.802;  -28.800;  -38.000;  -22.000
235.946;   25.325;  335.000;  215.000
236.089;   19.500;  126.000;  250.000
236.233;   44.250;  275.000;  298.000
236.376;  -54.225; -235.000; -378.000
236.519;  -46.000; -297.000; -319.000
236.663;  -31.600; -215.000; -117.000
236.806; -131.675;-1029.000; -999.000
236.949;   57.675;  543.000;  431.000
237.092;   54.450;  412.000;  391.000
237.236;  -98.575; -589.000; -502.000
237.379;   61.500;  352.000;  428.000
237.522; -122.950; -879.000; -768.000
237.666;  -17.600; -271.000;   18.000
237.809; -132.575; -851.000; -823.000
237.952;   35.075;  469.000;  271.000
238.095;  -70.125; -447.000; -442.000
238.238;   78.625;  688.000;  700.000
238.382;  -18.250;  166.000;  103.000
238.525;  -70.550; -598.000; -511.000
238.668; -141.800;-1060.000; -985.000
238.811;  -87.700; -638.000; -643.000
238.954;  -60.200; -483.000; -334.000
239.097;   79.475;  617.000;  664.000
239.241;   29.850;  394.000;  326.000
239.384;  -32.250; -254.000; -214.000
239.527;  -65.350; -424.000; -224.000
239.670; -144.400; -994.000;-1091.000
239.813; -113.400; -696.000; -658.000
239.956;   75.550;  579.000;  473.000
240.099; -124.425; -778.000; -725.000
240.242;   58.750;  428.000;  432.000
240.385;   32.450;  466.000;  450.000
240.528;  -82.175; -706.000; -473.000
240.671;   13.500;  189.000;  134.000
240.814;  -34.475; -441.000; -158.000
240.957; -100.025; -767.000; -578.000
241.100;  -99.775; -779.000; -755.000
241.243; -148.825;-1234.000; -893.000
241.386;  -64.300; -508.000; -379.000
241.529;  -94.475; -735.000; -547.000
241.672;  -65.375; -566.000; -495.000
241.815; -125.625; -832.000; -808.000
241.958;  -25.550; -125.000; -182.000
242.101;  -91.400; -545.000; -390.000
242.244;  -34.775; -270.000; -325.000
242.387;  -54.150; -304.000; -246.000
242.530;   48.600;  470.000;  134.000
242.673;  -61.825; -381.000; -309.000
242.815; -122.150; -925.000; -899.000
242.958;  -73.650; -482.000; -381.000
243.101;    5.150;  132.000;  187.000
243.244;  -88.625; -564.000; -521.000
243.387;  -54.050; -313.000; -316.000
243.530;  -95.800; -657.000; -674.000
243.672;   -9.500;   43.000;  -92.000
243.815;  -59.550; -355.000; -283.000
243.958;  -16.525;   98.000;  -26.000
244.101;  -14.200;   59.000;  -16.000
244.243;  -20.475;  -47.000;  101.000
244.386; -111.550; -761.000; -630.000
244.529;  -30.125; -132.000; -139.000
244.672; -159.250;-1154.000; -951.000
244.814;  -98.300; -621.000; -794.000
244.957;  -65.975; -380.000; -304.000
245.100;  -74.075; -489.000; -489.000
245.242;  -64.675; -387.000; -374.000
245.385;   -8.300;  -59.000;  -39.000
245.528; -124.600; -871.000; -705.000
245.670;   76.850;  612.000;  634.000
245.813;  -89.200; -599.000; -547.000
245.956;  -33.050; -324.000; -275.000
246.098;  -75.350; -508.000; -650.000
246.241;   10.925;  194.000;   48.000
246.383;  -28.975; -119.000;  -73.000
246.526;  -76.800; -454.000; -525.000
246.669; -125.450; -889.000; -780.000
246.811;   25.975;  172.000;   -1.000
246.954;  -68.450; -512.000; -426.000
247.096;  -16.725;  -84.000;   -6.000
247.239;  -83.300; -482.000; -445.000
247.381;  -72.325; -647.000; -488.000
247.524;   94.825;  645.000;  679.000
247.666;    3.875;   58.000;   11.000
247.809; -121.025; -887.000; -691.000
247.951;   -7.850;  -75.000;  138.000
248.094;   27.850;  432.000;  308.000
248.236; -164.025;-1262.000;-1238.000
248.378;   11.025; -356.000;  -81.000
248.521;  -23.625; -334.000; -337.000
248.663;  -32.875; -236.000; -267.000
248.806;  -16.775; -300.000; -266.000
248.948; -103.250; -886.000; -763.000
249.090;  -37.750; -428.000; -398.000
249.233;  -59.200; -344.000; -381.000
249.375;  -63.725; -474.000; -451.000
249.518;  -13.975;  -83.000; -133.000
249.660;   -9.750; -103.000;    3.000
249.802; -172.275;-1303.000;-1189.000
249.945;  -76.200; -612.000; -540.000
250.087; -116.300; -834.000; -768.000
250.229;  -46.225; -362.000; -480.000
250.371;  -68.775; -494.000; -439.000
250.514;  -61.875; -310.000; -244.000
250.656;  -70.750;   69.000;  102.000
250.798; -131.575; -849.000; -800.000
250.940;  -69.400; -322.000; -322.000
251.083;  -30.775; -335.000; -111.000
251.225;   51.075;  338.000;  310.000
251.367;  -50.300; -274.000; -373.000
251.509;  -40.275; -265.000; -210.000
251.651;  -90.975; -731.000; -671.000
251.794;   42.500;  538.000;  632.000
251.936; -105.000; -821.000; -747.000
252.078;  -84.775; -540.000; -461.000
252.220;  -78.325; -645.000; -477.000
252.362;   89.375;  344.000;  462.000
252.504;  -74.775; -677.000; -584.000
252.646; -120.125; -875.000; -722.000
252.788;   -3.800;   14.000; -128.000
252.931;  -47.750; -257.000; -253.000
253.073;  -46.525; -376.000; -317.000
253.215;    0.050;  141.000;  122.000
253.357;   -7.800;   82.000; -153.000
253.499;  -67.125; -374.000; -234.000
253.641;  -80.325; -749.000; -594.000
253.783;  -91.225; -609.000; -527.000
253.925;  -90.400; -586.000; -591.000
254.067; -108.525; -744.000; -667.000
254.209;  -22.225; -391.000; -259.000
254.351; -142.550; -865.000; -883.000
254.493;  -61.350; -441.000; -417.000
254.635; -141.150; -936.000; -818.000
254.777;  -81.800; -752.000; -687.000
254.918;  -66.400; -512.000; -430.000
255.060;  -60.675; -551.000; -395.000
255.202;  -75.450; -473.000; -261.000
255.344;  -85.075; -658.000; -455.000
255.486;  -76.275; -471.000; -406.000
255.628; -104.250; -780.000; -781.000
255.770; -104.300; -676.000; -536.000
255.912;  -57.125; -559.000; -468.000
256.053; -106.125; -730.000; -508.000
256.195;  156.800; 1008.000;  903.000
256.337; -107.350; -861.000; -595.000
256.479;   58.150;  532.000;  416.000
256.621;  -49.600; -394.000; -212.000
256.762;  -93.525; -789.000; -742.000
256.904;   50.225;  485.000;  487.000
257.046;  -45.025; -381.000; -271.000
257.188;  -50.150; -351.000; -264.000
257.329;  -71.350; -525.000; -464.000
257.471; -120.600; -939.000; -807.000
257.613;  -70.575; -584.000; -498.000
257.755; -145.375;-1073.000; -982.000
257.896;   36.450;  286.000;  392.000
258.038;  -82.200; -403.000; -352.000
258.180;  -37.425; -354.000; -279.000
258.321;  -79.550; -581.000; -457.000
258.463;   -3.525;  -71.000;  133.000
258.605; -105.300; -562.000; -570.000
258.746; -119.200; -886.000; -772.000
258.888; -162.025;-1026.000;-1020.000
259.029;   23.950;  121.000;   -8.000
259.171;  -97.875; -614.000; -550.000
259.313;    1.400;  -49.000;  -47.000
259.454;  -85.075; -536.000; -414.000
259.596;  -69.275; -483.000; -390.000
259.737;  -76.900; -590.000; -474.000
259.879;   34.225;  217.000;  311.000
260.020;   80.025;  901.000;  636.000
260.162;  -28.825; -146.000; -253.000
260.303; -119.775; -768.000; -687.000
260.445;  -86.175; -609.000; -613.000
260.586;   31.225;  392.000;  157.000
260.728;  -36.675; -360.000; -248.000
260.869; -114.425; -350.000; -343.000
261.011;   76.250;  706.000;  537.000
261.152;  -66.025; -479.000; -319.000
261.293;  -90.550; -576.000; -595.000
261.435;  -24.550; -219.000; -184.000
261.576;  -54.475; -455.000; -325.000
261.718;   55.125;  420.000;  470.000
261.859; -138.300; -940.000; -949.000
262.000; -151.000; -951.000;-1016.000
262.142;  -27.800;  -52.000;  -60.000
262.283; -116.575; -808.000; -691.000
262.424;  -84.625; -666.000; -625.000
262.566; -157.775;-1161.000; -983.000
262.707; -103.600; -840.000; -830.000
262.848; -121.800; -769.000; -726.000
262.990;  -41.400; -362.000; -345.000
263.131;   63.450;  650.000;  681.000
263.272;   -0.625;  -61.000;  -41.000
263.413;  -96.550; -589.000; -561.000
263.555;  -70.000; -669.000; -143.000
263.696;  -94.800; -550.000; -641.000
263.837;  -58.000; -449.000; -551.000
263.978;    1.350;   -5.000;  -77.000
264.119;  -48.925; -283.000; -264.000
264.261; -129.450; -847.000; -630.000
264.402;   -4.225;   33.000;   40.000
264.543;  -76.000; -509.000; -524.000
264.684;   -3.200;   61.000;  -50.000
264.825;  -82.725; -816.000; -538.000
264.966;  -13.600;  -84.000;  -67.000
265.107; -129.025; -646.000; -670.000
265.248; -116.325; -825.000; -812.000
265.390;  -21.675;  152.000;   -9.000
265.531;  -30.075; -238.000; -107.000
265.672;  -94.275; -557.000; -630.000
265.813;   64.075;  563.000;  439.000
265.954; -143.125; -959.000; -940.000
266.095;   -8.275; -372.000; -322.000
266.236; -103.600; -686.000; -548.000
266.377;  -47.275; -243.000; -297.000
266.518;  -74.200; -619.000; -547.000
266.659;   27.450;  170.000;  268.000
266.800;    4.725;   83.000;   85.000
266.941;  -85.150; -487.000; -478.000
267.082;    1.700;  354.000;   99.000
267.223;  -55.425; -344.000; -273.000
267.364; -126.450; -892.000; -686.000
267.504;  -10.825;    3.000;  135.000
267.645;  -10.125;  160.000;   67.000
267.786;  -33.750; -147.000;  -86.000
267.927;  -68.850; -473.000; -379.000
268.068;  -25.550; -186.000;  -61.000
268.209;  -60.825; -175.000; -413.000
268.350;  -70.100; -388.000; -532.000
268.490;  -86.675; -648.000; -521.000
268.631;   18.050;  127.000;  225.000
268.772; -108.600; -874.000; -647.000
268.913;  -44.350; -328.000; -476.000
269.054;  -24.550; -117.000;   12.000
269.194;  -41.750; -418.000; -402.000
269.335; -165.225;-1137.000;-1074.000
269.476;  -29.200;   33.000;  -35.000
269.617;  -52.675; -347.000; -392.000
269.757;  -92.450; -713.000; -646.000
269.898; -104.350; -856.000; -613.000
270.039;  -67.700; -415.000; -405.000
270.180; -148.850; -952.000; -816.000
270.320;  -32.200; -190.000; -250.000
270.461;  -52.250; -277.000; -249.000
270.602;   -7.625; -186.000; -156.000
270.742; -126.850; -868.000; -943.000
270.883;  -42.700; -442.000; -390.000
271.023;  -64.225; -358.000; -357.000
271.164;  -81.725; -607.000; -528.000
271.305; -110.975; -666.000; -654.000
271.445;  -91.550; -722.000; -683.000
271.586;  -72.075; -462.000; -283.000
271.726;  -45.975; -397.000; -322.000
271.867;  -56.650; -594.000; -534.000
272.008;  173.275; -473.000; -285.000
272.148;  128.450;  462.000;  468.000
272.289;   10.900; -113.000; -181.000
272.429;    3.325;   19.000;  185.000
272.570; -100.550; -633.000; -737.000
272.710;  -96.375; -825.000; -775.000
272.851;  -40.175;  113.000; -130.000
272.991; -161.300;-1173.000;-1077.000
273.131;  -66.275; -419.000; -459.000
273.272; -104.400; -683.000; -723.000
273.412;   -7.450; -143.000;  -31.000
273.553;  -58.400; -488.000; -507.000
273.693;  124.225;  913.000;  858.000
273.834; -103.050; -894.000; -692.000
273.974;  -77.250; -664.000; -615.000
274.114;  -91.600; -772.000; -560.000
274.255;   92.575;  414.000;  373.000
274.395;   11.125; -180.000; -125.000
274.535;   39.375;  199.000;  350.000
274.676;   21.150;  225.000;   94.000
274.816;    6.950;  110.000;   34.000
274.956;  -93.500; -624.000; -690.000
275.097;  -67.650;-1014.000; -922.000
275.237; -121.175; -913.000; -803.000
275.377;  -95.650; -778.000; -689.000
275.517; -153.650; -878.000; -937.000
275.658;  -49.050; -590.000; -555.000
275.798;  -68.625; -606.000; -413.000
275.938;   31.500;  215.000;  323.000
276.078; -111.300; -626.000; -395.000
276.218;   13.900;   99.000;  104.000
276.359; -125.475;-1026.000;-1024.000
276.499;  -74.450; -605.000; -446.000
276.639;  -27.575; -305.000; -151.000
276.779;  -54.425; -475.000; -357.000
276.919; -116.150; -783.000; -624.000
277.059;  -18.000; -261.000; -212.000
277.199;  -39.225; -357.000; -259.000
277.340;   40.325;  287.000;  175.000
277.480; -124.625; -840.000; -693.000
277.620;   30.275;  192.000;   16.000
277.760; -206.925;-1533.000;-1294.000
277.900;   18.475;  113.000;   33.000
278.040;    7.075;  137.000;  159.000
278.180;   34.550;  270.000;  170.000
278.320;   -4.925;   21.000;   56.000
278.460;  -75.600; -443.000; -469.000
278.600; -101.850; -708.000; -598.000
278.740;   58.875;  448.000;  224.000
278.880;  -64.275; -768.000; -791.000
279.020;  -21.900; -194.000; -144.000
279.160; -111.700; -672.000; -595.000
279.300; -129.125; -926.000; -873.000
279.440;  -98.625; -709.000; -622.000
279.579;  -13.300;-1014.000; -929.000
279.719;  -64.125; -410.000; -394.000
279.859;   64.250;   -4.000;   41.000
279.999;   24.850; -208.000;  101.000
280.139;  -29.625; -435.000; -387.000
280.279;  -76.900; -708.000; -745.000
280.419;  -23.225; -229.000; -147.000
280.559;  -41.375; -259.000; -180.000
280.698;  -86.050; -790.000; -639.000
280.838; -101.300; -778.000; -800.000
280.978; -102.650; -846.000; -790.000
281.118; -125.450; -811.000; -704.000
281.257;    7.775;   24.000;    6.000
281.397; -114.950;-1094.000; -960.000
281.537;  -92.325; -599.000; -712.000
281.677;  -35.100; -150.000; -101.000
281.816;  -93.850; -700.000; -630.000
281.956;  -36.475; -193.000; -257.000
282.096;  -70.550; -539.000; -396.000
282.235; -117.775; -672.000; -638.000
282.375;  -18.750; -243.000;  -98.000
282.515; -109.875; -715.000; -707.000
282.654;   26.950;   29.000;  106.000
282.794;   22.050;  388.000;  244.000
282.934;  -60.725; -530.000; -491.000
283.073; -137.900;-1030.000; -857.000
283.213;  -57.000; -460.000; -467.000
283.353;  -45.600; -408.000; -349.000
283.492;  -38.675; -264.000; -296.000
283.632;  -44.650; -254.000; -168.000
283.771;  -99.000; -859.000; -730.000
283.911;  -55.675; -369.000; -260.000
284.050; -112.025; -794.000; -748.000
284.190; -157.850;-1229.000;-1096.000
284.329; -153.025;-1055.000; -964.000
284.469;  -82.650; -516.000; -591.000
284.608;  -55.225; -559.000; -598.000
284.748;  -87.675; -614.000; -570.000
284.887;  -14.700;  -87.000;  -20.000
285.027; -137.850; -844.000; -892.000
285.166;  -36.250; -192.000; -249.000
285.306;  -10.025; -116.000;  -33.000
285.445;  -43.025; -229.000; -343.000
285.584;  -97.575; -630.000; -494.000
285.724;  -42.875; -282.000; -322.000
285.863; -123.550; -857.000; -507.000
286.002;  -50.900; -366.000; -276.000
286.142; -109.950; -715.000; -622.000
286.281;  -71.550; -525.000; -493.000
286.420;  -83.575; -554.000; -417.000
286.560;   88.275;  653.000;  623.000
286.699; -135.000; -958.000; -912.000
286.838;  -88.300; -590.000; -591.000
286.978;  -86.650; -533.000; -537.000
287.117; -143.925;-1085.000; -950.000
287.256;  -41.050; -228.000; -211.000
287.395;  -58.650; -197.000; -378.000
287.535;  -59.275; -370.000; -298.000
287.674;  -97.325; -509.000; -484.000
287.813;   48.200;  661.000;  533.000
287.952; -128.000;-1010.000; -871.000
288.091; -164.025;-1049.000; -915.000
288.231;    5.525;   13.000;   15.000
288.370; -174.025;-1217.000;-1200.000
288.509;  -97.525; -728.000; -645.000
288.648;  -75.425; -770.000; -548.000
288.787;  -16.750; -243.000;  -87.000
288.926;  -74.225; -454.000; -475.000
289.065;  123.075;  859.000;  672.000
289.204;  -61.275; -377.000; -217.000
289.344;  -89.100; -791.000; -690.000
289.483;   15.625;  416.000;  304.000
289.622;  -29.025; -291.000; -149.000
289.761;  -21.550; -309.000; -166.000
289.900; -100.675; -785.000; -626.000
290.039;  -25.675;  -12.000;  -95.000
290.178;  -34.825; -274.000; -180.000
290.317;  -86.450; -618.000; -479.000
290.456;  -74.100; -463.000; -451.000
290.595; -146.150; -961.000; -833.000
290.734; -149.475; -904.000; -891.000
290.873;  -72.050; -456.000; -420.000
291.011; -102.125; -833.000; -843.000
291.150; -111.650; -770.000; -682.000
291.289;  -21.175; -343.000; -110.000
291.428; -109.725; -599.000; -480.000
291.567;  -63.150; -370.000; -442.000
291.706;  -29.750;  109.000;  154.000
291.845;  -85.175; -597.000; -505.000
291.984; -177.250;-1234.000;-1061.000
292.122;   76.900;  602.000;  582.000
292.261;   13.625;  620.000;  463.000
292.400;   -6.575; -144.000;  211.000
292.539; -129.550; -959.000; -813.000
292.678;  -33.150; -325.000; -300.000
292.816; -156.650;-1136.000; -965.000
292.955;  -89.150; -844.000; -684.000
293.094;  -30.500; -173.000; -337.000
293.233;  -49.225; -556.000; -400.000
293.371;  -32.825; -225.000;  -84.000
293.510; -115.575; -866.000; -780.000
293.649; -131.025; -959.000; -924.000
293.787;  -56.375;-1083.000;-1012.000
293.926;  -19.600; -113.000;  -32.000
294.065;  -56.575; -379.000; -290.000
294.203;   45.875;  298.000;  406.000
294.342;   21.025;   74.000;  156.000
294.481; 5437.100;51180.000; -836.000
294.619;  -23.650; -425.000; -582.000
294.758; -150.575;-1230.000;-1137.000
294.896;   71.450; -125.000;    5.000
295.035; -131.600;-1040.000;-1006.000
295.174; -129.300;-1082.000; -954.000
295.312;  -53.850; -323.000; -203.000
295.451;   -2.225; -307.000; -428.000
295.589;  -53.150; -389.000; -518.000
295.728;   20.725; -292.000; -165.000
295.866;   -2.225;  -36.000;  -51.000
296.005;  -67.450; -584.000; -341.000
296.143;  -80.850; -558.000; -596.000
296.282; -103.725; -957.000; -881.000
296.420;  -87.675; -657.000; -557.000
296.559;  -84.625; -892.000; -633.000
296.697;   24.800; -847.000; -665.000
296.835;   56.550;-1141.000;-1002.000
296.974;   43.075;  -23.000;   39.000
297.112;   -7.250; -443.000; -504.000
297.251;  -87.950; -815.000; -755.000
297.389;   88.775; -576.000; -438.000
297.527;   26.975; -145.000;  -83.000
297.666;  -52.075; -486.000; -438.000
297.804;  -57.100; -404.000; -264.000
297.942;  -17.100; -136.000; -161.000
298.081;  -16.550; -183.000;   63.000
298.219;   85.375;  -17.000;  -19.000
298.357;   50.350; -144.000;  -71.000
298.495;   32.175; -810.000; -812.000
298.634;   71.100;  245.000;  219.000
298.772;   62.275; -220.000; -338.000
298.910;  -33.550; -309.000; -182.000
299.048;  -14.950; -130.000; -153.000
299.187;  -30.125; -350.000; -250.000
299.325;   15.950;   52.000;  122.000
299.463;   52.075; -389.000; -299.000
299.601;  108.375; -327.000; -271.000
299.739; -115.275; -908.000; -883.000
299.877;  -95.125; -791.000; -703.000
300.016;  -42.950;-1095.000; -935.000
300.154;  167.000;  -19.000; -161.000
300.292;   48.100; -428.000; -348.000
300.430;   19.350; -408.000; -291.000
300.568; -102.375; -940.000; -874.000
300.706;  -47.375; -366.000; -469.000
300.844;  -66.875;-1108.000; -979.000
300.982;  117.875;  246.000;  282.000
301.120; -111.675; -965.000; -866.000
301.258;  -58.625; -812.000; -705.000
301.396;   23.800;  104.000;  -41.000
301.534;   92.825; -218.000; -293.000
301.672;   -1.125; -664.000; -521.000
301.810;   26.125; -613.000; -545.000
301.948;  110.175;   53.000;  149.000
302.086;  650.300; -250.000;  -32.000
302.224;  951.900; -610.000; -585.000
302.362;   39.300; -558.000; -622.000
302.500;  -23.325; -923.000; -893.000
302.638;  104.750;  128.000;  245.000
302.776;  -15.125; -352.000; -408.000
302.913;   49.450;  447.000;  236.000
303.051;    3.225;  -86.000;  -23.000
303.189;   54.325;   90.000;  118.000
303.327;  -46.225; -341.000; -256.000
303.465;  -78.600; -832.000; -588.000
303.603; -101.125; -805.000; -604.000
303.740;   91.375;  417.000;  241.000
303.878;   11.725; -800.000; -759.000
304.016;  -75.500; -915.000; -790.000
304.154; -122.100;-1123.000;-1152.000
304.291;  -45.950; -505.000; -554.000
304.429;    8.575;  102.000;   74.000
304.567; -140.400; -908.000; -893.000
304.705;  -61.600; -408.000; -515.000
304.842;  100.875; -616.000; -540.000
304.980;   45.350;  215.000;   35.000
305.118;   37.475; -367.000; -365.000
305.255;  -86.175; -945.000; -927.000
305.393;   67.525;  178.000;  239.000
305.531; -104.975;-1173.000; -956.000
305.668;  -72.650; -663.000; -582.000
305.806;   99.225; -358.000; -439.000
305.943;  118.925; -629.000; -637.000
306.081;   57.675; -378.000; -267.000
306.219; -115.700; -863.000; -748.000
306.356;    0.775;  158.000;   27.000
306.494;  115.275;  981.000;  761.000
306.631;  -16.800;  -11.000;  -55.000
306.769;    5.250; -613.000; -485.000
306.906;  -19.875; -284.000; -258.000
307.044;  -62.375; -473.000; -488.000
307.181;  -79.925; -410.000; -332.000
307.319;   18.725;  112.000;   87.000
307.456; -177.425;-1191.000;-1153.000
307.594;  -91.950; -980.000; -727.000
307.731;   -8.850; -371.000; -164.000
307.868;   -1.600;  -15.000;   20.000
308.006; -138.050; -961.000; -847.000
308.143;  -64.225; -618.000; -330.000
308.281;  154.600;  -37.000; -254.000
308.418;  -22.275; -748.000; -640.000
308.555;  -65.550; -400.000; -250.000
308.693;  -76.375; -577.000; -573.000
308.830; -119.150; -712.000; -657.000
308.967;  -26.200; -215.000;  -95.000
309.105;  -53.975; -507.000; -396.000
309.242;   26.375; -468.000; -367.000
309.379;  290.450; -577.000; -655.000
309.517;  -64.400; -936.000; -948.000
309.654; -115.550; -910.000; -734.000
309.791;  -82.475; -662.000; -580.000
309.928; -116.300; -977.000; -914.000
310.065;  174.775;  819.000;  697.000
310.203;  -16.825; -825.000; -850.000
310.340;  -14.800; -465.000; -321.000
310.477;  -82.850; -412.000; -516.000
310.614;  -65.275; -383.000; -473.000
310.751;  -80.825; -427.000; -518.000
310.889;  -25.825;    1.000;   11.000
311.026; -155.700;-1161.000; -939.000
311.163;  -47.275; -386.000; -380.000
311.300;  -86.400; -512.000; -479.000
311.437;  -74.925; -658.000; -619.000
311.574; -161.775;-1226.000; -985.000
311.711;  -65.875; -595.000; -433.000
311.848;  -40.625; -380.000; -388.000
311.985;    8.500;  270.000;   93.000
312.122; -121.250; -932.000; -762.000
312.259; -133.125; -941.000; -994.000
312.396;  -94.200; -508.000; -551.000
312.533;  -82.375; -812.000; -790.000
312.670; -135.425;-1070.000; -898.000
312.807;  -28.475; -352.000; -367.000
312.944;  -79.850; -513.000; -611.000
313.081;  -37.925; -150.000; -415.000
313.218; -114.100;-1111.000; -867.000
313.355;    1.200; -531.000; -449.000
313.492;   -0.625; -455.000; -292.000
313.629;  125.950;  815.000;  735.000
313.766; -169.575;-1176.000;-1008.000
313.902;  -14.175; -186.000;   21.000
314.039;  -56.525; -372.000; -289.000
314.176;   17.400;  286.000;  192.000
314.313;  -89.575; -569.000; -473.000
314.450;  -78.825; -788.000; -684.000
314.587;  -61.950; -468.000; -480.000
314.723;   10.875;  -78.000;  130.000
314.860;   24.400;  318.000;  332.000
314.997;   23.225;  223.000;  142.000
315.134;  -53.475; -385.000; -368.000
315.270;  -32.700; -480.000; -496.000
315.407; -131.100;-1094.000; -967.000
315.544;  -61.775; -657.000; -538.000
315.681;  -72.650; -681.000; -565.000
315.817;   28.025; -133.000; -176.000
315.954;    3.925; -613.000; -392.000
316.091; -120.000;-1045.000;-1023.000
316.227;  -30.275;  -71.000; -179.000
316.364;   -3.050;   23.000;    6.000
316.500;  -45.600; -113.000; -300.000
316.637;  -52.550; -181.000; -302.000
316.774;  -90.425; -625.000; -358.000
316.910;  -97.200; -598.000; -629.000
317.047;  -71.675; -487.000; -351.000
317.183;  -56.975; -435.000; -566.000
317.320;  -19.850; -367.000; -321.000
317.456;  -63.650; -733.000; -805.000
317.593; -104.900; -598.000; -641.000
317.729;   -0.250;  168.000;  -67.000
317.866; -209.225;-1434.000;-1285.000
318.002;  -84.925; -708.000; -948.000
318.139; -102.050; -883.000; -867.000
318.275; -105.200;-1003.000; -738.000
318.412;  -67.225; -517.000; -336.000
318.548;  -31.500; -751.000; -720.000
318.685; -113.450; -985.000; -888.000
318.821;  -96.025; -762.000; -735.000
318.957;  -30.850;   34.000;  -23.000
319.094;   28.150;  297.000;  154.000
319.230;  -59.800; -756.000; -742.000
319.367;  123.575; -471.000; -520.000
319.503;   58.600; -538.000; -436.000
319.639;  -93.125; -877.000; -793.000
319.775;  -65.325; -750.000; -685.000
319.912;  -71.750; -424.000; -519.000
320.048;  -91.425;-1184.000;-1184.000
320.184;   70.500;   59.000;   70.000
320.321;  -75.150; -497.000; -467.000
320.457;   53.725;  475.000;  662.000
320.593;  -73.875; -375.000; -382.000
320.729; -103.850; -732.000; -734.000
320.866;  -85.225; -577.000; -635.000
321.002;  -78.125; -759.000; -809.000
321.138;  -32.700; -135.000; -211.000
321.274;   75.875; -148.000; -115.000
321.410;  -33.400; -585.000; -353.000
321.546;  -24.000;-1011.000; -911.000
321.683;   41.700;  400.000;  185.000
321.819;   16.350;  -48.000; -117.000
321.955; -111.350; -743.000; -722.000
322.091;  -43.950; -585.000; -540.000
322.227;  -20.925; -382.000; -202.000
322.363;  -10.625; -320.000; -215.000
322.499;  -55.050; -343.000; -331.000
322.635;  174.475;  636.000;  443.000
322.771;   27.800; -139.000;   12.000
322.907;   81.450;  129.000;  327.000
323.043;  -31.950; -115.000; -206.000
323.179;  -40.775; -394.000; -363.000
323.315;  -15.900; -401.000; -371.000
323.451;  102.550; -328.000; -236.000
323.587;   71.225;  -60.000;  -77.000
323.723;   13.450; -682.000; -601.000
323.859;  -14.750; -258.000;  -76.000
323.995;  -41.150; -467.000; -409.000
324.131; -130.150; -967.000; -892.000
324.267;  -47.650; -254.000; -276.000
324.402; -148.875; -960.000; -983.000
324.538;  -19.900; -279.000; -104.000
324.674;    7.925;  164.000;   77.000
324.810;  128.950;  226.000;  308.000
324.946;   -8.900; -810.000; -658.000
325.082;  -62.700; -568.000; -475.000
325.217;  -25.875;  -62.000;   16.000
325.353;  -93.325; -764.000; -659.000
325.489;  -89.750; -540.000; -506.000
325.625;  -76.700; -579.000; -525.000
325.760;   50.425;  517.000;  376.000
325.896;  -26.600; -515.000; -702.000
326.032;  -48.675; -403.000; -352.000
326.168;  -64.425; -462.000; -369.000
326.303;  -73.550; -352.000; -461.000
326.439;  -30.350; -336.000; -276.000
326.575;  -17.300; -190.000;  -29.000
326.710;  -11.900; -156.000;  -30.000
326.846;  -16.800;  146.000;  103.000
326.982;  -98.975; -530.000; -548.000
327.117;  -78.650; -481.000; -442.000
327.253;  -89.500; -745.000; -742.000
327.388; -139.125;-1137.000;-1153.000
327.524;  -58.150; -811.000; -578.000
327.659;  -32.775;  -58.000;  -22.000
327.795;  -16.575;   69.000;   45.000
327.931;  -88.500; -723.000; -499.000
328.066;  -21.125; -417.000; -276.000
328.202;  -40.225;   12.000; -129.000
328.337;   99.225;  957.000;  713.000
328.473;   45.600;  -12.000;  -74.000
328.608;  -22.825; -256.000; -267.000
328.743;  -89.300; -799.000; -664.000
328.879;    2.700;  214.000;  114.000
329.014;  -38.025; -102.000; -122.000
329.150;  -78.700; -358.000; -483.000
329.285;  -86.750; -465.000; -466.000
329.421;  -53.325; -548.000; -246.000
329.556;  -38.825;  -36.000;   85.000
329.691;  -89.050; -633.000; -615.000
329.827;  -81.950; -626.000; -480.000
329.962;  -46.725;  131.000; -301.000
330.097;  -94.500; -673.000; -585.000
330.233;  -50.500; -410.000; -223.000
330.368; -143.800; -839.000; -628.000
330.503;  -17.750;    3.000;   98.000
330.638;  -12.675;  -93.000; -125.000
330.774;  -56.000; -609.000; -530.000
330.909;  -44.900; -434.000; -244.000
331.044; -100.100; -714.000; -708.000
331.179; -171.850;-1217.000;-1109.000
331.315;   -3.425;   77.000;   20.000
331.450;   16.325;  157.000;  285.000
331.585;  -89.000; -805.000; -706.000
331.720;  -84.275; -510.000; -460.000
331.855;   -3.450;  -35.000; -102.000
331.990;  234.650;   62.000;  138.000
332.126;  120.700; -110.000;   71.000
332.261;  -32.550; -379.000; -265.000
332.396;    1.700; -135.000; -242.000
332.531;  -95.475;-1074.000;-1031.000
332.666;   25.100; -519.000; -363.000
332.801; -110.725; -726.000; -807.000
332.936;  -20.750; -192.000; -122.000
333.071; -135.700; -870.000; -817.000
333.206;    7.800;  307.000;  379.000
333.341;   23.325;  344.000;  418.000
333.476;  -98.400; -627.000; -623.000
333.611;  -35.475; -251.000; -173.000
333.746;  -60.450; -381.000; -464.000
333.881; -135.400; -973.000; -935.000
334.016; -119.575; -936.000; -917.000
334.151; -116.150; -746.000; -702.000
334.286;   25.125;  152.000;  186.000
334.421;  -41.975; -125.000; -178.000
334.556;  -94.200; -611.000; -567.000
334.690;  -93.450; -631.000; -577.000
334.825;   58.775;  381.000;   83.000
334.960;  -60.650; -285.000; -413.000
335.095;    5.025;  135.000;  -91.000
335.230; -120.800; -722.000; -738.000
335.365; -124.800;-1084.000; -990.000
335.499; -128.125;-1108.000;-1037.000
335.634;   31.350;    9.000;  534.000
335.769;  -94.875; -755.000; -720.000
335.904;  -58.525; -603.000; -561.000
336.038;  -68.600; -735.000; -657.000
336.173; -114.775;-1206.000;-1194.000
336.308;    3.175; -116.000; -189.000
336.443;    9.650; -544.000; -634.000
336.577;  -80.125; -936.000; -787.000
336.712;   61.575;   -4.000;  -12.000
336.847;  -54.550; -724.000; -607.000
336.981;   62.000; -272.000; -208.000
337.116;  290.000;  615.000;  501.000
337.250;  159.875; -434.000; -421.000
337.385;  244.900; -297.000; -208.000
337.520;   79.300; -632.000; -603.000
337.654;  -44.475; -215.000; -126.000
337.789; -119.050; -989.000; -933.000
337.923;  -43.900; -104.000; -205.000
338.058;  -82.525; -673.000; -738.000
338.192;  -37.425; -611.000; -488.000
338.327;  -11.700;  -18.000; -155.000
338.461;  -72.650; -299.000; -469.000
338.596;  -91.800; -780.000; -638.000
338.730; -113.075; -767.000; -803.000
338.865;   95.500;  -46.000; -140.000
338.999;  -49.500; -846.000; -702.000
339.134;  -35.700; -634.000; -536.000
339.268;   11.350; -741.000; -603.000
339.403;  365.600; -740.000; -775.000
339.537;  100.050; -894.000; -820.000
339.671; -112.850; -829.000; -813.000
339.806;  -54.650; -556.000; -512.000
339.940;   20.775; -261.000; -235.000
340.074; -110.325; -685.000; -510.000
340.209;  -42.325; -351.000; -230.000
340.343;  -99.000; -517.000; -573.000
340.477;  130.750;  998.000; 1036.000
340.612;  -55.800;-1033.000; -900.000
340.746;  127.650; -199.000; -243.000
340.880;  -81.950; -924.000; -785.000
341.014;  -23.850;  -45.000; -154.000
341.149; -133.925; -756.000; -718.000
341.283; -104.100; -839.000; -754.000
341.417;  -94.925;-1124.000; -938.000
341.551;  134.975; -768.000; -708.000
341.685;  -47.825; -633.000; -611.000
341.820;  -67.050; -562.000; -493.000
341.954;  -58.500; -218.000; -349.000
342.088; -155.525;-1102.000;-1019.000
342.222;   56.500;  565.000;  618.000
342.356;  -73.300; -395.000; -335.000
342.490; -100.250; -880.000; -841.000
342.624;  -42.350; -339.000; -242.000
342.758;  -18.950; -364.000; -312.000
342.892;  -64.925; -710.000; -585.000
343.026;  -40.875;  -58.000; -116.000
343.160;  -61.875; -426.000; -376.000
343.294;  -87.525; -474.000; -337.000
343.428;  -29.075; -488.000; -448.000
343.562;  -30.975; -172.000;  -23.000
343.696;  -36.400; -385.000; -314.000
343.830;  -26.100; -362.000; -356.000
343.964;   22.350; -231.000; -168.000
344.098;  926.725;  199.000;   70.000
344.232;  786.500; -266.000; -127.000
344.366;   80.325; -567.000; -453.000
344.500;   53.500; -665.000; -744.000
344.634;   24.125; -324.000; -164.000
344.768;   -7.825; -531.000; -341.000
344.902;   19.375;  278.000;  256.000
345.035;  -81.650; -556.000; -496.000
345.169; -136.400; -933.000; -656.000
345.303;  -38.250; -308.000; -482.000
345.437;  -87.375; -826.000; -717.000
345.571;  -83.100; -675.000; -594.000
345.704;  -80.000; -309.000; -532.000
345.838;  -12.075; -331.000; -284.000
345.972;  -42.625; -543.000; -495.000
346.106;  176.775; -179.000; -190.000
346.239;  408.400; -312.000; -243.000
346.373;   11.250; -343.000; -302.000
346.507; -146.900; -950.000; -962.000
346.640;  150.175;  -30.000;   13.000
346.774;  -61.725; -650.000; -797.000
346.908;  -15.775; -138.000;  -11.000
347.041; -106.275; -646.000; -593.000
347.175;    8.900;  259.000;   27.000
347.309;  -84.575; -698.000; -628.000
347.442; -103.325; -883.000; -732.000
347.576;  284.575;  670.000;  668.000
347.709;  209.400; -123.000;  -52.000
347.843; -106.625; -933.000; -825.000
347.976;   46.825;  235.000;  294.000
348.110; -190.125;-1268.000;-1186.000
348.243;  -97.225; -679.000; -772.000
348.377;   -6.075;  -26.000;   60.000
348.510;   45.950;  403.000;  540.000
348.644;  -53.400;  -37.000; -159.000
348.777;    2.100;  180.000;  191.000
348.911;  -52.325; -142.000; -112.000
349.044;  168.675;  471.000;  448.000
349.178;  161.725;-1069.000;-1006.000
349.311;  106.725;  141.000;  255.000
349.444;   -7.525; -927.000; -813.000
349.578;  -24.125; -347.000; -200.000
349.711; -108.725; -959.000; -862.000
349.845;   -8.075; -661.000; -591.000
349.978; -165.500;-1224.000;-1137.000
350.111;  -87.975; -546.000; -612.000
350.244;  -80.250; -596.000; -700.000
350.378;    0.700; -392.000; -393.000
350.511;  -78.425; -393.000; -426.000
350.644;  -98.375; -808.000; -806.000
350.778;    9.600;  168.000;  104.000
350.911;    5.050;  134.000;  140.000
351.044; -101.025; -685.000; -615.000
351.177;  -29.350; -321.000; -281.000
351.310;  -19.300;    3.000; -131.000
351.444;  -71.625; -888.000; -788.000
351.577;  110.275;  140.000;   90.000
351.710;   86.925;  593.000;  417.000
351.843;  -43.625; -165.000;  -77.000
351.976;   -9.275;  149.000;  -79.000
352.109; -102.825; -621.000; -612.000
352.242;  -33.100; -464.000; -419.000
352.376;  -81.100; -580.000; -636.000
352.509;  185.450; -437.000; -356.000
352.642;    4.000; -654.000; -604.000
352.775;   58.600; -141.000;  -98.000
352.908; -124.875; -933.000; -904.000
353.041;  -95.900; -814.000; -824.000
353.174;  -71.725; -551.000; -424.000
353.307;  -95.250; -753.000; -764.000
353.440;   59.550;  541.000;  453.000
353.573; -111.975; -957.000;-1008.000
353.706;  -53.200; -384.000; -558.000
353.839;  -21.675; -264.000; -220.000
353.971;  -82.100; -657.000; -512.000
354.104;  -82.050; -896.000; -835.000
354.237;  -42.350; -627.000; -662.000
354.370;  -90.400; -846.000; -879.000
354.503; -180.575;-1231.000;-1308.000
354.636;  -26.325; -529.000; -348.000
354.769; -137.150; -937.000; -860.000
354.902;   -2.750; -230.000; -139.000
355.034;  -37.950; -164.000; -220.000
355.167;  -28.475; -262.000; -162.000
355.300;  -90.025;-1061.000; -880.000
355.433;  957.975;  -71.000;  -14.000
355.565; 1519.800; -402.000; -384.000
355.698;  367.150; -356.000; -296.000
355.831;   -9.375; -882.000; -801.000
355.964;   91.000; -285.000; -170.000
356.096;  -95.875; -856.000; -843.000
356.229;    6.025; -523.000; -530.000
356.362;  308.050; -373.000; -266.000
356.494;  575.850; -229.000; -162.000
356.627;  487.150;  269.000;  377.000
356.760;  671.325;  120.000;   53.000
356.892;  962.425; -286.000; -601.000
357.025;  658.700;  403.000;  389.000
357.157;  578.675; -167.000; -179.000
357.290;  679.050; -856.000; -713.000
357.423;  197.675; -667.000; -556.000
357.555;  121.025; -217.000; -228.000
357.688;  119.550; -483.000; -364.000
357.820;  464.325; -870.000; -877.000
357.953; 3816.375; -563.000; -589.000
358.085;  838.325; -632.000; -612.000
358.218; 1161.775;-1131.000; -932.000
358.350;  202.725;  -58.000;  312.000
358.483; -114.925;-1300.000;-1187.000
358.615;  -24.225;-1182.000;-1078.000
358.747;  -54.750;-1187.000;-1058.000
358.880;   14.850; -810.000; -744.000
359.012;  -11.525; -376.000; -202.000
359.145;  -29.750; -480.000; -511.000
359.277;   50.600; -962.000; -913.000
359.409; 3129.225;  536.000;  231.000
359.542;  824.425; -738.000; -688.000
359.674;   69.675;   46.000;   13.000
359.806;  -75.775; -565.000; -438.000
359.939;  -49.150; -617.000; -516.000
360.071;  -12.800; -583.000; -579.000
360.203;  -18.725; -411.000; -364.000
360.335;   46.225;  164.000;  -16.000
360.468;  195.750; -249.000; -307.000
360.600; 2503.350; -547.000; -454.000
360.732; 2887.650; -546.000; -423.000
360.864;  386.350;-1216.000;-1044.000
360.996;  279.675; -516.000; -554.000
361.129;   30.800; -389.000; -598.000
361.261;   16.150;  110.000; -113.000
361.393;  -45.900; -252.000; -214.000
361.525;   32.700;   94.000;  244.000
361.657;  -54.125; -821.000; -703.000
361.789;    9.175; -139.000; -155.000
361.921;  226.900; -642.000; -593.000
362.053;  246.250;  524.000;  541.000
362.185;   43.950;  288.000;   72.000
362.318;  -80.000; -709.000; -705.000
362.450;  111.425;  294.000;  444.000
362.582;  101.675; -913.000; -870.000
362.714;  -40.050; -353.000; -332.000
362.846;  -88.975; -606.000; -490.000
362.978; -147.075; -941.000; -811.000
363.109;   41.800; -161.000; -260.000
363.241;  436.175; -739.000; -749.000
363.373;  429.950; -649.000; -564.000
363.505;  673.575; -186.000;  -91.000
363.637;  157.675; -787.000; -601.000
363.769; -128.350;-1067.000;-1080.000
363.901;  -77.475; -596.000; -654.000
364.033; -119.600;-1103.000;-1062.000
364.165;    3.300; -283.000; -283.000
364.296;   77.925; -316.000; -177.000
364.428;   84.800;-1344.000;-1220.000
364.560;  -75.025; -679.000; -661.000
364.692;  -59.275; -738.000; -835.000
364.824;  261.600; -588.000; -456.000
364.955;  449.975; -402.000; -564.000
365.087;  926.475;-1097.000; -852.000
365.219;   33.200; -686.000; -816.000
365.351;  -72.425; -526.000; -572.000
365.482;   54.025;  300.000;  240.000
365.614;  -53.400; -402.000; -314.000
365.746; -100.850; -729.000; -752.000
365.877; -112.450; -706.000; -672.000
366.009;  258.950;  -35.000;  -62.000
366.141;  -94.250;-1249.000;-1134.000
366.272; -109.875; -803.000; -719.000
366.404; -111.775;-1005.000; -874.000
366.535;  -22.700; -139.000;  -12.000
366.667; -103.150; -644.000; -649.000
366.799;   31.950;  353.000;  203.000
366.930; -121.375; -862.000; -996.000
367.062;  111.750; -639.000; -613.000
367.193;  137.000; -872.000; -842.000
367.325;  -67.350; -580.000; -684.000
367.456;   31.525; -246.000;   31.000
367.588;  161.450; -371.000; -318.000
367.719;   16.550;  -44.000;  -45.000
367.851;  -22.700; -222.000; -241.000
367.982;  -60.550; -875.000; -732.000
368.113;   92.100; -475.000; -358.000
368.245; -127.450; -960.000; -841.000
368.376;  -34.850; -254.000; -302.000
368.508;  -46.600; -188.000; -263.000
368.639; -140.575;-1166.000;-1034.000
368.770;  -22.675; -670.000; -589.000
368.902;  -61.050; -836.000; -926.000
369.033; -110.700; -906.000; -855.000
369.164;  -50.825; -720.000; -653.000
369.296; -108.625; -452.000; -601.000
369.427;   -2.850; -209.000; -144.000
369.558;  -63.525; -593.000; -377.000
369.689;  -88.075; -721.000; -569.000
369.821; -134.875; -951.000; -845.000
369.952;  -19.200;   42.000; -108.000
370.083;  -45.100; -229.000; -108.000
370.214;  -84.025; -735.000; -650.000
370.345;  -24.025;   65.000;   81.000
370.477;  -90.650; -810.000; -790.000
370.608;  225.700; -328.000; -264.000
370.739;  -53.075;-1233.000;-1292.000
370.870;  -45.150;-1102.000; -923.000
371.001;   65.050; -378.000; -467.000
371.132;  -83.150; -754.000; -735.000
371.263;  -25.250;  -42.000; -148.000
371.394; -137.200; -841.000; -748.000
371.525;   29.725;  345.000;  225.000
371.657; -102.975; -808.000; -670.000
371.788;   72.200;  103.000;  199.000
371.919;  160.825; -384.000; -304.000
372.050; 3719.550;  -91.000; -156.000
372.181; 1096.025; -188.000; -294.000
372.311;  388.150;   42.000; -127.000
372.442;   30.950; -457.000; -451.000
372.573;  -36.700; -444.000; -340.000
372.704; -120.075;-1008.000; -980.000
372.835;   88.725; -228.000; -289.000
372.966;  -75.175; -646.000; -554.000
373.097;  -68.500; -575.000; -711.000
373.228;  -40.025; -717.000; -542.000
373.359;  140.250; -824.000; -536.000
373.490;  962.625; -881.000; -727.000
373.620; 1188.450;-1001.000; -803.000
373.751; 1825.850; -332.000; -396.000
373.882;  805.200; -663.000; -733.000
374.013;   53.675; -449.000; -262.000
374.143;  -50.850; -581.000; -659.000
374.274;  -90.250; -987.000; -908.000
374.405;  167.225; -388.000; -276.000
374.536;  435.825; -526.000; -387.000
374.666; 1132.200; -759.000; -807.000
374.797;  227.550; -817.000; -868.000
374.928;  869.475; -710.000; -560.000
375.058;  910.625; -535.000; -500.000
375.189;   69.575;  -59.000;  -93.000
375.320; -109.850; -928.000;-1034.000
375.450;  -34.075; -625.000; -616.000
375.581;  -48.525; -526.000; -436.000
375.712;  -43.075; -574.000; -250.000
375.842;  299.325; -438.000; -415.000
375.973;  218.775; -554.000; -513.000
376.103;  -52.800; -665.000; -648.000
376.234;  -85.875; -531.000; -552.000
376.364;  -47.825; -944.000; -867.000
376.495;  327.275;  925.000;  529.000
376.625;  -32.200; -472.000; -485.000
376.756;   76.825; -709.000; -678.000
376.886;  -88.775;-1178.000;-1026.000
377.017;   41.150;-1048.000;-1061.000
377.147;  340.650; -786.000; -782.000
377.278;   57.050;  174.000;  228.000
377.408; -141.775; -801.000; -815.000
377.538; -104.100; -707.000; -693.000
377.669;  -80.775; -537.000; -613.000
377.799;  -97.600; -645.000; -635.000
377.929;  -65.775; -610.000; -428.000
378.060; -127.325; -781.000; -847.000
378.190;  -59.075; -726.000; -531.000
378.320;  -58.950; -401.000; -406.000
378.451;  -29.300; -131.000;  -22.000
378.581;  -11.175;  -67.000; -110.000
378.711;  122.600; 1035.000;  866.000
378.841;  -16.200; -533.000; -675.000
378.972;  -68.675; -871.000; -751.000
379.102;  -22.050; -652.000; -579.000
379.232;  -37.000; -126.000;  -73.000
379.362; -117.525;-1001.000; -885.000
379.492;   -6.625; -373.000; -424.000
379.623;  100.950;    0.000;  111.000
379.753; -106.800;-1107.000; -974.000
379.883;  192.050;   59.000;  156.000
380.013;    4.025;-1081.000;-1017.000
380.143;  -80.575;-1097.000;-1056.000
380.273; -111.525; -985.000; -861.000
380.403;  -16.950; -344.000; -257.000
380.533;  -40.425; -651.000; -664.000
380.663;   69.675;  173.000;  128.000
380.793; -107.825;-1027.000;-1074.000
380.923;  -22.600; -103.000;  -34.000
381.053;  -94.925; -613.000; -623.000
381.183;  -23.875; -106.000; -248.000
381.313;   41.625; -656.000; -470.000
381.443;   36.300; -692.000; -473.000
381.573;  194.750; -402.000; -409.000
381.703;  278.100;-1249.000;-1095.000
381.833; -132.350;-1454.000;-1336.000
381.963;  107.700; -134.000;  -87.000
382.093; 1433.300; -925.000; -909.000
382.223;  465.350; -713.000; -602.000
382.353;  -20.025; -801.000; -608.000
382.482;  393.250;-1091.000; -964.000
382.612;  789.825; -872.000; -644.000
382.742;  456.375; -695.000; -622.000
382.872;  237.325; -565.000; -551.000
383.002;   56.425;  347.000; -132.000
383.131;  -25.075; -226.000; -160.000
383.261;  -55.525; -706.000; -768.000
383.391;  298.800; -552.000; -377.000
383.521; 3240.650;  451.000;  263.000
383.650;  767.975; -947.000; -904.000
383.780;  -20.525; -783.000; -656.000
383.910;   94.300;  880.000;  802.000
384.039;   27.800; -794.000; -656.000
384.169;  195.025;-1205.000;-1017.000
384.299;  -26.425; -650.000; -662.000
384.428;  -99.525; -764.000; -680.000
384.558;  -51.525; -308.000; -275.000
384.687;  -59.400; -414.000; -334.000
384.817;    9.250;   75.000;   -2.000
384.947;   13.100; -234.000; -141.000
385.076;  295.300;  982.000;  912.000
385.206;   85.125;  369.000;  480.000
385.335;  -50.950; -549.000; -417.000
385.465;  -90.575; -655.000; -663.000
385.594;  129.700;  -53.000;  -44.000
385.724;  439.725; -868.000; -838.000
385.853;  101.250; -296.000; -270.000
385.982; 1348.500; -743.000; -787.000
386.112; 2217.950;-1052.000; -871.000
386.241;  142.125; -307.000; -312.000
386.371;    5.425; -174.000;  -87.000
386.500;  -10.600; -825.000; -789.000
386.629;   25.375; -874.000; -817.000
386.759;   63.300;  -43.000;   68.000
386.888;  -10.475; -170.000; -250.000
387.017;  -80.850; -648.000; -620.000
387.147; -107.275; -771.000; -798.000
387.276;  -21.375; -410.000; -397.000
387.405;   19.450; -398.000; -342.000
387.535;  -36.975; -452.000; -361.000
387.664;  -66.925; -692.000; -620.000
387.793;   54.025; -198.000; -113.000
387.922;  523.900;  255.000;  200.000
388.052;   26.775; -576.000; -423.000
388.181;   11.400; -342.000; -472.000
388.310;  -23.075; -889.000; -710.000
388.439;  -53.875; -749.000; -742.000
388.568;  160.175;  365.000;  244.000
388.697; 1070.075; -756.000; -653.000
388.826;  215.700; -768.000; -666.000
388.956;   47.325; -285.000; -307.000
389.085;  -42.775; -347.000; -287.000
389.214; -111.975; -842.000; -872.000
389.343;  -76.200; -645.000; -413.000
389.472;  406.550;  126.000;  149.000
389.601;  492.325;   91.000;    0.000
389.730;   16.325; -568.000; -687.000
389.859;   61.475;  226.000;   46.000
389.988;  194.225; -423.000; -408.000
390.117;  137.700; -168.000; -146.000
390.246;  -13.350; -331.000; -320.000
390.375;   79.100; -673.000; -626.000
390.504;  -56.850; -703.000; -621.000
390.633;  -96.925; -672.000; -726.000
390.761;  -64.925; -732.000; -645.000
390.890;   18.350;   -4.000; -130.000
391.019;  -33.875; -421.000; -441.000
391.148; -133.025; -826.000; -855.000
391.277;  -79.600; -576.000; -493.000
391.406;  -82.725; -821.000; -805.000
391.534;    7.450;  574.000; -301.000
391.663;  -63.175; -583.000; -645.000
391.792;  -80.650; -673.000; -701.000
391.921;   87.100;   -3.000;   15.000
392.050;  183.825; -287.000; -228.000
392.178;  -47.875;-1206.000;-1061.000
392.307;  156.475; -758.000; -712.000
392.436;   69.350; -427.000; -641.000
392.564;   -1.175;  166.000;   -6.000
392.693;  -90.725; -860.000; -682.000
392.822;  204.700; -529.000; -534.000
392.950;   93.325; -880.000; -714.000
393.079;  328.275; -188.000; -328.000
393.208;   28.375; -488.000; -511.000
393.336;  -25.650; -170.000; -145.000
393.465;  -52.225; -317.000; -199.000
393.593;   -5.125;   62.000;   79.000
393.722; -164.850;-1121.000; -916.000
393.850;  -49.650; -188.000;  -61.000
393.979; -167.400; -926.000; -805.000
394.107;  -66.050; -517.000; -537.000
394.236;  -33.750; -570.000; -507.000
394.364;  207.375;  383.000;  206.000
394.493;  327.275; -911.000; -767.000
394.621;  -15.625; -955.000; -916.000
394.750;  692.250; -873.000; -923.000
394.878; 2906.000; -247.000; -149.000
395.007; 3998.675; -721.000; -807.000
395.135;  292.775; -790.000; -721.000
395.263;  -92.575;-1038.000;-1040.000
395.392;    9.750;  -25.000; -107.000
395.520; -158.300; -818.000; -679.000
395.648;  -92.700; -865.000; -915.000
395.777;  -33.650; -366.000; -405.000
395.905;  -50.700; -449.000; -564.000
396.033;    0.675;  217.000;  172.000
396.162;  557.825; -399.000; -453.000
396.290;  497.700;  -17.000;   -2.000
396.418;   85.150; -555.000; -514.000
396.546;  -90.750; -571.000; -466.000
396.674;  -99.425; -850.000; -878.000
396.803;   -5.725;  -72.000;  -23.000
396.931;   92.350; -179.000; -199.000
397.059;   31.700;-1026.000; -989.000
397.187; -112.475;-1026.000; -975.000
397.315; -135.075; -884.000; -649.000
397.443;  -99.175; -592.000; -443.000
397.572; -113.975; -578.000; -424.000
397.700;  -15.325; -607.000; -614.000
397.828;    0.950;  120.000;  -90.000
397.956;  -54.475; -508.000; -478.000
398.084;  -71.675; -767.000; -626.000
398.212;   31.525;  137.000;  124.000
398.340;   -4.825;  -56.000;  159.000
398.468;   31.175; -390.000; -169.000
398.596; -133.350; -993.000; -953.000
398.724; -125.100; -762.000; -767.000
398.852; -165.775;-1024.000; -976.000
398.980;  -73.925; -560.000; -560.000
399.108;  -66.200; -982.000; -735.000
399.236;   32.925;   13.000;    8.000
399.363;   -9.025;  222.000;  196.000
399.491;  -64.325; -404.000; -398.000
399.619; -130.675; -829.000; -800.000
399.747; -104.900; -859.000; -771.000
399.875;   72.325;  220.000;  234.000
400.003;  -58.700; -359.000; -284.000
400.130;  -81.725; -421.000; -341.000
400.258;  -44.975;  -83.000;   38.000
400.386;  -76.300; -352.000; -168.000
400.514;  -47.100; -526.000; -587.000
400.641;  -95.725; -928.000; -802.000
400.769; -132.700; -979.000; -888.000
400.897; -112.550; -838.000; -793.000
401.025;  -22.925; -166.000; -152.000
401.152;  -12.800;  220.000;   38.000
401.280;  -90.250; -430.000; -429.000
401.408; -121.175; -712.000; -576.000
401.535; -106.625; -735.000; -758.000
401.663; -187.400;-1134.000;-1054.000
401.790;  -95.475; -514.000; -525.000
401.918;   27.100;  436.000;  405.000
402.046;  -24.000;  134.000;  122.000
402.173;  -45.700;  -18.000;    7.000
402.301;  -65.225; -519.000; -397.000
402.428;   15.950;  528.000;  383.000
402.556; -138.575;-1188.000; -913.000
402.683;  -44.200;  -20.000;   -1.000
402.811;  -31.725;  -37.000; -206.000
402.938;  -13.825;   20.000;   27.000
403.066;  189.350; -574.000; -558.000
403.193;  333.250;  299.000;  239.000
403.321;  270.325; -396.000; -574.000
403.448;  333.950;   83.000;   27.000
403.575;  138.150;  -90.000;  -46.000
403.703; -123.750; -732.000; -557.000
403.830;  -64.700; -531.000; -496.000
403.957; -150.550;-1117.000;-1023.000
404.085;   16.800;  -61.000; -172.000
404.212;   92.650;  -50.000;   63.000
404.339;  266.525; -566.000; -306.000
404.467; 5750.200; -612.000; -524.000
404.594; 3842.950; -287.000; -227.000
404.721;  885.625; -869.000; -764.000
404.848;   76.300; -113.000; -202.000
404.976; -123.425; -856.000; -783.000
405.103;  -19.775;  -14.000;  -82.000
405.230;  -12.800;  190.000;  226.000
405.357;   27.425;  117.000;   44.000
405.484;  249.175;  -49.000;    5.000
405.612;   46.025; -548.000; -563.000
405.739;  -71.350; -488.000; -243.000
405.866;   81.850;  669.000;  385.000
405.993;  -53.725; -398.000; -102.000
406.120; -136.550; -801.000; -887.000
406.247;  -56.750; -323.000; -342.000
406.374;  431.550;  540.000;  629.000
406.501;  111.225; -632.000; -702.000
406.628;  -72.250; -621.000; -589.000
406.755; -104.800; -803.000; -620.000
406.882;  -31.800; -228.000; -277.000
407.009; -118.950; -719.000; -628.000
407.136;   38.625; -480.000; -401.000
407.263;  123.400; -939.000; -829.000
407.390;  -86.050; -692.000; -614.000
407.517; -185.050;-1139.000;-1187.000
407.644;  -55.950; -332.000; -256.000
407.771; -144.175; -249.000; -287.000
407.898;    0.350;  168.000;  328.000
408.025;  -76.950; -421.000; -313.000
408.151;  -22.700;   82.000;  153.000
408.278;  -64.300; -267.000; -216.000
408.405; -124.175; -931.000; -899.000
408.532;  -72.725; -549.000; -542.000
408.659; -123.325; -677.000; -648.000
408.785; -203.650;-1298.000;-1170.000
408.912;  -77.100; -412.000; -296.000
409.039; -114.400; -610.000; -686.000
409.166; -110.225; -591.000; -555.000
409.292; -122.975; -571.000; -534.000
409.419; -116.250; -665.000; -649.000
409.546;  -93.850; -431.000; -192.000
409.672; -117.025; -713.000; -545.000
409.799;  -35.500;  -36.000;   34.000
409.926;  -48.425; -180.000; -179.000
410.052; -181.100;-1127.000;-1091.000
410.179;  -56.000; -368.000; -392.000
410.305;  -97.175; -375.000; -493.000
410.432;  -60.600; -220.000; -333.000
410.558; -104.175; -305.000; -380.000
410.685; -106.500; -688.000; -431.000
410.812; -109.350; -409.000; -588.000
410.938; -133.775; -964.000; -808.000
411.065; -104.750; -671.000; -645.000
411.191;  -21.575; -189.000; -174.000
411.317; -128.275; -823.000; -742.000
411.444;  -80.025; -317.000; -246.000
411.570;  -75.075; -339.000; -294.000
411.697; -125.025; -758.000; -752.000
411.823; -184.325; -989.000; -999.000
411.949;  -20.925;  -56.000;   17.000
412.076; -127.175; -539.000; -519.000
412.202; -123.200; -758.000; -757.000
412.329; -141.675; -798.000; -752.000
412.455; -121.650; -821.000; -657.000
412.581;  -28.250;  -15.000;  172.000
412.707;  -79.975; -540.000; -457.000
412.834;    3.075;  156.000;  219.000
412.960;  -91.450; -785.000; -784.000
413.086; -108.800; -743.000; -701.000
413.212;  138.650;  604.000;  578.000
413.339;  -71.975; -685.000; -701.000
413.465;    8.525; -364.000; -310.000
413.591; -104.100; -757.000; -474.000
413.717;  -43.800; -358.000; -366.000
413.843; -142.800; -839.000; -861.000
413.969;  -57.275;  -47.000; -292.000
414.096; -116.250; -679.000; -679.000
414.222;  -14.625;  -33.000;   85.000
414.348;  -29.700; -652.000; -385.000
414.474;  103.600;   38.000;  -52.000
414.600;  -42.250; -126.000; -144.000
414.726;  -20.950;  -96.000;  -55.000
414.852;  -55.800; -365.000; -342.000
414.978;   32.175;  104.000;  -18.000
415.104;   36.550;   38.000;   80.000
415.230;   31.575; -329.000; -330.000
415.356;   27.000; -409.000; -514.000
415.482;  176.900;   13.000;  -35.000
415.608;  266.675; -247.000; -323.000
415.734;  955.150;   67.000;   38.000
415.860;19843.475; -875.000; -767.000
415.986;14627.025; -685.000; -607.000
416.111; 1259.175; -798.000; -652.000
416.237;  255.325; -424.000; -571.000
416.363; 1112.600; -765.000; -733.000
416.489; 4193.325; -324.000; -251.000
416.615;  460.475; -707.000; -742.000
416.741;  -12.925; -677.000; -784.000
416.866;  -92.900; -673.000; -736.000
416.992; -131.675; -801.000; -818.000
417.118;  -41.575;  -41.000;  -80.000
417.244;  -56.950; -798.000; -531.000
417.369; -106.225; -801.000; -612.000
417.495;  -10.300; -325.000; -254.000
417.621;  -86.500;-1015.000; -803.000
417.746;    4.675; -579.000; -572.000
417.872;   36.650; -254.000; -144.000
417.998;   43.475; -515.000; -530.000
418.123; 1032.225;-1073.000; -845.000
418.249; 5410.900; -512.000; -601.000
418.374;  765.900; -916.000; -824.000
418.500;   89.950; -383.000; -482.000
418.626;  101.275;   70.000;  -59.000
418.751;  133.650; -549.000; -448.000
418.877;  178.375; -637.000; -643.000
419.002; 1795.850; -688.000; -560.000
419.128;12654.425; -930.000; -721.000
419.253; 3160.650; -967.000; -837.000
419.379;  400.300; -391.000; -338.000
419.504;  402.275;  325.000;  415.000
419.629;  510.675; -393.000; -212.000
419.755; 3546.600; -317.000; -254.000
419.880;21290.950;  -98.000;   67.000
420.006;11445.600; -280.000; -221.000
420.131;29656.900; -662.000; -775.000
420.256; 4359.575; -315.000; -316.000
420.382;  548.300; -665.000; -687.000
420.507;   77.650; -649.000; -778.000
420.632;  108.100; -337.000; -339.000
420.758;  240.525; -251.000; -425.000
420.883;  -86.300; -876.000; -672.000
421.008; -104.150; -775.000; -619.000
421.133;  -90.625; -509.000; -467.000
421.259;  -40.875; -325.000; -259.000
421.384; -130.875; -834.000; -693.000
421.509;  -54.650;-1052.000; -862.000
421.634; 1154.475; -936.000; -820.000
421.759;  508.625; -359.000; -327.000
421.885;  -59.775; -717.000; -656.000
422.010;  -85.575; -673.000; -542.000
422.135; -159.750; -695.000; -727.000
422.260;   42.950;  340.000;  280.000
422.385;  -43.975;   12.000;  -98.000
422.510;    0.700;  151.000;  -26.000
422.635;   12.525;  -87.000;  -43.000
422.760;  111.625; -766.000; -791.000
422.885;   58.900;  -57.000;  -80.000
423.010;  -33.475; -112.000; -169.000
423.135; -110.750; -481.000; -561.000
423.260;  -22.750; -150.000; -245.000
423.385;   49.175;  476.000;  222.000
423.510;   24.625;   71.000;  -22.000
423.635;   65.100;  133.000;   45.000
423.760;   48.600;  383.000;  328.000
423.885;   41.350;  336.000;  391.000
424.010;   12.725;  -68.000;  -13.000
424.135;  -28.125;    5.000;  -33.000
424.259;  -88.875; -654.000; -457.000
424.384;  -81.800; -279.000; -272.000
424.509;  -33.650; -260.000; -186.000
424.634; -106.475; -761.000; -623.000
424.759;  -21.950; -688.000; -544.000
424.883;  -27.925; -506.000; -527.000
425.008;  149.525; -502.000; -410.000
425.133; 2002.500; -679.000; -653.000
425.258;  950.850; -517.000; -381.000
425.382; 1042.325; -867.000; -774.000
425.507; 2735.650; -487.000; -543.000
425.632;  456.600; -802.000; -663.000
425.756;  465.650; -256.000; -146.000
425.881; 6562.325; -831.000; -857.000
426.006;17978.550; -604.000; -355.000
426.130; 2834.300; -696.000; -508.000
426.255;  375.975; -611.000; -491.000
426.379;  156.950; -189.000; -577.000
426.504;  370.575;  660.000;  544.000
426.629; 4028.525; -519.000; -466.000
426.753; 2787.425;   64.000;  -46.000
426.878;  326.275; -252.000; -288.000
427.002;  136.525; -651.000; -668.000
427.127; 1573.525;  -35.000; -158.000
427.251;11444.275;  372.000;  401.000
427.375; 3345.650; -191.000; -173.000
427.500; 2333.700; -616.000; -610.000
427.624;  820.525; -234.000; -400.000
427.749;   91.650; -216.000; -225.000
427.873;  -48.600; -499.000; -412.000
427.997;  -35.475; -222.000; -230.000
428.122;   68.000;  795.000;  703.000
428.246;   60.650;  433.000;  434.000
428.371; -132.500; -869.000; -773.000
428.495; -110.325; -624.000; -646.000
428.619;  -47.075; -186.000; -117.000
428.743;   13.850;   65.000;  132.000
428.868;    3.750; -732.000; -643.000
428.992; 1445.100; -219.000; -326.000
429.116;  587.300; -329.000; -357.000
429.240;  274.575;  419.000;  426.000
429.365;  -38.150; -454.000; -574.000
429.489;  -48.675; -638.000; -647.000
429.613;   11.000; -236.000; -177.000
429.737;   27.200; -563.000; -432.000
429.861;  253.800; -247.000; -133.000
429.985; 5542.750; -425.000; -305.000
430.109; 6179.075; -770.000; -908.000
430.234;  713.475;   76.000;  -50.000
430.358;   54.250; -250.000; -160.000
430.482;  -70.250; -672.000; -564.000
430.606;  -63.700; -655.000; -375.000
430.730;   -8.450; -437.000; -388.000
430.854;  122.000; -909.000; -835.000
430.978;  -73.250; -795.000; -764.000
431.102; -108.575; -499.000; -422.000
431.226; -125.575; -874.000; -815.000
431.350;    1.025;  345.000;  422.000
431.474;  -78.750; -661.000; -373.000
431.597; -160.925;-1060.000; -848.000
431.721;  -82.075; -276.000; -267.000
431.845; -135.800; -704.000; -472.000
431.969;  -78.125; -304.000; -349.000
432.093;  -91.250; -395.000; -317.000
432.217;   -7.875;   32.000;   82.000
432.341; -102.025; -523.000; -518.000
432.464;    3.250;   96.000;   40.000
432.588;  193.025; -401.000; -329.000
432.712;   95.800;  -52.000;  -52.000
432.836;   33.725;  213.000;  263.000
432.959;  -20.725; -372.000; -311.000
433.083;   71.300;   11.000;    2.000
433.207;  368.725;  285.000;  930.000
433.330; 5007.375; -391.000; -200.000
433.454; 6313.500; -654.000; -638.000
433.578; 3637.750;  583.000;  278.000
433.701;  659.200; -623.000; -675.000
433.825;  134.975; -292.000; -299.000
433.949;  176.425;   28.000;  -72.000
434.072;   53.225; -410.000; -323.000
434.196;  -16.075; -309.000; -117.000
434.319; 3643.200;25482.000;25124.000
434.443;  727.650; -656.000; -603.000
434.566; 2658.150;  281.000;   62.000
434.690;  458.700; -637.000; -383.000
434.813;   62.075; -251.000; -173.000
434.937;  -78.725; -569.000; -696.000
435.060;  -60.550; -423.000; -332.000
435.184;  306.550; -492.000; -217.000
435.307;  134.550;  159.000;  102.000
435.431;   -8.075;  -40.000;   24.000
435.554;  -76.825; -399.000; -240.000
435.677;  -87.000; -350.000; -258.000
435.801;  -48.050;  -25.000;   49.000
435.924;  -26.350;    1.000;  -67.000
436.048; -131.000;-1019.000; -732.000
436.171;  -61.050; -240.000;  -66.000
436.294;  -37.025; -248.000; -229.000
436.417;   93.725; -963.000; -849.000
436.541;  -85.925; -814.000; -840.000
436.664;  -58.175; -242.000; -316.000
436.787;  -45.575;   13.000;  113.000
436.910; -111.300; -792.000; -422.000
437.034;   11.825;  142.000;  143.000
437.157;   47.325;  -11.000;    0.000
437.280;  -69.575; -392.000; -292.000
437.403; -106.300; -982.000; -869.000
437.526;  595.175; -903.000; -865.000
437.649; 2254.625; -505.000; -332.000
437.772;  328.350; -692.000; -540.000
437.896;  115.075;  700.000;  544.000
438.019; -110.475; -758.000; -503.000
438.142;  -87.475; -596.000; -506.000
438.265;  -16.625; -639.000; -670.000
438.388;  551.750; -520.000; -410.000
438.511;   94.175; -597.000; -394.000
438.634;  -58.175; -247.000; -125.000
438.757; -145.750; -693.000; -619.000
438.880;  -29.350;  -34.000;  -57.000
439.003;  -85.525; -417.000; -437.000
439.126;  -67.375; -287.000; -167.000
439.248;  -74.225;  -98.000; -139.000
439.371;  -59.100;    9.000;  -53.000
439.494;   29.550;  510.000;  439.000
439.617;  -56.875;   65.000;  -88.000
439.740; -195.300; -968.000; -816.000
439.863; -151.100; -755.000; -595.000
439.986; -120.475; -476.000; -431.000
440.108;  -48.075; -161.000; -112.000
440.231; -167.000; -950.000; -836.000
440.354;  -46.950;  -64.000; -150.000
440.477;   30.050; -566.000; -542.000
440.599;   -2.150; -200.000; -225.000
440.722; -120.000; -709.000; -586.000
440.845;   56.725;  751.000;  928.000
440.968; -115.900; -415.000; -311.000
441.090;  -71.175; -199.000;  -33.000
441.213; -171.250;-1021.000; -825.000
441.336;  -64.350; -159.000;   -5.000
441.458;  -93.950; -549.000; -396.000
441.581;  -84.875; -628.000; -629.000
441.703;  -74.900; -152.000;   13.000
441.826; -117.225; -557.000; -400.000
441.948;  -61.975;   56.000;   51.000
442.071;   22.225;  555.000;  424.000
442.193; -117.775; -531.000; -485.000
442.316;   11.400;  152.000;   97.000
442.438;   37.200; -233.000;  -10.000
442.561;   63.000;  272.000;  262.000
442.683;  511.900; -809.000; -522.000
442.806; 1157.775;   -8.000;   74.000
442.928;   20.300; -859.000; -604.000
443.051;  -75.475; -577.000; -373.000
443.173; -107.625; -341.000; -339.000
443.295;  -85.900; -263.000; -371.000
443.418;  -83.550; -321.000;  -29.000
443.540;   -5.225; -106.000;   -4.000
443.662; -123.650; -563.000; -465.000
443.785;  -20.275;  335.000;  199.000
443.907; -116.325; -362.000; -208.000
444.029; -136.900; -767.000; -494.000
444.152; -150.625; -644.000; -554.000
444.274;  -39.475;  -18.000;  -24.000
444.396; -122.400; -461.000; -221.000
444.518; -128.875; -691.000; -454.000
444.640; -108.150; -268.000; -111.000
444.763;  -20.325;  388.000;  249.000
444.885; -128.450; -432.000; -392.000
445.007;  -40.075;   35.000;   86.000
445.129; -129.525; -610.000; -515.000
445.251; -111.425; -372.000; -439.000
445.373; -149.800; -537.000; -386.000
445.495;   11.375;  242.000;  350.000
445.617;   39.150;  853.000;  753.000
445.739;  -63.425; -215.000;  -97.000
445.861;  -38.900; -245.000; -112.000
445.984;  -34.850; -267.000; -101.000
446.105;  191.375; -418.000; -251.000
446.227;  601.100; -176.000;  -19.000
446.349;   -7.100; -358.000; -249.000
446.471; -108.675; -615.000; -448.000
446.593;  -77.350; -316.000;   19.000
446.715;    0.400;  -67.000;   41.000
446.837;   52.300;  697.000;  832.000
446.959;  -96.650; -457.000; -478.000
447.081; -129.600; -628.000; -518.000
447.203;   45.600;  862.000;  834.000
447.325; -102.875; -270.000;   42.000
447.446;  -15.125;  286.000;  530.000
447.568; -173.625; -921.000; -803.000
447.690;  -90.075; -236.000; -245.000
447.812; -154.650; -798.000; -519.000
447.933;  -36.025;  155.000;  127.000
448.055;  -66.075; -306.000; -261.000
448.177;  151.450;   31.000;   79.000
448.299;   72.975; -935.000; -727.000
448.420;   16.525;  -25.000;  159.000
448.542;  -63.075;   -3.000;   33.000
448.664;  -22.800;  109.000;  322.000
448.785;  -45.100;  265.000;   83.000
448.907;  -87.750; -614.000; -353.000
449.028;  -30.600; -771.000; -471.000
449.150;   46.050;  492.000;  589.000
449.272; -189.950;-1044.000; -913.000
449.393;   21.550;  612.000;  694.000
449.515; -144.875; -634.000; -581.000
449.636;  -65.750; -264.000; -155.000
449.758;   84.400;  763.000;  622.000
449.879; -107.200; -498.000; -396.000
450.001;  -86.375; -149.000;  -49.000
450.122;  -35.725;  -95.000;  162.000
450.244;  -43.025;   37.000;  364.000
450.365;  -96.900; -495.000; -301.000
450.486;  -37.075;   80.000;  268.000
450.608;   15.200;  393.000;  326.000
450.729;   64.400;  578.000;  645.000
450.850;   -9.850; -574.000; -466.000
450.972;  730.850; -552.000; -389.000
451.093; 4937.300;  190.000;  588.000
451.214; 2188.025; -516.000; -337.000
451.336;  379.575;  773.000;  579.000
451.457;   47.875;  264.000;  393.000
451.578;  -36.125; -118.000;  -74.000
451.699; -130.050; -546.000; -540.000
451.821;  -68.250; -284.000;  -50.000
451.942;  -22.450;  278.000;  285.000
452.063;   35.800;  228.000;  419.000
452.184;  539.525;  -54.000;  -49.000
452.305; 1109.250;  103.000;  170.000
452.427;  141.400; -549.000; -301.000
452.548;  -13.225;   23.000;   79.000
452.669;  -62.875; -257.000;  -89.000
452.790;  -42.425;    3.000;  -18.000
452.911;   -7.425;  195.000;  259.000
453.032;  -79.325; -289.000;  -60.000
453.153;  -61.150;  -29.000;   81.000
453.274;   58.425;  737.000;  868.000
453.395;  -63.550;  -51.000;  175.000
453.516;  113.075; 1317.000; 1388.000
453.637;  -81.900; -205.000; -150.000
453.758;  -72.900;   15.000;   69.000
453.879; -133.975; -462.000; -250.000
454.000;   73.275; 1086.000;  948.000
454.121; -124.475; -554.000; -326.000
454.242; -118.750; -599.000; -383.000
454.362;  -71.675;  -99.000;  114.000
454.483;  -46.125; -309.000; -229.000
454.604;   39.875;  512.000;  580.000
454.725; -133.650; -627.000; -555.000
454.846; -147.625; -474.000; -406.000
454.967;  -23.000;  230.000;  539.000
455.087;  -50.450;  179.000;  153.000
455.208;   21.400;  554.000;  856.000
455.329;  -74.075;  -22.000;   82.000
455.450;   24.375;  473.000;  633.000
455.570;  -99.550; -234.000; -211.000
455.691;  -43.100;  201.000;  407.000
455.812; -115.975; -270.000;  -92.000
455.932;  -67.950;  107.000;  -97.000
456.053;  -87.825;   36.000;   24.000
456.173; -108.725; -433.000; -355.000
456.294; -143.625; -476.000; -303.000
456.415;  -66.900;  -73.000;   70.000
456.535;  -50.950;  297.000;  273.000
456.656;  -51.275;  132.000;  240.000
456.776;  -77.125;    3.000;  298.000
456.897;   -9.025;  308.000;  513.000
457.017; -101.100; -153.000;   -3.000
457.138; -104.700; -402.000; -249.000
457.258;  -36.875;  263.000;  224.000
457.379;  -22.125;  509.000;  521.000
457.499;  -43.800;  443.000;  432.000
457.620; -134.875; -407.000; -231.000
457.740; -103.600; -132.000;  -11.000
457.860;  -64.275;   87.000;   44.000
457.981;  -68.775;  132.000;  124.000
458.101;  -74.175;  -89.000;   40.000
458.221;  -20.600;  336.000;  402.000
458.342;  -67.725;   -4.000;  -37.000
458.462;   17.850;  617.000;  352.000
458.582;  -32.900; -302.000; -294.000
458.703;    4.025;  303.000;  154.000
458.823;  -38.950;   22.000;  163.000
458.943;   21.725;  341.000;  467.000
459.063;  -23.175; 1124.000;  192.000
459.183;  -34.075;  328.000;  313.000
459.304;   -2.050;  315.000;  517.000
459.424;  -59.675; -246.000;  -89.000
459.544;  316.925;  388.000;  764.000
459.664;  822.525;  499.000;  506.000
459.784;  312.325; 1004.000; 1175.000
459.904;   55.850;  867.000;  744.000
460.024;   62.975;  867.000;  684.000
460.144;    4.600;  449.000;  554.000
460.264;  -21.350;  515.000;  327.000
460.385; -103.975; -145.000; -119.000
460.505;   42.925;  905.000;  858.000
460.625; -111.150;  -17.000;  -68.000
460.745;  -25.675;  396.000;  541.000
460.864;  -68.775;  153.000;  469.000
460.984;   16.550;  499.000;  573.000
461.104;  134.075; 1656.000; 1775.000
461.224;   17.500;  657.000;  650.000
461.344;  -24.550;  431.000;  360.000
461.464;  -29.250;  258.000;  513.000
461.584;  -25.375;  283.000;  466.000
461.704;  -53.400;   58.000;  108.000
461.824;  -60.175;  238.000;  259.000
461.943;  -33.975;  191.000;  130.000
462.063;  -88.850;    2.000;  324.000
462.183;   24.250;  639.000;  717.000
462.303;   81.075; 1678.000; 1230.000
462.422;   33.200;  781.000;  840.000
462.542;  -58.575;  271.000;  391.000
462.662;   33.800;  353.000;  380.000
462.782;  238.575;  833.000;  572.000
462.901;  482.950;  545.000;  717.000
463.021;  292.700; 1702.000; 1638.000
463.141;  -20.825;  337.000;  770.000
463.260;  -18.800;  614.000;  474.000
463.380;    6.550;  902.000;  884.000
463.499;  -56.900;  342.000;  332.000
463.619;  -41.350;  581.000;  559.000
463.738;   99.150; 1644.000;  903.000
463.858;    3.175;  657.000;  811.000
463.978;  -42.350;  542.000;  396.000
464.097;   53.675;  921.000; 1114.000
464.217;  117.025; 1196.000; 1143.000
464.336;  122.000; 1068.000; 1130.000
464.455;  -50.775;  328.000;  659.000
464.575;   41.850;  597.000;  602.000
464.694;  158.300; 1204.000; 1179.000
464.814;  125.675; 1190.000; 1138.000
464.933;   61.600; 1095.000; 1027.000
465.052;  100.900; 1412.000; 1054.000
465.172;   76.075;  922.000;  799.000
465.291;  147.625; 1376.000; 1320.000
465.410;   -0.975;  462.000;  735.000
465.530;   89.725; 1355.000; 1310.000
465.649;   66.300; 1209.000; 1273.000
465.768;  129.500; 1673.000; 1508.000
465.888;   42.650;  941.000; 1174.000
466.007;   91.150; 1335.000; 1440.000
466.126;   -3.625;  721.000;  641.000
466.245;   50.900; 1176.000; 1187.000
466.364;   18.050;  950.000; 1060.000
466.484;   55.525; 1024.000; 1213.000
466.603;   31.400; 1101.000; 1222.000
466.722;  120.475; 1490.000; 1769.000
466.841;   80.700; 1151.000; 1401.000
466.960;   44.050; 1069.000;  972.000
467.079;  130.950; 1971.000; 1786.000
467.198;   53.925; 1238.000; 1181.000
467.317;   71.500; 1768.000; 1162.000
467.436;   62.550; 1709.000; 1261.000
467.555;  108.250; 1796.000; 1746.000
467.674;   67.450; 1227.000; 1329.000
467.793;   43.100; 1376.000; 1374.000
467.912;   86.775; 1658.000; 1539.000
468.031;  129.575; 2038.000; 1930.000
468.150;  141.000; 1842.000; 1837.000
468.269;  173.025; 2313.000; 2090.000
468.388;  171.825; 2168.000; 2339.000
468.507;  246.225; 2884.000; 2903.000
468.626;  235.000; 2555.000; 2541.000
468.744;  129.175; 2018.000; 2174.000
468.863;  199.600; 2312.000; 2523.000
468.982;   78.700; 1503.000; 1555.000
469.101;  211.400; 2788.000; 2692.000
469.220;  155.900; 2333.000; 2176.000
469.338;  245.425; 2935.000; 3051.000
469.457;  187.175; 2719.000; 2545.000
469.576;  347.700; 3953.000; 3784.000
469.695;  231.375; 2877.000; 3066.000
469.813;  420.425; 4148.000; 4192.000
469.932;  406.950; 4255.000; 4485.000
470.051;  421.400; 4075.000; 4161.000
470.169;  851.875; 4470.000; 4338.000
470.288; 1462.850; 4700.000; 4809.000
470.406;  892.150; 5059.000; 5194.000
470.525;  626.975; 6101.000; 5787.000
470.644;  645.725; 6847.000; 6794.000
470.762;  807.950; 8397.000; 7873.000
470.881;  896.900; 8651.000; 8464.000
470.999; 1037.150; 9685.000; 9151.000
471.118; 1112.925;11174.000;10711.000

