
Integration time [ms]: 100.000
Averaging Nr. [scans]: 40
Smoothing Nr. [pixels]: 0
Data measured with spectrometer [name]: 2101012U2
Wave   ;Sample   ;Dark     ;Reference
[nm]   ;[counts] ;[counts] ;[counts] 

197.733;   53.425;  516.000;  404.000
197.879;  -71.150; -610.000; -634.000
198.025;  -43.250; -475.000; -420.000
198.171;  -67.525; -602.000; -612.000
198.317;  -32.800; -401.000; -316.000
198.463;  -52.675; -655.000; -404.000
198.609;   21.850;  181.000; -137.000
198.755;  -73.875; -644.000; -410.000
198.901;  -63.150; -505.000; -424.000
199.047;  -61.975; -615.000; -488.000
199.193;  -24.350; -230.000; -468.000
199.339;  -38.825; -222.000; -369.000
199.485;   40.825;  330.000;  271.000
199.631;   30.025;  227.000;  310.000
199.777;  -54.725; -466.000; -398.000
199.923;  -55.275; -610.000; -424.000
200.069;   -3.975; -141.000;  -58.000
200.215;   58.425;  128.000;  453.000
200.361;   42.025;  243.000;  477.000
200.507;  -58.575; -600.000; -373.000
200.653;  -29.450; -371.000; -194.000
200.798;  -42.300; -215.000; -125.000
200.944;   -7.725; -146.000;  -41.000
201.090;   45.475;   61.000;  222.000
201.236;   -4.900; -116.000; -158.000
201.382;  125.225;  874.000;  903.000
201.528;    1.975;  -58.000;  -48.000
201.674;  -56.150; -386.000; -293.000
201.819;  -66.800; -540.000; -439.000
201.965;  -83.150; -699.000; -447.000
202.111;  -25.600; -273.000; -226.000
202.257;  -35.950; -250.000; -238.000
202.402;   10.750;   13.000;  -36.000
202.548;  -27.850; -169.000; -116.000
202.694;   75.325;  410.000; -183.000
202.840;  -66.500; -603.000; -531.000
202.985;  -63.575; -681.000; -639.000
203.131;  -97.775; -832.000; -666.000
203.277;  -19.775; -199.000; -262.000
203.423;  -59.125; -434.000; -520.000
203.568;  -43.675; -462.000; -237.000
203.714;  -53.475; -535.000; -542.000
203.860;  -81.300; -682.000; -641.000
204.005;   24.900;  112.000;  167.000
204.151;   75.475;  561.000;  556.000
204.296;  -55.550; -354.000; -221.000
204.442;  -62.725; -600.000; -547.000
204.588;  -80.925; -592.000; -579.000
204.733;   29.875;  178.000;  168.000
204.879; -111.075;-1018.000; -822.000
205.025;    7.350;  -99.000;  126.000
205.170;    6.400;  -17.000;   94.000
205.316;   80.125;  438.000;  661.000
205.461;  -75.825; -698.000; -554.000
205.607;   85.425;  609.000;  665.000
205.752;  -61.925; -626.000; -551.000
205.898;  -51.550; -501.000; -391.000
206.043;  -57.025; -578.000; -506.000
206.189;  -28.450; -243.000; -285.000
206.334;   78.825;  554.000;  606.000
206.480;   76.250;  409.000;  239.000
206.625;  -65.725; -529.000; -552.000
206.771;  -46.525; -451.000; -373.000
206.916;  -34.575; -210.000; -537.000
207.062;  -72.300; -545.000; -591.000
207.207;  -59.150; -546.000; -443.000
207.353;   74.975;  185.000;  460.000
207.498;   13.125;  196.000;   85.000
207.643;  -62.300; -501.000; -370.000
207.789; -111.925;-1069.000; -910.000
207.934;  -86.100; -665.000; -713.000
208.080;  -12.425; -154.000;   66.000
208.225;   -8.850;  -22.000;  -57.000
208.370;  -84.600; -727.000; -619.000
208.516;  -64.325; -741.000; -487.000
208.661;  -20.100; -127.000;  -69.000
208.806;  -21.700; -165.000; -171.000
208.952; -117.075;-1044.000; -731.000
209.097;   67.400;  378.000;  349.000
209.242;  -34.975; -307.000; -382.000
209.387;   69.600;  392.000;  350.000
209.533;  -45.250; -321.000; -350.000
209.678;   73.200;  472.000;  543.000
209.823;  -53.600; -408.000; -310.000
209.969; -106.225; -860.000; -757.000
210.114; -104.450; -907.000; -719.000
210.259; -111.150; -939.000; -889.000
210.404;  -13.100; -171.000;  103.000
210.549;    4.175;  108.000;    3.000
210.695;  -19.000;   -3.000;  -95.000
210.840;   20.025;   94.000;   67.000
210.985;  -57.875; -484.000; -303.000
211.130;   74.700;  268.000;  406.000
211.275;   -1.350;  207.000;  199.000
211.420;  -48.050; -300.000; -289.000
211.566;  -70.875; -536.000; -489.000
211.711;   26.175;  218.000;  157.000
211.856;  -59.075; -545.000; -519.000
212.001;   -5.075;  151.000;   44.000
212.146;   28.475;  153.000;   49.000
212.291;  -11.425; -210.000; -186.000
212.436;  -25.200; -280.000;   -6.000
212.581;  -80.050; -685.000; -653.000
212.726;  -65.225; -487.000; -538.000
212.871;  -40.450; -552.000; -217.000
213.016; -139.975;-1172.000;-1029.000
213.161;   57.950;  406.000;  291.000
213.306;  -62.075; -435.000; -577.000
213.451;  -97.375; -778.000; -689.000
213.596;  -51.750; -455.000; -347.000
213.741;  -59.250; -448.000; -538.000
213.886;  -67.325; -498.000; -517.000
214.031;  -14.800; -294.000; -124.000
214.176;  -39.275; -408.000; -341.000
214.321;  -13.825; -296.000; -157.000
214.466;  -31.150; -163.000;  -43.000
214.611;    9.650;  -61.000;  -10.000
214.756; -111.500; -948.000; -858.000
214.901;  -16.000; -388.000; -226.000
215.046; -107.450; -797.000; -825.000
215.191;   16.625;  128.000;   35.000
215.336;  -11.575; -157.000;  -19.000
215.480;  -67.375; -684.000; -505.000
215.625;  -14.200; -175.000;  -19.000
215.770;  -75.600; -757.000; -662.000
215.915;    2.625;   -5.000;  -97.000
216.060;   -9.325; -113.000;  -21.000
216.205; -104.400; -731.000; -779.000
216.349;  -73.400; -470.000; -533.000
216.494; -123.650; -939.000; -867.000
216.639; -107.375; -823.000; -888.000
216.784;  -87.475; -577.000; -525.000
216.929;   42.950;  392.000;  281.000
217.073;  -15.775; -244.000;  -31.000
217.218;    2.725;   78.000;  -47.000
217.363;  -88.500; -656.000; -618.000
217.507;  -85.775; -623.000; -588.000
217.652; -117.475; -845.000; -874.000
217.797;  -90.700; -708.000; -659.000
217.942; -116.150; -856.000; -720.000
218.086;   72.075;  608.000;  539.000
218.231;  -20.425; -174.000;  -26.000
218.376;  -29.200; -337.000; -229.000
218.520;   23.300;  -41.000;   96.000
218.665;  -30.600; -338.000; -204.000
218.810;  -30.300; -275.000; -233.000
218.954;   17.650;  201.000;   35.000
219.099; -104.825; -713.000; -963.000
219.243;  -80.500; -589.000; -554.000
219.388;   -7.675; -264.000; -136.000
219.532;   -9.600; -116.000; -116.000
219.677;  -78.050; -564.000; -521.000
219.822;    5.250;   33.000;   89.000
219.966;   10.050;   17.000;  -99.000
220.111;  -21.275; -328.000;  -40.000
220.255;  -91.925; -797.000; -750.000
220.400;  -16.975; -180.000; -146.000
220.544;  -56.025; -516.000; -450.000
220.689;  -44.875; -422.000; -451.000
220.833;  -28.225; -123.000;  -58.000
220.978;  -45.975; -393.000; -563.000
221.122;   34.650;  319.000;  307.000
221.267; -105.175; -906.000; -837.000
221.411;  -77.900; -478.000; -394.000
221.555;  -13.925; -104.000;  -23.000
221.700;  -24.650; -329.000; -222.000
221.844;   33.700;  255.000;  272.000
221.989;  -39.425; -328.000; -311.000
222.133;  -27.025; -289.000; -307.000
222.277;  -19.250;    5.000;   78.000
222.422;   22.725;  227.000;  113.000
222.566;  -26.650; -381.000; -214.000
222.711;  -49.100; -414.000; -479.000
222.855;  -80.875; -643.000; -586.000
222.999;  -82.250; -642.000; -717.000
223.144;  -37.775; -195.000; -194.000
223.288;   51.800;  423.000;  251.000
223.432;   25.400;  184.000;  230.000
223.576;   25.400;  152.000;  -21.000
223.721;   40.825;  364.000;  273.000
223.865;  -55.775; -472.000; -475.000
224.009;  247.075; 1673.000; 1631.000
224.153;  -64.475; -660.000; -671.000
224.298;  -67.900; -531.000; -489.000
224.442;   -5.375;  -74.000;  -33.000
224.586;   -2.700; -169.000; -106.000
224.730; -100.400; -858.000; -670.000
224.875;  -97.150; -739.000; -688.000
225.019;    6.375;  102.000;  188.000
225.163;   56.525;  208.000;  341.000
225.307;   10.300;   97.000;  -91.000
225.451;   46.075;  360.000;  481.000
225.595;   23.775;  264.000;  176.000
225.739;  -12.550; -170.000;  -94.000
225.884;   13.075;   86.000;    5.000
226.028; -104.925; -760.000; -626.000
226.172;  -44.625; -260.000; -273.000
226.316; -107.500; -941.000; -902.000
226.460;  -67.500; -645.000; -493.000
226.604;  -52.325; -406.000; -400.000
226.748; -103.400; -836.000; -733.000
226.892;  -28.900; -227.000; -181.000
227.036;  -45.650; -537.000; -447.000
227.180;  -61.250; -551.000; -375.000
227.324;  -68.525; -561.000; -580.000
227.468; -100.600; -819.000; -717.000
227.612;   12.575;  242.000;  -28.000
227.756; -106.200; -845.000; -698.000
227.900;   40.725;  342.000;  441.000
228.044;  -59.250; -509.000; -290.000
228.188;   54.150;  448.000;  568.000
228.332;  -73.850; -546.000; -472.000
228.476;  -29.575; -223.000; -149.000
228.620;  -27.375; -210.000; -150.000
228.764;   57.175;  431.000;  349.000
228.908;  -30.575; -155.000;   30.000
229.052;  -59.125; -615.000; -528.000
229.195;  -23.875; -172.000;   13.000
229.339;  -21.350; -235.000; -305.000
229.483;  -17.750;    5.000; -162.000
229.627;   -5.500; -156.000;  139.000
229.771;  -31.375; -218.000; -294.000
229.915;   10.775;  230.000;   79.000
230.059;  -95.325; -648.000; -663.000
230.202;  -38.000; -370.000; -317.000
230.346;  -12.425; -107.000;  107.000
230.490;  -70.050; -489.000; -521.000
230.634; -103.125; -736.000; -553.000
230.777;   71.500;  478.000;  509.000
230.921;  -54.900; -450.000; -359.000
231.065;  -49.450; -246.000; -286.000
231.209;   32.950;  261.000;  265.000
231.352;   22.875;   54.000;   40.000
231.496;   11.050;  568.000;  188.000
231.640;  -79.900; -693.000; -621.000
231.783;   42.100;  546.000;  525.000
231.927;  -40.150; -294.000; -365.000
232.071; -117.425; -962.000; -736.000
232.214; -107.675; -980.000; -764.000
232.358;  -86.475; -683.000; -599.000
232.502;   -2.200;  -19.000;    7.000
232.645; -117.850;-1090.000; -927.000
232.789;  -28.800; -257.000; -218.000
232.933;  -40.150; -407.000; -224.000
233.076; -109.300;-1038.000; -897.000
233.220; -110.350; -752.000; -777.000
233.363;  -76.100; -669.000; -477.000
233.507;   58.725;  371.000;  129.000
233.650;  -94.750; -764.000; -834.000
233.794;   37.750;  438.000;  461.000
233.938;  -50.050; -530.000; -362.000
234.081;  -13.225;  -93.000;   31.000
234.225;  -83.350; -631.000; -539.000
234.368; -102.575; -773.000; -723.000
234.512;  -38.800; -385.000; -299.000
234.655;  -85.725; -582.000; -555.000
234.798;  -67.375; -493.000; -466.000
234.942; -116.550; -884.000;-1002.000
235.085;  -87.425; -651.000; -443.000
235.229;  -71.300; -405.000; -410.000
235.372;  -50.950; -247.000; -191.000
235.516;  -53.650; -397.000; -321.000
235.659;   18.150;   92.000;  121.000
235.802;   -2.100;  -38.000;  -22.000
235.946;   32.050;  335.000;  215.000
236.089;   40.475;  126.000;  250.000
236.233;   49.725;  275.000;  298.000
236.376;  -43.025; -235.000; -378.000
236.519;  -46.575; -297.000; -319.000
236.663;  -15.900; -215.000; -117.000
236.806; -132.425;-1029.000; -999.000
236.949;   52.175;  543.000;  431.000
237.092;   55.500;  412.000;  391.000
237.236;  -96.550; -589.000; -502.000
237.379;   55.175;  352.000;  428.000
237.522; -123.200; -879.000; -768.000
237.666;  -19.050; -271.000;   18.000
237.809; -120.200; -851.000; -823.000
237.952;   30.275;  469.000;  271.000
238.095;  -67.775; -447.000; -442.000
238.238;   82.175;  688.000;  700.000
238.382;   -9.100;  166.000;  103.000
238.525;  -73.775; -598.000; -511.000
238.668; -136.650;-1060.000; -985.000
238.811;  -79.675; -638.000; -643.000
238.954;  -65.825; -483.000; -334.000
239.097;   85.075;  617.000;  664.000
239.241;   22.350;  394.000;  326.000
239.384;  -25.000; -254.000; -214.000
239.527;  -46.600; -424.000; -224.000
239.670; -137.675; -994.000;-1091.000
239.813; -109.650; -696.000; -658.000
239.956;   79.875;  579.000;  473.000
240.099; -100.875; -778.000; -725.000
240.242;   62.325;  428.000;  432.000
240.385;   44.100;  466.000;  450.000
240.528;  -75.225; -706.000; -473.000
240.671;   23.025;  189.000;  134.000
240.814;  -38.975; -441.000; -158.000
240.957; -102.950; -767.000; -578.000
241.100;  -84.950; -779.000; -755.000
241.243; -136.150;-1234.000; -893.000
241.386;  -53.600; -508.000; -379.000
241.529;  -81.000; -735.000; -547.000
241.672;  -55.575; -566.000; -495.000
241.815; -123.150; -832.000; -808.000
241.958;  -24.650; -125.000; -182.000
242.101;  -68.225; -545.000; -390.000
242.244;  -46.950; -270.000; -325.000
242.387;  -45.050; -304.000; -246.000
242.530;   50.900;  470.000;  134.000
242.673;  -42.000; -381.000; -309.000
242.815; -116.400; -925.000; -899.000
242.958;  -73.475; -482.000; -381.000
243.101;   13.150;  132.000;  187.000
243.244;  -84.975; -564.000; -521.000
243.387;  -53.750; -313.000; -316.000
243.530;  -99.450; -657.000; -674.000
243.672;    4.275;   43.000;  -92.000
243.815;  -54.025; -355.000; -283.000
243.958;  -12.750;   98.000;  -26.000
244.101;    1.200;   59.000;  -16.000
244.243;  -19.050;  -47.000;  101.000
244.386; -121.250; -761.000; -630.000
244.529;  -15.075; -132.000; -139.000
244.672; -145.675;-1154.000; -951.000
244.814;  -90.100; -621.000; -794.000
244.957;  -49.325; -380.000; -304.000
245.100;  -77.675; -489.000; -489.000
245.242;  -58.475; -387.000; -374.000
245.385;  -16.425;  -59.000;  -39.000
245.528; -127.325; -871.000; -705.000
245.670;   81.750;  612.000;  634.000
245.813;  -91.025; -599.000; -547.000
245.956;  -39.025; -324.000; -275.000
246.098;  -51.200; -508.000; -650.000
246.241;    6.325;  194.000;   48.000
246.383;  -17.800; -119.000;  -73.000
246.526;  -69.400; -454.000; -525.000
246.669; -118.725; -889.000; -780.000
246.811;    5.775;  172.000;   -1.000
246.954;  -63.150; -512.000; -426.000
247.096;  -23.125;  -84.000;   -6.000
247.239;  -61.950; -482.000; -445.000
247.381;  -64.100; -647.000; -488.000
247.524;   84.075;  645.000;  679.000
247.666;   -7.150;   58.000;   11.000
247.809; -110.100; -887.000; -691.000
247.951;   -7.975;  -75.000;  138.000
248.094;   36.225;  432.000;  308.000
248.236; -150.125;-1262.000;-1238.000
248.378;    6.000; -356.000;  -81.000
248.521;  -19.625; -334.000; -337.000
248.663;  -38.575; -236.000; -267.000
248.806;  -19.150; -300.000; -266.000
248.948;  -94.675; -886.000; -763.000
249.090;  -37.325; -428.000; -398.000
249.233;  -47.225; -344.000; -381.000
249.375;  -52.925; -474.000; -451.000
249.518;  -14.350;  -83.000; -133.000
249.660;  -11.275; -103.000;    3.000
249.802; -158.325;-1303.000;-1189.000
249.945;  -78.800; -612.000; -540.000
250.087; -104.025; -834.000; -768.000
250.229;  -49.025; -362.000; -480.000
250.371;  -78.050; -494.000; -439.000
250.514;  -48.125; -310.000; -244.000
250.656;  -56.475;   69.000;  102.000
250.798; -113.475; -849.000; -800.000
250.940;  -52.975; -322.000; -322.000
251.083;  -26.325; -335.000; -111.000
251.225;   62.750;  338.000;  310.000
251.367;  -35.000; -274.000; -373.000
251.509;  -36.400; -265.000; -210.000
251.651;  -87.525; -731.000; -671.000
251.794;   55.925;  538.000;  632.000
251.936;  -99.175; -821.000; -747.000
252.078;  -72.575; -540.000; -461.000
252.220;  -66.025; -645.000; -477.000
252.362;   92.850;  344.000;  462.000
252.504;  -63.875; -677.000; -584.000
252.646; -124.350; -875.000; -722.000
252.788;    6.425;   14.000; -128.000
252.931;  -33.425; -257.000; -253.000
253.073;  -37.875; -376.000; -317.000
253.215;    2.175;  141.000;  122.000
253.357;   -8.725;   82.000; -153.000
253.499;  -54.375; -374.000; -234.000
253.641;  -84.425; -749.000; -594.000
253.783;  -86.775; -609.000; -527.000
253.925;  -85.650; -586.000; -591.000
254.067; -103.475; -744.000; -667.000
254.209;  -36.675; -391.000; -259.000
254.351; -134.500; -865.000; -883.000
254.493;  -59.500; -441.000; -417.000
254.635; -125.300; -936.000; -818.000
254.777;  -87.000; -752.000; -687.000
254.918;  -68.850; -512.000; -430.000
255.060;  -70.650; -551.000; -395.000
255.202;  -59.125; -473.000; -261.000
255.344;  -77.275; -658.000; -455.000
255.486;  -72.500; -471.000; -406.000
255.628; -108.825; -780.000; -781.000
255.770;  -81.750; -676.000; -536.000
255.912;  -80.650; -559.000; -468.000
256.053; -100.425; -730.000; -508.000
256.195;  135.750; 1008.000;  903.000
256.337;  -94.925; -861.000; -595.000
256.479;   59.975;  532.000;  416.000
256.621;  -48.125; -394.000; -212.000
256.762;  -95.525; -789.000; -742.000
256.904;   53.525;  485.000;  487.000
257.046;  -41.500; -381.000; -271.000
257.188;  -37.675; -351.000; -264.000
257.329;  -78.025; -525.000; -464.000
257.471; -111.225; -939.000; -807.000
257.613;  -60.850; -584.000; -498.000
257.755; -141.550;-1073.000; -982.000
257.896;   34.775;  286.000;  392.000
258.038;  -70.075; -403.000; -352.000
258.180;  -46.725; -354.000; -279.000
258.321;  -71.700; -581.000; -457.000
258.463;   11.800;  -71.000;  133.000
258.605;  -84.575; -562.000; -570.000
258.746; -103.725; -886.000; -772.000
258.888; -144.400;-1026.000;-1020.000
259.029;    9.725;  121.000;   -8.000
259.171;  -83.875; -614.000; -550.000
259.313;   -8.075;  -49.000;  -47.000
259.454;  -59.700; -536.000; -414.000
259.596;  -52.725; -483.000; -390.000
259.737;  -69.450; -590.000; -474.000
259.879;   24.075;  217.000;  311.000
260.020;   82.875;  901.000;  636.000
260.162;  -27.100; -146.000; -253.000
260.303; -110.975; -768.000; -687.000
260.445;  -78.125; -609.000; -613.000
260.586;   27.050;  392.000;  157.000
260.728;  -35.550; -360.000; -248.000
260.869; -115.250; -350.000; -343.000
261.011;   70.925;  706.000;  537.000
261.152;  -62.450; -479.000; -319.000
261.293;  -80.250; -576.000; -595.000
261.435;  -35.700; -219.000; -184.000
261.576;  -41.500; -455.000; -325.000
261.718;   55.075;  420.000;  470.000
261.859; -122.050; -940.000; -949.000
262.000; -124.525; -951.000;-1016.000
262.142;  -26.225;  -52.000;  -60.000
262.283; -101.875; -808.000; -691.000
262.424;  -91.300; -666.000; -625.000
262.566; -142.150;-1161.000; -983.000
262.707; -108.125; -840.000; -830.000
262.848; -115.900; -769.000; -726.000
262.990;  -60.300; -362.000; -345.000
263.131;   86.775;  650.000;  681.000
263.272;   -1.875;  -61.000;  -41.000
263.413;  -86.825; -589.000; -561.000
263.555;  -80.375; -669.000; -143.000
263.696;  -78.875; -550.000; -641.000
263.837;  -62.600; -449.000; -551.000
263.978;  -11.200;   -5.000;  -77.000
264.119;  -36.000; -283.000; -264.000
264.261; -112.675; -847.000; -630.000
264.402;   -8.475;   33.000;   40.000
264.543;  -64.150; -509.000; -524.000
264.684;   -1.775;   61.000;  -50.000
264.825;  -53.500; -816.000; -538.000
264.966;   -4.975;  -84.000;  -67.000
265.107; -108.100; -646.000; -670.000
265.248; -121.875; -825.000; -812.000
265.390;   -7.350;  152.000;   -9.000
265.531;  -24.850; -238.000; -107.000
265.672;  -98.900; -557.000; -630.000
265.813;   70.525;  563.000;  439.000
265.954; -131.975; -959.000; -940.000
266.095;  -19.375; -372.000; -322.000
266.236; -101.525; -686.000; -548.000
266.377;  -40.600; -243.000; -297.000
266.518;  -85.550; -619.000; -547.000
266.659;   20.075;  170.000;  268.000
266.800;   11.275;   83.000;   85.000
266.941;  -80.400; -487.000; -478.000
267.082;   14.750;  354.000;   99.000
267.223;  -40.250; -344.000; -273.000
267.364; -115.650; -892.000; -686.000
267.504;  -14.850;    3.000;  135.000
267.645;   -9.975;  160.000;   67.000
267.786;  -28.575; -147.000;  -86.000
267.927;  -73.250; -473.000; -379.000
268.068;  -24.400; -186.000;  -61.000
268.209;  -39.700; -175.000; -413.000
268.350;  -62.000; -388.000; -532.000
268.490;  -95.300; -648.000; -521.000
268.631;   25.675;  127.000;  225.000
268.772; -104.000; -874.000; -647.000
268.913;  -55.650; -328.000; -476.000
269.054;  -17.750; -117.000;   12.000
269.194;  -46.450; -418.000; -402.000
269.335; -161.825;-1137.000;-1074.000
269.476;  -22.900;   33.000;  -35.000
269.617;  -45.800; -347.000; -392.000
269.757;  -88.225; -713.000; -646.000
269.898;  -89.000; -856.000; -613.000
270.039;  -52.325; -415.000; -405.000
270.180; -144.450; -952.000; -816.000
270.320;  -44.600; -190.000; -250.000
270.461;  -38.225; -277.000; -249.000
270.602;  -15.075; -186.000; -156.000
270.742; -130.600; -868.000; -943.000
270.883;  -65.600; -442.000; -390.000
271.023;  -68.275; -358.000; -357.000
271.164;  -74.000; -607.000; -528.000
271.305;  -96.600; -666.000; -654.000
271.445; -103.325; -722.000; -683.000
271.586;  -72.375; -462.000; -283.000
271.726;  -44.350; -397.000; -322.000
271.867;  -63.825; -594.000; -534.000
272.008;  169.925; -473.000; -285.000
272.148;  131.850;  462.000;  468.000
272.289;   10.925; -113.000; -181.000
272.429;   24.300;   19.000;  185.000
272.570;  -84.175; -633.000; -737.000
272.710;  -90.525; -825.000; -775.000
272.851;  -33.675;  113.000; -130.000
272.991; -156.525;-1173.000;-1077.000
273.131;  -64.000; -419.000; -459.000
273.272;  -95.050; -683.000; -723.000
273.412;   -1.975; -143.000;  -31.000
273.553;  -68.625; -488.000; -507.000
273.693;  121.400;  913.000;  858.000
273.834;  -86.475; -894.000; -692.000
273.974;  -79.650; -664.000; -615.000
274.114; -107.275; -772.000; -560.000
274.255;   69.125;  414.000;  373.000
274.395;    0.675; -180.000; -125.000
274.535;   40.525;  199.000;  350.000
274.676;   23.900;  225.000;   94.000
274.816;   -7.275;  110.000;   34.000
274.956;  -80.475; -624.000; -690.000
275.097;  -55.325;-1014.000; -922.000
275.237; -101.675; -913.000; -803.000
275.377;  -92.775; -778.000; -689.000
275.517; -142.350; -878.000; -937.000
275.658;  -57.350; -590.000; -555.000
275.798;  -65.275; -606.000; -413.000
275.938;   26.550;  215.000;  323.000
276.078;  -90.075; -626.000; -395.000
276.218;   10.300;   99.000;  104.000
276.359; -122.150;-1026.000;-1024.000
276.499;  -77.275; -605.000; -446.000
276.639;  -35.400; -305.000; -151.000
276.779;  -42.675; -475.000; -357.000
276.919;  -95.075; -783.000; -624.000
277.059;  -22.200; -261.000; -212.000
277.199;  -46.400; -357.000; -259.000
277.340;   49.775;  287.000;  175.000
277.480; -109.700; -840.000; -693.000
277.620;   17.625;  192.000;   16.000
277.760; -191.100;-1533.000;-1294.000
277.900;   11.875;  113.000;   33.000
278.040;   22.475;  137.000;  159.000
278.180;   41.800;  270.000;  170.000
278.320;   -2.225;   21.000;   56.000
278.460;  -57.925; -443.000; -469.000
278.600;  -94.950; -708.000; -598.000
278.740;   45.650;  448.000;  224.000
278.880;  -49.825; -768.000; -791.000
279.020;  -16.575; -194.000; -144.000
279.160;  -91.750; -672.000; -595.000
279.300; -110.700; -926.000; -873.000
279.440;  -80.675; -709.000; -622.000
279.579;  -16.925;-1014.000; -929.000
279.719;  -49.175; -410.000; -394.000
279.859;   83.450;   -4.000;   41.000
279.999;   25.375; -208.000;  101.000
280.139;  -24.525; -435.000; -387.000
280.279;  -80.350; -708.000; -745.000
280.419;   -8.075; -229.000; -147.000
280.559;  -25.075; -259.000; -180.000
280.698;  -92.250; -790.000; -639.000
280.838; -100.200; -778.000; -800.000
280.978; -102.250; -846.000; -790.000
281.118; -115.425; -811.000; -704.000
281.257;   12.025;   24.000;    6.000
281.397; -110.875;-1094.000; -960.000
281.537;  -90.325; -599.000; -712.000
281.677;   -8.025; -150.000; -101.000
281.816;  -76.950; -700.000; -630.000
281.956;  -40.375; -193.000; -257.000
282.096;  -66.900; -539.000; -396.000
282.235; -109.475; -672.000; -638.000
282.375;  -19.900; -243.000;  -98.000
282.515; -114.225; -715.000; -707.000
282.654;   23.600;   29.000;  106.000
282.794;   28.800;  388.000;  244.000
282.934;  -61.550; -530.000; -491.000
283.073; -127.125;-1030.000; -857.000
283.213;  -54.575; -460.000; -467.000
283.353;  -38.025; -408.000; -349.000
283.492;  -36.925; -264.000; -296.000
283.632;  -40.275; -254.000; -168.000
283.771; -106.625; -859.000; -730.000
283.911;  -52.750; -369.000; -260.000
284.050; -101.650; -794.000; -748.000
284.190; -160.650;-1229.000;-1096.000
284.329; -124.150;-1055.000; -964.000
284.469;  -64.850; -516.000; -591.000
284.608;  -62.925; -559.000; -598.000
284.748;  -77.725; -614.000; -570.000
284.887;   -6.250;  -87.000;  -20.000
285.027; -102.975; -844.000; -892.000
285.166;  -33.350; -192.000; -249.000
285.306;   -6.200; -116.000;  -33.000
285.445;  -44.000; -229.000; -343.000
285.584;  -81.400; -630.000; -494.000
285.724;  -44.600; -282.000; -322.000
285.863; -102.825; -857.000; -507.000
286.002;  -60.750; -366.000; -276.000
286.142; -112.350; -715.000; -622.000
286.281;  -90.700; -525.000; -493.000
286.420;  -66.750; -554.000; -417.000
286.560;   77.475;  653.000;  623.000
286.699; -124.325; -958.000; -912.000
286.838;  -84.725; -590.000; -591.000
286.978;  -93.300; -533.000; -537.000
287.117; -135.650;-1085.000; -950.000
287.256;  -37.900; -228.000; -211.000
287.395;  -57.125; -197.000; -378.000
287.535;  -39.325; -370.000; -298.000
287.674;  -77.250; -509.000; -484.000
287.813;   31.250;  661.000;  533.000
287.952; -110.575;-1010.000; -871.000
288.091; -148.175;-1049.000; -915.000
288.231;    9.950;   13.000;   15.000
288.370; -163.675;-1217.000;-1200.000
288.509;  -92.900; -728.000; -645.000
288.648;  -90.425; -770.000; -548.000
288.787;  -22.825; -243.000;  -87.000
288.926;  -53.200; -454.000; -475.000
289.065;  107.725;  859.000;  672.000
289.204;  -43.175; -377.000; -217.000
289.344;  -97.550; -791.000; -690.000
289.483;   26.925;  416.000;  304.000
289.622;  -30.550; -291.000; -149.000
289.761;  -18.800; -309.000; -166.000
289.900; -115.000; -785.000; -626.000
290.039;  -12.600;  -12.000;  -95.000
290.178;  -36.050; -274.000; -180.000
290.317;  -74.700; -618.000; -479.000
290.456;  -64.850; -463.000; -451.000
290.595; -129.800; -961.000; -833.000
290.734; -122.575; -904.000; -891.000
290.873;  -71.100; -456.000; -420.000
291.011; -110.925; -833.000; -843.000
291.150;  -96.800; -770.000; -682.000
291.289;  -26.375; -343.000; -110.000
291.428;  -94.825; -599.000; -480.000
291.567;  -44.000; -370.000; -442.000
291.706;  -13.700;  109.000;  154.000
291.845;  -84.575; -597.000; -505.000
291.984; -155.975;-1234.000;-1061.000
292.122;   58.875;  602.000;  582.000
292.261;   46.275;  620.000;  463.000
292.400;   11.825; -144.000;  211.000
292.539; -119.625; -959.000; -813.000
292.678;  -41.250; -325.000; -300.000
292.816; -155.075;-1136.000; -965.000
292.955;  -87.350; -844.000; -684.000
293.094;  -27.425; -173.000; -337.000
293.233;  -56.925; -556.000; -400.000
293.371;  -51.525; -225.000;  -84.000
293.510; -107.875; -866.000; -780.000
293.649; -135.325; -959.000; -924.000
293.787;  -57.350;-1083.000;-1012.000
293.926;  -12.075; -113.000;  -32.000
294.065;  -50.950; -379.000; -290.000
294.203;   47.000;  298.000;  406.000
294.342;   29.200;   74.000;  156.000
294.481; 5297.475;51180.000; -836.000
294.619;  -40.075; -425.000; -582.000
294.758; -131.000;-1230.000;-1137.000
294.896;   59.725; -125.000;    5.000
295.035; -121.000;-1040.000;-1006.000
295.174; -130.200;-1082.000; -954.000
295.312;  -43.075; -323.000; -203.000
295.451;  -12.475; -307.000; -428.000
295.589;  -45.375; -389.000; -518.000
295.728;   17.550; -292.000; -165.000
295.866;    4.675;  -36.000;  -51.000
296.005;  -61.800; -584.000; -341.000
296.143;  -67.150; -558.000; -596.000
296.282; -102.275; -957.000; -881.000
296.420;  -87.000; -657.000; -557.000
296.559;  -79.675; -892.000; -633.000
296.697;   25.975; -847.000; -665.000
296.835;   45.500;-1141.000;-1002.000
296.974;   33.375;  -23.000;   39.000
297.112;   -7.400; -443.000; -504.000
297.251;  -60.175; -815.000; -755.000
297.389;   71.850; -576.000; -438.000
297.527;   13.000; -145.000;  -83.000
297.666;  -44.450; -486.000; -438.000
297.804;  -51.825; -404.000; -264.000
297.942;  -18.225; -136.000; -161.000
298.081;  -11.850; -183.000;   63.000
298.219;   83.175;  -17.000;  -19.000
298.357;   46.275; -144.000;  -71.000
298.495;   42.000; -810.000; -812.000
298.634;   85.000;  245.000;  219.000
298.772;   46.500; -220.000; -338.000
298.910;  -40.625; -309.000; -182.000
299.048;   -5.500; -130.000; -153.000
299.187;  -32.925; -350.000; -250.000
299.325;   18.075;   52.000;  122.000
299.463;   46.625; -389.000; -299.000
299.601;   97.800; -327.000; -271.000
299.739; -100.175; -908.000; -883.000
299.877;  -83.675; -791.000; -703.000
300.016;  -31.925;-1095.000; -935.000
300.154;  141.600;  -19.000; -161.000
300.292;   46.550; -428.000; -348.000
300.430;   20.450; -408.000; -291.000
300.568;  -96.825; -940.000; -874.000
300.706;  -35.150; -366.000; -469.000
300.844;  -67.000;-1108.000; -979.000
300.982;  121.850;  246.000;  282.000
301.120;  -96.125; -965.000; -866.000
301.258;  -69.575; -812.000; -705.000
301.396;   31.775;  104.000;  -41.000
301.534;   73.025; -218.000; -293.000
301.672;  -18.700; -664.000; -521.000
301.810;   22.250; -613.000; -545.000
301.948;  101.000;   53.000;  149.000
302.086;  606.775; -250.000;  -32.000
302.224;  893.650; -610.000; -585.000
302.362;   31.475; -558.000; -622.000
302.500;  -14.100; -923.000; -893.000
302.638;   97.700;  128.000;  245.000
302.776;   -4.725; -352.000; -408.000
302.913;   38.275;  447.000;  236.000
303.051;    5.800;  -86.000;  -23.000
303.189;   42.950;   90.000;  118.000
303.327;  -30.750; -341.000; -256.000
303.465;  -77.800; -832.000; -588.000
303.603;  -93.100; -805.000; -604.000
303.740;   91.925;  417.000;  241.000
303.878;   22.575; -800.000; -759.000
304.016;  -79.100; -915.000; -790.000
304.154; -133.050;-1123.000;-1152.000
304.291;  -38.950; -505.000; -554.000
304.429;   10.850;  102.000;   74.000
304.567; -116.725; -908.000; -893.000
304.705;  -49.250; -408.000; -515.000
304.842;  101.450; -616.000; -540.000
304.980;   55.700;  215.000;   35.000
305.118;   40.700; -367.000; -365.000
305.255;  -70.975; -945.000; -927.000
305.393;   51.550;  178.000;  239.000
305.531;  -97.850;-1173.000; -956.000
305.668;  -61.425; -663.000; -582.000
305.806;  117.075; -358.000; -439.000
305.943;  107.150; -629.000; -637.000
306.081;   57.625; -378.000; -267.000
306.219; -102.200; -863.000; -748.000
306.356;    8.850;  158.000;   27.000
306.494;  112.725;  981.000;  761.000
306.631;   13.875;  -11.000;  -55.000
306.769;    6.500; -613.000; -485.000
306.906;  -31.700; -284.000; -258.000
307.044;  -53.925; -473.000; -488.000
307.181;  -61.150; -410.000; -332.000
307.319;   10.300;  112.000;   87.000
307.456; -169.575;-1191.000;-1153.000
307.594;  -96.200; -980.000; -727.000
307.731;  -13.575; -371.000; -164.000
307.868;   -8.325;  -15.000;   20.000
308.006; -126.950; -961.000; -847.000
308.143;  -60.375; -618.000; -330.000
308.281;  173.400;  -37.000; -254.000
308.418;  -13.175; -748.000; -640.000
308.555;  -63.875; -400.000; -250.000
308.693;  -70.725; -577.000; -573.000
308.830; -114.300; -712.000; -657.000
308.967;  -21.325; -215.000;  -95.000
309.105;  -57.225; -507.000; -396.000
309.242;   30.300; -468.000; -367.000
309.379;  318.675; -577.000; -655.000
309.517;  -80.975; -936.000; -948.000
309.654; -112.050; -910.000; -734.000
309.791;  -65.525; -662.000; -580.000
309.928; -104.850; -977.000; -914.000
310.065;  170.725;  819.000;  697.000
310.203;  -11.675; -825.000; -850.000
310.340;  -16.175; -465.000; -321.000
310.477;  -74.825; -412.000; -516.000
310.614;  -63.375; -383.000; -473.000
310.751;  -64.950; -427.000; -518.000
310.889;  -33.275;    1.000;   11.000
311.026; -149.025;-1161.000; -939.000
311.163;  -45.325; -386.000; -380.000
311.300;  -74.100; -512.000; -479.000
311.437;  -70.350; -658.000; -619.000
311.574; -153.525;-1226.000; -985.000
311.711;  -61.150; -595.000; -433.000
311.848;  -32.250; -380.000; -388.000
311.985;    9.725;  270.000;   93.000
312.122; -103.175; -932.000; -762.000
312.259; -108.925; -941.000; -994.000
312.396;  -89.525; -508.000; -551.000
312.533;  -89.675; -812.000; -790.000
312.670; -126.675;-1070.000; -898.000
312.807;  -27.975; -352.000; -367.000
312.944;  -80.650; -513.000; -611.000
313.081;  -27.050; -150.000; -415.000
313.218; -103.725;-1111.000; -867.000
313.355;    9.500; -531.000; -449.000
313.492;   -6.375; -455.000; -292.000
313.629;  120.675;  815.000;  735.000
313.766; -153.650;-1176.000;-1008.000
313.902;  -19.525; -186.000;   21.000
314.039;  -40.025; -372.000; -289.000
314.176;   24.100;  286.000;  192.000
314.313;  -76.300; -569.000; -473.000
314.450;  -66.000; -788.000; -684.000
314.587;  -72.975; -468.000; -480.000
314.723;    6.375;  -78.000;  130.000
314.860;   20.075;  318.000;  332.000
314.997;   21.575;  223.000;  142.000
315.134;  -42.650; -385.000; -368.000
315.270;  -27.250; -480.000; -496.000
315.407; -109.675;-1094.000; -967.000
315.544;  -46.625; -657.000; -538.000
315.681;  -63.325; -681.000; -565.000
315.817;   19.425; -133.000; -176.000
315.954;   15.200; -613.000; -392.000
316.091; -116.350;-1045.000;-1023.000
316.227;  -23.475;  -71.000; -179.000
316.364;  -13.475;   23.000;    6.000
316.500;  -42.250; -113.000; -300.000
316.637;  -38.375; -181.000; -302.000
316.774;  -76.975; -625.000; -358.000
316.910;  -87.725; -598.000; -629.000
317.047;  -71.325; -487.000; -351.000
317.183;  -54.125; -435.000; -566.000
317.320;    2.200; -367.000; -321.000
317.456;  -56.650; -733.000; -805.000
317.593;  -93.700; -598.000; -641.000
317.729;    8.850;  168.000;  -67.000
317.866; -191.400;-1434.000;-1285.000
318.002;  -93.225; -708.000; -948.000
318.139; -108.650; -883.000; -867.000
318.275; -104.800;-1003.000; -738.000
318.412;  -66.675; -517.000; -336.000
318.548;  -33.200; -751.000; -720.000
318.685;  -93.100; -985.000; -888.000
318.821;  -92.525; -762.000; -735.000
318.957;  -15.550;   34.000;  -23.000
319.094;   23.950;  297.000;  154.000
319.230;  -57.625; -756.000; -742.000
319.367;  131.800; -471.000; -520.000
319.503;   48.625; -538.000; -436.000
319.639;  -97.625; -877.000; -793.000
319.775;  -57.875; -750.000; -685.000
319.912;  -61.700; -424.000; -519.000
320.048;  -81.175;-1184.000;-1184.000
320.184;   71.525;   59.000;   70.000
320.321;  -73.600; -497.000; -467.000
320.457;   57.150;  475.000;  662.000
320.593;  -64.600; -375.000; -382.000
320.729;  -92.275; -732.000; -734.000
320.866;  -73.375; -577.000; -635.000
321.002;  -80.800; -759.000; -809.000
321.138;  -11.375; -135.000; -211.000
321.274;   75.375; -148.000; -115.000
321.410;   -9.325; -585.000; -353.000
321.546;  -15.475;-1011.000; -911.000
321.683;   48.925;  400.000;  185.000
321.819;   -8.775;  -48.000; -117.000
321.955; -109.275; -743.000; -722.000
322.091;  -45.375; -585.000; -540.000
322.227;  -10.625; -382.000; -202.000
322.363;  -18.925; -320.000; -215.000
322.499;  -47.350; -343.000; -331.000
322.635;  156.475;  636.000;  443.000
322.771;   39.050; -139.000;   12.000
322.907;   74.050;  129.000;  327.000
323.043;  -28.325; -115.000; -206.000
323.179;  -27.925; -394.000; -363.000
323.315;   13.575; -401.000; -371.000
323.451;   89.550; -328.000; -236.000
323.587;   56.750;  -60.000;  -77.000
323.723;   18.400; -682.000; -601.000
323.859;  -16.550; -258.000;  -76.000
323.995;  -43.475; -467.000; -409.000
324.131; -115.975; -967.000; -892.000
324.267;  -47.925; -254.000; -276.000
324.402; -126.650; -960.000; -983.000
324.538;  -19.125; -279.000; -104.000
324.674;    6.875;  164.000;   77.000
324.810;  108.375;  226.000;  308.000
324.946;   -1.125; -810.000; -658.000
325.082;  -69.025; -568.000; -475.000
325.217;  -28.025;  -62.000;   16.000
325.353;  -97.725; -764.000; -659.000
325.489;  -84.900; -540.000; -506.000
325.625;  -80.225; -579.000; -525.000
325.760;   63.500;  517.000;  376.000
325.896;  -14.075; -515.000; -702.000
326.032;  -67.575; -403.000; -352.000
326.168;  -59.900; -462.000; -369.000
326.303;  -70.900; -352.000; -461.000
326.439;  -16.450; -336.000; -276.000
326.575;   -2.350; -190.000;  -29.000
326.710;  -14.750; -156.000;  -30.000
326.846;  -23.575;  146.000;  103.000
326.982;  -87.250; -530.000; -548.000
327.117;  -62.300; -481.000; -442.000
327.253;  -94.150; -745.000; -742.000
327.388; -132.250;-1137.000;-1153.000
327.524;  -41.075; -811.000; -578.000
327.659;  -30.975;  -58.000;  -22.000
327.795;  -20.350;   69.000;   45.000
327.931;  -85.075; -723.000; -499.000
328.066;  -19.475; -417.000; -276.000
328.202;  -11.875;   12.000; -129.000
328.337;   97.225;  957.000;  713.000
328.473;   35.950;  -12.000;  -74.000
328.608;  -27.075; -256.000; -267.000
328.743;  -78.700; -799.000; -664.000
328.879;   21.550;  214.000;  114.000
329.014;  -31.825; -102.000; -122.000
329.150;  -72.525; -358.000; -483.000
329.285;  -76.500; -465.000; -466.000
329.421;  -47.600; -548.000; -246.000
329.556;  -19.875;  -36.000;   85.000
329.691;  -98.575; -633.000; -615.000
329.827;  -76.100; -626.000; -480.000
329.962;  -40.475;  131.000; -301.000
330.097;  -68.075; -673.000; -585.000
330.233;  -56.600; -410.000; -223.000
330.368; -117.125; -839.000; -628.000
330.503;  -22.400;    3.000;   98.000
330.638;    5.650;  -93.000; -125.000
330.774;  -62.725; -609.000; -530.000
330.909;  -46.375; -434.000; -244.000
331.044;  -94.075; -714.000; -708.000
331.179; -168.150;-1217.000;-1109.000
331.315;    6.975;   77.000;   20.000
331.450;   28.050;  157.000;  285.000
331.585;  -91.625; -805.000; -706.000
331.720;  -67.700; -510.000; -460.000
331.855;    0.125;  -35.000; -102.000
331.990;  268.275;   62.000;  138.000
332.126;  127.150; -110.000;   71.000
332.261;  -21.875; -379.000; -265.000
332.396;   -7.350; -135.000; -242.000
332.531;  -98.275;-1074.000;-1031.000
332.666;   26.550; -519.000; -363.000
332.801;  -98.125; -726.000; -807.000
332.936;  -26.775; -192.000; -122.000
333.071; -155.475; -870.000; -817.000
333.206;   10.875;  307.000;  379.000
333.341;   20.275;  344.000;  418.000
333.476;  -82.400; -627.000; -623.000
333.611;  -43.375; -251.000; -173.000
333.746;  -62.675; -381.000; -464.000
333.881; -113.400; -973.000; -935.000
334.016; -130.650; -936.000; -917.000
334.151; -120.800; -746.000; -702.000
334.286;   20.925;  152.000;  186.000
334.421;  -12.850; -125.000; -178.000
334.556;  -77.400; -611.000; -567.000
334.690;  -79.700; -631.000; -577.000
334.825;   44.900;  381.000;   83.000
334.960;  -56.125; -285.000; -413.000
335.095;    0.625;  135.000;  -91.000
335.230;  -91.625; -722.000; -738.000
335.365; -129.350;-1084.000; -990.000
335.499; -133.400;-1108.000;-1037.000
335.634;   18.000;    9.000;  534.000
335.769; -104.500; -755.000; -720.000
335.904;  -56.375; -603.000; -561.000
336.038;  -64.550; -735.000; -657.000
336.173; -113.225;-1206.000;-1194.000
336.308;   -0.575; -116.000; -189.000
336.443;   32.700; -544.000; -634.000
336.577;  -71.475; -936.000; -787.000
336.712;   55.275;   -4.000;  -12.000
336.847;  -46.325; -724.000; -607.000
336.981;   65.500; -272.000; -208.000
337.116;  263.850;  615.000;  501.000
337.250;  121.600; -434.000; -421.000
337.385;  262.425; -297.000; -208.000
337.520;  106.375; -632.000; -603.000
337.654;  -41.100; -215.000; -126.000
337.789; -131.225; -989.000; -933.000
337.923;  -37.450; -104.000; -205.000
338.058;  -89.200; -673.000; -738.000
338.192;  -22.900; -611.000; -488.000
338.327;   -7.300;  -18.000; -155.000
338.461;  -53.950; -299.000; -469.000
338.596;  -97.800; -780.000; -638.000
338.730;  -84.875; -767.000; -803.000
338.865;   93.300;  -46.000; -140.000
338.999;  -45.475; -846.000; -702.000
339.134;  -28.250; -634.000; -536.000
339.268;   25.225; -741.000; -603.000
339.403;  391.125; -740.000; -775.000
339.537;  141.875; -894.000; -820.000
339.671; -103.925; -829.000; -813.000
339.806;  -53.250; -556.000; -512.000
339.940;   12.850; -261.000; -235.000
340.074;  -88.150; -685.000; -510.000
340.209;  -55.100; -351.000; -230.000
340.343;  -91.850; -517.000; -573.000
340.477;  136.100;  998.000; 1036.000
340.612;  -54.075;-1033.000; -900.000
340.746;  130.775; -199.000; -243.000
340.880;  -72.000; -924.000; -785.000
341.014;  -23.525;  -45.000; -154.000
341.149; -111.900; -756.000; -718.000
341.283; -110.275; -839.000; -754.000
341.417; -106.975;-1124.000; -938.000
341.551;  118.025; -768.000; -708.000
341.685;  -35.750; -633.000; -611.000
341.820;  -47.525; -562.000; -493.000
341.954;  -52.450; -218.000; -349.000
342.088; -162.600;-1102.000;-1019.000
342.222;   47.200;  565.000;  618.000
342.356;  -64.025; -395.000; -335.000
342.490; -100.450; -880.000; -841.000
342.624;  -41.125; -339.000; -242.000
342.758;   -4.200; -364.000; -312.000
342.892;  -68.950; -710.000; -585.000
343.026;  -38.800;  -58.000; -116.000
343.160;  -59.125; -426.000; -376.000
343.294;  -81.075; -474.000; -337.000
343.428;  -15.275; -488.000; -448.000
343.562;  -13.550; -172.000;  -23.000
343.696;  -33.000; -385.000; -314.000
343.830;  -28.825; -362.000; -356.000
343.964;   21.575; -231.000; -168.000
344.098;  868.250;  199.000;   70.000
344.232;  715.800; -266.000; -127.000
344.366;   89.125; -567.000; -453.000
344.500;   39.950; -665.000; -744.000
344.634;   20.600; -324.000; -164.000
344.768;  -22.525; -531.000; -341.000
344.902;   31.100;  278.000;  256.000
345.035;  -71.675; -556.000; -496.000
345.169; -121.600; -933.000; -656.000
345.303;  -41.450; -308.000; -482.000
345.437;  -76.975; -826.000; -717.000
345.571;  -76.500; -675.000; -594.000
345.704;  -61.800; -309.000; -532.000
345.838;  -19.125; -331.000; -284.000
345.972;  -40.700; -543.000; -495.000
346.106;  175.100; -179.000; -190.000
346.239;  409.650; -312.000; -243.000
346.373;    8.300; -343.000; -302.000
346.507; -124.600; -950.000; -962.000
346.640;  117.950;  -30.000;   13.000
346.774;  -48.075; -650.000; -797.000
346.908;  -19.150; -138.000;  -11.000
347.041;  -96.875; -646.000; -593.000
347.175;  -15.250;  259.000;   27.000
347.309;  -75.825; -698.000; -628.000
347.442;  -85.225; -883.000; -732.000
347.576;  252.125;  670.000;  668.000
347.709;  178.975; -123.000;  -52.000
347.843;  -95.225; -933.000; -825.000
347.976;   30.000;  235.000;  294.000
348.110; -164.600;-1268.000;-1186.000
348.243; -101.675; -679.000; -772.000
348.377;    3.325;  -26.000;   60.000
348.510;   44.525;  403.000;  540.000
348.644;  -37.375;  -37.000; -159.000
348.777;  -10.125;  180.000;  191.000
348.911;  -48.175; -142.000; -112.000
349.044;  165.275;  471.000;  448.000
349.178;  143.250;-1069.000;-1006.000
349.311;  107.825;  141.000;  255.000
349.444;    7.775; -927.000; -813.000
349.578;  -14.775; -347.000; -200.000
349.711;  -89.900; -959.000; -862.000
349.845;   -0.975; -661.000; -591.000
349.978; -147.450;-1224.000;-1137.000
350.111;  -90.650; -546.000; -612.000
350.244;  -75.200; -596.000; -700.000
350.378;   -3.225; -392.000; -393.000
350.511;  -74.300; -393.000; -426.000
350.644; -109.825; -808.000; -806.000
350.778;    8.825;  168.000;  104.000
350.911;   13.350;  134.000;  140.000
351.044;  -99.000; -685.000; -615.000
351.177;  -32.875; -321.000; -281.000
351.310;  -18.250;    3.000; -131.000
351.444;  -65.250; -888.000; -788.000
351.577;   98.625;  140.000;   90.000
351.710;   97.825;  593.000;  417.000
351.843;  -41.425; -165.000;  -77.000
351.976;  -12.775;  149.000;  -79.000
352.109;  -82.400; -621.000; -612.000
352.242;  -35.475; -464.000; -419.000
352.376;  -62.825; -580.000; -636.000
352.509;  141.050; -437.000; -356.000
352.642;   21.100; -654.000; -604.000
352.775;   46.975; -141.000;  -98.000
352.908; -108.350; -933.000; -904.000
353.041; -101.875; -814.000; -824.000
353.174;  -57.800; -551.000; -424.000
353.307;  -74.350; -753.000; -764.000
353.440;   71.525;  541.000;  453.000
353.573; -102.700; -957.000;-1008.000
353.706;  -31.325; -384.000; -558.000
353.839;  -24.525; -264.000; -220.000
353.971;  -89.500; -657.000; -512.000
354.104;  -93.575; -896.000; -835.000
354.237;  -39.975; -627.000; -662.000
354.370;  -92.425; -846.000; -879.000
354.503; -172.975;-1231.000;-1308.000
354.636;  -41.250; -529.000; -348.000
354.769; -121.300; -937.000; -860.000
354.902;  -22.525; -230.000; -139.000
355.034;  -28.150; -164.000; -220.000
355.167;  -23.625; -262.000; -162.000
355.300;  -96.925;-1061.000; -880.000
355.433;  999.625;  -71.000;  -14.000
355.565; 1585.150; -402.000; -384.000
355.698;  412.725; -356.000; -296.000
355.831;   -1.675; -882.000; -801.000
355.964;   54.750; -285.000; -170.000
356.096;  -88.250; -856.000; -843.000
356.229;   -1.125; -523.000; -530.000
356.362;  338.375; -373.000; -266.000
356.494;  625.525; -229.000; -162.000
356.627;  445.450;  269.000;  377.000
356.760;  677.525;  120.000;   53.000
356.892;  980.225; -286.000; -601.000
357.025;  619.675;  403.000;  389.000
357.157;  578.175; -167.000; -179.000
357.290;  697.000; -856.000; -713.000
357.423;  217.825; -667.000; -556.000
357.555;  115.500; -217.000; -228.000
357.688;  123.650; -483.000; -364.000
357.820;  445.175; -870.000; -877.000
357.953; 3573.675; -563.000; -589.000
358.085;  792.550; -632.000; -612.000
358.218; 1064.625;-1131.000; -932.000
358.350;  194.750;  -58.000;  312.000
358.483; -116.200;-1300.000;-1187.000
358.615;  -29.275;-1182.000;-1078.000
358.747;  -62.975;-1187.000;-1058.000
358.880;    4.925; -810.000; -744.000
359.012;    2.700; -376.000; -202.000
359.145;  -32.775; -480.000; -511.000
359.277;   74.050; -962.000; -913.000
359.409; 2902.550;  536.000;  231.000
359.542;  772.600; -738.000; -688.000
359.674;   60.325;   46.000;   13.000
359.806;  -74.275; -565.000; -438.000
359.939;  -52.300; -617.000; -516.000
360.071;    0.675; -583.000; -579.000
360.203;  -18.400; -411.000; -364.000
360.335;   47.975;  164.000;  -16.000
360.468;  184.050; -249.000; -307.000
360.600; 2379.275; -547.000; -454.000
360.732; 2947.575; -546.000; -423.000
360.864;  409.750;-1216.000;-1044.000
360.996;  263.225; -516.000; -554.000
361.129;   47.425; -389.000; -598.000
361.261;    9.150;  110.000; -113.000
361.393;  -43.275; -252.000; -214.000
361.525;   25.075;   94.000;  244.000
361.657;  -41.900; -821.000; -703.000
361.789;   -1.150; -139.000; -155.000
361.921;  202.450; -642.000; -593.000
362.053;  237.025;  524.000;  541.000
362.185;   45.450;  288.000;   72.000
362.318;  -72.975; -709.000; -705.000
362.450;  106.350;  294.000;  444.000
362.582;   72.650; -913.000; -870.000
362.714;  -47.300; -353.000; -332.000
362.846;  -88.575; -606.000; -490.000
362.978; -157.675; -941.000; -811.000
363.109;   39.150; -161.000; -260.000
363.241;  428.750; -739.000; -749.000
363.373;  441.550; -649.000; -564.000
363.505;  691.800; -186.000;  -91.000
363.637;  180.375; -787.000; -601.000
363.769; -115.025;-1067.000;-1080.000
363.901;  -86.575; -596.000; -654.000
364.033; -106.725;-1103.000;-1062.000
364.165;   11.675; -283.000; -283.000
364.296;   86.075; -316.000; -177.000
364.428;   82.025;-1344.000;-1220.000
364.560;  -69.325; -679.000; -661.000
364.692;  -67.750; -738.000; -835.000
364.824;  251.500; -588.000; -456.000
364.955;  437.850; -402.000; -564.000
365.087;  974.325;-1097.000; -852.000
365.219;   47.650; -686.000; -816.000
365.351;  -59.850; -526.000; -572.000
365.482;   60.425;  300.000;  240.000
365.614;  -45.300; -402.000; -314.000
365.746; -100.000; -729.000; -752.000
365.877; -109.650; -706.000; -672.000
366.009;  273.925;  -35.000;  -62.000
366.141;  -63.850;-1249.000;-1134.000
366.272; -105.700; -803.000; -719.000
366.404; -107.525;-1005.000; -874.000
366.535;  -22.400; -139.000;  -12.000
366.667;  -91.050; -644.000; -649.000
366.799;   45.250;  353.000;  203.000
366.930; -122.275; -862.000; -996.000
367.062;  116.475; -639.000; -613.000
367.193;  173.675; -872.000; -842.000
367.325;  -56.225; -580.000; -684.000
367.456;   25.025; -246.000;   31.000
367.588;  171.250; -371.000; -318.000
367.719;   19.950;  -44.000;  -45.000
367.851;  -31.250; -222.000; -241.000
367.982;  -62.500; -875.000; -732.000
368.113;   78.875; -475.000; -358.000
368.245; -112.225; -960.000; -841.000
368.376;  -17.075; -254.000; -302.000
368.508;  -36.025; -188.000; -263.000
368.639; -143.175;-1166.000;-1034.000
368.770;  -26.650; -670.000; -589.000
368.902;  -60.650; -836.000; -926.000
369.033; -111.475; -906.000; -855.000
369.164;  -49.225; -720.000; -653.000
369.296; -111.475; -452.000; -601.000
369.427;  -14.675; -209.000; -144.000
369.558;  -52.925; -593.000; -377.000
369.689;  -79.300; -721.000; -569.000
369.821; -130.600; -951.000; -845.000
369.952;  -18.100;   42.000; -108.000
370.083;  -52.950; -229.000; -108.000
370.214;  -77.925; -735.000; -650.000
370.345;   -2.825;   65.000;   81.000
370.477;  -92.200; -810.000; -790.000
370.608;  200.950; -328.000; -264.000
370.739;  -54.400;-1233.000;-1292.000
370.870;  -40.475;-1102.000; -923.000
371.001;   87.850; -378.000; -467.000
371.132;  -74.850; -754.000; -735.000
371.263;  -28.700;  -42.000; -148.000
371.394; -135.825; -841.000; -748.000
371.525;   24.775;  345.000;  225.000
371.657;  -86.700; -808.000; -670.000
371.788;   62.350;  103.000;  199.000
371.919;  179.125; -384.000; -304.000
372.050; 3402.950;  -91.000; -156.000
372.181; 1079.400; -188.000; -294.000
372.311;  354.525;   42.000; -127.000
372.442;   23.475; -457.000; -451.000
372.573;  -30.750; -444.000; -340.000
372.704; -126.850;-1008.000; -980.000
372.835;   86.450; -228.000; -289.000
372.966;  -66.425; -646.000; -554.000
373.097;  -59.200; -575.000; -711.000
373.228;  -53.000; -717.000; -542.000
373.359;  109.225; -824.000; -536.000
373.490;  840.600; -881.000; -727.000
373.620; 1101.400;-1001.000; -803.000
373.751; 1652.950; -332.000; -396.000
373.882;  751.825; -663.000; -733.000
374.013;   39.275; -449.000; -262.000
374.143;  -39.050; -581.000; -659.000
374.274; -101.050; -987.000; -908.000
374.405;  153.900; -388.000; -276.000
374.536;  392.625; -526.000; -387.000
374.666; 1056.500; -759.000; -807.000
374.797;  200.325; -817.000; -868.000
374.928;  794.725; -710.000; -560.000
375.058;  853.575; -535.000; -500.000
375.189;   63.575;  -59.000;  -93.000
375.320;  -97.050; -928.000;-1034.000
375.450;  -32.425; -625.000; -616.000
375.581;  -46.950; -526.000; -436.000
375.712;  -22.800; -574.000; -250.000
375.842;  288.900; -438.000; -415.000
375.973;  212.875; -554.000; -513.000
376.103;  -56.925; -665.000; -648.000
376.234;  -74.225; -531.000; -552.000
376.364;  -40.775; -944.000; -867.000
376.495;  314.875;  925.000;  529.000
376.625;   -6.700; -472.000; -485.000
376.756;   37.750; -709.000; -678.000
376.886;  -72.100;-1178.000;-1026.000
377.017;   57.875;-1048.000;-1061.000
377.147;  384.650; -786.000; -782.000
377.278;   63.900;  174.000;  228.000
377.408; -119.700; -801.000; -815.000
377.538; -100.425; -707.000; -693.000
377.669;  -75.600; -537.000; -613.000
377.799;  -92.575; -645.000; -635.000
377.929;  -61.950; -610.000; -428.000
378.060; -113.975; -781.000; -847.000
378.190;  -65.300; -726.000; -531.000
378.320;  -59.325; -401.000; -406.000
378.451;  -20.350; -131.000;  -22.000
378.581;   -8.575;  -67.000; -110.000
378.711;  133.500; 1035.000;  866.000
378.841;  -27.750; -533.000; -675.000
378.972;  -75.700; -871.000; -751.000
379.102;  -13.700; -652.000; -579.000
379.232;  -26.075; -126.000;  -73.000
379.362; -102.475;-1001.000; -885.000
379.492;    2.300; -373.000; -424.000
379.623;   89.850;    0.000;  111.000
379.753; -102.000;-1107.000; -974.000
379.883;  177.850;   59.000;  156.000
380.013;   -0.825;-1081.000;-1017.000
380.143; -102.175;-1097.000;-1056.000
380.273; -102.850; -985.000; -861.000
380.403;  -11.800; -344.000; -257.000
380.533;  -37.025; -651.000; -664.000
380.663;   63.550;  173.000;  128.000
380.793;  -89.100;-1027.000;-1074.000
380.923;  -20.150; -103.000;  -34.000
381.053;  -88.550; -613.000; -623.000
381.183;  -36.700; -106.000; -248.000
381.313;   28.550; -656.000; -470.000
381.443;   46.700; -692.000; -473.000
381.573;  178.150; -402.000; -409.000
381.703;  253.025;-1249.000;-1095.000
381.833; -122.050;-1454.000;-1336.000
381.963;  109.175; -134.000;  -87.000
382.093; 1292.550; -925.000; -909.000
382.223;  431.500; -713.000; -602.000
382.353;  -18.125; -801.000; -608.000
382.482;  320.500;-1091.000; -964.000
382.612;  722.050; -872.000; -644.000
382.742;  426.225; -695.000; -622.000
382.872;  239.350; -565.000; -551.000
383.002;   66.650;  347.000; -132.000
383.131;  -11.025; -226.000; -160.000
383.261;  -37.200; -706.000; -768.000
383.391;  279.425; -552.000; -377.000
383.521; 3328.325;  451.000;  263.000
383.650;  876.325; -947.000; -904.000
383.780;   -2.850; -783.000; -656.000
383.910;  108.525;  880.000;  802.000
384.039;   18.775; -794.000; -656.000
384.169;  194.625;-1205.000;-1017.000
384.299;  -11.775; -650.000; -662.000
384.428;  -99.825; -764.000; -680.000
384.558;  -46.500; -308.000; -275.000
384.687;  -53.375; -414.000; -334.000
384.817;   12.850;   75.000;   -2.000
384.947;   10.900; -234.000; -141.000
385.076;  256.575;  982.000;  912.000
385.206;  108.025;  369.000;  480.000
385.335;  -44.725; -549.000; -417.000
385.465;  -83.725; -655.000; -663.000
385.594;  110.575;  -53.000;  -44.000
385.724;  376.775; -868.000; -838.000
385.853;  123.725; -296.000; -270.000
385.982; 1250.975; -743.000; -787.000
386.112; 2037.375;-1052.000; -871.000
386.241;  138.200; -307.000; -312.000
386.371;   17.275; -174.000;  -87.000
386.500;    6.450; -825.000; -789.000
386.629;   23.650; -874.000; -817.000
386.759;   53.925;  -43.000;   68.000
386.888;   -0.375; -170.000; -250.000
387.017;  -78.450; -648.000; -620.000
387.147;  -88.275; -771.000; -798.000
387.276;   -4.275; -410.000; -397.000
387.405;   12.450; -398.000; -342.000
387.535;  -41.375; -452.000; -361.000
387.664;  -61.000; -692.000; -620.000
387.793;   57.025; -198.000; -113.000
387.922;  473.275;  255.000;  200.000
388.052;   22.300; -576.000; -423.000
388.181;   -2.400; -342.000; -472.000
388.310;  -12.775; -889.000; -710.000
388.439;  -57.975; -749.000; -742.000
388.568;  179.375;  365.000;  244.000
388.697;  984.325; -756.000; -653.000
388.826;  203.525; -768.000; -666.000
388.956;   57.425; -285.000; -307.000
389.085;  -50.200; -347.000; -287.000
389.214; -102.025; -842.000; -872.000
389.343;  -63.500; -645.000; -413.000
389.472;  405.575;  126.000;  149.000
389.601;  515.775;   91.000;    0.000
389.730;   18.150; -568.000; -687.000
389.859;   53.375;  226.000;   46.000
389.988;  154.275; -423.000; -408.000
390.117;  133.775; -168.000; -146.000
390.246;  -17.275; -331.000; -320.000
390.375;   71.925; -673.000; -626.000
390.504;  -64.250; -703.000; -621.000
390.633;  -98.850; -672.000; -726.000
390.761;  -66.225; -732.000; -645.000
390.890;   13.425;   -4.000; -130.000
391.019;  -37.800; -421.000; -441.000
391.148; -128.325; -826.000; -855.000
391.277;  -70.350; -576.000; -493.000
391.406;  -82.000; -821.000; -805.000
391.534;   22.775;  574.000; -301.000
391.663;  -76.475; -583.000; -645.000
391.792;  -83.325; -673.000; -701.000
391.921;   72.800;   -3.000;   15.000
392.050;  159.825; -287.000; -228.000
392.178;  -50.500;-1206.000;-1061.000
392.307;  115.850; -758.000; -712.000
392.436;   74.425; -427.000; -641.000
392.564;   20.975;  166.000;   -6.000
392.693;  -86.125; -860.000; -682.000
392.822;  180.925; -529.000; -534.000
392.950;   78.250; -880.000; -714.000
393.079;  291.625; -188.000; -328.000
393.208;   36.375; -488.000; -511.000
393.336;  -23.650; -170.000; -145.000
393.465;  -49.400; -317.000; -199.000
393.593;   -5.325;   62.000;   79.000
393.722; -146.750;-1121.000; -916.000
393.850;  -30.425; -188.000;  -61.000
393.979; -138.525; -926.000; -805.000
394.107;  -67.900; -517.000; -537.000
394.236;  -37.375; -570.000; -507.000
394.364;  209.275;  383.000;  206.000
394.493;  368.400; -911.000; -767.000
394.621;  -16.900; -955.000; -916.000
394.750;  740.000; -873.000; -923.000
394.878; 3031.825; -247.000; -149.000
395.007; 4302.300; -721.000; -807.000
395.135;  347.425; -790.000; -721.000
395.263;  -85.075;-1038.000;-1040.000
395.392;    1.400;  -25.000; -107.000
395.520; -122.700; -818.000; -679.000
395.648;  -83.225; -865.000; -915.000
395.777;  -10.700; -366.000; -405.000
395.905;  -40.725; -449.000; -564.000
396.033;   16.475;  217.000;  172.000
396.162;  589.825; -399.000; -453.000
396.290;  533.200;  -17.000;   -2.000
396.418;   97.325; -555.000; -514.000
396.546;  -74.275; -571.000; -466.000
396.674; -103.200; -850.000; -878.000
396.803;    8.975;  -72.000;  -23.000
396.931;   70.875; -179.000; -199.000
397.059;   43.925;-1026.000; -989.000
397.187; -106.225;-1026.000; -975.000
397.315; -131.775; -884.000; -649.000
397.443;  -96.400; -592.000; -443.000
397.572;  -95.900; -578.000; -424.000
397.700;  -27.450; -607.000; -614.000
397.828;   26.825;  120.000;  -90.000
397.956;  -44.300; -508.000; -478.000
398.084;  -58.875; -767.000; -626.000
398.212;   26.675;  137.000;  124.000
398.340;    6.200;  -56.000;  159.000
398.468;   19.425; -390.000; -169.000
398.596; -134.925; -993.000; -953.000
398.724; -121.950; -762.000; -767.000
398.852; -162.825;-1024.000; -976.000
398.980;  -60.650; -560.000; -560.000
399.108;  -56.950; -982.000; -735.000
399.236;   37.975;   13.000;    8.000
399.363;   16.375;  222.000;  196.000
399.491;  -63.275; -404.000; -398.000
399.619; -122.625; -829.000; -800.000
399.747;  -97.975; -859.000; -771.000
399.875;   75.250;  220.000;  234.000
400.003;  -63.125; -359.000; -284.000
400.130; -100.175; -421.000; -341.000
400.258;  -34.800;  -83.000;   38.000
400.386;  -75.550; -352.000; -168.000
400.514;  -42.500; -526.000; -587.000
400.641;  -99.100; -928.000; -802.000
400.769; -143.725; -979.000; -888.000
400.897; -121.100; -838.000; -793.000
401.025;  -15.875; -166.000; -152.000
401.152;   -5.075;  220.000;   38.000
401.280;  -81.275; -430.000; -429.000
401.408; -119.125; -712.000; -576.000
401.535;  -99.625; -735.000; -758.000
401.663; -182.975;-1134.000;-1054.000
401.790;  -90.400; -514.000; -525.000
401.918;   38.175;  436.000;  405.000
402.046;  -27.125;  134.000;  122.000
402.173;  -34.700;  -18.000;    7.000
402.301;  -78.050; -519.000; -397.000
402.428;   39.725;  528.000;  383.000
402.556; -158.775;-1188.000; -913.000
402.683;  -34.550;  -20.000;   -1.000
402.811;  -29.925;  -37.000; -206.000
402.938;  -12.825;   20.000;   27.000
403.066;  168.875; -574.000; -558.000
403.193;  318.200;  299.000;  239.000
403.321;  231.600; -396.000; -574.000
403.448;  309.425;   83.000;   27.000
403.575;  128.550;  -90.000;  -46.000
403.703;  -99.075; -732.000; -557.000
403.830;  -72.050; -531.000; -496.000
403.957; -139.275;-1117.000;-1023.000
404.085;    9.050;  -61.000; -172.000
404.212;   93.225;  -50.000;   63.000
404.339;  254.425; -566.000; -306.000
404.467; 5998.825; -612.000; -524.000
404.594; 4089.400; -287.000; -227.000
404.721;  967.375; -869.000; -764.000
404.848;   88.975; -113.000; -202.000
404.976; -101.825; -856.000; -783.000
405.103;  -11.550;  -14.000;  -82.000
405.230;   -8.025;  190.000;  226.000
405.357;   14.450;  117.000;   44.000
405.484;  261.425;  -49.000;    5.000
405.612;   66.225; -548.000; -563.000
405.739;  -57.525; -488.000; -243.000
405.866;   93.650;  669.000;  385.000
405.993;  -37.400; -398.000; -102.000
406.120; -125.850; -801.000; -887.000
406.247;  -63.575; -323.000; -342.000
406.374;  402.125;  540.000;  629.000
406.501;   77.750; -632.000; -702.000
406.628;  -84.700; -621.000; -589.000
406.755; -121.200; -803.000; -620.000
406.882;  -45.350; -228.000; -277.000
407.009; -108.900; -719.000; -628.000
407.136;   37.775; -480.000; -401.000
407.263;  117.700; -939.000; -829.000
407.390;  -83.400; -692.000; -614.000
407.517; -174.425;-1139.000;-1187.000
407.644;  -54.725; -332.000; -256.000
407.771;  -70.950; -249.000; -287.000
407.898;    9.150;  168.000;  328.000
408.025;  -61.925; -421.000; -313.000
408.151;  -16.750;   82.000;  153.000
408.278;  -60.100; -267.000; -216.000
408.405; -112.525; -931.000; -899.000
408.532;  -64.600; -549.000; -542.000
408.659; -113.600; -677.000; -648.000
408.785; -200.600;-1298.000;-1170.000
408.912;  -70.700; -412.000; -296.000
409.039; -116.150; -610.000; -686.000
409.166; -102.400; -591.000; -555.000
409.292; -105.775; -571.000; -534.000
409.419; -117.000; -665.000; -649.000
409.546;  -76.400; -431.000; -192.000
409.672;  -98.625; -713.000; -545.000
409.799;  -38.325;  -36.000;   34.000
409.926;  -47.550; -180.000; -179.000
410.052; -173.475;-1127.000;-1091.000
410.179;  -72.125; -368.000; -392.000
410.305;  -84.175; -375.000; -493.000
410.432;  -52.650; -220.000; -333.000
410.558;  -83.675; -305.000; -380.000
410.685; -113.050; -688.000; -431.000
410.812; -110.375; -409.000; -588.000
410.938; -137.675; -964.000; -808.000
411.065; -103.025; -671.000; -645.000
411.191;  -10.025; -189.000; -174.000
411.317; -114.475; -823.000; -742.000
411.444;  -58.125; -317.000; -246.000
411.570;  -80.100; -339.000; -294.000
411.697; -130.375; -758.000; -752.000
411.823; -178.275; -989.000; -999.000
411.949;  -35.125;  -56.000;   17.000
412.076; -105.650; -539.000; -519.000
412.202; -111.075; -758.000; -757.000
412.329; -134.575; -798.000; -752.000
412.455; -116.525; -821.000; -657.000
412.581;  -30.700;  -15.000;  172.000
412.707;  -70.975; -540.000; -457.000
412.834;    1.225;  156.000;  219.000
412.960;  -84.375; -785.000; -784.000
413.086; -120.500; -743.000; -701.000
413.212;  128.700;  604.000;  578.000
413.339;  -69.175; -685.000; -701.000
413.465;   -8.350; -364.000; -310.000
413.591;  -94.500; -757.000; -474.000
413.717;  -54.975; -358.000; -366.000
413.843; -130.650; -839.000; -861.000
413.969;  -50.025;  -47.000; -292.000
414.096; -103.775; -679.000; -679.000
414.222;  -10.125;  -33.000;   85.000
414.348;  -33.150; -652.000; -385.000
414.474;   94.775;   38.000;  -52.000
414.600;  -21.925; -126.000; -144.000
414.726;  -21.050;  -96.000;  -55.000
414.852;  -63.800; -365.000; -342.000
414.978;   28.075;  104.000;  -18.000
415.104;   50.425;   38.000;   80.000
415.230;   25.950; -329.000; -330.000
415.356;   35.800; -409.000; -514.000
415.482;  204.525;   13.000;  -35.000
415.608;  271.925; -247.000; -323.000
415.734;  993.300;   67.000;   38.000
415.860;20241.000; -875.000; -767.000
415.986;16034.500; -685.000; -607.000
416.111; 1429.925; -798.000; -652.000
416.237;  283.475; -424.000; -571.000
416.363; 1115.275; -765.000; -733.000
416.489; 4506.975; -324.000; -251.000
416.615;  548.475; -707.000; -742.000
416.741;   -7.800; -677.000; -784.000
416.866;  -87.575; -673.000; -736.000
416.992; -120.250; -801.000; -818.000
417.118;  -34.550;  -41.000;  -80.000
417.244;  -67.575; -798.000; -531.000
417.369;  -67.525; -801.000; -612.000
417.495;  -14.875; -325.000; -254.000
417.621;  -78.700;-1015.000; -803.000
417.746;   -7.775; -579.000; -572.000
417.872;   52.300; -254.000; -144.000
417.998;   41.325; -515.000; -530.000
418.123; 1039.950;-1073.000; -845.000
418.249; 5743.975; -512.000; -601.000
418.374;  894.450; -916.000; -824.000
418.500;  131.725; -383.000; -482.000
418.626;  121.900;   70.000;  -59.000
418.751;  103.700; -549.000; -448.000
418.877;  196.950; -637.000; -643.000
419.002; 1786.100; -688.000; -560.000
419.128;13201.400; -930.000; -721.000
419.253; 3504.075; -967.000; -837.000
419.379;  478.375; -391.000; -338.000
419.504;  416.350;  325.000;  415.000
419.629;  555.575; -393.000; -212.000
419.755; 3524.450; -317.000; -254.000
419.880;22398.125;  -98.000;   67.000
420.006;12013.425; -280.000; -221.000
420.131;31560.800; -662.000; -775.000
420.256; 4933.050; -315.000; -316.000
420.382;  657.450; -665.000; -687.000
420.507;   96.275; -649.000; -778.000
420.632;   98.700; -337.000; -339.000
420.758;  210.050; -251.000; -425.000
420.883;  -71.300; -876.000; -672.000
421.008; -102.150; -775.000; -619.000
421.133;  -82.700; -509.000; -467.000
421.259;  -55.150; -325.000; -259.000
421.384; -109.450; -834.000; -693.000
421.509;  -61.875;-1052.000; -862.000
421.634;  975.500; -936.000; -820.000
421.759;  469.525; -359.000; -327.000
421.885;  -55.225; -717.000; -656.000
422.010;  -70.550; -673.000; -542.000
422.135; -152.050; -695.000; -727.000
422.260;   33.225;  340.000;  280.000
422.385;  -49.075;   12.000;  -98.000
422.510;    6.850;  151.000;  -26.000
422.635;    7.000;  -87.000;  -43.000
422.760;   99.175; -766.000; -791.000
422.885;   64.725;  -57.000;  -80.000
423.010;  -41.600; -112.000; -169.000
423.135;  -98.300; -481.000; -561.000
423.260;  -10.300; -150.000; -245.000
423.385;   56.875;  476.000;  222.000
423.510;   14.375;   71.000;  -22.000
423.635;   63.050;  133.000;   45.000
423.760;   47.075;  383.000;  328.000
423.885;   54.675;  336.000;  391.000
424.010;   12.775;  -68.000;  -13.000
424.135;  -21.925;    5.000;  -33.000
424.259;  -76.100; -654.000; -457.000
424.384;  -55.025; -279.000; -272.000
424.509;  -31.800; -260.000; -186.000
424.634;  -86.625; -761.000; -623.000
424.759;  -26.975; -688.000; -544.000
424.883;  -24.500; -506.000; -527.000
425.008;  162.275; -502.000; -410.000
425.133; 2081.350; -679.000; -653.000
425.258; 1053.825; -517.000; -381.000
425.382;  926.000; -867.000; -774.000
425.507; 2504.025; -487.000; -543.000
425.632;  470.950; -802.000; -663.000
425.756;  472.525; -256.000; -146.000
425.881; 6525.200; -831.000; -857.000
426.006;19359.900; -604.000; -355.000
426.130; 3228.200; -696.000; -508.000
426.255;  424.750; -611.000; -491.000
426.379;  182.625; -189.000; -577.000
426.504;  370.175;  660.000;  544.000
426.629; 4120.075; -519.000; -466.000
426.753; 3091.050;   64.000;  -46.000
426.878;  361.175; -252.000; -288.000
427.002;  162.600; -651.000; -668.000
427.127; 1555.825;  -35.000; -158.000
427.251;11870.450;  372.000;  401.000
427.375; 3732.050; -191.000; -173.000
427.500; 2180.975; -616.000; -610.000
427.624;  794.475; -234.000; -400.000
427.749;   88.775; -216.000; -225.000
427.873;  -26.950; -499.000; -412.000
427.997;  -49.700; -222.000; -230.000
428.122;   71.550;  795.000;  703.000
428.246;   69.450;  433.000;  434.000
428.371; -123.600; -869.000; -773.000
428.495;  -87.050; -624.000; -646.000
428.619;  -34.800; -186.000; -117.000
428.743;    5.925;   65.000;  132.000
428.868;  -14.850; -732.000; -643.000
428.992; 1290.125; -219.000; -326.000
429.116;  556.250; -329.000; -357.000
429.240;  245.700;  419.000;  426.000
429.365;  -21.200; -454.000; -574.000
429.489;  -38.250; -638.000; -647.000
429.613;   17.725; -236.000; -177.000
429.737;   37.300; -563.000; -432.000
429.861;  276.700; -247.000; -133.000
429.985; 5577.000; -425.000; -305.000
430.109; 6714.025; -770.000; -908.000
430.234;  798.275;   76.000;  -50.000
430.358;   68.400; -250.000; -160.000
430.482;  -62.050; -672.000; -564.000
430.606;  -53.500; -655.000; -375.000
430.730;    2.150; -437.000; -388.000
430.854;   98.850; -909.000; -835.000
430.978;  -66.675; -795.000; -764.000
431.102;  -87.475; -499.000; -422.000
431.226; -129.325; -874.000; -815.000
431.350;   30.825;  345.000;  422.000
431.474;  -78.100; -661.000; -373.000
431.597; -137.425;-1060.000; -848.000
431.721;  -84.050; -276.000; -267.000
431.845; -131.750; -704.000; -472.000
431.969;  -70.775; -304.000; -349.000
432.093;  -97.150; -395.000; -317.000
432.217;   -8.325;   32.000;   82.000
432.341;  -89.350; -523.000; -518.000
432.464;   -8.125;   96.000;   40.000
432.588;  176.875; -401.000; -329.000
432.712;   90.350;  -52.000;  -52.000
432.836;   45.650;  213.000;  263.000
432.959;  -17.200; -372.000; -311.000
433.083;   80.675;   11.000;    2.000
433.207;  386.850;  285.000;  930.000
433.330; 5099.850; -391.000; -200.000
433.454; 6822.275; -654.000; -638.000
433.578; 3839.775;  583.000;  278.000
433.701;  785.350; -623.000; -675.000
433.825;  148.700; -292.000; -299.000
433.949;  141.150;   28.000;  -72.000
434.072;   53.725; -410.000; -323.000
434.196;    1.800; -309.000; -117.000
434.319; 3553.575;25482.000;25124.000
434.443;  686.200; -656.000; -603.000
434.566; 2809.575;  281.000;   62.000
434.690;  556.825; -637.000; -383.000
434.813;   66.825; -251.000; -173.000
434.937;  -77.000; -569.000; -696.000
435.060;  -42.900; -423.000; -332.000
435.184;  230.200; -492.000; -217.000
435.307;  142.725;  159.000;  102.000
435.431;   -2.525;  -40.000;   24.000
435.554;  -75.950; -399.000; -240.000
435.677;  -90.000; -350.000; -258.000
435.801;  -40.950;  -25.000;   49.000
435.924;  -24.775;    1.000;  -67.000
436.048; -125.625;-1019.000; -732.000
436.171;  -67.825; -240.000;  -66.000
436.294;  -15.500; -248.000; -229.000
436.417;  102.375; -963.000; -849.000
436.541;  -62.450; -814.000; -840.000
436.664;  -44.250; -242.000; -316.000
436.787;  -30.800;   13.000;  113.000
436.910; -104.375; -792.000; -422.000
437.034;   -1.800;  142.000;  143.000
437.157;   34.650;  -11.000;    0.000
437.280;  -60.150; -392.000; -292.000
437.403;  -89.075; -982.000; -869.000
437.526;  478.850; -903.000; -865.000
437.649; 1923.150; -505.000; -332.000
437.772;  289.950; -692.000; -540.000
437.896;  109.150;  700.000;  544.000
438.019;  -96.950; -758.000; -503.000
438.142;  -90.400; -596.000; -506.000
438.265;  -34.725; -639.000; -670.000
438.388;  489.100; -520.000; -410.000
438.511;   82.250; -597.000; -394.000
438.634;  -48.100; -247.000; -125.000
438.757; -136.150; -693.000; -619.000
438.880;  -47.100;  -34.000;  -57.000
439.003;  -75.950; -417.000; -437.000
439.126;  -57.225; -287.000; -167.000
439.248;  -60.000;  -98.000; -139.000
439.371;  -49.525;    9.000;  -53.000
439.494;   17.400;  510.000;  439.000
439.617;  -57.350;   65.000;  -88.000
439.740; -172.725; -968.000; -816.000
439.863; -151.675; -755.000; -595.000
439.986; -108.900; -476.000; -431.000
440.108;  -59.050; -161.000; -112.000
440.231; -155.125; -950.000; -836.000
440.354;  -48.525;  -64.000; -150.000
440.477;   29.300; -566.000; -542.000
440.599;   -2.725; -200.000; -225.000
440.722; -115.875; -709.000; -586.000
440.845;   62.775;  751.000;  928.000
440.968; -114.900; -415.000; -311.000
441.090;  -61.675; -199.000;  -33.000
441.213; -168.325;-1021.000; -825.000
441.336;  -61.200; -159.000;   -5.000
441.458;  -83.275; -549.000; -396.000
441.581;  -86.575; -628.000; -629.000
441.703;  -78.975; -152.000;   13.000
441.826; -104.200; -557.000; -400.000
441.948;  -42.625;   56.000;   51.000
442.071;   23.750;  555.000;  424.000
442.193; -109.000; -531.000; -485.000
442.316;   12.775;  152.000;   97.000
442.438;   48.375; -233.000;  -10.000
442.561;   83.500;  272.000;  262.000
442.683;  402.875; -809.000; -522.000
442.806; 1006.450;   -8.000;   74.000
442.928;   25.175; -859.000; -604.000
443.051;  -67.550; -577.000; -373.000
443.173;  -86.625; -341.000; -339.000
443.295;  -84.025; -263.000; -371.000
443.418;  -66.725; -321.000;  -29.000
443.540;   -1.100; -106.000;   -4.000
443.662; -120.250; -563.000; -465.000
443.785;  -16.025;  335.000;  199.000
443.907;  -94.175; -362.000; -208.000
444.029; -140.675; -767.000; -494.000
444.152; -134.825; -644.000; -554.000
444.274;  -43.425;  -18.000;  -24.000
444.396; -119.700; -461.000; -221.000
444.518; -140.150; -691.000; -454.000
444.640; -109.725; -268.000; -111.000
444.763;  -15.950;  388.000;  249.000
444.885; -118.625; -432.000; -392.000
445.007;  -38.225;   35.000;   86.000
445.129; -101.450; -610.000; -515.000
445.251; -104.225; -372.000; -439.000
445.373; -137.275; -537.000; -386.000
445.495;    3.150;  242.000;  350.000
445.617;   42.000;  853.000;  753.000
445.739;  -65.200; -215.000;  -97.000
445.861;  -39.950; -245.000; -112.000
445.984;  -40.575; -267.000; -101.000
446.105;  141.700; -418.000; -251.000
446.227;  529.900; -176.000;  -19.000
446.349;   10.700; -358.000; -249.000
446.471;  -96.275; -615.000; -448.000
446.593;  -68.050; -316.000;   19.000
446.715;  -13.550;  -67.000;   41.000
446.837;   66.475;  697.000;  832.000
446.959;  -94.275; -457.000; -478.000
447.081; -133.900; -628.000; -518.000
447.203;   38.050;  862.000;  834.000
447.325;  -91.125; -270.000;   42.000
447.446;  -14.475;  286.000;  530.000
447.568; -145.400; -921.000; -803.000
447.690;  -77.425; -236.000; -245.000
447.812; -135.475; -798.000; -519.000
447.933;  -31.425;  155.000;  127.000
448.055;  -81.875; -306.000; -261.000
448.177;  125.575;   31.000;   79.000
448.299;   64.900; -935.000; -727.000
448.420;   16.200;  -25.000;  159.000
448.542;  -43.375;   -3.000;   33.000
448.664;  -27.150;  109.000;  322.000
448.785;  -29.625;  265.000;   83.000
448.907;  -83.725; -614.000; -353.000
449.028;  -38.700; -771.000; -471.000
449.150;   41.350;  492.000;  589.000
449.272; -174.375;-1044.000; -913.000
449.393;   30.725;  612.000;  694.000
449.515; -136.325; -634.000; -581.000
449.636;  -54.500; -264.000; -155.000
449.758;   69.925;  763.000;  622.000
449.879;  -87.150; -498.000; -396.000
450.001;  -75.575; -149.000;  -49.000
450.122;  -50.250;  -95.000;  162.000
450.244;  -39.725;   37.000;  364.000
450.365;  -83.525; -495.000; -301.000
450.486;  -24.725;   80.000;  268.000
450.608;   33.100;  393.000;  326.000
450.729;   69.475;  578.000;  645.000
450.850;   16.125; -574.000; -466.000
450.972;  728.150; -552.000; -389.000
451.093; 5123.350;  190.000;  588.000
451.214; 2480.675; -516.000; -337.000
451.336;  438.875;  773.000;  579.000
451.457;   63.350;  264.000;  393.000
451.578;  -40.175; -118.000;  -74.000
451.699; -115.425; -546.000; -540.000
451.821;  -49.350; -284.000;  -50.000
451.942;    5.075;  278.000;  285.000
452.063;   34.450;  228.000;  419.000
452.184;  561.850;  -54.000;  -49.000
452.305; 1203.250;  103.000;  170.000
452.427;  185.025; -549.000; -301.000
452.548;  -14.850;   23.000;   79.000
452.669;  -50.050; -257.000;  -89.000
452.790;  -39.750;    3.000;  -18.000
452.911;   -6.900;  195.000;  259.000
453.032;  -77.725; -289.000;  -60.000
453.153;  -60.150;  -29.000;   81.000
453.274;   68.250;  737.000;  868.000
453.395;  -48.925;  -51.000;  175.000
453.516;  130.625; 1317.000; 1388.000
453.637;  -62.675; -205.000; -150.000
453.758;  -52.750;   15.000;   69.000
453.879; -106.375; -462.000; -250.000
454.000;   78.700; 1086.000;  948.000
454.121; -118.375; -554.000; -326.000
454.242; -113.825; -599.000; -383.000
454.362;  -57.675;  -99.000;  114.000
454.483;  -39.775; -309.000; -229.000
454.604;   44.475;  512.000;  580.000
454.725; -125.000; -627.000; -555.000
454.846; -120.225; -474.000; -406.000
454.967;  -14.600;  230.000;  539.000
455.087;  -49.950;  179.000;  153.000
455.208;   19.275;  554.000;  856.000
455.329;  -51.975;  -22.000;   82.000
455.450;   32.800;  473.000;  633.000
455.570;  -72.375; -234.000; -211.000
455.691;  -41.400;  201.000;  407.000
455.812; -115.825; -270.000;  -92.000
455.932;  -60.175;  107.000;  -97.000
456.053;  -80.325;   36.000;   24.000
456.173; -112.100; -433.000; -355.000
456.294; -133.350; -476.000; -303.000
456.415;  -49.450;  -73.000;   70.000
456.535;  -35.925;  297.000;  273.000
456.656;  -43.650;  132.000;  240.000
456.776;  -75.900;    3.000;  298.000
456.897;   -8.875;  308.000;  513.000
457.017;  -75.050; -153.000;   -3.000
457.138; -114.125; -402.000; -249.000
457.258;  -34.075;  263.000;  224.000
457.379;  -13.300;  509.000;  521.000
457.499;  -23.175;  443.000;  432.000
457.620; -112.800; -407.000; -231.000
457.740;  -91.425; -132.000;  -11.000
457.860;  -63.475;   87.000;   44.000
457.981;  -46.000;  132.000;  124.000
458.101;  -83.925;  -89.000;   40.000
458.221;  -28.975;  336.000;  402.000
458.342;  -58.050;   -4.000;  -37.000
458.462;   25.700;  617.000;  352.000
458.582;  -35.525; -302.000; -294.000
458.703;   18.300;  303.000;  154.000
458.823;  -18.950;   22.000;  163.000
458.943;   24.700;  341.000;  467.000
459.063;   -6.700; 1124.000;  192.000
459.183;  -12.850;  328.000;  313.000
459.304;   24.275;  315.000;  517.000
459.424;  -58.825; -246.000;  -89.000
459.544;  333.775;  388.000;  764.000
459.664;  860.725;  499.000;  506.000
459.784;  352.450; 1004.000; 1175.000
459.904;   53.425;  867.000;  744.000
460.024;   54.275;  867.000;  684.000
460.144;    8.875;  449.000;  554.000
460.264;    2.600;  515.000;  327.000
460.385;  -92.300; -145.000; -119.000
460.505;   21.725;  905.000;  858.000
460.625;  -93.825;  -17.000;  -68.000
460.745;  -13.425;  396.000;  541.000
460.864;  -50.075;  153.000;  469.000
460.984;   10.225;  499.000;  573.000
461.104;  140.700; 1656.000; 1775.000
461.224;   12.825;  657.000;  650.000
461.344;  -29.875;  431.000;  360.000
461.464;  -38.325;  258.000;  513.000
461.584;  -20.050;  283.000;  466.000
461.704;  -42.575;   58.000;  108.000
461.824;  -48.525;  238.000;  259.000
461.943;  -40.850;  191.000;  130.000
462.063;  -65.800;    2.000;  324.000
462.183;   27.650;  639.000;  717.000
462.303;   94.425; 1678.000; 1230.000
462.422;   36.800;  781.000;  840.000
462.542;  -37.075;  271.000;  391.000
462.662;   34.175;  353.000;  380.000
462.782;  249.650;  833.000;  572.000
462.901;  503.600;  545.000;  717.000
463.021;  307.500; 1702.000; 1638.000
463.141;    1.675;  337.000;  770.000
463.260;  -14.550;  614.000;  474.000
463.380;   14.300;  902.000;  884.000
463.499;  -29.875;  342.000;  332.000
463.619;  -30.275;  581.000;  559.000
463.738;  115.900; 1644.000;  903.000
463.858;   21.825;  657.000;  811.000
463.978;  -44.125;  542.000;  396.000
464.097;   46.700;  921.000; 1114.000
464.217;  104.350; 1196.000; 1143.000
464.336;  119.125; 1068.000; 1130.000
464.455;  -27.625;  328.000;  659.000
464.575;   33.825;  597.000;  602.000
464.694;  164.150; 1204.000; 1179.000
464.814;  114.450; 1190.000; 1138.000
464.933;   91.150; 1095.000; 1027.000
465.052;  103.225; 1412.000; 1054.000
465.172;   78.000;  922.000;  799.000
465.291;  146.125; 1376.000; 1320.000
465.410;   26.525;  462.000;  735.000
465.530;   86.950; 1355.000; 1310.000
465.649;   53.300; 1209.000; 1273.000
465.768;  132.200; 1673.000; 1508.000
465.888;   46.975;  941.000; 1174.000
466.007;   91.425; 1335.000; 1440.000
466.126;    5.475;  721.000;  641.000
466.245;   56.150; 1176.000; 1187.000
466.364;   13.325;  950.000; 1060.000
466.484;   43.025; 1024.000; 1213.000
466.603;   43.625; 1101.000; 1222.000
466.722;  107.425; 1490.000; 1769.000
466.841;   76.000; 1151.000; 1401.000
466.960;   34.825; 1069.000;  972.000
467.079;  141.350; 1971.000; 1786.000
467.198;   61.450; 1238.000; 1181.000
467.317;   94.050; 1768.000; 1162.000
467.436;   68.750; 1709.000; 1261.000
467.555;  128.550; 1796.000; 1746.000
467.674;   61.000; 1227.000; 1329.000
467.793;   42.825; 1376.000; 1374.000
467.912;   88.500; 1658.000; 1539.000
468.031;  134.375; 2038.000; 1930.000
468.150;  134.525; 1842.000; 1837.000
468.269;  187.400; 2313.000; 2090.000
468.388;  191.800; 2168.000; 2339.000
468.507;  262.950; 2884.000; 2903.000
468.626;  277.650; 2555.000; 2541.000
468.744;  140.050; 2018.000; 2174.000
468.863;  194.050; 2312.000; 2523.000
468.982;   93.575; 1503.000; 1555.000
469.101;  208.675; 2788.000; 2692.000
469.220;  155.200; 2333.000; 2176.000
469.338;  248.275; 2935.000; 3051.000
469.457;  187.550; 2719.000; 2545.000
469.576;  330.225; 3953.000; 3784.000
469.695;  244.350; 2877.000; 3066.000
469.813;  421.375; 4148.000; 4192.000
469.932;  403.250; 4255.000; 4485.000
470.051;  434.075; 4075.000; 4161.000
470.169;  854.075; 4470.000; 4338.000
470.288; 1524.825; 4700.000; 4809.000
470.406;  947.100; 5059.000; 5194.000
470.525;  628.175; 6101.000; 5787.000
470.644;  640.850; 6847.000; 6794.000
470.762;  804.125; 8397.000; 7873.000
470.881;  897.925; 8651.000; 8464.000
470.999; 1034.600; 9685.000; 9151.000
471.118; 1103.300;11174.000;10711.000

