
Integration time [ms]: 100.000
Averaging Nr. [scans]: 40
Smoothing Nr. [pixels]: 0
Data measured with spectrometer [name]: 2101012U2
Wave   ;Sample   ;Dark     ;Reference
[nm]   ;[counts] ;[counts] ;[counts] 

197.733;   52.450;  516.000;  404.000
197.879;  -67.100; -610.000; -634.000
198.025;  -48.950; -475.000; -420.000
198.171;  -82.475; -602.000; -612.000
198.317;  -31.850; -401.000; -316.000
198.463;  -59.200; -655.000; -404.000
198.609;   35.650;  181.000; -137.000
198.755;  -81.750; -644.000; -410.000
198.901;  -72.425; -505.000; -424.000
199.047;  -57.250; -615.000; -488.000
199.193;  -33.325; -230.000; -468.000
199.339;  -26.350; -222.000; -369.000
199.485;   35.875;  330.000;  271.000
199.631;   20.175;  227.000;  310.000
199.777;  -49.400; -466.000; -398.000
199.923;  -54.375; -610.000; -424.000
200.069;    4.300; -141.000;  -58.000
200.215;   52.575;  128.000;  453.000
200.361;   40.700;  243.000;  477.000
200.507;  -48.650; -600.000; -373.000
200.653;  -25.000; -371.000; -194.000
200.798;  -32.175; -215.000; -125.000
200.944;   -6.125; -146.000;  -41.000
201.090;   35.900;   61.000;  222.000
201.236;  -12.700; -116.000; -158.000
201.382;  115.775;  874.000;  903.000
201.528;   -5.175;  -58.000;  -48.000
201.674;  -45.750; -386.000; -293.000
201.819;  -62.750; -540.000; -439.000
201.965;  -74.800; -699.000; -447.000
202.111;  -25.300; -273.000; -226.000
202.257;  -33.050; -250.000; -238.000
202.402;    1.200;   13.000;  -36.000
202.548;  -22.225; -169.000; -116.000
202.694;   78.000;  410.000; -183.000
202.840;  -67.800; -603.000; -531.000
202.985;  -73.425; -681.000; -639.000
203.131; -103.150; -832.000; -666.000
203.277;  -20.650; -199.000; -262.000
203.423;  -48.075; -434.000; -520.000
203.568;  -32.100; -462.000; -237.000
203.714;  -50.300; -535.000; -542.000
203.860;  -57.200; -682.000; -641.000
204.005;   11.175;  112.000;  167.000
204.151;   83.600;  561.000;  556.000
204.296;  -49.000; -354.000; -221.000
204.442;  -68.100; -600.000; -547.000
204.588;  -67.200; -592.000; -579.000
204.733;   20.400;  178.000;  168.000
204.879; -121.600;-1018.000; -822.000
205.025;   16.700;  -99.000;  126.000
205.170;    7.025;  -17.000;   94.000
205.316;   83.225;  438.000;  661.000
205.461;  -83.650; -698.000; -554.000
205.607;   82.725;  609.000;  665.000
205.752;  -73.025; -626.000; -551.000
205.898;  -47.925; -501.000; -391.000
206.043;  -56.100; -578.000; -506.000
206.189;  -30.575; -243.000; -285.000
206.334;   75.000;  554.000;  606.000
206.480;   77.075;  409.000;  239.000
206.625;  -79.200; -529.000; -552.000
206.771;  -45.325; -451.000; -373.000
206.916;  -30.800; -210.000; -537.000
207.062;  -67.150; -545.000; -591.000
207.207;  -55.025; -546.000; -443.000
207.353;   46.125;  185.000;  460.000
207.498;   16.900;  196.000;   85.000
207.643;  -64.400; -501.000; -370.000
207.789; -129.150;-1069.000; -910.000
207.934;  -88.275; -665.000; -713.000
208.080;  -11.650; -154.000;   66.000
208.225;  -10.925;  -22.000;  -57.000
208.370;  -75.975; -727.000; -619.000
208.516;  -77.500; -741.000; -487.000
208.661;  -28.000; -127.000;  -69.000
208.806;  -26.375; -165.000; -171.000
208.952; -118.550;-1044.000; -731.000
209.097;   64.500;  378.000;  349.000
209.242;  -45.075; -307.000; -382.000
209.387;   66.575;  392.000;  350.000
209.533;  -49.325; -321.000; -350.000
209.678;   77.450;  472.000;  543.000
209.823;  -47.025; -408.000; -310.000
209.969; -100.900; -860.000; -757.000
210.114; -103.225; -907.000; -719.000
210.259; -114.175; -939.000; -889.000
210.404;   -9.450; -171.000;  103.000
210.549;    8.200;  108.000;    3.000
210.695;   -3.450;   -3.000;  -95.000
210.840;   33.450;   94.000;   67.000
210.985;  -56.375; -484.000; -303.000
211.130;   59.750;  268.000;  406.000
211.275;   13.800;  207.000;  199.000
211.420;  -43.250; -300.000; -289.000
211.566;  -55.000; -536.000; -489.000
211.711;   26.625;  218.000;  157.000
211.856;  -55.025; -545.000; -519.000
212.001;   13.775;  151.000;   44.000
212.146;   22.200;  153.000;   49.000
212.291;  -13.925; -210.000; -186.000
212.436;  -18.650; -280.000;   -6.000
212.581;  -79.700; -685.000; -653.000
212.726;  -72.975; -487.000; -538.000
212.871;  -60.900; -552.000; -217.000
213.016; -146.050;-1172.000;-1029.000
213.161;   64.000;  406.000;  291.000
213.306;  -60.475; -435.000; -577.000
213.451;  -88.775; -778.000; -689.000
213.596;  -50.300; -455.000; -347.000
213.741;  -57.200; -448.000; -538.000
213.886;  -70.675; -498.000; -517.000
214.031;  -31.275; -294.000; -124.000
214.176;  -45.475; -408.000; -341.000
214.321;  -26.275; -296.000; -157.000
214.466;  -13.750; -163.000;  -43.000
214.611;   -9.050;  -61.000;  -10.000
214.756; -109.350; -948.000; -858.000
214.901;  -14.500; -388.000; -226.000
215.046; -114.025; -797.000; -825.000
215.191;   13.600;  128.000;   35.000
215.336;  -23.775; -157.000;  -19.000
215.480;  -76.925; -684.000; -505.000
215.625;  -17.675; -175.000;  -19.000
215.770;  -73.475; -757.000; -662.000
215.915;    4.900;   -5.000;  -97.000
216.060;   -7.425; -113.000;  -21.000
216.205;  -86.450; -731.000; -779.000
216.349;  -66.500; -470.000; -533.000
216.494; -116.425; -939.000; -867.000
216.639; -115.350; -823.000; -888.000
216.784;  -87.000; -577.000; -525.000
216.929;   48.350;  392.000;  281.000
217.073;  -18.350; -244.000;  -31.000
217.218;    4.300;   78.000;  -47.000
217.363;  -91.375; -656.000; -618.000
217.507;  -79.275; -623.000; -588.000
217.652; -130.575; -845.000; -874.000
217.797;  -83.150; -708.000; -659.000
217.942; -106.925; -856.000; -720.000
218.086;   69.925;  608.000;  539.000
218.231;  -21.225; -174.000;  -26.000
218.376;  -29.925; -337.000; -229.000
218.520;    7.575;  -41.000;   96.000
218.665;  -28.925; -338.000; -204.000
218.810;  -41.375; -275.000; -233.000
218.954;   11.525;  201.000;   35.000
219.099; -108.375; -713.000; -963.000
219.243;  -68.375; -589.000; -554.000
219.388;  -39.125; -264.000; -136.000
219.532;  -10.425; -116.000; -116.000
219.677;  -64.300; -564.000; -521.000
219.822;    9.175;   33.000;   89.000
219.966;   -2.800;   17.000;  -99.000
220.111;  -36.750; -328.000;  -40.000
220.255;  -68.550; -797.000; -750.000
220.400;  -18.875; -180.000; -146.000
220.544;  -72.325; -516.000; -450.000
220.689;  -65.100; -422.000; -451.000
220.833;  -10.475; -123.000;  -58.000
220.978;  -46.850; -393.000; -563.000
221.122;   20.850;  319.000;  307.000
221.267; -108.875; -906.000; -837.000
221.411;  -57.625; -478.000; -394.000
221.555;   -0.275; -104.000;  -23.000
221.700;  -43.900; -329.000; -222.000
221.844;   27.775;  255.000;  272.000
221.989;  -51.050; -328.000; -311.000
222.133;  -49.025; -289.000; -307.000
222.277;   -7.650;    5.000;   78.000
222.422;   18.275;  227.000;  113.000
222.566;  -30.650; -381.000; -214.000
222.711;  -61.275; -414.000; -479.000
222.855;  -83.325; -643.000; -586.000
222.999;  -91.075; -642.000; -717.000
223.144;  -22.825; -195.000; -194.000
223.288;   41.875;  423.000;  251.000
223.432;   27.225;  184.000;  230.000
223.576;   17.850;  152.000;  -21.000
223.721;   48.375;  364.000;  273.000
223.865;  -55.125; -472.000; -475.000
224.009;  234.450; 1673.000; 1631.000
224.153;  -84.500; -660.000; -671.000
224.298;  -55.750; -531.000; -489.000
224.442;  -15.975;  -74.000;  -33.000
224.586;  -18.175; -169.000; -106.000
224.730;  -97.900; -858.000; -670.000
224.875; -100.775; -739.000; -688.000
225.019;   10.025;  102.000;  188.000
225.163;   50.725;  208.000;  341.000
225.307;   18.400;   97.000;  -91.000
225.451;   44.425;  360.000;  481.000
225.595;   10.800;  264.000;  176.000
225.739;   -5.575; -170.000;  -94.000
225.884;   -5.700;   86.000;    5.000
226.028; -104.450; -760.000; -626.000
226.172;  -31.450; -260.000; -273.000
226.316; -122.000; -941.000; -902.000
226.460;  -72.125; -645.000; -493.000
226.604;  -47.450; -406.000; -400.000
226.748;  -95.000; -836.000; -733.000
226.892;  -36.250; -227.000; -181.000
227.036;  -55.225; -537.000; -447.000
227.180;  -58.150; -551.000; -375.000
227.324;  -72.950; -561.000; -580.000
227.468;  -98.375; -819.000; -717.000
227.612;   17.600;  242.000;  -28.000
227.756;  -93.525; -845.000; -698.000
227.900;   60.275;  342.000;  441.000
228.044;  -58.700; -509.000; -290.000
228.188;   56.825;  448.000;  568.000
228.332;  -92.175; -546.000; -472.000
228.476;  -29.150; -223.000; -149.000
228.620;  -24.950; -210.000; -150.000
228.764;   58.250;  431.000;  349.000
228.908;  -17.975; -155.000;   30.000
229.052;  -56.500; -615.000; -528.000
229.195;  -22.050; -172.000;   13.000
229.339;  -26.750; -235.000; -305.000
229.483;  -21.700;    5.000; -162.000
229.627;   14.600; -156.000;  139.000
229.771;  -56.100; -218.000; -294.000
229.915;   14.025;  230.000;   79.000
230.059;  -96.375; -648.000; -663.000
230.202;  -44.000; -370.000; -317.000
230.346;  -22.250; -107.000;  107.000
230.490;  -56.825; -489.000; -521.000
230.634; -113.200; -736.000; -553.000
230.777;   77.125;  478.000;  509.000
230.921;  -54.425; -450.000; -359.000
231.065;  -36.125; -246.000; -286.000
231.209;   16.950;  261.000;  265.000
231.352;   14.925;   54.000;   40.000
231.496;   24.400;  568.000;  188.000
231.640;  -85.025; -693.000; -621.000
231.783;   57.375;  546.000;  525.000
231.927;  -41.850; -294.000; -365.000
232.071; -113.175; -962.000; -736.000
232.214; -109.475; -980.000; -764.000
232.358;  -95.250; -683.000; -599.000
232.502;    9.300;  -19.000;    7.000
232.645; -126.950;-1090.000; -927.000
232.789;  -20.725; -257.000; -218.000
232.933;  -54.150; -407.000; -224.000
233.076; -112.000;-1038.000; -897.000
233.220; -103.025; -752.000; -777.000
233.363;  -75.875; -669.000; -477.000
233.507;   64.475;  371.000;  129.000
233.650;  -91.475; -764.000; -834.000
233.794;   42.400;  438.000;  461.000
233.938;  -59.750; -530.000; -362.000
234.081;  -18.900;  -93.000;   31.000
234.225;  -56.200; -631.000; -539.000
234.368; -115.775; -773.000; -723.000
234.512;  -38.525; -385.000; -299.000
234.655;  -85.375; -582.000; -555.000
234.798;  -60.900; -493.000; -466.000
234.942; -129.650; -884.000;-1002.000
235.085;  -70.875; -651.000; -443.000
235.229;  -77.250; -405.000; -410.000
235.372;  -61.025; -247.000; -191.000
235.516;  -66.550; -397.000; -321.000
235.659;   11.000;   92.000;  121.000
235.802;  -22.225;  -38.000;  -22.000
235.946;   33.200;  335.000;  215.000
236.089;   28.600;  126.000;  250.000
236.233;   47.675;  275.000;  298.000
236.376;  -42.400; -235.000; -378.000
236.519;  -55.350; -297.000; -319.000
236.663;  -21.925; -215.000; -117.000
236.806; -142.675;-1029.000; -999.000
236.949;   48.475;  543.000;  431.000
237.092;   59.400;  412.000;  391.000
237.236;  -78.925; -589.000; -502.000
237.379;   61.675;  352.000;  428.000
237.522; -121.125; -879.000; -768.000
237.666;  -16.650; -271.000;   18.000
237.809; -114.075; -851.000; -823.000
237.952;   43.600;  469.000;  271.000
238.095;  -61.325; -447.000; -442.000
238.238;   79.725;  688.000;  700.000
238.382;  -10.350;  166.000;  103.000
238.525;  -77.550; -598.000; -511.000
238.668; -128.525;-1060.000; -985.000
238.811;  -74.475; -638.000; -643.000
238.954;  -62.350; -483.000; -334.000
239.097;   82.025;  617.000;  664.000
239.241;   33.850;  394.000;  326.000
239.384;  -41.875; -254.000; -214.000
239.527;  -58.950; -424.000; -224.000
239.670; -136.675; -994.000;-1091.000
239.813; -108.600; -696.000; -658.000
239.956;   61.550;  579.000;  473.000
240.099; -100.075; -778.000; -725.000
240.242;   62.400;  428.000;  432.000
240.385;   45.400;  466.000;  450.000
240.528;  -74.175; -706.000; -473.000
240.671;   -1.075;  189.000;  134.000
240.814;  -43.200; -441.000; -158.000
240.957; -101.750; -767.000; -578.000
241.100; -102.850; -779.000; -755.000
241.243; -139.575;-1234.000; -893.000
241.386;  -65.325; -508.000; -379.000
241.529;  -92.700; -735.000; -547.000
241.672;  -61.550; -566.000; -495.000
241.815; -119.950; -832.000; -808.000
241.958;  -19.950; -125.000; -182.000
242.101;  -72.550; -545.000; -390.000
242.244;  -34.375; -270.000; -325.000
242.387;  -38.825; -304.000; -246.000
242.530;   39.250;  470.000;  134.000
242.673;  -40.175; -381.000; -309.000
242.815; -114.900; -925.000; -899.000
242.958;  -66.475; -482.000; -381.000
243.101;   17.225;  132.000;  187.000
243.244;  -83.300; -564.000; -521.000
243.387;  -43.525; -313.000; -316.000
243.530;  -91.800; -657.000; -674.000
243.672;    0.175;   43.000;  -92.000
243.815;  -53.625; -355.000; -283.000
243.958;    2.875;   98.000;  -26.000
244.101;    0.225;   59.000;  -16.000
244.243;  -17.500;  -47.000;  101.000
244.386; -107.725; -761.000; -630.000
244.529;  -33.650; -132.000; -139.000
244.672; -147.350;-1154.000; -951.000
244.814;  -95.500; -621.000; -794.000
244.957;  -46.625; -380.000; -304.000
245.100;  -81.975; -489.000; -489.000
245.242;  -46.350; -387.000; -374.000
245.385;  -11.750;  -59.000;  -39.000
245.528; -119.075; -871.000; -705.000
245.670;   78.075;  612.000;  634.000
245.813;  -96.150; -599.000; -547.000
245.956;  -39.650; -324.000; -275.000
246.098;  -74.925; -508.000; -650.000
246.241;   -4.425;  194.000;   48.000
246.383;  -21.600; -119.000;  -73.000
246.526;  -86.875; -454.000; -525.000
246.669; -119.325; -889.000; -780.000
246.811;   -0.100;  172.000;   -1.000
246.954;  -66.900; -512.000; -426.000
247.096;  -23.550;  -84.000;   -6.000
247.239;  -57.650; -482.000; -445.000
247.381;  -64.400; -647.000; -488.000
247.524;   76.500;  645.000;  679.000
247.666;   -0.300;   58.000;   11.000
247.809; -110.700; -887.000; -691.000
247.951;  -12.850;  -75.000;  138.000
248.094;   28.225;  432.000;  308.000
248.236; -158.650;-1262.000;-1238.000
248.378;   13.600; -356.000;  -81.000
248.521;  -14.100; -334.000; -337.000
248.663;  -34.650; -236.000; -267.000
248.806;  -21.750; -300.000; -266.000
248.948;  -92.550; -886.000; -763.000
249.090;  -33.500; -428.000; -398.000
249.233;  -34.500; -344.000; -381.000
249.375;  -49.400; -474.000; -451.000
249.518;  -13.250;  -83.000; -133.000
249.660;   -8.325; -103.000;    3.000
249.802; -161.600;-1303.000;-1189.000
249.945;  -79.275; -612.000; -540.000
250.087; -102.725; -834.000; -768.000
250.229;  -66.050; -362.000; -480.000
250.371;  -64.450; -494.000; -439.000
250.514;  -68.975; -310.000; -244.000
250.656;   -4.750;   69.000;  102.000
250.798; -112.825; -849.000; -800.000
250.940;  -39.300; -322.000; -322.000
251.083;  -35.075; -335.000; -111.000
251.225;   56.375;  338.000;  310.000
251.367;  -42.325; -274.000; -373.000
251.509;  -33.850; -265.000; -210.000
251.651;  -96.150; -731.000; -671.000
251.794;   52.400;  538.000;  632.000
251.936; -105.125; -821.000; -747.000
252.078;  -75.750; -540.000; -461.000
252.220;  -64.625; -645.000; -477.000
252.362;   92.650;  344.000;  462.000
252.504;  -65.625; -677.000; -584.000
252.646; -124.800; -875.000; -722.000
252.788;   -5.000;   14.000; -128.000
252.931;  -32.650; -257.000; -253.000
253.073;  -38.150; -376.000; -317.000
253.215;   -6.750;  141.000;  122.000
253.357;  -12.875;   82.000; -153.000
253.499;  -47.725; -374.000; -234.000
253.641; -104.175; -749.000; -594.000
253.783;  -77.600; -609.000; -527.000
253.925;  -96.150; -586.000; -591.000
254.067; -118.825; -744.000; -667.000
254.209;  -29.600; -391.000; -259.000
254.351; -113.550; -865.000; -883.000
254.493;  -74.400; -441.000; -417.000
254.635; -124.725; -936.000; -818.000
254.777;  -84.250; -752.000; -687.000
254.918;  -54.425; -512.000; -430.000
255.060;  -62.100; -551.000; -395.000
255.202;  -63.250; -473.000; -261.000
255.344;  -76.950; -658.000; -455.000
255.486;  -84.575; -471.000; -406.000
255.628; -118.050; -780.000; -781.000
255.770;  -83.725; -676.000; -536.000
255.912;  -68.275; -559.000; -468.000
256.053;  -89.575; -730.000; -508.000
256.195;  145.875; 1008.000;  903.000
256.337;  -89.050; -861.000; -595.000
256.479;   59.550;  532.000;  416.000
256.621;  -46.025; -394.000; -212.000
256.762;  -89.850; -789.000; -742.000
256.904;   41.875;  485.000;  487.000
257.046;  -34.550; -381.000; -271.000
257.188;  -52.500; -351.000; -264.000
257.329;  -75.025; -525.000; -464.000
257.471; -103.400; -939.000; -807.000
257.613;  -56.400; -584.000; -498.000
257.755; -140.025;-1073.000; -982.000
257.896;   30.175;  286.000;  392.000
258.038;  -71.075; -403.000; -352.000
258.180;  -38.900; -354.000; -279.000
258.321;  -75.100; -581.000; -457.000
258.463;   -7.250;  -71.000;  133.000
258.605;  -77.975; -562.000; -570.000
258.746; -108.575; -886.000; -772.000
258.888; -148.525;-1026.000;-1020.000
259.029;   24.275;  121.000;   -8.000
259.171;  -84.425; -614.000; -550.000
259.313;   -5.225;  -49.000;  -47.000
259.454;  -67.975; -536.000; -414.000
259.596;  -65.850; -483.000; -390.000
259.737;  -73.000; -590.000; -474.000
259.879;   36.725;  217.000;  311.000
260.020;   84.625;  901.000;  636.000
260.162;  -34.900; -146.000; -253.000
260.303; -117.550; -768.000; -687.000
260.445;  -81.975; -609.000; -613.000
260.586;   28.600;  392.000;  157.000
260.728;  -41.375; -360.000; -248.000
260.869; -108.500; -350.000; -343.000
261.011;   80.350;  706.000;  537.000
261.152;  -68.975; -479.000; -319.000
261.293;  -80.000; -576.000; -595.000
261.435;  -21.925; -219.000; -184.000
261.576;  -53.950; -455.000; -325.000
261.718;   49.775;  420.000;  470.000
261.859; -114.450; -940.000; -949.000
262.000; -129.925; -951.000;-1016.000
262.142;  -22.425;  -52.000;  -60.000
262.283; -115.100; -808.000; -691.000
262.424;  -88.175; -666.000; -625.000
262.566; -142.000;-1161.000; -983.000
262.707; -121.800; -840.000; -830.000
262.848; -118.875; -769.000; -726.000
262.990;  -41.575; -362.000; -345.000
263.131;   74.525;  650.000;  681.000
263.272;   -9.025;  -61.000;  -41.000
263.413;  -86.725; -589.000; -561.000
263.555;  -64.675; -669.000; -143.000
263.696;  -94.100; -550.000; -641.000
263.837;  -64.550; -449.000; -551.000
263.978;   -5.475;   -5.000;  -77.000
264.119;  -41.825; -283.000; -264.000
264.261; -107.750; -847.000; -630.000
264.402;   -4.725;   33.000;   40.000
264.543;  -72.725; -509.000; -524.000
264.684;   -1.500;   61.000;  -50.000
264.825;  -81.425; -816.000; -538.000
264.966;  -12.400;  -84.000;  -67.000
265.107; -115.775; -646.000; -670.000
265.248; -115.925; -825.000; -812.000
265.390;   -9.950;  152.000;   -9.000
265.531;  -30.025; -238.000; -107.000
265.672;  -88.475; -557.000; -630.000
265.813;   56.425;  563.000;  439.000
265.954; -136.550; -959.000; -940.000
266.095;  -12.900; -372.000; -322.000
266.236;  -81.475; -686.000; -548.000
266.377;  -37.025; -243.000; -297.000
266.518;  -72.650; -619.000; -547.000
266.659;   35.225;  170.000;  268.000
266.800;   -2.175;   83.000;   85.000
266.941;  -76.950; -487.000; -478.000
267.082;   28.400;  354.000;   99.000
267.223;  -48.100; -344.000; -273.000
267.364; -108.650; -892.000; -686.000
267.504;  -32.475;    3.000;  135.000
267.645;   -2.300;  160.000;   67.000
267.786;  -17.025; -147.000;  -86.000
267.927;  -67.700; -473.000; -379.000
268.068;  -10.200; -186.000;  -61.000
268.209;  -44.275; -175.000; -413.000
268.350;  -66.975; -388.000; -532.000
268.490;  -73.600; -648.000; -521.000
268.631;   34.725;  127.000;  225.000
268.772;  -99.100; -874.000; -647.000
268.913;  -50.900; -328.000; -476.000
269.054;   -9.925; -117.000;   12.000
269.194;  -48.900; -418.000; -402.000
269.335; -160.550;-1137.000;-1074.000
269.476;   -7.550;   33.000;  -35.000
269.617;  -49.400; -347.000; -392.000
269.757;  -89.175; -713.000; -646.000
269.898;  -99.150; -856.000; -613.000
270.039;  -60.375; -415.000; -405.000
270.180; -139.625; -952.000; -816.000
270.320;  -34.550; -190.000; -250.000
270.461;  -33.850; -277.000; -249.000
270.602;  -15.900; -186.000; -156.000
270.742; -112.750; -868.000; -943.000
270.883;  -50.350; -442.000; -390.000
271.023;  -64.625; -358.000; -357.000
271.164;  -70.525; -607.000; -528.000
271.305;  -90.450; -666.000; -654.000
271.445;  -92.850; -722.000; -683.000
271.586;  -71.050; -462.000; -283.000
271.726;  -44.875; -397.000; -322.000
271.867;  -46.375; -594.000; -534.000
272.008;  210.775; -473.000; -285.000
272.148;  149.400;  462.000;  468.000
272.289;   21.375; -113.000; -181.000
272.429;   22.350;   19.000;  185.000
272.570;  -91.300; -633.000; -737.000
272.710;  -93.200; -825.000; -775.000
272.851;  -32.400;  113.000; -130.000
272.991; -139.400;-1173.000;-1077.000
273.131;  -64.600; -419.000; -459.000
273.272; -105.200; -683.000; -723.000
273.412;   13.425; -143.000;  -31.000
273.553;  -51.125; -488.000; -507.000
273.693;  147.550;  913.000;  858.000
273.834;  -80.200; -894.000; -692.000
273.974;  -59.325; -664.000; -615.000
274.114;  -88.575; -772.000; -560.000
274.255;   88.050;  414.000;  373.000
274.395;   16.950; -180.000; -125.000
274.535;   44.800;  199.000;  350.000
274.676;   35.025;  225.000;   94.000
274.816;   20.950;  110.000;   34.000
274.956;  -76.575; -624.000; -690.000
275.097;  -51.250;-1014.000; -922.000
275.237; -107.375; -913.000; -803.000
275.377;  -93.425; -778.000; -689.000
275.517; -129.225; -878.000; -937.000
275.658;  -54.275; -590.000; -555.000
275.798;  -59.375; -606.000; -413.000
275.938;   11.275;  215.000;  323.000
276.078;  -99.600; -626.000; -395.000
276.218;   19.125;   99.000;  104.000
276.359; -111.250;-1026.000;-1024.000
276.499;  -66.500; -605.000; -446.000
276.639;  -36.575; -305.000; -151.000
276.779;  -47.975; -475.000; -357.000
276.919;  -95.525; -783.000; -624.000
277.059;  -22.625; -261.000; -212.000
277.199;  -34.925; -357.000; -259.000
277.340;   55.125;  287.000;  175.000
277.480; -104.575; -840.000; -693.000
277.620;   31.200;  192.000;   16.000
277.760; -179.375;-1533.000;-1294.000
277.900;   18.425;  113.000;   33.000
278.040;   17.275;  137.000;  159.000
278.180;   30.650;  270.000;  170.000
278.320;    9.825;   21.000;   56.000
278.460;  -75.625; -443.000; -469.000
278.600;  -85.225; -708.000; -598.000
278.740;   52.225;  448.000;  224.000
278.880;  -14.600; -768.000; -791.000
279.020;   -7.625; -194.000; -144.000
279.160;  -71.875; -672.000; -595.000
279.300; -118.125; -926.000; -873.000
279.440;  -82.825; -709.000; -622.000
279.579;    0.725;-1014.000; -929.000
279.719;  -43.750; -410.000; -394.000
279.859;   59.950;   -4.000;   41.000
279.999;   39.175; -208.000;  101.000
280.139;   -8.975; -435.000; -387.000
280.279;  -63.700; -708.000; -745.000
280.419;  -15.725; -229.000; -147.000
280.559;  -14.100; -259.000; -180.000
280.698;  -77.250; -790.000; -639.000
280.838;  -88.500; -778.000; -800.000
280.978; -101.475; -846.000; -790.000
281.118; -115.575; -811.000; -704.000
281.257;   15.150;   24.000;    6.000
281.397;  -84.800;-1094.000; -960.000
281.537;  -74.425; -599.000; -712.000
281.677;  -22.475; -150.000; -101.000
281.816;  -92.175; -700.000; -630.000
281.956;  -18.575; -193.000; -257.000
282.096;  -56.925; -539.000; -396.000
282.235; -100.050; -672.000; -638.000
282.375;  -18.500; -243.000;  -98.000
282.515; -100.150; -715.000; -707.000
282.654;   28.475;   29.000;  106.000
282.794;   30.475;  388.000;  244.000
282.934;  -46.800; -530.000; -491.000
283.073; -123.650;-1030.000; -857.000
283.213;  -51.300; -460.000; -467.000
283.353;  -20.250; -408.000; -349.000
283.492;  -29.875; -264.000; -296.000
283.632;  -42.125; -254.000; -168.000
283.771; -101.675; -859.000; -730.000
283.911;  -44.075; -369.000; -260.000
284.050; -101.650; -794.000; -748.000
284.190; -154.625;-1229.000;-1096.000
284.329; -132.025;-1055.000; -964.000
284.469;  -35.475; -516.000; -591.000
284.608;  -48.425; -559.000; -598.000
284.748;  -80.275; -614.000; -570.000
284.887;   -3.500;  -87.000;  -20.000
285.027; -118.600; -844.000; -892.000
285.166;  -31.825; -192.000; -249.000
285.306;    9.425; -116.000;  -33.000
285.445;  -48.250; -229.000; -343.000
285.584;  -94.875; -630.000; -494.000
285.724;  -44.450; -282.000; -322.000
285.863; -105.925; -857.000; -507.000
286.002;  -51.275; -366.000; -276.000
286.142;  -95.625; -715.000; -622.000
286.281;  -71.300; -525.000; -493.000
286.420;  -81.950; -554.000; -417.000
286.560;   89.750;  653.000;  623.000
286.699; -122.125; -958.000; -912.000
286.838;  -83.700; -590.000; -591.000
286.978;  -91.650; -533.000; -537.000
287.117; -130.750;-1085.000; -950.000
287.256;  -32.000; -228.000; -211.000
287.395;  -57.075; -197.000; -378.000
287.535;  -49.325; -370.000; -298.000
287.674;  -75.825; -509.000; -484.000
287.813;   58.250;  661.000;  533.000
287.952; -112.200;-1010.000; -871.000
288.091; -138.275;-1049.000; -915.000
288.231;   27.925;   13.000;   15.000
288.370; -165.525;-1217.000;-1200.000
288.509;  -76.925; -728.000; -645.000
288.648;  -81.250; -770.000; -548.000
288.787;  -26.850; -243.000;  -87.000
288.926;  -42.925; -454.000; -475.000
289.065;  120.025;  859.000;  672.000
289.204;  -40.275; -377.000; -217.000
289.344;  -72.100; -791.000; -690.000
289.483;   33.825;  416.000;  304.000
289.622;   -5.450; -291.000; -149.000
289.761;   -9.975; -309.000; -166.000
289.900; -104.375; -785.000; -626.000
290.039;  -11.150;  -12.000;  -95.000
290.178;  -39.900; -274.000; -180.000
290.317;  -66.650; -618.000; -479.000
290.456;  -55.600; -463.000; -451.000
290.595; -109.025; -961.000; -833.000
290.734; -124.300; -904.000; -891.000
290.873;  -59.825; -456.000; -420.000
291.011; -114.700; -833.000; -843.000
291.150;  -91.600; -770.000; -682.000
291.289;  -27.350; -343.000; -110.000
291.428;  -96.475; -599.000; -480.000
291.567;  -45.425; -370.000; -442.000
291.706;    8.625;  109.000;  154.000
291.845;  -80.050; -597.000; -505.000
291.984; -146.500;-1234.000;-1061.000
292.122;   73.500;  602.000;  582.000
292.261;   47.175;  620.000;  463.000
292.400;    0.600; -144.000;  211.000
292.539; -109.450; -959.000; -813.000
292.678;  -31.550; -325.000; -300.000
292.816; -140.175;-1136.000; -965.000
292.955;  -74.975; -844.000; -684.000
293.094;  -18.100; -173.000; -337.000
293.233;  -46.000; -556.000; -400.000
293.371;  -25.125; -225.000;  -84.000
293.510; -103.725; -866.000; -780.000
293.649; -112.125; -959.000; -924.000
293.787;  -15.025;-1083.000;-1012.000
293.926;    4.725; -113.000;  -32.000
294.065;  -30.750; -379.000; -290.000
294.203;   58.950;  298.000;  406.000
294.342;    8.100;   74.000;  156.000
294.481; 5581.025;51180.000; -836.000
294.619;  -28.400; -425.000; -582.000
294.758; -115.175;-1230.000;-1137.000
294.896;  113.500; -125.000;    5.000
295.035; -124.375;-1040.000;-1006.000
295.174; -112.900;-1082.000; -954.000
295.312;  -37.375; -323.000; -203.000
295.451;   18.675; -307.000; -428.000
295.589;  -35.900; -389.000; -518.000
295.728;   27.050; -292.000; -165.000
295.866;    7.025;  -36.000;  -51.000
296.005;  -56.700; -584.000; -341.000
296.143;  -55.500; -558.000; -596.000
296.282;  -96.150; -957.000; -881.000
296.420;  -75.650; -657.000; -557.000
296.559;  -70.550; -892.000; -633.000
296.697;   77.675; -847.000; -665.000
296.835;  123.975;-1141.000;-1002.000
296.974;   61.200;  -23.000;   39.000
297.112;   43.500; -443.000; -504.000
297.251;  -52.425; -815.000; -755.000
297.389;  140.400; -576.000; -438.000
297.527;   62.975; -145.000;  -83.000
297.666;  -24.375; -486.000; -438.000
297.804;  -40.875; -404.000; -264.000
297.942;    0.150; -136.000; -161.000
298.081;    5.225; -183.000;   63.000
298.219;  104.800;  -17.000;  -19.000
298.357;   88.025; -144.000;  -71.000
298.495;   72.925; -810.000; -812.000
298.634;  111.650;  245.000;  219.000
298.772;   92.850; -220.000; -338.000
298.910;  -18.100; -309.000; -182.000
299.048;   -8.675; -130.000; -153.000
299.187;  -10.100; -350.000; -250.000
299.325;   24.850;   52.000;  122.000
299.463;  109.300; -389.000; -299.000
299.601;  180.725; -327.000; -271.000
299.739;  -75.925; -908.000; -883.000
299.877;  -65.800; -791.000; -703.000
300.016;  -32.300;-1095.000; -935.000
300.154;  200.000;  -19.000; -161.000
300.292;  106.950; -428.000; -348.000
300.430;   51.425; -408.000; -291.000
300.568;  -98.925; -940.000; -874.000
300.706;  -24.875; -366.000; -469.000
300.844;  -60.925;-1108.000; -979.000
300.982;  142.550;  246.000;  282.000
301.120;  -96.350; -965.000; -866.000
301.258;  -50.700; -812.000; -705.000
301.396;   56.425;  104.000;  -41.000
301.534;  143.225; -218.000; -293.000
301.672;   27.950; -664.000; -521.000
301.810;  104.600; -613.000; -545.000
301.948;  163.075;   53.000;  149.000
302.086;  803.550; -250.000;  -32.000
302.224; 1215.650; -610.000; -585.000
302.362;   80.025; -558.000; -622.000
302.500;   21.525; -923.000; -893.000
302.638;  157.600;  128.000;  245.000
302.776;   11.275; -352.000; -408.000
302.913;   53.225;  447.000;  236.000
303.051;    3.925;  -86.000;  -23.000
303.189;   80.050;   90.000;  118.000
303.327;  -20.800; -341.000; -256.000
303.465;  -65.150; -832.000; -588.000
303.603;  -88.375; -805.000; -604.000
303.740;  130.000;  417.000;  241.000
303.878;   67.800; -800.000; -759.000
304.016;  -71.600; -915.000; -790.000
304.154; -101.275;-1123.000;-1152.000
304.291;  -17.750; -505.000; -554.000
304.429;   24.225;  102.000;   74.000
304.567; -132.700; -908.000; -893.000
304.705;  -43.550; -408.000; -515.000
304.842;  152.700; -616.000; -540.000
304.980;   78.000;  215.000;   35.000
305.118;   93.825; -367.000; -365.000
305.255;  -47.350; -945.000; -927.000
305.393;   65.325;  178.000;  239.000
305.531;  -67.425;-1173.000; -956.000
305.668;  -50.425; -663.000; -582.000
305.806;  147.050; -358.000; -439.000
305.943;  149.575; -629.000; -637.000
306.081;   86.875; -378.000; -267.000
306.219;  -97.800; -863.000; -748.000
306.356;    5.975;  158.000;   27.000
306.494;  125.200;  981.000;  761.000
306.631;   -2.375;  -11.000;  -55.000
306.769;   32.125; -613.000; -485.000
306.906;    0.550; -284.000; -258.000
307.044;  -58.300; -473.000; -488.000
307.181;  -52.675; -410.000; -332.000
307.319;   15.775;  112.000;   87.000
307.456; -163.275;-1191.000;-1153.000
307.594;  -89.450; -980.000; -727.000
307.731;   -2.050; -371.000; -164.000
307.868;   -6.400;  -15.000;   20.000
308.006; -123.450; -961.000; -847.000
308.143;  -49.800; -618.000; -330.000
308.281;  237.050;  -37.000; -254.000
308.418;    4.200; -748.000; -640.000
308.555;  -63.900; -400.000; -250.000
308.693;  -71.850; -577.000; -573.000
308.830; -104.825; -712.000; -657.000
308.967;   -2.775; -215.000;  -95.000
309.105;  -37.100; -507.000; -396.000
309.242;   70.925; -468.000; -367.000
309.379;  461.950; -577.000; -655.000
309.517;  -32.050; -936.000; -948.000
309.654;  -93.425; -910.000; -734.000
309.791;  -52.375; -662.000; -580.000
309.928; -102.650; -977.000; -914.000
310.065;  200.350;  819.000;  697.000
310.203;   42.050; -825.000; -850.000
310.340;   16.550; -465.000; -321.000
310.477;  -57.775; -412.000; -516.000
310.614;  -64.300; -383.000; -473.000
310.751;  -66.725; -427.000; -518.000
310.889;  -25.800;    1.000;   11.000
311.026; -141.550;-1161.000; -939.000
311.163;  -49.575; -386.000; -380.000
311.300;  -60.350; -512.000; -479.000
311.437;  -74.875; -658.000; -619.000
311.574; -142.700;-1226.000; -985.000
311.711;  -54.425; -595.000; -433.000
311.848;  -41.725; -380.000; -388.000
311.985;   21.400;  270.000;   93.000
312.122; -102.700; -932.000; -762.000
312.259; -119.675; -941.000; -994.000
312.396;  -72.225; -508.000; -551.000
312.533;  -89.925; -812.000; -790.000
312.670; -110.750;-1070.000; -898.000
312.807;  -34.150; -352.000; -367.000
312.944;  -62.450; -513.000; -611.000
313.081;  -27.250; -150.000; -415.000
313.218;  -83.975;-1111.000; -867.000
313.355;   19.375; -531.000; -449.000
313.492;   18.075; -455.000; -292.000
313.629;  150.175;  815.000;  735.000
313.766; -134.575;-1176.000;-1008.000
313.902;  -10.900; -186.000;   21.000
314.039;  -30.950; -372.000; -289.000
314.176;   18.625;  286.000;  192.000
314.313;  -68.250; -569.000; -473.000
314.450;  -68.850; -788.000; -684.000
314.587;  -36.275; -468.000; -480.000
314.723;   -1.750;  -78.000;  130.000
314.860;   35.350;  318.000;  332.000
314.997;   42.925;  223.000;  142.000
315.134;  -15.375; -385.000; -368.000
315.270;  -22.925; -480.000; -496.000
315.407; -108.425;-1094.000; -967.000
315.544;  -37.850; -657.000; -538.000
315.681;  -52.225; -681.000; -565.000
315.817;   52.250; -133.000; -176.000
315.954;   36.475; -613.000; -392.000
316.091; -116.725;-1045.000;-1023.000
316.227;  -17.925;  -71.000; -179.000
316.364;    2.500;   23.000;    6.000
316.500;  -41.075; -113.000; -300.000
316.637;  -45.875; -181.000; -302.000
316.774;  -66.100; -625.000; -358.000
316.910;  -89.100; -598.000; -629.000
317.047;  -62.825; -487.000; -351.000
317.183;  -43.325; -435.000; -566.000
317.320;   -3.700; -367.000; -321.000
317.456;  -81.175; -733.000; -805.000
317.593;  -78.600; -598.000; -641.000
317.729;   -2.875;  168.000;  -67.000
317.866; -180.550;-1434.000;-1285.000
318.002;  -93.375; -708.000; -948.000
318.139;  -65.325; -883.000; -867.000
318.275;  -99.900;-1003.000; -738.000
318.412;  -61.050; -517.000; -336.000
318.548;  -12.600; -751.000; -720.000
318.685;  -86.600; -985.000; -888.000
318.821;  -86.650; -762.000; -735.000
318.957;   -8.075;   34.000;  -23.000
319.094;   35.075;  297.000;  154.000
319.230;  -37.625; -756.000; -742.000
319.367;  196.950; -471.000; -520.000
319.503;   75.850; -538.000; -436.000
319.639;  -90.575; -877.000; -793.000
319.775;  -45.800; -750.000; -685.000
319.912;  -51.200; -424.000; -519.000
320.048;  -58.800;-1184.000;-1184.000
320.184;   66.300;   59.000;   70.000
320.321;  -51.500; -497.000; -467.000
320.457;   52.275;  475.000;  662.000
320.593;  -53.475; -375.000; -382.000
320.729;  -97.900; -732.000; -734.000
320.866;  -74.625; -577.000; -635.000
321.002;  -60.500; -759.000; -809.000
321.138;    4.700; -135.000; -211.000
321.274;   80.675; -148.000; -115.000
321.410;   -3.325; -585.000; -353.000
321.546;    7.300;-1011.000; -911.000
321.683;   68.050;  400.000;  185.000
321.819;   14.475;  -48.000; -117.000
321.955; -101.975; -743.000; -722.000
322.091;  -26.800; -585.000; -540.000
322.227;    4.975; -382.000; -202.000
322.363;  -10.350; -320.000; -215.000
322.499;  -33.125; -343.000; -331.000
322.635;  199.025;  636.000;  443.000
322.771;   32.050; -139.000;   12.000
322.907;  113.475;  129.000;  327.000
323.043;   -4.325; -115.000; -206.000
323.179;  -33.875; -394.000; -363.000
323.315;   73.100; -401.000; -371.000
323.451;  151.600; -328.000; -236.000
323.587;   97.425;  -60.000;  -77.000
323.723;   34.625; -682.000; -601.000
323.859;   -1.900; -258.000;  -76.000
323.995;  -24.350; -467.000; -409.000
324.131; -120.950; -967.000; -892.000
324.267;  -35.925; -254.000; -276.000
324.402; -120.575; -960.000; -983.000
324.538;   -9.075; -279.000; -104.000
324.674;   33.925;  164.000;   77.000
324.810;  187.475;  226.000;  308.000
324.946;   31.225; -810.000; -658.000
325.082;  -62.475; -568.000; -475.000
325.217;   -9.550;  -62.000;   16.000
325.353; -104.400; -764.000; -659.000
325.489;  -85.525; -540.000; -506.000
325.625;  -70.175; -579.000; -525.000
325.760;   54.300;  517.000;  376.000
325.896;  -34.225; -515.000; -702.000
326.032;  -55.350; -403.000; -352.000
326.168;  -54.300; -462.000; -369.000
326.303;  -65.575; -352.000; -461.000
326.439;  -24.850; -336.000; -276.000
326.575;   17.350; -190.000;  -29.000
326.710;    9.350; -156.000;  -30.000
326.846;   -6.650;  146.000;  103.000
326.982;  -83.000; -530.000; -548.000
327.117;  -71.575; -481.000; -442.000
327.253;  -86.050; -745.000; -742.000
327.388; -136.975;-1137.000;-1153.000
327.524;  -20.550; -811.000; -578.000
327.659;  -15.900;  -58.000;  -22.000
327.795;  -23.325;   69.000;   45.000
327.931;  -84.750; -723.000; -499.000
328.066;   -5.775; -417.000; -276.000
328.202;   -3.625;   12.000; -129.000
328.337;  115.800;  957.000;  713.000
328.473;   43.600;  -12.000;  -74.000
328.608;  -23.100; -256.000; -267.000
328.743;  -67.750; -799.000; -664.000
328.879;   17.975;  214.000;  114.000
329.014;  -30.425; -102.000; -122.000
329.150;  -77.425; -358.000; -483.000
329.285;  -63.950; -465.000; -466.000
329.421;  -41.725; -548.000; -246.000
329.556;  -12.850;  -36.000;   85.000
329.691;  -95.000; -633.000; -615.000
329.827;  -74.150; -626.000; -480.000
329.962;  -37.525;  131.000; -301.000
330.097;  -85.075; -673.000; -585.000
330.233;  -50.425; -410.000; -223.000
330.368; -117.625; -839.000; -628.000
330.503;  -15.700;    3.000;   98.000
330.638;   12.650;  -93.000; -125.000
330.774;  -41.775; -609.000; -530.000
330.909;  -34.050; -434.000; -244.000
331.044;  -97.050; -714.000; -708.000
331.179; -151.500;-1217.000;-1109.000
331.315;    2.925;   77.000;   20.000
331.450;   27.625;  157.000;  285.000
331.585;  -77.800; -805.000; -706.000
331.720;  -72.150; -510.000; -460.000
331.855;    2.600;  -35.000; -102.000
331.990;  199.675;   62.000;  138.000
332.126;   95.850; -110.000;   71.000
332.261;  -27.625; -379.000; -265.000
332.396;   -0.675; -135.000; -242.000
332.531;  -98.325;-1074.000;-1031.000
332.666;   30.975; -519.000; -363.000
332.801;  -90.125; -726.000; -807.000
332.936;  -18.300; -192.000; -122.000
333.071; -141.975; -870.000; -817.000
333.206;   17.350;  307.000;  379.000
333.341;   30.250;  344.000;  418.000
333.476;  -74.400; -627.000; -623.000
333.611;  -30.375; -251.000; -173.000
333.746;  -26.275; -381.000; -464.000
333.881; -100.550; -973.000; -935.000
334.016; -126.475; -936.000; -917.000
334.151; -119.025; -746.000; -702.000
334.286;   29.050;  152.000;  186.000
334.421;   -8.825; -125.000; -178.000
334.556;  -63.525; -611.000; -567.000
334.690;  -66.525; -631.000; -577.000
334.825;   62.950;  381.000;   83.000
334.960;  -58.075; -285.000; -413.000
335.095;   25.325;  135.000;  -91.000
335.230;  -97.575; -722.000; -738.000
335.365; -127.675;-1084.000; -990.000
335.499; -118.275;-1108.000;-1037.000
335.634;   37.575;    9.000;  534.000
335.769;  -86.250; -755.000; -720.000
335.904;  -39.850; -603.000; -561.000
336.038;  -40.550; -735.000; -657.000
336.173;  -79.400;-1206.000;-1194.000
336.308;   31.100; -116.000; -189.000
336.443;   25.650; -544.000; -634.000
336.577;  -45.825; -936.000; -787.000
336.712;   78.100;   -4.000;  -12.000
336.847;   -3.850; -724.000; -607.000
336.981;  111.925; -272.000; -208.000
337.116;  346.350;  615.000;  501.000
337.250;  211.025; -434.000; -421.000
337.385;  214.100; -297.000; -208.000
337.520;   50.775; -632.000; -603.000
337.654;  -33.275; -215.000; -126.000
337.789; -114.450; -989.000; -933.000
337.923;  -24.950; -104.000; -205.000
338.058;  -77.975; -673.000; -738.000
338.192;  -10.575; -611.000; -488.000
338.327;   -5.925;  -18.000; -155.000
338.461;  -62.950; -299.000; -469.000
338.596;  -86.875; -780.000; -638.000
338.730;  -94.525; -767.000; -803.000
338.865;   64.600;  -46.000; -140.000
338.999;  -58.475; -846.000; -702.000
339.134;  -31.675; -634.000; -536.000
339.268;   20.700; -741.000; -603.000
339.403;  342.525; -740.000; -775.000
339.537;  107.925; -894.000; -820.000
339.671; -112.175; -829.000; -813.000
339.806;  -57.950; -556.000; -512.000
339.940;   10.025; -261.000; -235.000
340.074;  -74.150; -685.000; -510.000
340.209;  -45.550; -351.000; -230.000
340.343;  -74.775; -517.000; -573.000
340.477;  165.750;  998.000; 1036.000
340.612;  -60.550;-1033.000; -900.000
340.746;  118.425; -199.000; -243.000
340.880;  -49.375; -924.000; -785.000
341.014;  -20.975;  -45.000; -154.000
341.149; -100.475; -756.000; -718.000
341.283;  -92.000; -839.000; -754.000
341.417;  -62.275;-1124.000; -938.000
341.551;  237.475; -768.000; -708.000
341.685;  -14.000; -633.000; -611.000
341.820;  -57.825; -562.000; -493.000
341.954;  -49.450; -218.000; -349.000
342.088; -143.825;-1102.000;-1019.000
342.222;   52.050;  565.000;  618.000
342.356;  -44.225; -395.000; -335.000
342.490;  -65.000; -880.000; -841.000
342.624;  -42.350; -339.000; -242.000
342.758;   14.225; -364.000; -312.000
342.892;  -44.025; -710.000; -585.000
343.026;  -44.575;  -58.000; -116.000
343.160;  -62.825; -426.000; -376.000
343.294;  -60.750; -474.000; -337.000
343.428;    7.825; -488.000; -448.000
343.562;   -9.200; -172.000;  -23.000
343.696;   -8.525; -385.000; -314.000
343.830;    4.775; -362.000; -356.000
343.964;   36.350; -231.000; -168.000
344.098; 1182.500;  199.000;   70.000
344.232; 1008.650; -266.000; -127.000
344.366;  120.450; -567.000; -453.000
344.500;  122.425; -665.000; -744.000
344.634;   63.300; -324.000; -164.000
344.768;   11.325; -531.000; -341.000
344.902;   43.875;  278.000;  256.000
345.035;  -71.800; -556.000; -496.000
345.169; -125.025; -933.000; -656.000
345.303;   -5.200; -308.000; -482.000
345.437;  -43.125; -826.000; -717.000
345.571;  -64.675; -675.000; -594.000
345.704;  -61.100; -309.000; -532.000
345.838;   -7.850; -331.000; -284.000
345.972;  -13.025; -543.000; -495.000
346.106;  139.025; -179.000; -190.000
346.239;  448.975; -312.000; -243.000
346.373;   28.025; -343.000; -302.000
346.507; -125.375; -950.000; -962.000
346.640;  211.800;  -30.000;   13.000
346.774;   -1.850; -650.000; -797.000
346.908;   -8.125; -138.000;  -11.000
347.041;  -90.875; -646.000; -593.000
347.175;   -7.150;  259.000;   27.000
347.309;  -42.700; -698.000; -628.000
347.442;  -82.900; -883.000; -732.000
347.576;  335.050;  670.000;  668.000
347.709;  277.900; -123.000;  -52.000
347.843;  -73.500; -933.000; -825.000
347.976;   36.975;  235.000;  294.000
348.110; -180.800;-1268.000;-1186.000
348.243;  -98.950; -679.000; -772.000
348.377;    3.125;  -26.000;   60.000
348.510;   62.125;  403.000;  540.000
348.644;  -27.700;  -37.000; -159.000
348.777;   -0.950;  180.000;  191.000
348.911;  -44.550; -142.000; -112.000
349.044;  208.400;  471.000;  448.000
349.178;  258.125;-1069.000;-1006.000
349.311;  130.125;  141.000;  255.000
349.444;   -9.650; -927.000; -813.000
349.578;   -4.500; -347.000; -200.000
349.711;  -69.625; -959.000; -862.000
349.845;   25.775; -661.000; -591.000
349.978; -130.975;-1224.000;-1137.000
350.111;  -74.275; -546.000; -612.000
350.244;  -49.925; -596.000; -700.000
350.378;   34.550; -392.000; -393.000
350.511;  -56.650; -393.000; -426.000
350.644; -101.975; -808.000; -806.000
350.778;   -2.550;  168.000;  104.000
350.911;   10.950;  134.000;  140.000
351.044;  -81.100; -685.000; -615.000
351.177;  -10.275; -321.000; -281.000
351.310;  -13.150;    3.000; -131.000
351.444;  -52.000; -888.000; -788.000
351.577;  162.550;  140.000;   90.000
351.710;  108.400;  593.000;  417.000
351.843;  -11.525; -165.000;  -77.000
351.976;    2.075;  149.000;  -79.000
352.109;  -86.025; -621.000; -612.000
352.242;   -9.350; -464.000; -419.000
352.376;  -26.300; -580.000; -636.000
352.509;  264.400; -437.000; -356.000
352.642;   73.150; -654.000; -604.000
352.775;   77.950; -141.000;  -98.000
352.908; -100.825; -933.000; -904.000
353.041;  -97.775; -814.000; -824.000
353.174;  -51.400; -551.000; -424.000
353.307;  -76.100; -753.000; -764.000
353.440;   72.425;  541.000;  453.000
353.573;  -96.375; -957.000;-1008.000
353.706;   -4.750; -384.000; -558.000
353.839;   -7.525; -264.000; -220.000
353.971;  -79.825; -657.000; -512.000
354.104;  -59.300; -896.000; -835.000
354.237;  -14.050; -627.000; -662.000
354.370;  -69.725; -846.000; -879.000
354.503; -158.025;-1231.000;-1308.000
354.636;  -14.875; -529.000; -348.000
354.769; -101.925; -937.000; -860.000
354.902;    8.150; -230.000; -139.000
355.034;  -21.675; -164.000; -220.000
355.167;   -3.000; -262.000; -162.000
355.300;  -86.275;-1061.000; -880.000
355.433;  880.150;  -71.000;  -14.000
355.565; 1375.950; -402.000; -384.000
355.698;  349.575; -356.000; -296.000
355.831;   29.675; -882.000; -801.000
355.964;  134.650; -285.000; -170.000
356.096;  -58.300; -856.000; -843.000
356.229;   34.300; -523.000; -530.000
356.362;  299.600; -373.000; -266.000
356.494;  546.750; -229.000; -162.000
356.627;  599.550;  269.000;  377.000
356.760;  644.575;  120.000;   53.000
356.892;  878.600; -286.000; -601.000
357.025;  842.025;  403.000;  389.000
357.157;  816.225; -167.000; -179.000
357.290;  547.725; -856.000; -713.000
357.423;  202.625; -667.000; -556.000
357.555;  153.350; -217.000; -228.000
357.688;  167.500; -483.000; -364.000
357.820;  578.200; -870.000; -877.000
357.953; 4419.250; -563.000; -589.000
358.085; 1080.700; -632.000; -612.000
358.218; 1684.575;-1131.000; -932.000
358.350;  302.450;  -58.000;  312.000
358.483;  -91.950;-1300.000;-1187.000
358.615;   53.975;-1182.000;-1078.000
358.747;    0.325;-1187.000;-1058.000
358.880;   77.125; -810.000; -744.000
359.012;   13.075; -376.000; -202.000
359.145;  -19.350; -480.000; -511.000
359.277;  130.200; -962.000; -913.000
359.409; 3657.775;  536.000;  231.000
359.542; 1036.000; -738.000; -688.000
359.674;   85.600;   46.000;   13.000
359.806;  -48.950; -565.000; -438.000
359.939;  -47.200; -617.000; -516.000
360.071;  -23.300; -583.000; -579.000
360.203;  -15.600; -411.000; -364.000
360.335;   66.800;  164.000;  -16.000
360.468;  247.650; -249.000; -307.000
360.600; 2883.575; -547.000; -454.000
360.732; 2550.200; -546.000; -423.000
360.864;  389.600;-1216.000;-1044.000
360.996;  416.525; -516.000; -554.000
361.129;   95.375; -389.000; -598.000
361.261;   40.325;  110.000; -113.000
361.393;   -8.900; -252.000; -214.000
361.525;   27.775;   94.000;  244.000
361.657;   -5.525; -821.000; -703.000
361.789;   22.550; -139.000; -155.000
361.921;  370.950; -642.000; -593.000
362.053;  341.100;  524.000;  541.000
362.185;   71.325;  288.000;   72.000
362.318;  -46.675; -709.000; -705.000
362.450;  185.900;  294.000;  444.000
362.582;  245.325; -913.000; -870.000
362.714;  -17.975; -353.000; -332.000
362.846;  -77.225; -606.000; -490.000
362.978; -136.650; -941.000; -811.000
363.109;   83.875; -161.000; -260.000
363.241;  598.950; -739.000; -749.000
363.373;  415.775; -649.000; -564.000
363.505;  566.475; -186.000;  -91.000
363.637;  154.375; -787.000; -601.000
363.769; -117.250;-1067.000;-1080.000
363.901;  -51.675; -596.000; -654.000
364.033;  -96.025;-1103.000;-1062.000
364.165;   20.750; -283.000; -283.000
364.296;   91.125; -316.000; -177.000
364.428;   56.625;-1344.000;-1220.000
364.560;  -57.900; -679.000; -661.000
364.692;  -51.275; -738.000; -835.000
364.824;  428.625; -588.000; -456.000
364.955;  473.800; -402.000; -564.000
365.087;  749.275;-1097.000; -852.000
365.219;   30.600; -686.000; -816.000
365.351;  -56.450; -526.000; -572.000
365.482;   62.325;  300.000;  240.000
365.614;  -33.000; -402.000; -314.000
365.746;  -88.000; -729.000; -752.000
365.877;  -91.775; -706.000; -672.000
366.009;  214.625;  -35.000;  -62.000
366.141;  -95.225;-1249.000;-1134.000
366.272;  -97.750; -803.000; -719.000
366.404; -108.450;-1005.000; -874.000
366.535;   -6.400; -139.000;  -12.000
366.667;  -82.025; -644.000; -649.000
366.799;   34.275;  353.000;  203.000
366.930; -103.900; -862.000; -996.000
367.062;  123.425; -639.000; -613.000
367.193;  119.450; -872.000; -842.000
367.325;  -56.275; -580.000; -684.000
367.456;  103.800; -246.000;   31.000
367.588;  137.675; -371.000; -318.000
367.719;   36.450;  -44.000;  -45.000
367.851;   -3.775; -222.000; -241.000
367.982;  -26.350; -875.000; -732.000
368.113;  141.100; -475.000; -358.000
368.245;  -90.250; -960.000; -841.000
368.376;  -12.325; -254.000; -302.000
368.508;  -14.950; -188.000; -263.000
368.639; -129.775;-1166.000;-1034.000
368.770;   16.950; -670.000; -589.000
368.902;  -24.200; -836.000; -926.000
369.033;  -87.525; -906.000; -855.000
369.164;  -55.700; -720.000; -653.000
369.296; -103.125; -452.000; -601.000
369.427;   18.550; -209.000; -144.000
369.558;  -23.525; -593.000; -377.000
369.689;  -61.450; -721.000; -569.000
369.821; -115.200; -951.000; -845.000
369.952;  -22.925;   42.000; -108.000
370.083;  -29.825; -229.000; -108.000
370.214;  -77.900; -735.000; -650.000
370.345;    8.475;   65.000;   81.000
370.477;  -55.350; -810.000; -790.000
370.608;  323.025; -328.000; -264.000
370.739;    4.600;-1233.000;-1292.000
370.870;   10.925;-1102.000; -923.000
371.001;  139.875; -378.000; -467.000
371.132;  -45.425; -754.000; -735.000
371.263;  -17.200;  -42.000; -148.000
371.394; -116.050; -841.000; -748.000
371.525;   49.450;  345.000;  225.000
371.657;  -89.575; -808.000; -670.000
371.788;   99.625;  103.000;  199.000
371.919;  264.400; -384.000; -304.000
372.050; 4605.575;  -91.000; -156.000
372.181; 1454.075; -188.000; -294.000
372.311;  509.950;   42.000; -127.000
372.442;  109.925; -457.000; -451.000
372.573;   -9.000; -444.000; -340.000
372.704; -106.350;-1008.000; -980.000
372.835;  120.975; -228.000; -289.000
372.966;  -41.875; -646.000; -554.000
373.097;  -41.875; -575.000; -711.000
373.228;   11.050; -717.000; -542.000
373.359;  232.750; -824.000; -536.000
373.490; 1269.575; -881.000; -727.000
373.620; 1624.800;-1001.000; -803.000
373.751; 2389.775; -332.000; -396.000
373.882; 1126.875; -663.000; -733.000
374.013;  131.475; -449.000; -262.000
374.143;  -13.500; -581.000; -659.000
374.274;  -62.325; -987.000; -908.000
374.405;  228.050; -388.000; -276.000
374.536;  617.775; -526.000; -387.000
374.666; 1564.600; -759.000; -807.000
374.797;  358.450; -817.000; -868.000
374.928; 1210.725; -710.000; -560.000
375.058; 1225.650; -535.000; -500.000
375.189;  126.425;  -59.000;  -93.000
375.320;  -77.950; -928.000;-1034.000
375.450;  -22.100; -625.000; -616.000
375.581;  -31.100; -526.000; -436.000
375.712;  -13.475; -574.000; -250.000
375.842;  459.375; -438.000; -415.000
375.973;  344.750; -554.000; -513.000
376.103;   -0.075; -665.000; -648.000
376.234;  -67.850; -531.000; -552.000
376.364;   25.150; -944.000; -867.000
376.495;  409.525;  925.000;  529.000
376.625;   43.275; -472.000; -485.000
376.756;  127.475; -709.000; -678.000
376.886;  -15.075;-1178.000;-1026.000
377.017;   25.900;-1048.000;-1061.000
377.147;  300.500; -786.000; -782.000
377.278;   51.250;  174.000;  228.000
377.408; -102.525; -801.000; -815.000
377.538; -105.300; -707.000; -693.000
377.669;  -73.250; -537.000; -613.000
377.799;  -65.575; -645.000; -635.000
377.929;  -25.050; -610.000; -428.000
378.060; -114.700; -781.000; -847.000
378.190;  -63.375; -726.000; -531.000
378.320;  -34.425; -401.000; -406.000
378.451;   -1.875; -131.000;  -22.000
378.581;    6.050;  -67.000; -110.000
378.711;  166.725; 1035.000;  866.000
378.841;   18.975; -533.000; -675.000
378.972;  -47.750; -871.000; -751.000
379.102;   19.750; -652.000; -579.000
379.232;   -2.650; -126.000;  -73.000
379.362;  -70.025;-1001.000; -885.000
379.492;   42.725; -373.000; -424.000
379.623;  149.250;    0.000;  111.000
379.753;  -75.000;-1107.000; -974.000
379.883;  242.750;   59.000;  156.000
380.013;   66.675;-1081.000;-1017.000
380.143;  -76.050;-1097.000;-1056.000
380.273;  -76.875; -985.000; -861.000
380.403;   -0.025; -344.000; -257.000
380.533;    2.000; -651.000; -664.000
380.663;   95.425;  173.000;  128.000
380.793;  -54.450;-1027.000;-1074.000
380.923;    1.675; -103.000;  -34.000
381.053;  -85.300; -613.000; -623.000
381.183;  -20.050; -106.000; -248.000
381.313;   97.275; -656.000; -470.000
381.443;   89.050; -692.000; -473.000
381.573;  305.500; -402.000; -409.000
381.703;  472.675;-1249.000;-1095.000
381.833;  -77.200;-1454.000;-1336.000
381.963;  137.850; -134.000;  -87.000
382.093; 1775.725; -925.000; -909.000
382.223;  595.900; -713.000; -602.000
382.353;   39.225; -801.000; -608.000
382.482;  551.775;-1091.000; -964.000
382.612; 1018.375; -872.000; -644.000
382.742;  585.000; -695.000; -622.000
382.872;  425.175; -565.000; -551.000
383.002;   94.175;  347.000; -132.000
383.131;   -5.575; -226.000; -160.000
383.261;  -15.825; -706.000; -768.000
383.391;  295.250; -552.000; -377.000
383.521; 2761.325;  451.000;  263.000
383.650;  658.675; -947.000; -904.000
383.780;  -11.050; -783.000; -656.000
383.910;  126.175;  880.000;  802.000
384.039;   69.775; -794.000; -656.000
384.169;  363.750;-1205.000;-1017.000
384.299;   23.925; -650.000; -662.000
384.428;  -72.250; -764.000; -680.000
384.558;  -42.325; -308.000; -275.000
384.687;   -4.250; -414.000; -334.000
384.817;   45.925;   75.000;   -2.000
384.947;   58.800; -234.000; -141.000
385.076;  366.525;  982.000;  912.000
385.206;  128.975;  369.000;  480.000
385.335;  -10.025; -549.000; -417.000
385.465;  -42.375; -655.000; -663.000
385.594;  176.200;  -53.000;  -44.000
385.724;  642.000; -868.000; -838.000
385.853;  185.025; -296.000; -270.000
385.982; 1767.425; -743.000; -787.000
386.112; 2915.975;-1052.000; -871.000
386.241;  240.475; -307.000; -312.000
386.371;   44.925; -174.000;  -87.000
386.500;   55.400; -825.000; -789.000
386.629;   58.475; -874.000; -817.000
386.759;   85.100;  -43.000;   68.000
386.888;   21.525; -170.000; -250.000
387.017;  -50.050; -648.000; -620.000
387.147;  -60.875; -771.000; -798.000
387.276;   39.475; -410.000; -397.000
387.405;   53.250; -398.000; -342.000
387.535;  -17.525; -452.000; -361.000
387.664;  -45.750; -692.000; -620.000
387.793;  106.225; -198.000; -113.000
387.922;  699.650;  255.000;  200.000
388.052;   89.000; -576.000; -423.000
388.181;   59.450; -342.000; -472.000
388.310;   95.050; -889.000; -710.000
388.439;    0.350; -749.000; -742.000
388.568;  235.875;  365.000;  244.000
388.697; 1434.975; -756.000; -653.000
388.826;  346.775; -768.000; -666.000
388.956;  109.700; -285.000; -307.000
389.085;  -11.950; -347.000; -287.000
389.214;  -90.625; -842.000; -872.000
389.343;  -47.675; -645.000; -413.000
389.472;  361.925;  126.000;  149.000
389.601;  550.375;   91.000;    0.000
389.730;   49.800; -568.000; -687.000
389.859;   81.175;  226.000;   46.000
389.988;  259.850; -423.000; -408.000
390.117;  208.500; -168.000; -146.000
390.246;   18.125; -331.000; -320.000
390.375;  194.600; -673.000; -626.000
390.504;  -24.650; -703.000; -621.000
390.633;  -66.625; -672.000; -726.000
390.761;  -34.150; -732.000; -645.000
390.890;   48.100;   -4.000; -130.000
391.019;   -1.300; -421.000; -441.000
391.148; -114.200; -826.000; -855.000
391.277;  -51.025; -576.000; -493.000
391.406;  -38.025; -821.000; -805.000
391.534;   28.700;  574.000; -301.000
391.663;  -43.025; -583.000; -645.000
391.792;  -58.850; -673.000; -701.000
391.921;  148.925;   -3.000;   15.000
392.050;  288.375; -287.000; -228.000
392.178;   30.775;-1206.000;-1061.000
392.307;  214.950; -758.000; -712.000
392.436;  126.150; -427.000; -641.000
392.564;   29.700;  166.000;   -6.000
392.693;  -72.500; -860.000; -682.000
392.822;  320.200; -529.000; -534.000
392.950;  176.500; -880.000; -714.000
393.079;  462.225; -188.000; -328.000
393.208;   74.050; -488.000; -511.000
393.336;    0.625; -170.000; -145.000
393.465;  -21.100; -317.000; -199.000
393.593;   -3.125;   62.000;   79.000
393.722; -141.150;-1121.000; -916.000
393.850;  -20.400; -188.000;  -61.000
393.979; -144.900; -926.000; -805.000
394.107;  -67.650; -517.000; -537.000
394.236;    5.275; -570.000; -507.000
394.364;  256.225;  383.000;  206.000
394.493;  521.600; -911.000; -767.000
394.621;   13.550; -955.000; -916.000
394.750;  642.925; -873.000; -923.000
394.878; 2625.525; -247.000; -149.000
395.007; 3696.075; -721.000; -807.000
395.135;  299.450; -790.000; -721.000
395.263;  -73.025;-1038.000;-1040.000
395.392;    7.400;  -25.000; -107.000
395.520; -130.200; -818.000; -679.000
395.648;  -53.225; -865.000; -915.000
395.777;   21.900; -366.000; -405.000
395.905;  -29.550; -449.000; -564.000
396.033;   33.050;  217.000;  172.000
396.162;  760.850; -399.000; -453.000
396.290;  740.425;  -17.000;   -2.000
396.418;  176.050; -555.000; -514.000
396.546;  -43.425; -571.000; -466.000
396.674;  -92.625; -850.000; -878.000
396.803;   27.225;  -72.000;  -23.000
396.931;  141.975; -179.000; -199.000
397.059;  142.275;-1026.000; -989.000
397.187;  -82.800;-1026.000; -975.000
397.315; -125.150; -884.000; -649.000
397.443;  -90.150; -592.000; -443.000
397.572;  -97.900; -578.000; -424.000
397.700;   44.550; -607.000; -614.000
397.828;   50.825;  120.000;  -90.000
397.956;  -38.450; -508.000; -478.000
398.084;  -68.700; -767.000; -626.000
398.212;   44.800;  137.000;  124.000
398.340;   33.750;  -56.000;  159.000
398.468;  102.525; -390.000; -169.000
398.596; -121.300; -993.000; -953.000
398.724;  -97.075; -762.000; -767.000
398.852; -159.325;-1024.000; -976.000
398.980;  -49.375; -560.000; -560.000
399.108;  -26.425; -982.000; -735.000
399.236;   60.825;   13.000;    8.000
399.363;    1.875;  222.000;  196.000
399.491;  -67.325; -404.000; -398.000
399.619; -109.225; -829.000; -800.000
399.747;  -95.475; -859.000; -771.000
399.875;   99.200;  220.000;  234.000
400.003;  -57.850; -359.000; -284.000
400.130;  -87.575; -421.000; -341.000
400.258;  -17.350;  -83.000;   38.000
400.386;  -66.550; -352.000; -168.000
400.514;  -33.175; -526.000; -587.000
400.641;  -52.725; -928.000; -802.000
400.769; -124.025; -979.000; -888.000
400.897;  -76.050; -838.000; -793.000
401.025;   13.600; -166.000; -152.000
401.152;    0.300;  220.000;   38.000
401.280;  -81.350; -430.000; -429.000
401.408; -112.000; -712.000; -576.000
401.535;  -93.950; -735.000; -758.000
401.663; -187.450;-1134.000;-1054.000
401.790;  -82.450; -514.000; -525.000
401.918;   48.100;  436.000;  405.000
402.046;  -35.225;  134.000;  122.000
402.173;  -37.250;  -18.000;    7.000
402.301;  -63.775; -519.000; -397.000
402.428;   44.650;  528.000;  383.000
402.556; -141.775;-1188.000; -913.000
402.683;  -20.825;  -20.000;   -1.000
402.811;  -20.500;  -37.000; -206.000
402.938;    4.300;   20.000;   27.000
403.066;  268.625; -574.000; -558.000
403.193;  456.600;  299.000;  239.000
403.321;  357.325; -396.000; -574.000
403.448;  431.325;   83.000;   27.000
403.575;  204.050;  -90.000;  -46.000
403.703;  -86.425; -732.000; -557.000
403.830;  -65.550; -531.000; -496.000
403.957; -132.675;-1117.000;-1023.000
404.085;   22.125;  -61.000; -172.000
404.212;  120.750;  -50.000;   63.000
404.339;  247.275; -566.000; -306.000
404.467; 5131.400; -612.000; -524.000
404.594; 3927.775; -287.000; -227.000
404.721; 1107.600; -869.000; -764.000
404.848;   97.050; -113.000; -202.000
404.976;  -86.450; -856.000; -783.000
405.103;    0.000;  -14.000;  -82.000
405.230;    5.875;  190.000;  226.000
405.357;   37.650;  117.000;   44.000
405.484;  234.900;  -49.000;    5.000
405.612;   61.975; -548.000; -563.000
405.739;  -60.525; -488.000; -243.000
405.866;   90.025;  669.000;  385.000
405.993;  -40.700; -398.000; -102.000
406.120; -119.200; -801.000; -887.000
406.247;  -45.650; -323.000; -342.000
406.374;  592.725;  540.000;  629.000
406.501;  239.650; -632.000; -702.000
406.628;  -69.400; -621.000; -589.000
406.755;  -79.275; -803.000; -620.000
406.882;  -34.275; -228.000; -277.000
407.009;  -90.600; -719.000; -628.000
407.136;   80.375; -480.000; -401.000
407.263;  269.625; -939.000; -829.000
407.390;  -55.550; -692.000; -614.000
407.517; -148.225;-1139.000;-1187.000
407.644;  -54.825; -332.000; -256.000
407.771;  -58.425; -249.000; -287.000
407.898;    3.375;  168.000;  328.000
408.025;  -61.225; -421.000; -313.000
408.151;  -16.725;   82.000;  153.000
408.278;  -65.600; -267.000; -216.000
408.405; -106.375; -931.000; -899.000
408.532;  -49.425; -549.000; -542.000
408.659; -110.850; -677.000; -648.000
408.785; -187.475;-1298.000;-1170.000
408.912;  -65.700; -412.000; -296.000
409.039; -105.875; -610.000; -686.000
409.166; -112.700; -591.000; -555.000
409.292; -114.100; -571.000; -534.000
409.419; -119.825; -665.000; -649.000
409.546; -100.750; -431.000; -192.000
409.672; -113.700; -713.000; -545.000
409.799;  -14.150;  -36.000;   34.000
409.926;  -25.075; -180.000; -179.000
410.052; -136.400;-1127.000;-1091.000
410.179;  -57.775; -368.000; -392.000
410.305;  -92.400; -375.000; -493.000
410.432;  -29.825; -220.000; -333.000
410.558;  -84.625; -305.000; -380.000
410.685; -111.925; -688.000; -431.000
410.812;  -94.000; -409.000; -588.000
410.938; -139.125; -964.000; -808.000
411.065;  -73.575; -671.000; -645.000
411.191;  -19.625; -189.000; -174.000
411.317; -111.650; -823.000; -742.000
411.444;  -64.725; -317.000; -246.000
411.570;  -61.450; -339.000; -294.000
411.697; -128.050; -758.000; -752.000
411.823; -159.825; -989.000; -999.000
411.949;  -11.550;  -56.000;   17.000
412.076; -108.500; -539.000; -519.000
412.202; -107.225; -758.000; -757.000
412.329; -111.350; -798.000; -752.000
412.455; -112.225; -821.000; -657.000
412.581;   -8.825;  -15.000;  172.000
412.707;  -54.050; -540.000; -457.000
412.834;   22.200;  156.000;  219.000
412.960;  -78.300; -785.000; -784.000
413.086;  -93.275; -743.000; -701.000
413.212;  188.250;  604.000;  578.000
413.339;  -24.000; -685.000; -701.000
413.465;   30.750; -364.000; -310.000
413.591;  -65.625; -757.000; -474.000
413.717;  -40.375; -358.000; -366.000
413.843; -129.100; -839.000; -861.000
413.969;  -40.650;  -47.000; -292.000
414.096; -104.925; -679.000; -679.000
414.222;    3.875;  -33.000;   85.000
414.348;    1.025; -652.000; -385.000
414.474;  150.775;   38.000;  -52.000
414.600;   -8.100; -126.000; -144.000
414.726;  -13.475;  -96.000;  -55.000
414.852;  -58.750; -365.000; -342.000
414.978;   21.925;  104.000;  -18.000
415.104;   53.300;   38.000;   80.000
415.230;   27.550; -329.000; -330.000
415.356;   55.550; -409.000; -514.000
415.482;  219.025;   13.000;  -35.000
415.608;  267.025; -247.000; -323.000
415.734;  923.500;   67.000;   38.000
415.860;18465.475; -875.000; -767.000
415.986;14509.725; -685.000; -607.000
416.111; 1279.000; -798.000; -652.000
416.237;  249.100; -424.000; -571.000
416.363;  941.025; -765.000; -733.000
416.489; 3824.100; -324.000; -251.000
416.615;  450.650; -707.000; -742.000
416.741;  -30.350; -677.000; -784.000
416.866;  -84.500; -673.000; -736.000
416.992; -118.350; -801.000; -818.000
417.118;  -16.125;  -41.000;  -80.000
417.244;  -53.725; -798.000; -531.000
417.369;  -72.775; -801.000; -612.000
417.495;   18.075; -325.000; -254.000
417.621;  -58.775;-1015.000; -803.000
417.746;   13.500; -579.000; -572.000
417.872;   45.475; -254.000; -144.000
417.998;   40.225; -515.000; -530.000
418.123;  881.575;-1073.000; -845.000
418.249; 4934.850; -512.000; -601.000
418.374;  778.775; -916.000; -824.000
418.500;   97.025; -383.000; -482.000
418.626;  102.650;   70.000;  -59.000
418.751;  127.625; -549.000; -448.000
418.877;  185.800; -637.000; -643.000
419.002; 1535.500; -688.000; -560.000
419.128;11429.000; -930.000; -721.000
419.253; 3024.225; -967.000; -837.000
419.379;  387.950; -391.000; -338.000
419.504;  374.950;  325.000;  415.000
419.629;  472.850; -393.000; -212.000
419.755; 2899.875; -317.000; -254.000
419.880;18375.475;  -98.000;   67.000
420.006;10368.050; -280.000; -221.000
420.131;27797.625; -662.000; -775.000
420.256; 4403.475; -315.000; -316.000
420.382;  584.350; -665.000; -687.000
420.507;   79.600; -649.000; -778.000
420.632;  188.200; -337.000; -339.000
420.758;  392.475; -251.000; -425.000
420.883;  -51.025; -876.000; -672.000
421.008; -102.100; -775.000; -619.000
421.133;  -86.600; -509.000; -467.000
421.259;  -44.225; -325.000; -259.000
421.384;  -83.550; -834.000; -693.000
421.509;  -10.375;-1052.000; -862.000
421.634; 1674.825; -936.000; -820.000
421.759;  800.175; -359.000; -327.000
421.885;   -8.875; -717.000; -656.000
422.010;  -60.450; -673.000; -542.000
422.135; -138.100; -695.000; -727.000
422.260;   38.675;  340.000;  280.000
422.385;  -31.475;   12.000;  -98.000
422.510;   14.750;  151.000;  -26.000
422.635;   40.425;  -87.000;  -43.000
422.760;  130.425; -766.000; -791.000
422.885;   80.500;  -57.000;  -80.000
423.010;  -34.675; -112.000; -169.000
423.135;  -98.650; -481.000; -561.000
423.260;    3.800; -150.000; -245.000
423.385;   90.325;  476.000;  222.000
423.510;   40.650;   71.000;  -22.000
423.635;  124.475;  133.000;   45.000
423.760;   56.725;  383.000;  328.000
423.885;   55.825;  336.000;  391.000
424.010;   13.125;  -68.000;  -13.000
424.135;  -10.650;    5.000;  -33.000
424.259;  -96.800; -654.000; -457.000
424.384;  -61.100; -279.000; -272.000
424.509;  -12.600; -260.000; -186.000
424.634;  -94.200; -761.000; -623.000
424.759;   -8.900; -688.000; -544.000
424.883;  -13.175; -506.000; -527.000
425.008;  149.375; -502.000; -410.000
425.133; 1844.525; -679.000; -653.000
425.258;  939.475; -517.000; -381.000
425.382; 1207.650; -867.000; -774.000
425.507; 3353.275; -487.000; -543.000
425.632;  557.400; -802.000; -663.000
425.756;  408.475; -256.000; -146.000
425.881; 5243.025; -831.000; -857.000
426.006;15165.575; -604.000; -355.000
426.130; 2707.800; -696.000; -508.000
426.255;  329.375; -611.000; -491.000
426.379;  148.825; -189.000; -577.000
426.504;  341.125;  660.000;  544.000
426.629; 3771.725; -519.000; -466.000
426.753; 2800.375;   64.000;  -46.000
426.878;  332.475; -252.000; -288.000
427.002;  180.150; -651.000; -668.000
427.127; 1439.325;  -35.000; -158.000
427.251;10359.275;  372.000;  401.000
427.375; 3298.250; -191.000; -173.000
427.500; 2799.075; -616.000; -610.000
427.624; 1058.975; -234.000; -400.000
427.749;  141.300; -216.000; -225.000
427.873;   -4.625; -499.000; -412.000
427.997;  -34.725; -222.000; -230.000
428.122;   69.325;  795.000;  703.000
428.246;  104.675;  433.000;  434.000
428.371; -108.275; -869.000; -773.000
428.495;  -93.850; -624.000; -646.000
428.619;  -17.200; -186.000; -117.000
428.743;   41.100;   65.000;  132.000
428.868;   48.375; -732.000; -643.000
428.992; 1768.825; -219.000; -326.000
429.116;  801.350; -329.000; -357.000
429.240;  381.650;  419.000;  426.000
429.365;    8.000; -454.000; -574.000
429.489;  -31.875; -638.000; -647.000
429.613;   32.150; -236.000; -177.000
429.737;   26.250; -563.000; -432.000
429.861;  255.600; -247.000; -133.000
429.985; 4950.475; -425.000; -305.000
430.109; 5912.600; -770.000; -908.000
430.234;  722.525;   76.000;  -50.000
430.358;   70.900; -250.000; -160.000
430.482;  -54.975; -672.000; -564.000
430.606;  -44.000; -655.000; -375.000
430.730;   44.475; -437.000; -388.000
430.854;  242.025; -909.000; -835.000
430.978;  -49.425; -795.000; -764.000
431.102;  -73.050; -499.000; -422.000
431.226;  -90.450; -874.000; -815.000
431.350;   46.825;  345.000;  422.000
431.474;  -64.650; -661.000; -373.000
431.597; -141.025;-1060.000; -848.000
431.721;  -89.950; -276.000; -267.000
431.845; -124.250; -704.000; -472.000
431.969;  -74.500; -304.000; -349.000
432.093;  -97.275; -395.000; -317.000
432.217;  -14.850;   32.000;   82.000
432.341;  -84.150; -523.000; -518.000
432.464;   24.125;   96.000;   40.000
432.588;  313.075; -401.000; -329.000
432.712;  162.800;  -52.000;  -52.000
432.836;   40.300;  213.000;  263.000
432.959;  -22.050; -372.000; -311.000
433.083;   62.875;   11.000;    2.000
433.207;  343.300;  285.000;  930.000
433.330; 4380.825; -391.000; -200.000
433.454; 5781.250; -654.000; -638.000
433.578; 3344.900;  583.000;  278.000
433.701;  681.400; -623.000; -675.000
433.825;  219.325; -292.000; -299.000
433.949;  288.800;   28.000;  -72.000
434.072;  133.800; -410.000; -323.000
434.196;   -6.475; -309.000; -117.000
434.319; 3573.975;25482.000;25124.000
434.443;  717.200; -656.000; -603.000
434.566; 2463.500;  281.000;   62.000
434.690;  460.850; -637.000; -383.000
434.813;   61.675; -251.000; -173.000
434.937;  -67.625; -569.000; -696.000
435.060;  -16.950; -423.000; -332.000
435.184;  511.925; -492.000; -217.000
435.307;  304.725;  159.000;  102.000
435.431;    4.275;  -40.000;   24.000
435.554;  -76.375; -399.000; -240.000
435.677;  -97.300; -350.000; -258.000
435.801;  -51.275;  -25.000;   49.000
435.924;    1.725;    1.000;  -67.000
436.048;  -70.125;-1019.000; -732.000
436.171;  -67.050; -240.000;  -66.000
436.294;  -29.700; -248.000; -229.000
436.417;   67.750; -963.000; -849.000
436.541;  -80.325; -814.000; -840.000
436.664;  -52.975; -242.000; -316.000
436.787;  -17.250;   13.000;  113.000
436.910; -100.875; -792.000; -422.000
437.034;   26.125;  142.000;  143.000
437.157;   88.775;  -11.000;    0.000
437.280;  -22.225; -392.000; -292.000
437.403;  -50.250; -982.000; -869.000
437.526;  908.025; -903.000; -865.000
437.649; 3367.300; -505.000; -332.000
437.772;  610.650; -692.000; -540.000
437.896;  159.075;  700.000;  544.000
438.019;  -75.300; -758.000; -503.000
438.142;  -70.950; -596.000; -506.000
438.265;   15.900; -639.000; -670.000
438.388;  823.700; -520.000; -410.000
438.511;  221.850; -597.000; -394.000
438.634;  -26.225; -247.000; -125.000
438.757; -115.525; -693.000; -619.000
438.880;  -17.400;  -34.000;  -57.000
439.003;  -59.775; -417.000; -437.000
439.126;  -74.200; -287.000; -167.000
439.248;  -62.875;  -98.000; -139.000
439.371;  -45.250;    9.000;  -53.000
439.494;   29.500;  510.000;  439.000
439.617;  -61.275;   65.000;  -88.000
439.740; -176.150; -968.000; -816.000
439.863; -141.600; -755.000; -595.000
439.986; -108.600; -476.000; -431.000
440.108;  -38.450; -161.000; -112.000
440.231; -150.400; -950.000; -836.000
440.354;  -40.400;  -64.000; -150.000
440.477;   91.100; -566.000; -542.000
440.599;   50.475; -200.000; -225.000
440.722; -111.400; -709.000; -586.000
440.845;   63.825;  751.000;  928.000
440.968; -120.175; -415.000; -311.000
441.090;  -73.775; -199.000;  -33.000
441.213; -159.850;-1021.000; -825.000
441.336;  -61.550; -159.000;   -5.000
441.458;  -72.025; -549.000; -396.000
441.581;  -65.925; -628.000; -629.000
441.703;  -61.250; -152.000;   13.000
441.826; -115.700; -557.000; -400.000
441.948;  -60.875;   56.000;   51.000
442.071;   17.150;  555.000;  424.000
442.193; -115.200; -531.000; -485.000
442.316;   32.525;  152.000;   97.000
442.438;   42.250; -233.000;  -10.000
442.561;   71.675;  272.000;  262.000
442.683;  767.475; -809.000; -522.000
442.806; 1716.425;   -8.000;   74.000
442.928;  130.550; -859.000; -604.000
443.051;  -43.375; -577.000; -373.000
443.173;  -94.150; -341.000; -339.000
443.295;  -81.950; -263.000; -371.000
443.418;  -53.650; -321.000;  -29.000
443.540;   16.300; -106.000;   -4.000
443.662; -104.300; -563.000; -465.000
443.785;  -17.650;  335.000;  199.000
443.907;  -85.325; -362.000; -208.000
444.029; -139.850; -767.000; -494.000
444.152; -143.900; -644.000; -554.000
444.274;  -34.050;  -18.000;  -24.000
444.396;  -97.900; -461.000; -221.000
444.518; -135.700; -691.000; -454.000
444.640; -114.000; -268.000; -111.000
444.763;  -15.975;  388.000;  249.000
444.885; -114.950; -432.000; -392.000
445.007;  -29.975;   35.000;   86.000
445.129;  -97.100; -610.000; -515.000
445.251;  -95.050; -372.000; -439.000
445.373; -128.300; -537.000; -386.000
445.495;    2.150;  242.000;  350.000
445.617;   60.275;  853.000;  753.000
445.739;  -54.625; -215.000;  -97.000
445.861;  -23.375; -245.000; -112.000
445.984;  -25.525; -267.000; -101.000
446.105;  282.375; -418.000; -251.000
446.227;  860.425; -176.000;  -19.000
446.349;   79.350; -358.000; -249.000
446.471;  -80.825; -615.000; -448.000
446.593;  -59.025; -316.000;   19.000
446.715;   17.375;  -67.000;   41.000
446.837;   57.500;  697.000;  832.000
446.959;  -91.050; -457.000; -478.000
447.081; -131.150; -628.000; -518.000
447.203;   38.975;  862.000;  834.000
447.325;  -82.600; -270.000;   42.000
447.446;  -15.000;  286.000;  530.000
447.568; -141.650; -921.000; -803.000
447.690;  -73.650; -236.000; -245.000
447.812; -143.825; -798.000; -519.000
447.933;  -26.125;  155.000;  127.000
448.055;  -67.975; -306.000; -261.000
448.177;  193.375;   31.000;   79.000
448.299;  186.375; -935.000; -727.000
448.420;   37.600;  -25.000;  159.000
448.542;  -52.775;   -3.000;   33.000
448.664;  -21.175;  109.000;  322.000
448.785;  -20.000;  265.000;   83.000
448.907;  -67.425; -614.000; -353.000
449.028;  -12.875; -771.000; -471.000
449.150;   64.625;  492.000;  589.000
449.272; -171.950;-1044.000; -913.000
449.393;   22.500;  612.000;  694.000
449.515; -136.675; -634.000; -581.000
449.636;  -53.700; -264.000; -155.000
449.758;   98.875;  763.000;  622.000
449.879;  -87.300; -498.000; -396.000
450.001;  -71.500; -149.000;  -49.000
450.122;  -45.025;  -95.000;  162.000
450.244;  -30.775;   37.000;  364.000
450.365;  -86.025; -495.000; -301.000
450.486;  -38.025;   80.000;  268.000
450.608;   -0.050;  393.000;  326.000
450.729;   58.225;  578.000;  645.000
450.850;  -11.925; -574.000; -466.000
450.972;  576.500; -552.000; -389.000
451.093; 4221.450;  190.000;  588.000
451.214; 2021.400; -516.000; -337.000
451.336;  384.125;  773.000;  579.000
451.457;   43.000;  264.000;  393.000
451.578;  -33.575; -118.000;  -74.000
451.699; -121.750; -546.000; -540.000
451.821;  -52.200; -284.000;  -50.000
451.942;   -8.975;  278.000;  285.000
452.063;   22.500;  228.000;  419.000
452.184;  453.250;  -54.000;  -49.000
452.305; 1031.925;  103.000;  170.000
452.427;  145.825; -549.000; -301.000
452.548;  -15.150;   23.000;   79.000
452.669;  -47.850; -257.000;  -89.000
452.790;  -39.775;    3.000;  -18.000
452.911;   -5.325;  195.000;  259.000
453.032;  -63.450; -289.000;  -60.000
453.153;  -31.850;  -29.000;   81.000
453.274;   50.350;  737.000;  868.000
453.395;  -34.650;  -51.000;  175.000
453.516;  129.225; 1317.000; 1388.000
453.637;  -51.200; -205.000; -150.000
453.758;  -46.250;   15.000;   69.000
453.879; -114.525; -462.000; -250.000
454.000;   65.550; 1086.000;  948.000
454.121;  -99.300; -554.000; -326.000
454.242; -104.300; -599.000; -383.000
454.362;  -56.475;  -99.000;  114.000
454.483;  -30.175; -309.000; -229.000
454.604;   48.750;  512.000;  580.000
454.725; -114.775; -627.000; -555.000
454.846; -125.400; -474.000; -406.000
454.967;  -24.275;  230.000;  539.000
455.087;  -42.125;  179.000;  153.000
455.208;   19.375;  554.000;  856.000
455.329;  -51.075;  -22.000;   82.000
455.450;   32.975;  473.000;  633.000
455.570;  -64.775; -234.000; -211.000
455.691;  -36.775;  201.000;  407.000
455.812; -114.375; -270.000;  -92.000
455.932;  -70.650;  107.000;  -97.000
456.053;  -74.400;   36.000;   24.000
456.173; -120.400; -433.000; -355.000
456.294; -137.450; -476.000; -303.000
456.415;  -77.075;  -73.000;   70.000
456.535;  -36.900;  297.000;  273.000
456.656;  -48.225;  132.000;  240.000
456.776;  -76.300;    3.000;  298.000
456.897;  -10.250;  308.000;  513.000
457.017;  -74.775; -153.000;   -3.000
457.138;  -99.000; -402.000; -249.000
457.258;  -23.750;  263.000;  224.000
457.379;   -2.075;  509.000;  521.000
457.499;  -38.525;  443.000;  432.000
457.620; -121.750; -407.000; -231.000
457.740;  -82.750; -132.000;  -11.000
457.860;  -61.700;   87.000;   44.000
457.981;  -34.800;  132.000;  124.000
458.101;  -58.975;  -89.000;   40.000
458.221;  -16.250;  336.000;  402.000
458.342;  -59.975;   -4.000;  -37.000
458.462;   13.050;  617.000;  352.000
458.582;  -40.100; -302.000; -294.000
458.703;   -5.325;  303.000;  154.000
458.823;  -27.750;   22.000;  163.000
458.943;   36.000;  341.000;  467.000
459.063;  -10.150; 1124.000;  192.000
459.183;  -20.650;  328.000;  313.000
459.304;    3.800;  315.000;  517.000
459.424;  -71.825; -246.000;  -89.000
459.544;  277.675;  388.000;  764.000
459.664;  767.250;  499.000;  506.000
459.784;  313.925; 1004.000; 1175.000
459.904;   49.700;  867.000;  744.000
460.024;   63.425;  867.000;  684.000
460.144;    9.175;  449.000;  554.000
460.264;    0.925;  515.000;  327.000
460.385;  -85.775; -145.000; -119.000
460.505;   30.300;  905.000;  858.000
460.625;  -94.250;  -17.000;  -68.000
460.745;  -23.200;  396.000;  541.000
460.864;  -40.350;  153.000;  469.000
460.984;   13.350;  499.000;  573.000
461.104;  146.625; 1656.000; 1775.000
461.224;   18.275;  657.000;  650.000
461.344;  -29.000;  431.000;  360.000
461.464;  -26.925;  258.000;  513.000
461.584;  -16.100;  283.000;  466.000
461.704;  -39.150;   58.000;  108.000
461.824;  -45.400;  238.000;  259.000
461.943;  -37.525;  191.000;  130.000
462.063;  -58.975;    2.000;  324.000
462.183;   33.500;  639.000;  717.000
462.303;  117.550; 1678.000; 1230.000
462.422;   27.175;  781.000;  840.000
462.542;  -40.225;  271.000;  391.000
462.662;   36.250;  353.000;  380.000
462.782;  213.800;  833.000;  572.000
462.901;  457.600;  545.000;  717.000
463.021;  288.000; 1702.000; 1638.000
463.141;   -3.050;  337.000;  770.000
463.260;  -20.725;  614.000;  474.000
463.380;   20.100;  902.000;  884.000
463.499;  -40.500;  342.000;  332.000
463.619;  -37.675;  581.000;  559.000
463.738;  108.125; 1644.000;  903.000
463.858;    9.850;  657.000;  811.000
463.978;  -30.750;  542.000;  396.000
464.097;   47.525;  921.000; 1114.000
464.217;  101.175; 1196.000; 1143.000
464.336;  104.825; 1068.000; 1130.000
464.455;  -24.775;  328.000;  659.000
464.575;   61.550;  597.000;  602.000
464.694;  195.375; 1204.000; 1179.000
464.814;  141.475; 1190.000; 1138.000
464.933;   75.325; 1095.000; 1027.000
465.052;  107.525; 1412.000; 1054.000
465.172;   93.175;  922.000;  799.000
465.291;  149.475; 1376.000; 1320.000
465.410;   18.725;  462.000;  735.000
465.530;   71.500; 1355.000; 1310.000
465.649;   75.650; 1209.000; 1273.000
465.768;  144.175; 1673.000; 1508.000
465.888;   57.125;  941.000; 1174.000
466.007;   93.825; 1335.000; 1440.000
466.126;    0.150;  721.000;  641.000
466.245;   52.075; 1176.000; 1187.000
466.364;   10.775;  950.000; 1060.000
466.484;   71.925; 1024.000; 1213.000
466.603;   39.375; 1101.000; 1222.000
466.722;  111.075; 1490.000; 1769.000
466.841;   83.075; 1151.000; 1401.000
466.960;   20.650; 1069.000;  972.000
467.079;  127.700; 1971.000; 1786.000
467.198;   49.000; 1238.000; 1181.000
467.317;   87.900; 1768.000; 1162.000
467.436;   77.175; 1709.000; 1261.000
467.555;  119.325; 1796.000; 1746.000
467.674;   56.025; 1227.000; 1329.000
467.793;   41.250; 1376.000; 1374.000
467.912;   81.575; 1658.000; 1539.000
468.031;  144.750; 2038.000; 1930.000
468.150;  151.800; 1842.000; 1837.000
468.269;  217.325; 2313.000; 2090.000
468.388;  198.075; 2168.000; 2339.000
468.507;  263.975; 2884.000; 2903.000
468.626;  259.650; 2555.000; 2541.000
468.744;  140.425; 2018.000; 2174.000
468.863;  194.175; 2312.000; 2523.000
468.982;  113.250; 1503.000; 1555.000
469.101;  216.050; 2788.000; 2692.000
469.220;  167.200; 2333.000; 2176.000
469.338;  239.825; 2935.000; 3051.000
469.457;  191.950; 2719.000; 2545.000
469.576;  344.950; 3953.000; 3784.000
469.695;  260.225; 2877.000; 3066.000
469.813;  417.850; 4148.000; 4192.000
469.932;  414.350; 4255.000; 4485.000
470.051;  414.050; 4075.000; 4161.000
470.169;  776.575; 4470.000; 4338.000
470.288; 1373.900; 4700.000; 4809.000
470.406;  864.625; 5059.000; 5194.000
470.525;  623.925; 6101.000; 5787.000
470.644;  657.825; 6847.000; 6794.000
470.762;  811.125; 8397.000; 7873.000
470.881;  893.850; 8651.000; 8464.000
470.999; 1023.500; 9685.000; 9151.000
471.118; 1100.725;11174.000;10711.000

