
Integration time [ms]: 100.000
Averaging Nr. [scans]: 40
Smoothing Nr. [pixels]: 0
Data measured with spectrometer [name]: 2101012U2
Wave   ;Sample   ;Dark     ;Reference
[nm]   ;[counts] ;[counts] ;[counts] 

197.733;   63.750;  516.000;  404.000
197.879;  -83.850; -610.000; -634.000
198.025;  -57.225; -475.000; -420.000
198.171;  -69.625; -602.000; -612.000
198.317;  -34.275; -401.000; -316.000
198.463;  -72.500; -655.000; -404.000
198.609;   14.675;  181.000; -137.000
198.755;  -75.075; -644.000; -410.000
198.901;  -64.950; -505.000; -424.000
199.047;  -76.550; -615.000; -488.000
199.193;  -43.450; -230.000; -468.000
199.339;  -48.900; -222.000; -369.000
199.485;   35.750;  330.000;  271.000
199.631;   34.975;  227.000;  310.000
199.777;  -54.750; -466.000; -398.000
199.923;  -65.950; -610.000; -424.000
200.069;  -18.500; -141.000;  -58.000
200.215;   52.675;  128.000;  453.000
200.361;   48.900;  243.000;  477.000
200.507;  -72.725; -600.000; -373.000
200.653;  -24.725; -371.000; -194.000
200.798;  -43.525; -215.000; -125.000
200.944;  -19.275; -146.000;  -41.000
201.090;   33.375;   61.000;  222.000
201.236;    8.200; -116.000; -158.000
201.382;  115.450;  874.000;  903.000
201.528;    3.725;  -58.000;  -48.000
201.674;  -51.750; -386.000; -293.000
201.819;  -68.050; -540.000; -439.000
201.965;  -81.725; -699.000; -447.000
202.111;  -25.100; -273.000; -226.000
202.257;  -41.850; -250.000; -238.000
202.402;    2.675;   13.000;  -36.000
202.548;  -37.975; -169.000; -116.000
202.694;   84.750;  410.000; -183.000
202.840;  -79.950; -603.000; -531.000
202.985;  -87.500; -681.000; -639.000
203.131; -109.125; -832.000; -666.000
203.277;  -15.125; -199.000; -262.000
203.423;  -51.600; -434.000; -520.000
203.568;  -37.700; -462.000; -237.000
203.714;  -60.000; -535.000; -542.000
203.860;  -75.700; -682.000; -641.000
204.005;   23.750;  112.000;  167.000
204.151;   74.250;  561.000;  556.000
204.296;  -55.825; -354.000; -221.000
204.442;  -70.375; -600.000; -547.000
204.588;  -74.700; -592.000; -579.000
204.733;   14.250;  178.000;  168.000
204.879; -141.275;-1018.000; -822.000
205.025;    9.100;  -99.000;  126.000
205.170;    4.425;  -17.000;   94.000
205.316;   78.400;  438.000;  661.000
205.461;  -82.625; -698.000; -554.000
205.607;   92.600;  609.000;  665.000
205.752;  -80.700; -626.000; -551.000
205.898;  -55.050; -501.000; -391.000
206.043;  -62.750; -578.000; -506.000
206.189;  -49.375; -243.000; -285.000
206.334;   67.800;  554.000;  606.000
206.480;   76.025;  409.000;  239.000
206.625;  -97.125; -529.000; -552.000
206.771;  -46.225; -451.000; -373.000
206.916;  -42.850; -210.000; -537.000
207.062;  -62.100; -545.000; -591.000
207.207;  -61.725; -546.000; -443.000
207.353;   57.300;  185.000;  460.000
207.498;   10.200;  196.000;   85.000
207.643;  -53.275; -501.000; -370.000
207.789; -130.825;-1069.000; -910.000
207.934;  -98.325; -665.000; -713.000
208.080;  -20.275; -154.000;   66.000
208.225;   -8.500;  -22.000;  -57.000
208.370;  -91.050; -727.000; -619.000
208.516;  -82.325; -741.000; -487.000
208.661;  -30.150; -127.000;  -69.000
208.806;  -38.025; -165.000; -171.000
208.952; -135.175;-1044.000; -731.000
209.097;   78.575;  378.000;  349.000
209.242;  -43.925; -307.000; -382.000
209.387;   68.125;  392.000;  350.000
209.533;  -43.075; -321.000; -350.000
209.678;   83.025;  472.000;  543.000
209.823;  -65.275; -408.000; -310.000
209.969; -105.425; -860.000; -757.000
210.114; -103.050; -907.000; -719.000
210.259; -114.125; -939.000; -889.000
210.404;   -9.825; -171.000;  103.000
210.549;   13.650;  108.000;    3.000
210.695;   -8.725;   -3.000;  -95.000
210.840;   32.500;   94.000;   67.000
210.985;  -55.300; -484.000; -303.000
211.130;   65.575;  268.000;  406.000
211.275;   25.675;  207.000;  199.000
211.420;  -47.625; -300.000; -289.000
211.566;  -78.050; -536.000; -489.000
211.711;   18.600;  218.000;  157.000
211.856;  -76.175; -545.000; -519.000
212.001;    9.075;  151.000;   44.000
212.146;   15.275;  153.000;   49.000
212.291;  -27.975; -210.000; -186.000
212.436;  -20.775; -280.000;   -6.000
212.581;  -91.350; -685.000; -653.000
212.726;  -78.075; -487.000; -538.000
212.871;  -65.200; -552.000; -217.000
213.016; -153.175;-1172.000;-1029.000
213.161;   54.350;  406.000;  291.000
213.306;  -76.300; -435.000; -577.000
213.451; -101.950; -778.000; -689.000
213.596;  -48.125; -455.000; -347.000
213.741;  -56.850; -448.000; -538.000
213.886;  -68.525; -498.000; -517.000
214.031;  -27.525; -294.000; -124.000
214.176;  -56.875; -408.000; -341.000
214.321;  -20.100; -296.000; -157.000
214.466;  -30.050; -163.000;  -43.000
214.611;   -4.875;  -61.000;  -10.000
214.756; -127.550; -948.000; -858.000
214.901;  -33.775; -388.000; -226.000
215.046; -117.925; -797.000; -825.000
215.191;   14.275;  128.000;   35.000
215.336;  -21.450; -157.000;  -19.000
215.480;  -73.400; -684.000; -505.000
215.625;  -20.725; -175.000;  -19.000
215.770;  -97.275; -757.000; -662.000
215.915;  -12.725;   -5.000;  -97.000
216.060;  -14.875; -113.000;  -21.000
216.205; -124.150; -731.000; -779.000
216.349;  -81.375; -470.000; -533.000
216.494; -145.025; -939.000; -867.000
216.639; -118.775; -823.000; -888.000
216.784;  -94.850; -577.000; -525.000
216.929;   45.250;  392.000;  281.000
217.073;   -9.200; -244.000;  -31.000
217.218;    2.550;   78.000;  -47.000
217.363;  -89.250; -656.000; -618.000
217.507;  -77.725; -623.000; -588.000
217.652; -123.850; -845.000; -874.000
217.797; -111.300; -708.000; -659.000
217.942; -109.475; -856.000; -720.000
218.086;   70.925;  608.000;  539.000
218.231;  -13.975; -174.000;  -26.000
218.376;  -38.875; -337.000; -229.000
218.520;  -12.800;  -41.000;   96.000
218.665;  -25.025; -338.000; -204.000
218.810;  -40.575; -275.000; -233.000
218.954;   16.425;  201.000;   35.000
219.099; -104.850; -713.000; -963.000
219.243;  -75.250; -589.000; -554.000
219.388;  -19.950; -264.000; -136.000
219.532;  -18.250; -116.000; -116.000
219.677;  -83.625; -564.000; -521.000
219.822;    9.425;   33.000;   89.000
219.966;  -14.250;   17.000;  -99.000
220.111;  -31.475; -328.000;  -40.000
220.255;  -94.050; -797.000; -750.000
220.400;  -19.150; -180.000; -146.000
220.544;  -65.875; -516.000; -450.000
220.689;  -57.175; -422.000; -451.000
220.833;  -23.925; -123.000;  -58.000
220.978;  -52.100; -393.000; -563.000
221.122;   28.375;  319.000;  307.000
221.267; -125.125; -906.000; -837.000
221.411;  -58.300; -478.000; -394.000
221.555;   -1.000; -104.000;  -23.000
221.700;  -58.800; -329.000; -222.000
221.844;   43.250;  255.000;  272.000
221.989;  -53.925; -328.000; -311.000
222.133;  -49.925; -289.000; -307.000
222.277;   -3.700;    5.000;   78.000
222.422;   18.175;  227.000;  113.000
222.566;  -32.700; -381.000; -214.000
222.711;  -60.750; -414.000; -479.000
222.855;  -78.650; -643.000; -586.000
222.999;  -78.075; -642.000; -717.000
223.144;  -44.475; -195.000; -194.000
223.288;   53.850;  423.000;  251.000
223.432;   24.000;  184.000;  230.000
223.576;   18.750;  152.000;  -21.000
223.721;   34.325;  364.000;  273.000
223.865;  -58.475; -472.000; -475.000
224.009;  260.500; 1673.000; 1631.000
224.153;  -88.925; -660.000; -671.000
224.298;  -69.475; -531.000; -489.000
224.442;  -23.300;  -74.000;  -33.000
224.586;  -14.625; -169.000; -106.000
224.730; -105.825; -858.000; -670.000
224.875; -127.900; -739.000; -688.000
225.019;   25.400;  102.000;  188.000
225.163;   47.450;  208.000;  341.000
225.307;   22.575;   97.000;  -91.000
225.451;   28.925;  360.000;  481.000
225.595;   33.550;  264.000;  176.000
225.739;  -22.300; -170.000;  -94.000
225.884;   -6.600;   86.000;    5.000
226.028; -101.900; -760.000; -626.000
226.172;  -47.225; -260.000; -273.000
226.316; -125.750; -941.000; -902.000
226.460;  -70.800; -645.000; -493.000
226.604;  -55.850; -406.000; -400.000
226.748;  -95.175; -836.000; -733.000
226.892;  -39.700; -227.000; -181.000
227.036;  -63.075; -537.000; -447.000
227.180;  -64.625; -551.000; -375.000
227.324;  -67.050; -561.000; -580.000
227.468; -118.225; -819.000; -717.000
227.612;   10.900;  242.000;  -28.000
227.756; -115.425; -845.000; -698.000
227.900;   61.500;  342.000;  441.000
228.044;  -60.275; -509.000; -290.000
228.188;   51.525;  448.000;  568.000
228.332;  -91.000; -546.000; -472.000
228.476;  -32.275; -223.000; -149.000
228.620;  -26.350; -210.000; -150.000
228.764;   65.200;  431.000;  349.000
228.908;  -25.250; -155.000;   30.000
229.052;  -73.925; -615.000; -528.000
229.195;  -17.025; -172.000;   13.000
229.339;  -25.125; -235.000; -305.000
229.483;  -28.575;    5.000; -162.000
229.627;  -12.100; -156.000;  139.000
229.771;  -56.600; -218.000; -294.000
229.915;   -1.475;  230.000;   79.000
230.059;  -89.675; -648.000; -663.000
230.202;  -42.525; -370.000; -317.000
230.346;  -16.475; -107.000;  107.000
230.490;  -63.200; -489.000; -521.000
230.634; -114.975; -736.000; -553.000
230.777;   66.775;  478.000;  509.000
230.921;  -66.700; -450.000; -359.000
231.065;  -47.175; -246.000; -286.000
231.209;   25.800;  261.000;  265.000
231.352;    2.050;   54.000;   40.000
231.496;    8.175;  568.000;  188.000
231.640;  -81.600; -693.000; -621.000
231.783;   50.050;  546.000;  525.000
231.927;  -49.200; -294.000; -365.000
232.071; -126.800; -962.000; -736.000
232.214; -113.275; -980.000; -764.000
232.358; -114.300; -683.000; -599.000
232.502;    3.825;  -19.000;    7.000
232.645; -135.575;-1090.000; -927.000
232.789;  -20.875; -257.000; -218.000
232.933;  -56.250; -407.000; -224.000
233.076; -128.600;-1038.000; -897.000
233.220; -104.950; -752.000; -777.000
233.363;  -67.225; -669.000; -477.000
233.507;   57.675;  371.000;  129.000
233.650; -103.125; -764.000; -834.000
233.794;   48.025;  438.000;  461.000
233.938;  -62.250; -530.000; -362.000
234.081;  -22.025;  -93.000;   31.000
234.225;  -80.600; -631.000; -539.000
234.368; -116.300; -773.000; -723.000
234.512;  -38.350; -385.000; -299.000
234.655;  -94.225; -582.000; -555.000
234.798;  -62.050; -493.000; -466.000
234.942; -139.425; -884.000;-1002.000
235.085;  -70.175; -651.000; -443.000
235.229;  -73.625; -405.000; -410.000
235.372;  -43.475; -247.000; -191.000
235.516;  -73.425; -397.000; -321.000
235.659;   18.275;   92.000;  121.000
235.802;  -27.575;  -38.000;  -22.000
235.946;   31.525;  335.000;  215.000
236.089;   25.950;  126.000;  250.000
236.233;   46.425;  275.000;  298.000
236.376;  -57.100; -235.000; -378.000
236.519;  -41.025; -297.000; -319.000
236.663;  -37.850; -215.000; -117.000
236.806; -139.125;-1029.000; -999.000
236.949;   75.025;  543.000;  431.000
237.092;   58.325;  412.000;  391.000
237.236;  -96.625; -589.000; -502.000
237.379;   61.225;  352.000;  428.000
237.522; -127.775; -879.000; -768.000
237.666;  -24.425; -271.000;   18.000
237.809; -123.200; -851.000; -823.000
237.952;   37.100;  469.000;  271.000
238.095;  -85.050; -447.000; -442.000
238.238;   84.500;  688.000;  700.000
238.382;   -7.900;  166.000;  103.000
238.525;  -63.200; -598.000; -511.000
238.668; -137.975;-1060.000; -985.000
238.811;  -77.750; -638.000; -643.000
238.954;  -66.725; -483.000; -334.000
239.097;   92.350;  617.000;  664.000
239.241;   23.300;  394.000;  326.000
239.384;  -35.200; -254.000; -214.000
239.527;  -63.800; -424.000; -224.000
239.670; -145.725; -994.000;-1091.000
239.813; -115.000; -696.000; -658.000
239.956;   74.175;  579.000;  473.000
240.099; -118.875; -778.000; -725.000
240.242;   62.725;  428.000;  432.000
240.385;   45.125;  466.000;  450.000
240.528;  -67.150; -706.000; -473.000
240.671;    8.625;  189.000;  134.000
240.814;  -52.900; -441.000; -158.000
240.957; -103.700; -767.000; -578.000
241.100; -109.475; -779.000; -755.000
241.243; -153.350;-1234.000; -893.000
241.386;  -52.600; -508.000; -379.000
241.529; -103.625; -735.000; -547.000
241.672;  -66.500; -566.000; -495.000
241.815; -120.100; -832.000; -808.000
241.958;  -22.400; -125.000; -182.000
242.101;  -87.000; -545.000; -390.000
242.244;  -42.575; -270.000; -325.000
242.387;  -48.925; -304.000; -246.000
242.530;   40.425;  470.000;  134.000
242.673;  -48.175; -381.000; -309.000
242.815; -112.975; -925.000; -899.000
242.958;  -71.125; -482.000; -381.000
243.101;    9.825;  132.000;  187.000
243.244;  -83.525; -564.000; -521.000
243.387;  -62.925; -313.000; -316.000
243.530; -101.925; -657.000; -674.000
243.672;  -12.925;   43.000;  -92.000
243.815;  -51.475; -355.000; -283.000
243.958;    4.225;   98.000;  -26.000
244.101;   -6.975;   59.000;  -16.000
244.243;  -17.600;  -47.000;  101.000
244.386; -114.575; -761.000; -630.000
244.529;  -19.300; -132.000; -139.000
244.672; -147.525;-1154.000; -951.000
244.814;  -89.900; -621.000; -794.000
244.957;  -44.525; -380.000; -304.000
245.100;  -79.925; -489.000; -489.000
245.242;  -58.325; -387.000; -374.000
245.385;   -8.675;  -59.000;  -39.000
245.528; -126.400; -871.000; -705.000
245.670;   91.275;  612.000;  634.000
245.813;  -84.175; -599.000; -547.000
245.956;  -30.000; -324.000; -275.000
246.098;  -78.375; -508.000; -650.000
246.241;  -13.100;  194.000;   48.000
246.383;  -28.375; -119.000;  -73.000
246.526;  -64.850; -454.000; -525.000
246.669; -123.675; -889.000; -780.000
246.811;   18.300;  172.000;   -1.000
246.954;  -66.125; -512.000; -426.000
247.096;  -23.950;  -84.000;   -6.000
247.239;  -66.325; -482.000; -445.000
247.381;  -78.575; -647.000; -488.000
247.524;   75.075;  645.000;  679.000
247.666;  -10.325;   58.000;   11.000
247.809; -107.350; -887.000; -691.000
247.951;   -3.875;  -75.000;  138.000
248.094;   33.850;  432.000;  308.000
248.236; -159.350;-1262.000;-1238.000
248.378;   -8.800; -356.000;  -81.000
248.521;  -26.700; -334.000; -337.000
248.663;  -44.000; -236.000; -267.000
248.806;  -25.650; -300.000; -266.000
248.948; -102.625; -886.000; -763.000
249.090;  -40.000; -428.000; -398.000
249.233;  -56.375; -344.000; -381.000
249.375;  -61.175; -474.000; -451.000
249.518;  -25.650;  -83.000; -133.000
249.660;   -3.175; -103.000;    3.000
249.802; -174.700;-1303.000;-1189.000
249.945;  -77.725; -612.000; -540.000
250.087; -127.950; -834.000; -768.000
250.229;  -44.525; -362.000; -480.000
250.371;  -74.700; -494.000; -439.000
250.514;  -54.400; -310.000; -244.000
250.656;  -51.950;   69.000;  102.000
250.798; -120.100; -849.000; -800.000
250.940;  -75.450; -322.000; -322.000
251.083;  -19.200; -335.000; -111.000
251.225;   49.500;  338.000;  310.000
251.367;  -48.850; -274.000; -373.000
251.509;  -33.550; -265.000; -210.000
251.651; -105.500; -731.000; -671.000
251.794;   46.175;  538.000;  632.000
251.936; -118.600; -821.000; -747.000
252.078;  -74.850; -540.000; -461.000
252.220;  -79.450; -645.000; -477.000
252.362;   88.400;  344.000;  462.000
252.504;  -67.050; -677.000; -584.000
252.646; -115.975; -875.000; -722.000
252.788;    6.650;   14.000; -128.000
252.931;  -45.350; -257.000; -253.000
253.073;  -49.075; -376.000; -317.000
253.215;  -10.700;  141.000;  122.000
253.357;   -8.925;   82.000; -153.000
253.499;  -53.450; -374.000; -234.000
253.641;  -83.300; -749.000; -594.000
253.783; -104.800; -609.000; -527.000
253.925;  -90.250; -586.000; -591.000
254.067; -110.475; -744.000; -667.000
254.209;  -34.850; -391.000; -259.000
254.351; -141.475; -865.000; -883.000
254.493;  -75.900; -441.000; -417.000
254.635; -126.775; -936.000; -818.000
254.777;  -96.250; -752.000; -687.000
254.918;  -72.400; -512.000; -430.000
255.060;  -62.550; -551.000; -395.000
255.202;  -49.775; -473.000; -261.000
255.344;  -83.575; -658.000; -455.000
255.486;  -76.525; -471.000; -406.000
255.628; -119.750; -780.000; -781.000
255.770;  -91.900; -676.000; -536.000
255.912;  -69.050; -559.000; -468.000
256.053;  -86.875; -730.000; -508.000
256.195;  149.050; 1008.000;  903.000
256.337; -114.725; -861.000; -595.000
256.479;   50.925;  532.000;  416.000
256.621;  -48.050; -394.000; -212.000
256.762;  -99.000; -789.000; -742.000
256.904;   56.800;  485.000;  487.000
257.046;  -51.450; -381.000; -271.000
257.188;  -56.600; -351.000; -264.000
257.329;  -71.450; -525.000; -464.000
257.471; -120.400; -939.000; -807.000
257.613;  -63.325; -584.000; -498.000
257.755; -142.950;-1073.000; -982.000
257.896;   28.175;  286.000;  392.000
258.038;  -73.425; -403.000; -352.000
258.180;  -38.425; -354.000; -279.000
258.321;  -87.200; -581.000; -457.000
258.463;    0.425;  -71.000;  133.000
258.605;  -93.900; -562.000; -570.000
258.746; -112.025; -886.000; -772.000
258.888; -150.750;-1026.000;-1020.000
259.029;   -3.725;  121.000;   -8.000
259.171; -102.850; -614.000; -550.000
259.313;   -7.100;  -49.000;  -47.000
259.454;  -82.400; -536.000; -414.000
259.596;  -65.350; -483.000; -390.000
259.737;  -80.425; -590.000; -474.000
259.879;   29.625;  217.000;  311.000
260.020;   74.550;  901.000;  636.000
260.162;  -27.750; -146.000; -253.000
260.303; -124.975; -768.000; -687.000
260.445;  -90.500; -609.000; -613.000
260.586;    6.375;  392.000;  157.000
260.728;  -55.275; -360.000; -248.000
260.869; -114.575; -350.000; -343.000
261.011;   71.825;  706.000;  537.000
261.152;  -62.125; -479.000; -319.000
261.293;  -83.525; -576.000; -595.000
261.435;  -44.400; -219.000; -184.000
261.576;  -57.200; -455.000; -325.000
261.718;   69.700;  420.000;  470.000
261.859; -128.075; -940.000; -949.000
262.000; -131.300; -951.000;-1016.000
262.142;  -33.925;  -52.000;  -60.000
262.283; -121.400; -808.000; -691.000
262.424; -104.850; -666.000; -625.000
262.566; -153.950;-1161.000; -983.000
262.707; -106.100; -840.000; -830.000
262.848; -120.950; -769.000; -726.000
262.990;  -40.825; -362.000; -345.000
263.131;   76.525;  650.000;  681.000
263.272;  -13.525;  -61.000;  -41.000
263.413; -104.225; -589.000; -561.000
263.555;  -73.700; -669.000; -143.000
263.696;  -95.750; -550.000; -641.000
263.837;  -61.600; -449.000; -551.000
263.978;   -1.500;   -5.000;  -77.000
264.119;  -60.250; -283.000; -264.000
264.261; -127.525; -847.000; -630.000
264.402;   -7.000;   33.000;   40.000
264.543;  -82.400; -509.000; -524.000
264.684;  -13.325;   61.000;  -50.000
264.825;  -75.650; -816.000; -538.000
264.966;    0.175;  -84.000;  -67.000
265.107; -114.125; -646.000; -670.000
265.248; -128.775; -825.000; -812.000
265.390;  -19.000;  152.000;   -9.000
265.531;  -25.900; -238.000; -107.000
265.672;  -90.850; -557.000; -630.000
265.813;   64.100;  563.000;  439.000
265.954; -145.725; -959.000; -940.000
266.095;  -16.325; -372.000; -322.000
266.236; -101.400; -686.000; -548.000
266.377;  -48.375; -243.000; -297.000
266.518;  -85.175; -619.000; -547.000
266.659;   22.725;  170.000;  268.000
266.800;   -3.900;   83.000;   85.000
266.941;  -84.525; -487.000; -478.000
267.082;   11.075;  354.000;   99.000
267.223;  -56.550; -344.000; -273.000
267.364; -126.800; -892.000; -686.000
267.504;  -17.150;    3.000;  135.000
267.645;   -1.825;  160.000;   67.000
267.786;  -42.850; -147.000;  -86.000
267.927;  -79.625; -473.000; -379.000
268.068;  -10.525; -186.000;  -61.000
268.209;  -51.475; -175.000; -413.000
268.350;  -57.575; -388.000; -532.000
268.490;  -93.650; -648.000; -521.000
268.631;   29.125;  127.000;  225.000
268.772; -115.300; -874.000; -647.000
268.913;  -51.500; -328.000; -476.000
269.054;  -22.850; -117.000;   12.000
269.194;  -53.525; -418.000; -402.000
269.335; -158.675;-1137.000;-1074.000
269.476;  -27.000;   33.000;  -35.000
269.617;  -42.725; -347.000; -392.000
269.757;  -98.775; -713.000; -646.000
269.898;  -96.800; -856.000; -613.000
270.039;  -80.300; -415.000; -405.000
270.180; -142.725; -952.000; -816.000
270.320;  -27.850; -190.000; -250.000
270.461;  -54.500; -277.000; -249.000
270.602;  -22.325; -186.000; -156.000
270.742; -121.600; -868.000; -943.000
270.883;  -65.300; -442.000; -390.000
271.023;  -59.800; -358.000; -357.000
271.164;  -73.150; -607.000; -528.000
271.305;  -99.450; -666.000; -654.000
271.445;  -90.650; -722.000; -683.000
271.586;  -62.450; -462.000; -283.000
271.726;  -47.050; -397.000; -322.000
271.867;  -58.050; -594.000; -534.000
272.008;  155.400; -473.000; -285.000
272.148;  120.750;  462.000;  468.000
272.289;    5.125; -113.000; -181.000
272.429;    9.350;   19.000;  185.000
272.570;  -96.000; -633.000; -737.000
272.710; -115.525; -825.000; -775.000
272.851;  -15.350;  113.000; -130.000
272.991; -159.325;-1173.000;-1077.000
273.131;  -62.625; -419.000; -459.000
273.272; -115.925; -683.000; -723.000
273.412;   -2.750; -143.000;  -31.000
273.553;  -54.875; -488.000; -507.000
273.693;  130.500;  913.000;  858.000
273.834;  -94.575; -894.000; -692.000
273.974;  -64.250; -664.000; -615.000
274.114;  -96.950; -772.000; -560.000
274.255;   78.500;  414.000;  373.000
274.395;   11.525; -180.000; -125.000
274.535;   28.150;  199.000;  350.000
274.676;   11.425;  225.000;   94.000
274.816;   -5.000;  110.000;   34.000
274.956;  -79.275; -624.000; -690.000
275.097;  -73.800;-1014.000; -922.000
275.237; -111.125; -913.000; -803.000
275.377;  -97.975; -778.000; -689.000
275.517; -138.125; -878.000; -937.000
275.658;  -61.500; -590.000; -555.000
275.798;  -71.525; -606.000; -413.000
275.938;   16.500;  215.000;  323.000
276.078; -108.150; -626.000; -395.000
276.218;    3.950;   99.000;  104.000
276.359; -122.950;-1026.000;-1024.000
276.499;  -75.775; -605.000; -446.000
276.639;  -40.625; -305.000; -151.000
276.779;  -57.275; -475.000; -357.000
276.919; -112.750; -783.000; -624.000
277.059;  -15.925; -261.000; -212.000
277.199;  -49.125; -357.000; -259.000
277.340;   41.375;  287.000;  175.000
277.480; -108.650; -840.000; -693.000
277.620;   27.650;  192.000;   16.000
277.760; -193.500;-1533.000;-1294.000
277.900;   12.875;  113.000;   33.000
278.040;   11.550;  137.000;  159.000
278.180;   42.225;  270.000;  170.000
278.320;  -13.450;   21.000;   56.000
278.460;  -72.700; -443.000; -469.000
278.600;  -91.450; -708.000; -598.000
278.740;   50.925;  448.000;  224.000
278.880;  -66.825; -768.000; -791.000
279.020;  -15.825; -194.000; -144.000
279.160;  -95.725; -672.000; -595.000
279.300; -133.825; -926.000; -873.000
279.440;  -89.475; -709.000; -622.000
279.579;  -19.575;-1014.000; -929.000
279.719;  -42.800; -410.000; -394.000
279.859;   79.675;   -4.000;   41.000
279.999;   25.000; -208.000;  101.000
280.139;  -28.350; -435.000; -387.000
280.279;  -78.375; -708.000; -745.000
280.419;  -22.025; -229.000; -147.000
280.559;  -32.050; -259.000; -180.000
280.698;  -78.975; -790.000; -639.000
280.838; -100.100; -778.000; -800.000
280.978; -105.125; -846.000; -790.000
281.118; -104.225; -811.000; -704.000
281.257;   -3.675;   24.000;    6.000
281.397; -134.900;-1094.000; -960.000
281.537;  -98.550; -599.000; -712.000
281.677;  -20.600; -150.000; -101.000
281.816;  -99.375; -700.000; -630.000
281.956;  -42.650; -193.000; -257.000
282.096;  -72.925; -539.000; -396.000
282.235; -119.425; -672.000; -638.000
282.375;  -24.300; -243.000;  -98.000
282.515; -106.875; -715.000; -707.000
282.654;   22.000;   29.000;  106.000
282.794;   14.000;  388.000;  244.000
282.934;  -64.000; -530.000; -491.000
283.073; -141.500;-1030.000; -857.000
283.213;  -62.900; -460.000; -467.000
283.353;  -34.425; -408.000; -349.000
283.492;  -45.025; -264.000; -296.000
283.632;  -70.675; -254.000; -168.000
283.771; -103.950; -859.000; -730.000
283.911;  -47.000; -369.000; -260.000
284.050; -112.875; -794.000; -748.000
284.190; -165.475;-1229.000;-1096.000
284.329; -139.675;-1055.000; -964.000
284.469;  -66.950; -516.000; -591.000
284.608;  -56.425; -559.000; -598.000
284.748;  -90.550; -614.000; -570.000
284.887;  -13.525;  -87.000;  -20.000
285.027; -126.625; -844.000; -892.000
285.166;  -38.125; -192.000; -249.000
285.306;    2.575; -116.000;  -33.000
285.445;  -52.250; -229.000; -343.000
285.584; -108.825; -630.000; -494.000
285.724;  -51.225; -282.000; -322.000
285.863; -117.175; -857.000; -507.000
286.002;  -55.175; -366.000; -276.000
286.142; -107.725; -715.000; -622.000
286.281;  -78.650; -525.000; -493.000
286.420;  -78.050; -554.000; -417.000
286.560;  103.475;  653.000;  623.000
286.699; -147.000; -958.000; -912.000
286.838;  -81.775; -590.000; -591.000
286.978;  -90.150; -533.000; -537.000
287.117; -137.150;-1085.000; -950.000
287.256;  -38.750; -228.000; -211.000
287.395;  -56.825; -197.000; -378.000
287.535;  -70.650; -370.000; -298.000
287.674;  -81.850; -509.000; -484.000
287.813;   46.150;  661.000;  533.000
287.952; -131.925;-1010.000; -871.000
288.091; -152.075;-1049.000; -915.000
288.231;   11.925;   13.000;   15.000
288.370; -181.225;-1217.000;-1200.000
288.509;  -82.525; -728.000; -645.000
288.648;  -94.475; -770.000; -548.000
288.787;  -28.350; -243.000;  -87.000
288.926;  -60.200; -454.000; -475.000
289.065;  120.000;  859.000;  672.000
289.204;  -61.525; -377.000; -217.000
289.344;  -98.075; -791.000; -690.000
289.483;   15.700;  416.000;  304.000
289.622;  -28.450; -291.000; -149.000
289.761;  -20.425; -309.000; -166.000
289.900; -116.375; -785.000; -626.000
290.039;  -17.300;  -12.000;  -95.000
290.178;  -49.350; -274.000; -180.000
290.317;  -78.600; -618.000; -479.000
290.456;  -67.425; -463.000; -451.000
290.595; -144.975; -961.000; -833.000
290.734; -139.250; -904.000; -891.000
290.873;  -73.000; -456.000; -420.000
291.011; -110.675; -833.000; -843.000
291.150;  -94.800; -770.000; -682.000
291.289;  -29.525; -343.000; -110.000
291.428;  -87.475; -599.000; -480.000
291.567;  -62.500; -370.000; -442.000
291.706;   -3.975;  109.000;  154.000
291.845;  -88.475; -597.000; -505.000
291.984; -170.800;-1234.000;-1061.000
292.122;   69.625;  602.000;  582.000
292.261;   42.000;  620.000;  463.000
292.400;   -3.225; -144.000;  211.000
292.539; -137.775; -959.000; -813.000
292.678;  -48.175; -325.000; -300.000
292.816; -158.975;-1136.000; -965.000
292.955;  -91.825; -844.000; -684.000
293.094;  -38.525; -173.000; -337.000
293.233;  -61.275; -556.000; -400.000
293.371;  -30.100; -225.000;  -84.000
293.510; -111.925; -866.000; -780.000
293.649; -140.450; -959.000; -924.000
293.787;  -87.400;-1083.000;-1012.000
293.926;   -2.650; -113.000;  -32.000
294.065;  -46.450; -379.000; -290.000
294.203;   43.575;  298.000;  406.000
294.342;   27.925;   74.000;  156.000
294.481; 5499.325;51180.000; -836.000
294.619;  -32.350; -425.000; -582.000
294.758; -151.825;-1230.000;-1137.000
294.896;   77.100; -125.000;    5.000
295.035; -129.975;-1040.000;-1006.000
295.174; -120.450;-1082.000; -954.000
295.312;  -41.650; -323.000; -203.000
295.451;  -22.425; -307.000; -428.000
295.589;  -58.575; -389.000; -518.000
295.728;   11.675; -292.000; -165.000
295.866;   -1.825;  -36.000;  -51.000
296.005;  -60.100; -584.000; -341.000
296.143;  -63.625; -558.000; -596.000
296.282; -121.750; -957.000; -881.000
296.420;  -87.800; -657.000; -557.000
296.559;  -94.300; -892.000; -633.000
296.697;   14.050; -847.000; -665.000
296.835;   40.150;-1141.000;-1002.000
296.974;   29.950;  -23.000;   39.000
297.112;   -8.200; -443.000; -504.000
297.251;  -81.350; -815.000; -755.000
297.389;   77.575; -576.000; -438.000
297.527;   27.400; -145.000;  -83.000
297.666;  -57.075; -486.000; -438.000
297.804;  -65.375; -404.000; -264.000
297.942;   -4.075; -136.000; -161.000
298.081;  -20.250; -183.000;   63.000
298.219;   75.225;  -17.000;  -19.000
298.357;   38.675; -144.000;  -71.000
298.495;   24.650; -810.000; -812.000
298.634;   78.000;  245.000;  219.000
298.772;   54.975; -220.000; -338.000
298.910;  -44.725; -309.000; -182.000
299.048;  -22.925; -130.000; -153.000
299.187;  -37.075; -350.000; -250.000
299.325;   11.875;   52.000;  122.000
299.463;   31.025; -389.000; -299.000
299.601;  104.475; -327.000; -271.000
299.739; -104.525; -908.000; -883.000
299.877;  -73.150; -791.000; -703.000
300.016;  -49.825;-1095.000; -935.000
300.154;  151.050;  -19.000; -161.000
300.292;   55.975; -428.000; -348.000
300.430;   31.875; -408.000; -291.000
300.568; -123.475; -940.000; -874.000
300.706;  -63.675; -366.000; -469.000
300.844;  -82.625;-1108.000; -979.000
300.982;   96.625;  246.000;  282.000
301.120; -117.900; -965.000; -866.000
301.258;  -85.600; -812.000; -705.000
301.396;   29.575;  104.000;  -41.000
301.534;   65.750; -218.000; -293.000
301.672;   -5.950; -664.000; -521.000
301.810;   25.950; -613.000; -545.000
301.948;  118.650;   53.000;  149.000
302.086;  615.225; -250.000;  -32.000
302.224;  903.425; -610.000; -585.000
302.362;   28.650; -558.000; -622.000
302.500;  -35.325; -923.000; -893.000
302.638;  100.450;  128.000;  245.000
302.776;   -0.725; -352.000; -408.000
302.913;   43.775;  447.000;  236.000
303.051;  -15.925;  -86.000;  -23.000
303.189;   44.575;   90.000;  118.000
303.327;  -38.650; -341.000; -256.000
303.465;  -88.200; -832.000; -588.000
303.603; -101.700; -805.000; -604.000
303.740;   88.850;  417.000;  241.000
303.878;   25.075; -800.000; -759.000
304.016;  -99.850; -915.000; -790.000
304.154; -146.250;-1123.000;-1152.000
304.291;  -34.225; -505.000; -554.000
304.429;    3.275;  102.000;   74.000
304.567; -124.050; -908.000; -893.000
304.705;  -61.125; -408.000; -515.000
304.842;   92.625; -616.000; -540.000
304.980;   63.575;  215.000;   35.000
305.118;   40.325; -367.000; -365.000
305.255;  -76.600; -945.000; -927.000
305.393;   35.150;  178.000;  239.000
305.531; -101.075;-1173.000; -956.000
305.668;  -71.275; -663.000; -582.000
305.806;   88.000; -358.000; -439.000
305.943;   86.250; -629.000; -637.000
306.081;   33.900; -378.000; -267.000
306.219; -104.600; -863.000; -748.000
306.356;    0.500;  158.000;   27.000
306.494;   94.275;  981.000;  761.000
306.631;  -14.300;  -11.000;  -55.000
306.769;    0.000; -613.000; -485.000
306.906;  -13.700; -284.000; -258.000
307.044;  -53.400; -473.000; -488.000
307.181;  -74.175; -410.000; -332.000
307.319;    6.050;  112.000;   87.000
307.456; -184.900;-1191.000;-1153.000
307.594;  -87.550; -980.000; -727.000
307.731;  -27.775; -371.000; -164.000
307.868;   -5.300;  -15.000;   20.000
308.006; -145.200; -961.000; -847.000
308.143;  -77.850; -618.000; -330.000
308.281;  146.950;  -37.000; -254.000
308.418;  -15.625; -748.000; -640.000
308.555;  -68.225; -400.000; -250.000
308.693;  -80.925; -577.000; -573.000
308.830; -121.525; -712.000; -657.000
308.967;  -17.725; -215.000;  -95.000
309.105;  -57.800; -507.000; -396.000
309.242;   25.500; -468.000; -367.000
309.379;  259.175; -577.000; -655.000
309.517;  -82.225; -936.000; -948.000
309.654; -112.675; -910.000; -734.000
309.791;  -70.200; -662.000; -580.000
309.928; -131.650; -977.000; -914.000
310.065;  176.350;  819.000;  697.000
310.203;   -6.950; -825.000; -850.000
310.340;  -13.150; -465.000; -321.000
310.477;  -87.575; -412.000; -516.000
310.614;  -63.775; -383.000; -473.000
310.751;  -78.950; -427.000; -518.000
310.889;  -36.450;    1.000;   11.000
311.026; -157.275;-1161.000; -939.000
311.163;  -54.125; -386.000; -380.000
311.300;  -83.175; -512.000; -479.000
311.437;  -76.725; -658.000; -619.000
311.574; -163.650;-1226.000; -985.000
311.711;  -72.525; -595.000; -433.000
311.848;  -51.675; -380.000; -388.000
311.985;    9.700;  270.000;   93.000
312.122; -127.950; -932.000; -762.000
312.259; -124.475; -941.000; -994.000
312.396;  -81.775; -508.000; -551.000
312.533; -100.725; -812.000; -790.000
312.670; -133.850;-1070.000; -898.000
312.807;  -41.425; -352.000; -367.000
312.944;  -86.050; -513.000; -611.000
313.081;  -39.975; -150.000; -415.000
313.218; -106.975;-1111.000; -867.000
313.355;   -7.800; -531.000; -449.000
313.492;   -5.450; -455.000; -292.000
313.629;  124.475;  815.000;  735.000
313.766; -159.975;-1176.000;-1008.000
313.902;  -20.125; -186.000;   21.000
314.039;  -63.425; -372.000; -289.000
314.176;   26.075;  286.000;  192.000
314.313;  -57.950; -569.000; -473.000
314.450;  -81.300; -788.000; -684.000
314.587;  -55.950; -468.000; -480.000
314.723;   -7.050;  -78.000;  130.000
314.860;   24.575;  318.000;  332.000
314.997;   29.900;  223.000;  142.000
315.134;  -42.050; -385.000; -368.000
315.270;  -30.750; -480.000; -496.000
315.407; -131.550;-1094.000; -967.000
315.544;  -63.375; -657.000; -538.000
315.681;  -65.500; -681.000; -565.000
315.817;   21.650; -133.000; -176.000
315.954;   18.450; -613.000; -392.000
316.091; -134.075;-1045.000;-1023.000
316.227;  -18.275;  -71.000; -179.000
316.364;   14.650;   23.000;    6.000
316.500;  -43.850; -113.000; -300.000
316.637;  -40.900; -181.000; -302.000
316.774;  -83.200; -625.000; -358.000
316.910;  -94.425; -598.000; -629.000
317.047;  -74.325; -487.000; -351.000
317.183;  -54.000; -435.000; -566.000
317.320;  -17.000; -367.000; -321.000
317.456;  -67.425; -733.000; -805.000
317.593; -102.700; -598.000; -641.000
317.729;    2.350;  168.000;  -67.000
317.866; -192.900;-1434.000;-1285.000
318.002;  -88.000; -708.000; -948.000
318.139;  -90.675; -883.000; -867.000
318.275; -114.725;-1003.000; -738.000
318.412;  -69.125; -517.000; -336.000
318.548;  -48.475; -751.000; -720.000
318.685; -101.775; -985.000; -888.000
318.821;  -83.200; -762.000; -735.000
318.957;  -22.700;   34.000;  -23.000
319.094;   38.525;  297.000;  154.000
319.230;  -74.750; -756.000; -742.000
319.367;  111.800; -471.000; -520.000
319.503;   37.450; -538.000; -436.000
319.639;  -97.025; -877.000; -793.000
319.775;  -52.475; -750.000; -685.000
319.912;  -53.325; -424.000; -519.000
320.048;  -76.750;-1184.000;-1184.000
320.184;   71.900;   59.000;   70.000
320.321;  -58.150; -497.000; -467.000
320.457;   48.300;  475.000;  662.000
320.593;  -50.925; -375.000; -382.000
320.729; -110.550; -732.000; -734.000
320.866;  -72.200; -577.000; -635.000
321.002;  -83.900; -759.000; -809.000
321.138;   -7.000; -135.000; -211.000
321.274;   84.575; -148.000; -115.000
321.410;  -28.550; -585.000; -353.000
321.546;  -34.150;-1011.000; -911.000
321.683;   57.975;  400.000;  185.000
321.819;    2.425;  -48.000; -117.000
321.955; -109.850; -743.000; -722.000
322.091;  -41.350; -585.000; -540.000
322.227;  -13.375; -382.000; -202.000
322.363;  -16.800; -320.000; -215.000
322.499;  -60.900; -343.000; -331.000
322.635;  144.675;  636.000;  443.000
322.771;   13.900; -139.000;   12.000
322.907;   84.775;  129.000;  327.000
323.043;  -21.850; -115.000; -206.000
323.179;  -37.225; -394.000; -363.000
323.315;   20.000; -401.000; -371.000
323.451;   97.150; -328.000; -236.000
323.587;   58.250;  -60.000;  -77.000
323.723;   15.550; -682.000; -601.000
323.859;  -12.475; -258.000;  -76.000
323.995;  -42.225; -467.000; -409.000
324.131; -119.975; -967.000; -892.000
324.267;  -40.725; -254.000; -276.000
324.402; -135.425; -960.000; -983.000
324.538;  -23.000; -279.000; -104.000
324.674;   21.325;  164.000;   77.000
324.810;  118.775;  226.000;  308.000
324.946;    4.525; -810.000; -658.000
325.082;  -70.275; -568.000; -475.000
325.217;  -10.425;  -62.000;   16.000
325.353; -109.800; -764.000; -659.000
325.489;  -97.875; -540.000; -506.000
325.625;  -81.600; -579.000; -525.000
325.760;   61.875;  517.000;  376.000
325.896;  -30.225; -515.000; -702.000
326.032;  -63.050; -403.000; -352.000
326.168;  -65.025; -462.000; -369.000
326.303;  -49.100; -352.000; -461.000
326.439;  -37.350; -336.000; -276.000
326.575;  -12.850; -190.000;  -29.000
326.710;    1.100; -156.000;  -30.000
326.846;    2.600;  146.000;  103.000
326.982;  -96.775; -530.000; -548.000
327.117;  -84.200; -481.000; -442.000
327.253;  -83.650; -745.000; -742.000
327.388; -183.575;-1137.000;-1153.000
327.524;  -50.975; -811.000; -578.000
327.659;  -22.525;  -58.000;  -22.000
327.795;   -3.600;   69.000;   45.000
327.931;  -86.050; -723.000; -499.000
328.066;  -24.700; -417.000; -276.000
328.202;  -40.075;   12.000; -129.000
328.337;  102.075;  957.000;  713.000
328.473;   33.675;  -12.000;  -74.000
328.608;  -16.475; -256.000; -267.000
328.743;  -98.300; -799.000; -664.000
328.879;   12.250;  214.000;  114.000
329.014;  -45.225; -102.000; -122.000
329.150;  -89.600; -358.000; -483.000
329.285;  -83.600; -465.000; -466.000
329.421;  -47.550; -548.000; -246.000
329.556;  -29.600;  -36.000;   85.000
329.691;  -92.600; -633.000; -615.000
329.827;  -79.525; -626.000; -480.000
329.962;  -46.275;  131.000; -301.000
330.097;  -93.825; -673.000; -585.000
330.233;  -40.350; -410.000; -223.000
330.368; -128.625; -839.000; -628.000
330.503;  -13.525;    3.000;   98.000
330.638;    0.200;  -93.000; -125.000
330.774;  -58.175; -609.000; -530.000
330.909;  -40.550; -434.000; -244.000
331.044; -101.475; -714.000; -708.000
331.179; -182.100;-1217.000;-1109.000
331.315;    1.025;   77.000;   20.000
331.450;    4.700;  157.000;  285.000
331.585;  -93.900; -805.000; -706.000
331.720;  -83.500; -510.000; -460.000
331.855;   -6.275;  -35.000; -102.000
331.990;  244.625;   62.000;  138.000
332.126;  132.700; -110.000;   71.000
332.261;  -29.825; -379.000; -265.000
332.396;   -4.975; -135.000; -242.000
332.531; -112.275;-1074.000;-1031.000
332.666;   38.150; -519.000; -363.000
332.801; -103.250; -726.000; -807.000
332.936;  -35.725; -192.000; -122.000
333.071; -152.850; -870.000; -817.000
333.206;   15.025;  307.000;  379.000
333.341;   12.325;  344.000;  418.000
333.476;  -79.600; -627.000; -623.000
333.611;  -37.825; -251.000; -173.000
333.746;  -48.450; -381.000; -464.000
333.881; -127.200; -973.000; -935.000
334.016; -127.625; -936.000; -917.000
334.151; -131.050; -746.000; -702.000
334.286;   22.475;  152.000;  186.000
334.421;  -36.300; -125.000; -178.000
334.556;  -84.950; -611.000; -567.000
334.690;  -93.700; -631.000; -577.000
334.825;   43.325;  381.000;   83.000
334.960;  -71.700; -285.000; -413.000
335.095;    9.450;  135.000;  -91.000
335.230; -100.875; -722.000; -738.000
335.365; -141.600;-1084.000; -990.000
335.499; -142.850;-1108.000;-1037.000
335.634;   29.525;    9.000;  534.000
335.769; -111.950; -755.000; -720.000
335.904;  -61.100; -603.000; -561.000
336.038;  -54.925; -735.000; -657.000
336.173; -114.025;-1206.000;-1194.000
336.308;    7.675; -116.000; -189.000
336.443;   12.700; -544.000; -634.000
336.577;  -76.125; -936.000; -787.000
336.712;   66.225;   -4.000;  -12.000
336.847;  -48.275; -724.000; -607.000
336.981;   62.250; -272.000; -208.000
337.116;  287.625;  615.000;  501.000
337.250;  140.925; -434.000; -421.000
337.385;  238.200; -297.000; -208.000
337.520;   90.700; -632.000; -603.000
337.654;  -58.050; -215.000; -126.000
337.789; -126.825; -989.000; -933.000
337.923;  -31.325; -104.000; -205.000
338.058;  -88.600; -673.000; -738.000
338.192;  -32.125; -611.000; -488.000
338.327;  -16.650;  -18.000; -155.000
338.461;  -74.675; -299.000; -469.000
338.596;  -93.800; -780.000; -638.000
338.730;  -99.775; -767.000; -803.000
338.865;   90.150;  -46.000; -140.000
338.999;  -49.725; -846.000; -702.000
339.134;  -33.275; -634.000; -536.000
339.268;   11.800; -741.000; -603.000
339.403;  357.725; -740.000; -775.000
339.537;  114.575; -894.000; -820.000
339.671; -108.750; -829.000; -813.000
339.806;  -58.800; -556.000; -512.000
339.940;    9.475; -261.000; -235.000
340.074;  -95.475; -685.000; -510.000
340.209;  -46.200; -351.000; -230.000
340.343;  -97.325; -517.000; -573.000
340.477;  148.775;  998.000; 1036.000
340.612;  -53.500;-1033.000; -900.000
340.746;  125.525; -199.000; -243.000
340.880;  -72.250; -924.000; -785.000
341.014;  -25.300;  -45.000; -154.000
341.149; -108.675; -756.000; -718.000
341.283; -105.325; -839.000; -754.000
341.417;  -93.750;-1124.000; -938.000
341.551;  132.225; -768.000; -708.000
341.685;  -35.350; -633.000; -611.000
341.820;  -47.375; -562.000; -493.000
341.954;  -44.700; -218.000; -349.000
342.088; -140.450;-1102.000;-1019.000
342.222;   56.825;  565.000;  618.000
342.356;  -59.100; -395.000; -335.000
342.490; -107.075; -880.000; -841.000
342.624;  -48.050; -339.000; -242.000
342.758;  -15.350; -364.000; -312.000
342.892;  -81.600; -710.000; -585.000
343.026;  -54.700;  -58.000; -116.000
343.160;  -66.300; -426.000; -376.000
343.294;  -88.375; -474.000; -337.000
343.428;  -27.650; -488.000; -448.000
343.562;  -22.825; -172.000;  -23.000
343.696;  -33.950; -385.000; -314.000
343.830;  -17.950; -362.000; -356.000
343.964;    0.500; -231.000; -168.000
344.098;  874.925;  199.000;   70.000
344.232;  746.375; -266.000; -127.000
344.366;   67.325; -567.000; -453.000
344.500;   49.200; -665.000; -744.000
344.634;   25.650; -324.000; -164.000
344.768;  -20.825; -531.000; -341.000
344.902;   10.850;  278.000;  256.000
345.035;  -82.450; -556.000; -496.000
345.169; -135.675; -933.000; -656.000
345.303;  -14.900; -308.000; -482.000
345.437;  -77.750; -826.000; -717.000
345.571;  -84.525; -675.000; -594.000
345.704;  -60.525; -309.000; -532.000
345.838;  -12.725; -331.000; -284.000
345.972;  -41.575; -543.000; -495.000
346.106;  164.650; -179.000; -190.000
346.239;  406.250; -312.000; -243.000
346.373;   -0.350; -343.000; -302.000
346.507; -135.650; -950.000; -962.000
346.640;  135.075;  -30.000;   13.000
346.774;  -47.275; -650.000; -797.000
346.908;  -18.075; -138.000;  -11.000
347.041; -100.100; -646.000; -593.000
347.175;    1.425;  259.000;   27.000
347.309;  -74.550; -698.000; -628.000
347.442;  -94.525; -883.000; -732.000
347.576;  278.500;  670.000;  668.000
347.709;  198.050; -123.000;  -52.000
347.843; -107.875; -933.000; -825.000
347.976;   40.900;  235.000;  294.000
348.110; -183.575;-1268.000;-1186.000
348.243;  -98.450; -679.000; -772.000
348.377;   -5.975;  -26.000;   60.000
348.510;   46.550;  403.000;  540.000
348.644;  -30.950;  -37.000; -159.000
348.777;  -13.325;  180.000;  191.000
348.911;  -44.125; -142.000; -112.000
349.044;  169.025;  471.000;  448.000
349.178;  138.350;-1069.000;-1006.000
349.311;  111.025;  141.000;  255.000
349.444;   -2.175; -927.000; -813.000
349.578;  -29.425; -347.000; -200.000
349.711; -111.900; -959.000; -862.000
349.845;  -14.375; -661.000; -591.000
349.978; -150.800;-1224.000;-1137.000
350.111;  -92.450; -546.000; -612.000
350.244;  -87.000; -596.000; -700.000
350.378;   -3.025; -392.000; -393.000
350.511;  -79.050; -393.000; -426.000
350.644; -106.100; -808.000; -806.000
350.778;   12.325;  168.000;  104.000
350.911;   -5.650;  134.000;  140.000
351.044;  -88.000; -685.000; -615.000
351.177;  -32.475; -321.000; -281.000
351.310;  -28.550;    3.000; -131.000
351.444;  -90.025; -888.000; -788.000
351.577;  112.675;  140.000;   90.000
351.710;   94.700;  593.000;  417.000
351.843;  -23.950; -165.000;  -77.000
351.976;  -10.025;  149.000;  -79.000
352.109; -102.200; -621.000; -612.000
352.242;  -19.800; -464.000; -419.000
352.376;  -65.525; -580.000; -636.000
352.509;  165.925; -437.000; -356.000
352.642;   -0.400; -654.000; -604.000
352.775;   51.350; -141.000;  -98.000
352.908; -121.300; -933.000; -904.000
353.041; -113.950; -814.000; -824.000
353.174;  -77.200; -551.000; -424.000
353.307;  -89.375; -753.000; -764.000
353.440;   73.375;  541.000;  453.000
353.573; -110.700; -957.000;-1008.000
353.706;  -45.475; -384.000; -558.000
353.839;  -21.400; -264.000; -220.000
353.971;  -87.875; -657.000; -512.000
354.104;  -94.050; -896.000; -835.000
354.237;  -41.375; -627.000; -662.000
354.370;  -86.225; -846.000; -879.000
354.503; -186.825;-1231.000;-1308.000
354.636;  -47.800; -529.000; -348.000
354.769; -122.000; -937.000; -860.000
354.902;  -10.900; -230.000; -139.000
355.034;  -24.075; -164.000; -220.000
355.167;  -19.600; -262.000; -162.000
355.300;  -90.575;-1061.000; -880.000
355.433;  972.925;  -71.000;  -14.000
355.565; 1464.525; -402.000; -384.000
355.698;  373.675; -356.000; -296.000
355.831;   -8.700; -882.000; -801.000
355.964;   73.600; -285.000; -170.000
356.096;  -92.025; -856.000; -843.000
356.229;  -18.775; -523.000; -530.000
356.362;  314.550; -373.000; -266.000
356.494;  593.700; -229.000; -162.000
356.627;  478.575;  269.000;  377.000
356.760;  653.875;  120.000;   53.000
356.892;  933.500; -286.000; -601.000
357.025;  644.225;  403.000;  389.000
357.157;  578.250; -167.000; -179.000
357.290;  673.700; -856.000; -713.000
357.423;  199.900; -667.000; -556.000
357.555;  113.975; -217.000; -228.000
357.688;  117.100; -483.000; -364.000
357.820;  443.175; -870.000; -877.000
357.953; 3665.750; -563.000; -589.000
358.085;  779.150; -632.000; -612.000
358.218; 1090.550;-1131.000; -932.000
358.350;  192.150;  -58.000;  312.000
358.483; -132.250;-1300.000;-1187.000
358.615;  -31.450;-1182.000;-1078.000
358.747;  -59.600;-1187.000;-1058.000
358.880;   18.825; -810.000; -744.000
359.012;   -1.125; -376.000; -202.000
359.145;  -42.275; -480.000; -511.000
359.277;   52.675; -962.000; -913.000
359.409; 2966.375;  536.000;  231.000
359.542;  792.225; -738.000; -688.000
359.674;   55.875;   46.000;   13.000
359.806;  -55.375; -565.000; -438.000
359.939;  -32.000; -617.000; -516.000
360.071;   -3.950; -583.000; -579.000
360.203;  -27.650; -411.000; -364.000
360.335;   61.450;  164.000;  -16.000
360.468;  172.775; -249.000; -307.000
360.600; 2413.675; -547.000; -454.000
360.732; 2806.725; -546.000; -423.000
360.864;  374.450;-1216.000;-1044.000
360.996;  269.000; -516.000; -554.000
361.129;   39.950; -389.000; -598.000
361.261;   20.900;  110.000; -113.000
361.393;  -37.625; -252.000; -214.000
361.525;   22.000;   94.000;  244.000
361.657;  -48.425; -821.000; -703.000
361.789;   -6.925; -139.000; -155.000
361.921;  196.750; -642.000; -593.000
362.053;  239.675;  524.000;  541.000
362.185;   31.025;  288.000;   72.000
362.318;  -94.500; -709.000; -705.000
362.450;  104.625;  294.000;  444.000
362.582;   87.400; -913.000; -870.000
362.714;  -38.575; -353.000; -332.000
362.846;  -86.475; -606.000; -490.000
362.978; -148.250; -941.000; -811.000
363.109;   34.575; -161.000; -260.000
363.241;  428.675; -739.000; -749.000
363.373;  419.025; -649.000; -564.000
363.505;  657.450; -186.000;  -91.000
363.637;  157.275; -787.000; -601.000
363.769; -125.550;-1067.000;-1080.000
363.901;  -69.625; -596.000; -654.000
364.033; -124.900;-1103.000;-1062.000
364.165;   -5.950; -283.000; -283.000
364.296;   62.300; -316.000; -177.000
364.428;   65.650;-1344.000;-1220.000
364.560;  -69.000; -679.000; -661.000
364.692;  -62.200; -738.000; -835.000
364.824;  245.775; -588.000; -456.000
364.955;  433.400; -402.000; -564.000
365.087;  917.875;-1097.000; -852.000
365.219;   23.450; -686.000; -816.000
365.351;  -71.425; -526.000; -572.000
365.482;   54.575;  300.000;  240.000
365.614;  -57.450; -402.000; -314.000
365.746;  -99.450; -729.000; -752.000
365.877;  -95.875; -706.000; -672.000
366.009;  252.350;  -35.000;  -62.000
366.141;  -88.475;-1249.000;-1134.000
366.272; -106.125; -803.000; -719.000
366.404; -122.950;-1005.000; -874.000
366.535;  -20.300; -139.000;  -12.000
366.667; -109.950; -644.000; -649.000
366.799;   32.975;  353.000;  203.000
366.930; -120.900; -862.000; -996.000
367.062;  117.850; -639.000; -613.000
367.193;  155.000; -872.000; -842.000
367.325;  -63.650; -580.000; -684.000
367.456;   55.275; -246.000;   31.000
367.588;  154.600; -371.000; -318.000
367.719;   20.250;  -44.000;  -45.000
367.851;  -17.450; -222.000; -241.000
367.982;  -49.550; -875.000; -732.000
368.113;   81.975; -475.000; -358.000
368.245; -108.550; -960.000; -841.000
368.376;  -31.350; -254.000; -302.000
368.508;  -34.275; -188.000; -263.000
368.639; -141.375;-1166.000;-1034.000
368.770;  -21.975; -670.000; -589.000
368.902;  -73.100; -836.000; -926.000
369.033; -111.000; -906.000; -855.000
369.164;  -51.850; -720.000; -653.000
369.296; -113.575; -452.000; -601.000
369.427;   -1.575; -209.000; -144.000
369.558;  -48.050; -593.000; -377.000
369.689;  -97.375; -721.000; -569.000
369.821; -137.325; -951.000; -845.000
369.952;   -9.750;   42.000; -108.000
370.083;  -38.600; -229.000; -108.000
370.214;  -92.250; -735.000; -650.000
370.345;  -16.250;   65.000;   81.000
370.477;  -79.200; -810.000; -790.000
370.608;  217.825; -328.000; -264.000
370.739;  -57.575;-1233.000;-1292.000
370.870;  -46.125;-1102.000; -923.000
371.001;   89.475; -378.000; -467.000
371.132;  -83.875; -754.000; -735.000
371.263;  -34.550;  -42.000; -148.000
371.394; -141.225; -841.000; -748.000
371.525;   27.475;  345.000;  225.000
371.657; -104.300; -808.000; -670.000
371.788;   72.075;  103.000;  199.000
371.919;  152.100; -384.000; -304.000
372.050; 3512.675;  -91.000; -156.000
372.181; 1055.450; -188.000; -294.000
372.311;  347.225;   42.000; -127.000
372.442;   33.325; -457.000; -451.000
372.573;  -26.750; -444.000; -340.000
372.704; -127.175;-1008.000; -980.000
372.835;   63.450; -228.000; -289.000
372.966;  -63.700; -646.000; -554.000
373.097;  -68.525; -575.000; -711.000
373.228;  -45.975; -717.000; -542.000
373.359;  118.850; -824.000; -536.000
373.490;  898.950; -881.000; -727.000
373.620; 1137.475;-1001.000; -803.000
373.751; 1713.450; -332.000; -396.000
373.882;  770.200; -663.000; -733.000
374.013;   54.475; -449.000; -262.000
374.143;  -50.225; -581.000; -659.000
374.274; -105.325; -987.000; -908.000
374.405;  168.750; -388.000; -276.000
374.536;  416.275; -526.000; -387.000
374.666; 1082.200; -759.000; -807.000
374.797;  201.150; -817.000; -868.000
374.928;  835.375; -710.000; -560.000
375.058;  850.000; -535.000; -500.000
375.189;   78.575;  -59.000;  -93.000
375.320; -107.575; -928.000;-1034.000
375.450;  -52.050; -625.000; -616.000
375.581;  -59.475; -526.000; -436.000
375.712;  -28.775; -574.000; -250.000
375.842;  284.775; -438.000; -415.000
375.973;  214.100; -554.000; -513.000
376.103;  -49.400; -665.000; -648.000
376.234;  -85.100; -531.000; -552.000
376.364;  -33.700; -944.000; -867.000
376.495;  300.900;  925.000;  529.000
376.625;  -24.175; -472.000; -485.000
376.756;   47.950; -709.000; -678.000
376.886;  -87.875;-1178.000;-1026.000
377.017;   51.025;-1048.000;-1061.000
377.147;  353.400; -786.000; -782.000
377.278;   75.625;  174.000;  228.000
377.408; -134.875; -801.000; -815.000
377.538; -104.375; -707.000; -693.000
377.669;  -93.075; -537.000; -613.000
377.799;  -98.300; -645.000; -635.000
377.929;  -68.425; -610.000; -428.000
378.060; -135.825; -781.000; -847.000
378.190;  -66.875; -726.000; -531.000
378.320;  -51.900; -401.000; -406.000
378.451;  -14.475; -131.000;  -22.000
378.581;  -14.500;  -67.000; -110.000
378.711;  139.550; 1035.000;  866.000
378.841;  -29.625; -533.000; -675.000
378.972;  -70.500; -871.000; -751.000
379.102;    3.375; -652.000; -579.000
379.232;  -22.725; -126.000;  -73.000
379.362; -111.600;-1001.000; -885.000
379.492;   11.700; -373.000; -424.000
379.623;  109.450;    0.000;  111.000
379.753;  -99.000;-1107.000; -974.000
379.883;  196.100;   59.000;  156.000
380.013;   14.625;-1081.000;-1017.000
380.143;  -93.850;-1097.000;-1056.000
380.273; -118.175; -985.000; -861.000
380.403;   -2.375; -344.000; -257.000
380.533;  -31.275; -651.000; -664.000
380.663;   51.475;  173.000;  128.000
380.793; -102.375;-1027.000;-1074.000
380.923;  -32.650; -103.000;  -34.000
381.053;  -97.850; -613.000; -623.000
381.183;  -33.025; -106.000; -248.000
381.313;   15.575; -656.000; -470.000
381.443;   25.775; -692.000; -473.000
381.573;  176.325; -402.000; -409.000
381.703;  253.750;-1249.000;-1095.000
381.833; -139.675;-1454.000;-1336.000
381.963;   95.825; -134.000;  -87.000
382.093; 1362.775; -925.000; -909.000
382.223;  417.350; -713.000; -602.000
382.353;  -30.500; -801.000; -608.000
382.482;  356.125;-1091.000; -964.000
382.612;  744.475; -872.000; -644.000
382.742;  412.750; -695.000; -622.000
382.872;  252.850; -565.000; -551.000
383.002;   55.650;  347.000; -132.000
383.131;  -21.400; -226.000; -160.000
383.261;  -46.250; -706.000; -768.000
383.391;  290.550; -552.000; -377.000
383.521; 3185.850;  451.000;  263.000
383.650;  748.275; -947.000; -904.000
383.780;  -13.275; -783.000; -656.000
383.910;  102.350;  880.000;  802.000
384.039;    5.400; -794.000; -656.000
384.169;  181.650;-1205.000;-1017.000
384.299;  -25.575; -650.000; -662.000
384.428;  -95.525; -764.000; -680.000
384.558;  -60.475; -308.000; -275.000
384.687;  -42.025; -414.000; -334.000
384.817;   -2.550;   75.000;   -2.000
384.947;   18.100; -234.000; -141.000
385.076;  267.375;  982.000;  912.000
385.206;  100.150;  369.000;  480.000
385.335;  -52.350; -549.000; -417.000
385.465;  -95.850; -655.000; -663.000
385.594;  125.150;  -53.000;  -44.000
385.724;  406.850; -868.000; -838.000
385.853;  124.575; -296.000; -270.000
385.982; 1314.025; -743.000; -787.000
386.112; 2070.250;-1052.000; -871.000
386.241;  138.275; -307.000; -312.000
386.371;   12.800; -174.000;  -87.000
386.500;  -11.300; -825.000; -789.000
386.629;   26.375; -874.000; -817.000
386.759;   63.475;  -43.000;   68.000
386.888;   -6.075; -170.000; -250.000
387.017;  -83.600; -648.000; -620.000
387.147;  -90.525; -771.000; -798.000
387.276;  -16.350; -410.000; -397.000
387.405;    1.275; -398.000; -342.000
387.535;  -52.275; -452.000; -361.000
387.664;  -69.275; -692.000; -620.000
387.793;   45.000; -198.000; -113.000
387.922;  497.900;  255.000;  200.000
388.052;   18.375; -576.000; -423.000
388.181;    5.950; -342.000; -472.000
388.310;   -1.800; -889.000; -710.000
388.439;  -43.300; -749.000; -742.000
388.568;  178.475;  365.000;  244.000
388.697; 1015.325; -756.000; -653.000
388.826;  195.450; -768.000; -666.000
388.956;   50.900; -285.000; -307.000
389.085;  -40.975; -347.000; -287.000
389.214; -114.925; -842.000; -872.000
389.343;  -61.775; -645.000; -413.000
389.472;  382.450;  126.000;  149.000
389.601;  500.600;   91.000;    0.000
389.730;    9.775; -568.000; -687.000
389.859;   62.750;  226.000;   46.000
389.988;  179.750; -423.000; -408.000
390.117;  134.250; -168.000; -146.000
390.246;  -18.325; -331.000; -320.000
390.375;   94.125; -673.000; -626.000
390.504;  -60.425; -703.000; -621.000
390.633; -109.000; -672.000; -726.000
390.761;  -74.475; -732.000; -645.000
390.890;    2.125;   -4.000; -130.000
391.019;  -22.300; -421.000; -441.000
391.148; -128.725; -826.000; -855.000
391.277;  -71.275; -576.000; -493.000
391.406;  -86.050; -821.000; -805.000
391.534;   28.225;  574.000; -301.000
391.663;  -82.325; -583.000; -645.000
391.792;  -82.625; -673.000; -701.000
391.921;   87.225;   -3.000;   15.000
392.050;  169.575; -287.000; -228.000
392.178;  -53.700;-1206.000;-1061.000
392.307;  124.175; -758.000; -712.000
392.436;   53.550; -427.000; -641.000
392.564;   18.700;  166.000;   -6.000
392.693;  -89.475; -860.000; -682.000
392.822;  203.750; -529.000; -534.000
392.950;   80.100; -880.000; -714.000
393.079;  309.125; -188.000; -328.000
393.208;   16.550; -488.000; -511.000
393.336;  -15.975; -170.000; -145.000
393.465;  -52.650; -317.000; -199.000
393.593;    2.650;   62.000;   79.000
393.722; -148.325;-1121.000; -916.000
393.850;  -33.600; -188.000;  -61.000
393.979; -154.525; -926.000; -805.000
394.107;  -67.700; -517.000; -537.000
394.236;  -42.275; -570.000; -507.000
394.364;  189.000;  383.000;  206.000
394.493;  292.275; -911.000; -767.000
394.621;   -0.375; -955.000; -916.000
394.750;  693.725; -873.000; -923.000
394.878; 2900.450; -247.000; -149.000
395.007; 4019.950; -721.000; -807.000
395.135;  304.450; -790.000; -721.000
395.263;  -92.350;-1038.000;-1040.000
395.392;   -4.250;  -25.000; -107.000
395.520; -130.075; -818.000; -679.000
395.648;  -98.050; -865.000; -915.000
395.777;  -31.475; -366.000; -405.000
395.905;  -56.650; -449.000; -564.000
396.033;   11.125;  217.000;  172.000
396.162;  511.175; -399.000; -453.000
396.290;  450.450;  -17.000;   -2.000
396.418;   89.700; -555.000; -514.000
396.546;  -72.925; -571.000; -466.000
396.674;  -99.400; -850.000; -878.000
396.803;   -3.800;  -72.000;  -23.000
396.931;   82.025; -179.000; -199.000
397.059;   25.700;-1026.000; -989.000
397.187; -113.175;-1026.000; -975.000
397.315; -124.900; -884.000; -649.000
397.443;  -94.250; -592.000; -443.000
397.572; -101.550; -578.000; -424.000
397.700;  -26.075; -607.000; -614.000
397.828;   27.200;  120.000;  -90.000
397.956;  -44.775; -508.000; -478.000
398.084;  -72.625; -767.000; -626.000
398.212;   21.700;  137.000;  124.000
398.340;    7.100;  -56.000;  159.000
398.468;   26.350; -390.000; -169.000
398.596; -142.400; -993.000; -953.000
398.724; -129.825; -762.000; -767.000
398.852; -177.300;-1024.000; -976.000
398.980;  -77.700; -560.000; -560.000
399.108;  -64.025; -982.000; -735.000
399.236;   36.975;   13.000;    8.000
399.363;    5.425;  222.000;  196.000
399.491;  -71.450; -404.000; -398.000
399.619; -130.025; -829.000; -800.000
399.747; -107.600; -859.000; -771.000
399.875;   68.775;  220.000;  234.000
400.003;  -50.275; -359.000; -284.000
400.130; -104.900; -421.000; -341.000
400.258;  -15.950;  -83.000;   38.000
400.386;  -78.750; -352.000; -168.000
400.514;  -43.475; -526.000; -587.000
400.641;  -88.775; -928.000; -802.000
400.769; -146.625; -979.000; -888.000
400.897; -106.175; -838.000; -793.000
401.025;  -28.500; -166.000; -152.000
401.152;  -14.050;  220.000;   38.000
401.280;  -82.825; -430.000; -429.000
401.408; -124.575; -712.000; -576.000
401.535; -119.725; -735.000; -758.000
401.663; -188.975;-1134.000;-1054.000
401.790;  -97.850; -514.000; -525.000
401.918;   34.975;  436.000;  405.000
402.046;  -27.825;  134.000;  122.000
402.173;  -42.350;  -18.000;    7.000
402.301;  -82.375; -519.000; -397.000
402.428;   28.425;  528.000;  383.000
402.556; -156.525;-1188.000; -913.000
402.683;  -29.900;  -20.000;   -1.000
402.811;  -23.000;  -37.000; -206.000
402.938;  -15.025;   20.000;   27.000
403.066;  195.175; -574.000; -558.000
403.193;  340.200;  299.000;  239.000
403.321;  244.125; -396.000; -574.000
403.448;  326.650;   83.000;   27.000
403.575;  136.025;  -90.000;  -46.000
403.703;  -89.425; -732.000; -557.000
403.830;  -60.575; -531.000; -496.000
403.957; -144.500;-1117.000;-1023.000
404.085;    3.850;  -61.000; -172.000
404.212;   87.100;  -50.000;   63.000
404.339;  243.475; -566.000; -306.000
404.467; 5735.075; -612.000; -524.000
404.594; 3821.875; -287.000; -227.000
404.721;  878.375; -869.000; -764.000
404.848;   66.050; -113.000; -202.000
404.976; -106.225; -856.000; -783.000
405.103;  -17.950;  -14.000;  -82.000
405.230;  -11.325;  190.000;  226.000
405.357;   16.425;  117.000;   44.000
405.484;  249.250;  -49.000;    5.000
405.612;   34.375; -548.000; -563.000
405.739;  -61.125; -488.000; -243.000
405.866;   85.975;  669.000;  385.000
405.993;  -45.625; -398.000; -102.000
406.120; -150.050; -801.000; -887.000
406.247;  -56.750; -323.000; -342.000
406.374;  413.875;  540.000;  629.000
406.501;   89.875; -632.000; -702.000
406.628;  -87.475; -621.000; -589.000
406.755; -110.250; -803.000; -620.000
406.882;  -51.525; -228.000; -277.000
407.009; -114.000; -719.000; -628.000
407.136;   44.275; -480.000; -401.000
407.263;  121.650; -939.000; -829.000
407.390;  -84.525; -692.000; -614.000
407.517; -173.125;-1139.000;-1187.000
407.644;  -69.675; -332.000; -256.000
407.771;  -66.625; -249.000; -287.000
407.898;   -4.025;  168.000;  328.000
408.025;  -65.600; -421.000; -313.000
408.151;  -16.500;   82.000;  153.000
408.278;  -77.925; -267.000; -216.000
408.405; -111.850; -931.000; -899.000
408.532;  -80.475; -549.000; -542.000
408.659; -113.375; -677.000; -648.000
408.785; -216.775;-1298.000;-1170.000
408.912;  -63.725; -412.000; -296.000
409.039; -120.700; -610.000; -686.000
409.166; -108.000; -591.000; -555.000
409.292; -109.450; -571.000; -534.000
409.419; -127.575; -665.000; -649.000
409.546;  -90.850; -431.000; -192.000
409.672; -114.700; -713.000; -545.000
409.799;  -25.000;  -36.000;   34.000
409.926;  -29.075; -180.000; -179.000
410.052; -184.550;-1127.000;-1091.000
410.179;  -60.675; -368.000; -392.000
410.305; -111.975; -375.000; -493.000
410.432;  -47.275; -220.000; -333.000
410.558; -101.825; -305.000; -380.000
410.685; -109.400; -688.000; -431.000
410.812; -107.850; -409.000; -588.000
410.938; -147.625; -964.000; -808.000
411.065;  -89.975; -671.000; -645.000
411.191;  -20.350; -189.000; -174.000
411.317; -121.800; -823.000; -742.000
411.444;  -67.550; -317.000; -246.000
411.570;  -74.950; -339.000; -294.000
411.697; -135.450; -758.000; -752.000
411.823; -182.550; -989.000; -999.000
411.949;  -31.775;  -56.000;   17.000
412.076; -121.800; -539.000; -519.000
412.202; -115.975; -758.000; -757.000
412.329; -118.225; -798.000; -752.000
412.455; -123.300; -821.000; -657.000
412.581;  -22.150;  -15.000;  172.000
412.707;  -65.525; -540.000; -457.000
412.834;    5.175;  156.000;  219.000
412.960;  -89.025; -785.000; -784.000
413.086; -107.925; -743.000; -701.000
413.212;  141.025;  604.000;  578.000
413.339;  -67.975; -685.000; -701.000
413.465;    7.625; -364.000; -310.000
413.591; -101.550; -757.000; -474.000
413.717;  -46.050; -358.000; -366.000
413.843; -142.500; -839.000; -861.000
413.969;  -66.750;  -47.000; -292.000
414.096; -116.450; -679.000; -679.000
414.222;  -15.625;  -33.000;   85.000
414.348;  -24.125; -652.000; -385.000
414.474;   84.950;   38.000;  -52.000
414.600;  -27.075; -126.000; -144.000
414.726;  -19.825;  -96.000;  -55.000
414.852;  -71.675; -365.000; -342.000
414.978;   25.275;  104.000;  -18.000
415.104;   35.825;   38.000;   80.000
415.230;   15.000; -329.000; -330.000
415.356;   30.200; -409.000; -514.000
415.482;  215.350;   13.000;  -35.000
415.608;  273.200; -247.000; -323.000
415.734;  968.775;   67.000;   38.000
415.860;19783.575; -875.000; -767.000
415.986;14526.700; -685.000; -607.000
416.111; 1254.875; -798.000; -652.000
416.237;  253.150; -424.000; -571.000
416.363; 1119.950; -765.000; -733.000
416.489; 4129.275; -324.000; -251.000
416.615;  443.600; -707.000; -742.000
416.741;  -25.450; -677.000; -784.000
416.866;  -98.775; -673.000; -736.000
416.992; -124.275; -801.000; -818.000
417.118;  -34.600;  -41.000;  -80.000
417.244;  -75.050; -798.000; -531.000
417.369;  -97.825; -801.000; -612.000
417.495;   -6.250; -325.000; -254.000
417.621;  -79.100;-1015.000; -803.000
417.746;  -10.250; -579.000; -572.000
417.872;   35.675; -254.000; -144.000
417.998;   46.425; -515.000; -530.000
418.123; 1005.400;-1073.000; -845.000
418.249; 5429.425; -512.000; -601.000
418.374;  743.075; -916.000; -824.000
418.500;   96.075; -383.000; -482.000
418.626;   97.600;   70.000;  -59.000
418.751;  101.700; -549.000; -448.000
418.877;  200.525; -637.000; -643.000
419.002; 1765.175; -688.000; -560.000
419.128;12536.375; -930.000; -721.000
419.253; 3109.700; -967.000; -837.000
419.379;  415.575; -391.000; -338.000
419.504;  387.050;  325.000;  415.000
419.629;  508.825; -393.000; -212.000
419.755; 3512.075; -317.000; -254.000
419.880;21149.275;  -98.000;   67.000
420.006;11409.425; -280.000; -221.000
420.131;29490.275; -662.000; -775.000
420.256; 4233.700; -315.000; -316.000
420.382;  564.475; -665.000; -687.000
420.507;   50.925; -649.000; -778.000
420.632;  126.800; -337.000; -339.000
420.758;  240.225; -251.000; -425.000
420.883;  -85.725; -876.000; -672.000
421.008; -110.500; -775.000; -619.000
421.133;  -75.075; -509.000; -467.000
421.259;  -60.075; -325.000; -259.000
421.384; -125.400; -834.000; -693.000
421.509;  -43.925;-1052.000; -862.000
421.634; 1082.875; -936.000; -820.000
421.759;  470.975; -359.000; -327.000
421.885;  -58.300; -717.000; -656.000
422.010;  -75.725; -673.000; -542.000
422.135; -158.875; -695.000; -727.000
422.260;   29.225;  340.000;  280.000
422.385;  -40.850;   12.000;  -98.000
422.510;   -3.350;  151.000;  -26.000
422.635;    9.700;  -87.000;  -43.000
422.760;   92.450; -766.000; -791.000
422.885;   48.625;  -57.000;  -80.000
423.010;  -45.175; -112.000; -169.000
423.135;  -85.125; -481.000; -561.000
423.260;  -22.950; -150.000; -245.000
423.385;   63.075;  476.000;  222.000
423.510;   24.300;   71.000;  -22.000
423.635;   71.875;  133.000;   45.000
423.760;   57.150;  383.000;  328.000
423.885;   51.275;  336.000;  391.000
424.010;    8.900;  -68.000;  -13.000
424.135;  -26.675;    5.000;  -33.000
424.259;  -85.900; -654.000; -457.000
424.384;  -60.075; -279.000; -272.000
424.509;  -38.625; -260.000; -186.000
424.634;  -96.850; -761.000; -623.000
424.759;  -34.250; -688.000; -544.000
424.883;  -22.125; -506.000; -527.000
425.008;  151.975; -502.000; -410.000
425.133; 1977.800; -679.000; -653.000
425.258;  943.275; -517.000; -381.000
425.382;  994.200; -867.000; -774.000
425.507; 2560.750; -487.000; -543.000
425.632;  419.650; -802.000; -663.000
425.756;  436.275; -256.000; -146.000
425.881; 6504.100; -831.000; -857.000
426.006;17777.175; -604.000; -355.000
426.130; 2776.125; -696.000; -508.000
426.255;  364.025; -611.000; -491.000
426.379;  156.500; -189.000; -577.000
426.504;  368.125;  660.000;  544.000
426.629; 4002.100; -519.000; -466.000
426.753; 2779.375;   64.000;  -46.000
426.878;  325.300; -252.000; -288.000
427.002;  142.775; -651.000; -668.000
427.127; 1560.300;  -35.000; -158.000
427.251;11403.800;  372.000;  401.000
427.375; 3275.125; -191.000; -173.000
427.500; 2285.625; -616.000; -610.000
427.624;  747.025; -234.000; -400.000
427.749;   72.175; -216.000; -225.000
427.873;  -57.475; -499.000; -412.000
427.997;  -53.950; -222.000; -230.000
428.122;   69.600;  795.000;  703.000
428.246;   74.150;  433.000;  434.000
428.371; -125.050; -869.000; -773.000
428.495; -119.425; -624.000; -646.000
428.619;  -36.625; -186.000; -117.000
428.743;    8.075;   65.000;  132.000
428.868;   11.375; -732.000; -643.000
428.992; 1353.975; -219.000; -326.000
429.116;  547.850; -329.000; -357.000
429.240;  260.650;  419.000;  426.000
429.365;  -38.200; -454.000; -574.000
429.489;  -51.725; -638.000; -647.000
429.613;    9.950; -236.000; -177.000
429.737;   25.675; -563.000; -432.000
429.861;  270.200; -247.000; -133.000
429.985; 5524.800; -425.000; -305.000
430.109; 6183.075; -770.000; -908.000
430.234;  704.875;   76.000;  -50.000
430.358;   56.750; -250.000; -160.000
430.482;  -75.550; -672.000; -564.000
430.606;  -59.325; -655.000; -375.000
430.730;   -7.675; -437.000; -388.000
430.854;  113.700; -909.000; -835.000
430.978;  -78.025; -795.000; -764.000
431.102;  -88.425; -499.000; -422.000
431.226; -121.475; -874.000; -815.000
431.350;   19.800;  345.000;  422.000
431.474;  -81.325; -661.000; -373.000
431.597; -159.775;-1060.000; -848.000
431.721;  -81.900; -276.000; -267.000
431.845; -140.450; -704.000; -472.000
431.969;  -83.225; -304.000; -349.000
432.093; -107.600; -395.000; -317.000
432.217;   -4.925;   32.000;   82.000
432.341; -100.575; -523.000; -518.000
432.464;  -12.725;   96.000;   40.000
432.588;  189.200; -401.000; -329.000
432.712;   87.100;  -52.000;  -52.000
432.836;   26.025;  213.000;  263.000
432.959;  -14.525; -372.000; -311.000
433.083;   84.575;   11.000;    2.000
433.207;  382.675;  285.000;  930.000
433.330; 5006.325; -391.000; -200.000
433.454; 6291.375; -654.000; -638.000
433.578; 3588.625;  583.000;  278.000
433.701;  664.550; -623.000; -675.000
433.825;  141.125; -292.000; -299.000
433.949;  148.075;   28.000;  -72.000
434.072;   47.600; -410.000; -323.000
434.196;  -12.100; -309.000; -117.000
434.319; 3764.025;25482.000;25124.000
434.443;  717.650; -656.000; -603.000
434.566; 2656.900;  281.000;   62.000
434.690;  448.250; -637.000; -383.000
434.813;   40.875; -251.000; -173.000
434.937;  -79.925; -569.000; -696.000
435.060;  -52.325; -423.000; -332.000
435.184;  256.475; -492.000; -217.000
435.307;  145.800;  159.000;  102.000
435.431;  -25.525;  -40.000;   24.000
435.554;  -69.075; -399.000; -240.000
435.677;  -82.075; -350.000; -258.000
435.801;  -46.150;  -25.000;   49.000
435.924;  -20.800;    1.000;  -67.000
436.048; -120.125;-1019.000; -732.000
436.171;  -72.950; -240.000;  -66.000
436.294;  -28.325; -248.000; -229.000
436.417;   85.825; -963.000; -849.000
436.541;  -81.325; -814.000; -840.000
436.664;  -44.100; -242.000; -316.000
436.787;  -33.825;   13.000;  113.000
436.910; -109.425; -792.000; -422.000
437.034;    0.575;  142.000;  143.000
437.157;   43.350;  -11.000;    0.000
437.280;  -52.625; -392.000; -292.000
437.403;  -94.375; -982.000; -869.000
437.526;  575.050; -903.000; -865.000
437.649; 2129.075; -505.000; -332.000
437.772;  311.150; -692.000; -540.000
437.896;  115.050;  700.000;  544.000
438.019; -114.000; -758.000; -503.000
438.142;  -84.750; -596.000; -506.000
438.265;  -24.275; -639.000; -670.000
438.388;  522.075; -520.000; -410.000
438.511;   92.350; -597.000; -394.000
438.634;  -48.575; -247.000; -125.000
438.757; -142.225; -693.000; -619.000
438.880;  -24.900;  -34.000;  -57.000
439.003;  -85.200; -417.000; -437.000
439.126;  -69.850; -287.000; -167.000
439.248;  -69.550;  -98.000; -139.000
439.371;  -57.325;    9.000;  -53.000
439.494;   20.675;  510.000;  439.000
439.617;  -54.000;   65.000;  -88.000
439.740; -186.150; -968.000; -816.000
439.863; -146.125; -755.000; -595.000
439.986; -130.875; -476.000; -431.000
440.108;  -61.250; -161.000; -112.000
440.231; -160.075; -950.000; -836.000
440.354;  -40.300;  -64.000; -150.000
440.477;   30.600; -566.000; -542.000
440.599;   -9.800; -200.000; -225.000
440.722; -119.450; -709.000; -586.000
440.845;   61.800;  751.000;  928.000
440.968; -114.350; -415.000; -311.000
441.090;  -66.375; -199.000;  -33.000
441.213; -172.175;-1021.000; -825.000
441.336;  -49.500; -159.000;   -5.000
441.458;  -80.125; -549.000; -396.000
441.581;  -82.350; -628.000; -629.000
441.703;  -66.650; -152.000;   13.000
441.826; -111.025; -557.000; -400.000
441.948;  -51.225;   56.000;   51.000
442.071;   18.425;  555.000;  424.000
442.193; -124.850; -531.000; -485.000
442.316;   15.200;  152.000;   97.000
442.438;   47.200; -233.000;  -10.000
442.561;   60.450;  272.000;  262.000
442.683;  479.550; -809.000; -522.000
442.806; 1112.400;   -8.000;   74.000
442.928;    7.275; -859.000; -604.000
443.051;  -74.425; -577.000; -373.000
443.173; -109.575; -341.000; -339.000
443.295;  -82.375; -263.000; -371.000
443.418;  -79.675; -321.000;  -29.000
443.540;  -21.300; -106.000;   -4.000
443.662; -120.775; -563.000; -465.000
443.785;  -20.225;  335.000;  199.000
443.907; -104.000; -362.000; -208.000
444.029; -136.200; -767.000; -494.000
444.152; -158.275; -644.000; -554.000
444.274;  -28.525;  -18.000;  -24.000
444.396; -110.725; -461.000; -221.000
444.518; -141.450; -691.000; -454.000
444.640;  -97.100; -268.000; -111.000
444.763;  -20.975;  388.000;  249.000
444.885; -122.100; -432.000; -392.000
445.007;  -36.075;   35.000;   86.000
445.129; -112.200; -610.000; -515.000
445.251; -105.100; -372.000; -439.000
445.373; -129.975; -537.000; -386.000
445.495;    2.800;  242.000;  350.000
445.617;   36.650;  853.000;  753.000
445.739;  -74.825; -215.000;  -97.000
445.861;  -39.650; -245.000; -112.000
445.984;  -37.250; -267.000; -101.000
446.105;  163.425; -418.000; -251.000
446.227;  559.175; -176.000;  -19.000
446.349;    2.825; -358.000; -249.000
446.471; -106.200; -615.000; -448.000
446.593;  -70.025; -316.000;   19.000
446.715;  -23.175;  -67.000;   41.000
446.837;   64.975;  697.000;  832.000
446.959; -116.825; -457.000; -478.000
447.081; -140.650; -628.000; -518.000
447.203;   46.875;  862.000;  834.000
447.325;  -94.450; -270.000;   42.000
447.446;   -8.150;  286.000;  530.000
447.568; -173.275; -921.000; -803.000
447.690;  -89.375; -236.000; -245.000
447.812; -154.950; -798.000; -519.000
447.933;  -27.100;  155.000;  127.000
448.055;  -72.625; -306.000; -261.000
448.177;  137.450;   31.000;   79.000
448.299;   78.975; -935.000; -727.000
448.420;   12.300;  -25.000;  159.000
448.542;  -62.625;   -3.000;   33.000
448.664;  -33.750;  109.000;  322.000
448.785;  -36.625;  265.000;   83.000
448.907;  -74.275; -614.000; -353.000
449.028;  -37.450; -771.000; -471.000
449.150;   50.475;  492.000;  589.000
449.272; -178.275;-1044.000; -913.000
449.393;   16.850;  612.000;  694.000
449.515; -142.050; -634.000; -581.000
449.636;  -87.650; -264.000; -155.000
449.758;   79.500;  763.000;  622.000
449.879; -105.800; -498.000; -396.000
450.001;  -87.050; -149.000;  -49.000
450.122;  -52.350;  -95.000;  162.000
450.244;  -22.275;   37.000;  364.000
450.365;  -99.325; -495.000; -301.000
450.486;  -29.625;   80.000;  268.000
450.608;   26.425;  393.000;  326.000
450.729;   71.725;  578.000;  645.000
450.850;    1.250; -574.000; -466.000
450.972;  750.250; -552.000; -389.000
451.093; 4904.075;  190.000;  588.000
451.214; 2155.150; -516.000; -337.000
451.336;  402.125;  773.000;  579.000
451.457;   45.000;  264.000;  393.000
451.578;  -60.450; -118.000;  -74.000
451.699; -132.125; -546.000; -540.000
451.821;  -87.100; -284.000;  -50.000
451.942;  -23.375;  278.000;  285.000
452.063;   44.700;  228.000;  419.000
452.184;  536.200;  -54.000;  -49.000
452.305; 1086.025;  103.000;  170.000
452.427;  129.125; -549.000; -301.000
452.548;  -28.750;   23.000;   79.000
452.669;  -55.325; -257.000;  -89.000
452.790;  -65.500;    3.000;  -18.000
452.911;  -16.750;  195.000;  259.000
453.032;  -74.525; -289.000;  -60.000
453.153;  -47.200;  -29.000;   81.000
453.274;   50.150;  737.000;  868.000
453.395;  -52.825;  -51.000;  175.000
453.516;   21.575; 1317.000; 1388.000
453.637;  -69.150; -205.000; -150.000
453.758;  -62.200;   15.000;   69.000
453.879; -120.825; -462.000; -250.000
454.000;   94.375; 1086.000;  948.000
454.121; -106.700; -554.000; -326.000
454.242; -133.900; -599.000; -383.000
454.362;  -54.875;  -99.000;  114.000
454.483;  -45.550; -309.000; -229.000
454.604;   41.450;  512.000;  580.000
454.725; -137.575; -627.000; -555.000
454.846; -143.675; -474.000; -406.000
454.967;  -29.100;  230.000;  539.000
455.087;  -43.300;  179.000;  153.000
455.208;    2.900;  554.000;  856.000
455.329;  -54.825;  -22.000;   82.000
455.450;   33.475;  473.000;  633.000
455.570;  -97.575; -234.000; -211.000
455.691;  -27.350;  201.000;  407.000
455.812; -114.175; -270.000;  -92.000
455.932;  -65.850;  107.000;  -97.000
456.053;  -82.175;   36.000;   24.000
456.173; -113.275; -433.000; -355.000
456.294; -133.425; -476.000; -303.000
456.415;  -79.975;  -73.000;   70.000
456.535;  -39.525;  297.000;  273.000
456.656;  -51.525;  132.000;  240.000
456.776;  -72.475;    3.000;  298.000
456.897;   -9.925;  308.000;  513.000
457.017;  -91.375; -153.000;   -3.000
457.138; -109.100; -402.000; -249.000
457.258;  -44.175;  263.000;  224.000
457.379;  -21.150;  509.000;  521.000
457.499;  -35.000;  443.000;  432.000
457.620; -127.000; -407.000; -231.000
457.740; -103.700; -132.000;  -11.000
457.860;  -59.475;   87.000;   44.000
457.981;  -61.800;  132.000;  124.000
458.101;  -83.275;  -89.000;   40.000
458.221;  -27.550;  336.000;  402.000
458.342;  -52.575;   -4.000;  -37.000
458.462;   17.075;  617.000;  352.000
458.582;  -36.325; -302.000; -294.000
458.703;   -4.200;  303.000;  154.000
458.823;  -22.150;   22.000;  163.000
458.943;   13.950;  341.000;  467.000
459.063;  -24.300; 1124.000;  192.000
459.183;  -31.475;  328.000;  313.000
459.304;  -11.250;  315.000;  517.000
459.424;  -81.575; -246.000;  -89.000
459.544;  312.650;  388.000;  764.000
459.664;  838.725;  499.000;  506.000
459.784;  302.025; 1004.000; 1175.000
459.904;   39.475;  867.000;  744.000
460.024;   76.675;  867.000;  684.000
460.144;    6.675;  449.000;  554.000
460.264;  -15.025;  515.000;  327.000
460.385;  -98.325; -145.000; -119.000
460.505;   22.875;  905.000;  858.000
460.625; -106.625;  -17.000;  -68.000
460.745;  -20.575;  396.000;  541.000
460.864;  -61.250;  153.000;  469.000
460.984;    9.475;  499.000;  573.000
461.104;  139.625; 1656.000; 1775.000
461.224;    0.775;  657.000;  650.000
461.344;  -44.650;  431.000;  360.000
461.464;  -34.025;  258.000;  513.000
461.584;  -24.200;  283.000;  466.000
461.704;  -47.250;   58.000;  108.000
461.824;  -44.000;  238.000;  259.000
461.943;  -46.300;  191.000;  130.000
462.063;  -68.750;    2.000;  324.000
462.183;   23.125;  639.000;  717.000
462.303;  112.850; 1678.000; 1230.000
462.422;   32.400;  781.000;  840.000
462.542;  -52.050;  271.000;  391.000
462.662;   28.950;  353.000;  380.000
462.782;  227.825;  833.000;  572.000
462.901;  484.650;  545.000;  717.000
463.021;  285.525; 1702.000; 1638.000
463.141;   -5.600;  337.000;  770.000
463.260;  -23.325;  614.000;  474.000
463.380;    9.000;  902.000;  884.000
463.499;  -31.250;  342.000;  332.000
463.619;  -25.200;  581.000;  559.000
463.738;  100.075; 1644.000;  903.000
463.858;   10.125;  657.000;  811.000
463.978;  -33.800;  542.000;  396.000
464.097;   45.400;  921.000; 1114.000
464.217;  106.050; 1196.000; 1143.000
464.336;  120.050; 1068.000; 1130.000
464.455;  -55.100;  328.000;  659.000
464.575;   19.700;  597.000;  602.000
464.694;  154.625; 1204.000; 1179.000
464.814;  111.525; 1190.000; 1138.000
464.933;   64.775; 1095.000; 1027.000
465.052;  107.400; 1412.000; 1054.000
465.172;   70.050;  922.000;  799.000
465.291;  143.200; 1376.000; 1320.000
465.410;   -3.450;  462.000;  735.000
465.530;   77.600; 1355.000; 1310.000
465.649;   72.600; 1209.000; 1273.000
465.768;  142.225; 1673.000; 1508.000
465.888;   37.200;  941.000; 1174.000
466.007;   89.525; 1335.000; 1440.000
466.126;   -1.425;  721.000;  641.000
466.245;   51.375; 1176.000; 1187.000
466.364;   -2.800;  950.000; 1060.000
466.484;   55.325; 1024.000; 1213.000
466.603;   26.025; 1101.000; 1222.000
466.722;  103.125; 1490.000; 1769.000
466.841;   81.800; 1151.000; 1401.000
466.960;   41.750; 1069.000;  972.000
467.079;  128.925; 1971.000; 1786.000
467.198;   47.000; 1238.000; 1181.000
467.317;   68.850; 1768.000; 1162.000
467.436;   53.725; 1709.000; 1261.000
467.555;  105.150; 1796.000; 1746.000
467.674;   71.075; 1227.000; 1329.000
467.793;   33.100; 1376.000; 1374.000
467.912;   71.225; 1658.000; 1539.000
468.031;  125.025; 2038.000; 1930.000
468.150;  131.450; 1842.000; 1837.000
468.269;  198.975; 2313.000; 2090.000
468.388;  194.675; 2168.000; 2339.000
468.507;  244.625; 2884.000; 2903.000
468.626;  225.625; 2555.000; 2541.000
468.744;  143.425; 2018.000; 2174.000
468.863;  225.625; 2312.000; 2523.000
468.982;   90.600; 1503.000; 1555.000
469.101;  218.900; 2788.000; 2692.000
469.220;  150.425; 2333.000; 2176.000
469.338;  235.475; 2935.000; 3051.000
469.457;  210.300; 2719.000; 2545.000
469.576;  341.325; 3953.000; 3784.000
469.695;  240.125; 2877.000; 3066.000
469.813;  413.050; 4148.000; 4192.000
469.932;  416.175; 4255.000; 4485.000
470.051;  424.100; 4075.000; 4161.000
470.169;  841.925; 4470.000; 4338.000
470.288; 1461.525; 4700.000; 4809.000
470.406;  885.250; 5059.000; 5194.000
470.525;  622.825; 6101.000; 5787.000
470.644;  649.675; 6847.000; 6794.000
470.762;  802.600; 8397.000; 7873.000
470.881;  885.475; 8651.000; 8464.000
470.999; 1032.750; 9685.000; 9151.000
471.118; 1114.100;11174.000;10711.000

