
Integration time [ms]: 200.000
Averaging Nr. [scans]: 10
Smoothing Nr. [pixels]: 0
Data measured with spectrometer [name]: 2101012U2
Wave   ;Sample   ;Dark     ;Reference
[nm]   ;[counts] ;[counts] ;[counts] 

197.733;  146.300;  516.000;  404.000
197.879; -172.000; -610.000; -634.000
198.025; -107.600; -475.000; -420.000
198.171; -136.900; -602.000; -612.000
198.317;  -71.300; -401.000; -316.000
198.463; -141.100; -655.000; -404.000
198.609;   44.800;  181.000; -137.000
198.755; -156.100; -644.000; -410.000
198.901; -111.700; -505.000; -424.000
199.047; -137.700; -615.000; -488.000
199.193;  -90.300; -230.000; -468.000
199.339;  -90.600; -222.000; -369.000
199.485;   81.900;  330.000;  271.000
199.631;   40.900;  227.000;  310.000
199.777;  -97.300; -466.000; -398.000
199.923; -131.000; -610.000; -424.000
200.069;   15.100; -141.000;  -58.000
200.215;  115.500;  128.000;  453.000
200.361;   90.600;  243.000;  477.000
200.507; -129.600; -600.000; -373.000
200.653;  -62.100; -371.000; -194.000
200.798;  -78.700; -215.000; -125.000
200.944;  -36.800; -146.000;  -41.000
201.090;   79.000;   61.000;  222.000
201.236;   -0.800; -116.000; -158.000
201.382;  251.600;  874.000;  903.000
201.528;   11.900;  -58.000;  -48.000
201.674;  -80.500; -386.000; -293.000
201.819; -124.100; -540.000; -439.000
201.965; -154.600; -699.000; -447.000
202.111;  -30.600; -273.000; -226.000
202.257;  -69.100; -250.000; -238.000
202.402;   10.600;   13.000;  -36.000
202.548;  -82.500; -169.000; -116.000
202.694;  211.000;  410.000; -183.000
202.840; -160.200; -603.000; -531.000
202.985; -135.300; -681.000; -639.000
203.131; -206.900; -832.000; -666.000
203.277;  -32.600; -199.000; -262.000
203.423; -105.600; -434.000; -520.000
203.568;  -51.400; -462.000; -237.000
203.714; -123.100; -535.000; -542.000
203.860; -157.400; -682.000; -641.000
204.005;   18.300;  112.000;  167.000
204.151;  145.600;  561.000;  556.000
204.296;  -89.500; -354.000; -221.000
204.442; -152.100; -600.000; -547.000
204.588; -146.800; -592.000; -579.000
204.733;   54.700;  178.000;  168.000
204.879; -257.700;-1018.000; -822.000
205.025;  -20.900;  -99.000;  126.000
205.170;  -19.700;  -17.000;   94.000
205.316;  176.500;  438.000;  661.000
205.461; -162.400; -698.000; -554.000
205.607;  150.600;  609.000;  665.000
205.752; -168.900; -626.000; -551.000
205.898; -109.700; -501.000; -391.000
206.043; -113.600; -578.000; -506.000
206.189;  -70.200; -243.000; -285.000
206.334;  160.100;  554.000;  606.000
206.480;  153.200;  409.000;  239.000
206.625; -164.900; -529.000; -552.000
206.771; -108.700; -451.000; -373.000
206.916;  -73.900; -210.000; -537.000
207.062; -144.200; -545.000; -591.000
207.207; -113.700; -546.000; -443.000
207.353;  128.500;  185.000;  460.000
207.498;   27.300;  196.000;   85.000
207.643;  -87.200; -501.000; -370.000
207.789; -260.200;-1069.000; -910.000
207.934; -204.400; -665.000; -713.000
208.080;  -31.400; -154.000;   66.000
208.225;    2.700;  -22.000;  -57.000
208.370; -204.000; -727.000; -619.000
208.516; -140.000; -741.000; -487.000
208.661;  -68.700; -127.000;  -69.000
208.806;  -43.900; -165.000; -171.000
208.952; -233.400;-1044.000; -731.000
209.097;  144.700;  378.000;  349.000
209.242;  -71.400; -307.000; -382.000
209.387;  139.100;  392.000;  350.000
209.533;  -99.000; -321.000; -350.000
209.678;  198.200;  472.000;  543.000
209.823; -103.500; -408.000; -310.000
209.969; -185.600; -860.000; -757.000
210.114; -205.700; -907.000; -719.000
210.259; -253.500; -939.000; -889.000
210.404;    3.000; -171.000;  103.000
210.549;   11.600;  108.000;    3.000
210.695;  -16.900;   -3.000;  -95.000
210.840;   93.900;   94.000;   67.000
210.985; -123.700; -484.000; -303.000
211.130;  136.100;  268.000;  406.000
211.275;   45.800;  207.000;  199.000
211.420;  -87.900; -300.000; -289.000
211.566; -140.800; -536.000; -489.000
211.711;   56.600;  218.000;  157.000
211.856; -135.800; -545.000; -519.000
212.001;   23.700;  151.000;   44.000
212.146;   18.400;  153.000;   49.000
212.291;  -41.800; -210.000; -186.000
212.436;  -44.700; -280.000;   -6.000
212.581; -147.300; -685.000; -653.000
212.726; -175.100; -487.000; -538.000
212.871;  -75.200; -552.000; -217.000
213.016; -308.600;-1172.000;-1029.000
213.161;  142.600;  406.000;  291.000
213.306; -128.700; -435.000; -577.000
213.451; -188.000; -778.000; -689.000
213.596;  -88.400; -455.000; -347.000
213.741;  -80.100; -448.000; -538.000
213.886; -196.000; -498.000; -517.000
214.031;  -34.700; -294.000; -124.000
214.176; -108.700; -408.000; -341.000
214.321;  -20.200; -296.000; -157.000
214.466;  -78.100; -163.000;  -43.000
214.611;   18.000;  -61.000;  -10.000
214.756; -226.100; -948.000; -858.000
214.901;  -63.800; -388.000; -226.000
215.046; -258.900; -797.000; -825.000
215.191;   31.500;  128.000;   35.000
215.336;   -5.600; -157.000;  -19.000
215.480; -125.000; -684.000; -505.000
215.625;  -39.200; -175.000;  -19.000
215.770; -171.500; -757.000; -662.000
215.915;   -6.900;   -5.000;  -97.000
216.060;  -21.700; -113.000;  -21.000
216.205; -227.900; -731.000; -779.000
216.349; -153.500; -470.000; -533.000
216.494; -248.700; -939.000; -867.000
216.639; -206.600; -823.000; -888.000
216.784; -176.000; -577.000; -525.000
216.929;  112.600;  392.000;  281.000
217.073;    6.600; -244.000;  -31.000
217.218;   31.900;   78.000;  -47.000
217.363; -161.600; -656.000; -618.000
217.507; -149.000; -623.000; -588.000
217.652; -268.200; -845.000; -874.000
217.797; -152.700; -708.000; -659.000
217.942; -226.700; -856.000; -720.000
218.086;  153.100;  608.000;  539.000
218.231;  -47.700; -174.000;  -26.000
218.376;  -58.800; -337.000; -229.000
218.520;   18.600;  -41.000;   96.000
218.665;  -46.700; -338.000; -204.000
218.810;  -66.300; -275.000; -233.000
218.954;   26.300;  201.000;   35.000
219.099; -218.900; -713.000; -963.000
219.243; -134.700; -589.000; -554.000
219.388;  -63.000; -264.000; -136.000
219.532;  -43.800; -116.000; -116.000
219.677; -173.400; -564.000; -521.000
219.822;   32.300;   33.000;   89.000
219.966;   19.100;   17.000;  -99.000
220.111;  -51.100; -328.000;  -40.000
220.255; -207.000; -797.000; -750.000
220.400;  -11.300; -180.000; -146.000
220.544; -148.800; -516.000; -450.000
220.689; -104.400; -422.000; -451.000
220.833;  -40.700; -123.000;  -58.000
220.978;  -47.500; -393.000; -563.000
221.122;   79.500;  319.000;  307.000
221.267; -229.900; -906.000; -837.000
221.411; -129.800; -478.000; -394.000
221.555;  -13.700; -104.000;  -23.000
221.700;  -88.900; -329.000; -222.000
221.844;   66.400;  255.000;  272.000
221.989;  -86.900; -328.000; -311.000
222.133;  -84.900; -289.000; -307.000
222.277;    3.200;    5.000;   78.000
222.422;   47.000;  227.000;  113.000
222.566;  -79.300; -381.000; -214.000
222.711; -125.100; -414.000; -479.000
222.855; -161.900; -643.000; -586.000
222.999; -174.700; -642.000; -717.000
223.144;  -35.500; -195.000; -194.000
223.288;  138.900;  423.000;  251.000
223.432;   42.500;  184.000;  230.000
223.576;   49.600;  152.000;  -21.000
223.721;  127.300;  364.000;  273.000
223.865;  -79.800; -472.000; -475.000
224.009;  524.400; 1673.000; 1631.000
224.153; -152.100; -660.000; -671.000
224.298; -147.100; -531.000; -489.000
224.442;  -28.200;  -74.000;  -33.000
224.586;  -15.300; -169.000; -106.000
224.730; -167.400; -858.000; -670.000
224.875; -218.600; -739.000; -688.000
225.019;   25.400;  102.000;  188.000
225.163;   93.400;  208.000;  341.000
225.307;   66.400;   97.000;  -91.000
225.451;   89.000;  360.000;  481.000
225.595;   57.300;  264.000;  176.000
225.739;  -18.000; -170.000;  -94.000
225.884;   12.100;   86.000;    5.000
226.028; -146.700; -760.000; -626.000
226.172;  -41.000; -260.000; -273.000
226.316; -263.800; -941.000; -902.000
226.460; -128.000; -645.000; -493.000
226.604; -134.000; -406.000; -400.000
226.748; -205.300; -836.000; -733.000
226.892;  -42.600; -227.000; -181.000
227.036;  -81.100; -537.000; -447.000
227.180; -108.800; -551.000; -375.000
227.324; -120.600; -561.000; -580.000
227.468; -197.700; -819.000; -717.000
227.612;   71.000;  242.000;  -28.000
227.756; -157.000; -845.000; -698.000
227.900;  106.900;  342.000;  441.000
228.044; -128.200; -509.000; -290.000
228.188;  119.500;  448.000;  568.000
228.332; -193.000; -546.000; -472.000
228.476;  -48.600; -223.000; -149.000
228.620;  -59.600; -210.000; -150.000
228.764;  141.900;  431.000;  349.000
228.908;  -30.800; -155.000;   30.000
229.052; -122.700; -615.000; -528.000
229.195;   -3.600; -172.000;   13.000
229.339;  -39.600; -235.000; -305.000
229.483;  -56.900;    5.000; -162.000
229.627;   17.100; -156.000;  139.000
229.771; -112.400; -218.000; -294.000
229.915;   13.700;  230.000;   79.000
230.059; -190.000; -648.000; -663.000
230.202;  -67.900; -370.000; -317.000
230.346;  -39.300; -107.000;  107.000
230.490; -129.200; -489.000; -521.000
230.634; -200.400; -736.000; -553.000
230.777;  184.200;  478.000;  509.000
230.921; -109.200; -450.000; -359.000
231.065;  -70.400; -246.000; -286.000
231.209;   55.400;  261.000;  265.000
231.352;   35.900;   54.000;   40.000
231.496;   28.700;  568.000;  188.000
231.640; -193.400; -693.000; -621.000
231.783;  136.700;  546.000;  525.000
231.927;  -80.700; -294.000; -365.000
232.071; -225.200; -962.000; -736.000
232.214; -191.700; -980.000; -764.000
232.358; -192.700; -683.000; -599.000
232.502;   41.200;  -19.000;    7.000
232.645; -253.400;-1090.000; -927.000
232.789;  -10.900; -257.000; -218.000
232.933;  -79.800; -407.000; -224.000
233.076; -240.600;-1038.000; -897.000
233.220; -206.500; -752.000; -777.000
233.363; -159.900; -669.000; -477.000
233.507;  121.400;  371.000;  129.000
233.650; -168.000; -764.000; -834.000
233.794;   68.700;  438.000;  461.000
233.938; -118.100; -530.000; -362.000
234.081;  -15.400;  -93.000;   31.000
234.225;  -93.400; -631.000; -539.000
234.368; -252.800; -773.000; -723.000
234.512;  -93.500; -385.000; -299.000
234.655; -151.700; -582.000; -555.000
234.798; -106.000; -493.000; -466.000
234.942; -238.200; -884.000;-1002.000
235.085; -163.200; -651.000; -443.000
235.229; -138.800; -405.000; -410.000
235.372;  -82.000; -247.000; -191.000
235.516; -110.600; -397.000; -321.000
235.659;   59.000;   92.000;  121.000
235.802;  -30.300;  -38.000;  -22.000
235.946;   70.400;  335.000;  215.000
236.089;   61.800;  126.000;  250.000
236.233;  119.800;  275.000;  298.000
236.376; -112.000; -235.000; -378.000
236.519;  -59.500; -297.000; -319.000
236.663;  -32.800; -215.000; -117.000
236.806; -286.700;-1029.000; -999.000
236.949;  121.600;  543.000;  431.000
237.092;  127.900;  412.000;  391.000
237.236; -163.600; -589.000; -502.000
237.379;  136.500;  352.000;  428.000
237.522; -225.700; -879.000; -768.000
237.666;  -16.900; -271.000;   18.000
237.809; -243.700; -851.000; -823.000
237.952;   69.000;  469.000;  271.000
238.095; -133.100; -447.000; -442.000
238.238;  186.700;  688.000;  700.000
238.382;   -0.400;  166.000;  103.000
238.525; -108.400; -598.000; -511.000
238.668; -256.400;-1060.000; -985.000
238.811; -166.800; -638.000; -643.000
238.954; -125.900; -483.000; -334.000
239.097;  183.800;  617.000;  664.000
239.241;   83.800;  394.000;  326.000
239.384;  -73.500; -254.000; -214.000
239.527; -103.000; -424.000; -224.000
239.670; -289.300; -994.000;-1091.000
239.813; -207.600; -696.000; -658.000
239.956;  158.700;  579.000;  473.000
240.099; -226.500; -778.000; -725.000
240.242;  164.100;  428.000;  432.000
240.385;   61.500;  466.000;  450.000
240.528; -125.300; -706.000; -473.000
240.671;   16.800;  189.000;  134.000
240.814;  -62.500; -441.000; -158.000
240.957; -185.200; -767.000; -578.000
241.100; -188.500; -779.000; -755.000
241.243; -276.200;-1234.000; -893.000
241.386; -116.000; -508.000; -379.000
241.529; -168.800; -735.000; -547.000
241.672; -107.100; -566.000; -495.000
241.815; -215.100; -832.000; -808.000
241.958;  -38.600; -125.000; -182.000
242.101; -131.700; -545.000; -390.000
242.244;  -39.200; -270.000; -325.000
242.387;  -67.400; -304.000; -246.000
242.530;  140.200;  470.000;  134.000
242.673;  -89.600; -381.000; -309.000
242.815; -231.900; -925.000; -899.000
242.958; -126.100; -482.000; -381.000
243.101;   34.300;  132.000;  187.000
243.244; -162.000; -564.000; -521.000
243.387;  -82.700; -313.000; -316.000
243.530; -173.400; -657.000; -674.000
243.672;   -4.600;   43.000;  -92.000
243.815;  -93.700; -355.000; -283.000
243.958;    8.400;   98.000;  -26.000
244.101;   10.300;   59.000;  -16.000
244.243;  -21.900;  -47.000;  101.000
244.386; -205.100; -761.000; -630.000
244.529;  -37.200; -132.000; -139.000
244.672; -295.900;-1154.000; -951.000
244.814; -226.100; -621.000; -794.000
244.957;  -74.500; -380.000; -304.000
245.100; -131.800; -489.000; -489.000
245.242; -135.200; -387.000; -374.000
245.385;   21.900;  -59.000;  -39.000
245.528; -224.800; -871.000; -705.000
245.670;  163.100;  612.000;  634.000
245.813; -160.000; -599.000; -547.000
245.956;  -58.500; -324.000; -275.000
246.098; -144.900; -508.000; -650.000
246.241;   22.900;  194.000;   48.000
246.383;  -12.300; -119.000;  -73.000
246.526; -127.800; -454.000; -525.000
246.669; -262.300; -889.000; -780.000
246.811;   29.400;  172.000;   -1.000
246.954; -125.000; -512.000; -426.000
247.096;  -25.800;  -84.000;   -6.000
247.239; -130.500; -482.000; -445.000
247.381; -136.200; -647.000; -488.000
247.524;  186.500;  645.000;  679.000
247.666;   -5.700;   58.000;   11.000
247.809; -206.400; -887.000; -691.000
247.951;   10.800;  -75.000;  138.000
248.094;   47.900;  432.000;  308.000
248.236; -307.300;-1262.000;-1238.000
248.378;  -79.500; -356.000;  -81.000
248.521;  -56.200; -334.000; -337.000
248.663;  -89.600; -236.000; -267.000
248.806;  -70.100; -300.000; -266.000
248.948; -243.900; -886.000; -763.000
249.090; -105.100; -428.000; -398.000
249.233; -125.000; -344.000; -381.000
249.375; -121.500; -474.000; -451.000
249.518;  -23.800;  -83.000; -133.000
249.660;   17.900; -103.000;    3.000
249.802; -332.600;-1303.000;-1189.000
249.945; -138.300; -612.000; -540.000
250.087; -214.400; -834.000; -768.000
250.229; -116.900; -362.000; -480.000
250.371; -144.500; -494.000; -439.000
250.514;  -95.800; -310.000; -244.000
250.656;  -21.500;   69.000;  102.000
250.798; -214.800; -849.000; -800.000
250.940; -113.000; -322.000; -322.000
251.083;  -54.900; -335.000; -111.000
251.225;  133.800;  338.000;  310.000
251.367;  -87.500; -274.000; -373.000
251.509;  -61.100; -265.000; -210.000
251.651; -195.700; -731.000; -671.000
251.794;  168.300;  538.000;  632.000
251.936; -223.800; -821.000; -747.000
252.078; -142.300; -540.000; -461.000
252.220; -156.500; -645.000; -477.000
252.362;   58.300;  344.000;  462.000
252.504; -157.400; -677.000; -584.000
252.646; -223.700; -875.000; -722.000
252.788;   -8.100;   14.000; -128.000
252.931; -118.700; -257.000; -253.000
253.073;  -94.700; -376.000; -317.000
253.215;  -32.900;  141.000;  122.000
253.357;  -29.900;   82.000; -153.000
253.499; -130.400; -374.000; -234.000
253.641; -151.600; -749.000; -594.000
253.783; -188.400; -609.000; -527.000
253.925; -175.900; -586.000; -591.000
254.067; -226.400; -744.000; -667.000
254.209;  -94.600; -391.000; -259.000
254.351; -276.600; -865.000; -883.000
254.493; -110.300; -441.000; -417.000
254.635; -229.400; -936.000; -818.000
254.777; -176.500; -752.000; -687.000
254.918; -129.200; -512.000; -430.000
255.060; -134.700; -551.000; -395.000
255.202; -119.800; -473.000; -261.000
255.344; -148.800; -658.000; -455.000
255.486; -150.500; -471.000; -406.000
255.628; -209.900; -780.000; -781.000
255.770; -171.000; -676.000; -536.000
255.912; -120.200; -559.000; -468.000
256.053; -154.700; -730.000; -508.000
256.195;  333.800; 1008.000;  903.000
256.337; -206.800; -861.000; -595.000
256.479;  148.000;  532.000;  416.000
256.621;  -74.300; -394.000; -212.000
256.762; -196.100; -789.000; -742.000
256.904;  116.100;  485.000;  487.000
257.046;  -53.500; -381.000; -271.000
257.188;  -81.800; -351.000; -264.000
257.329; -104.800; -525.000; -464.000
257.471; -257.300; -939.000; -807.000
257.613; -121.700; -584.000; -498.000
257.755; -291.400;-1073.000; -982.000
257.896;   66.100;  286.000;  392.000
258.038; -112.300; -403.000; -352.000
258.180;  -63.300; -354.000; -279.000
258.321; -177.300; -581.000; -457.000
258.463;  -15.000;  -71.000;  133.000
258.605; -171.400; -562.000; -570.000
258.746; -184.300; -886.000; -772.000
258.888; -295.400;-1026.000;-1020.000
259.029;   43.500;  121.000;   -8.000
259.171; -174.600; -614.000; -550.000
259.313;   13.800;  -49.000;  -47.000
259.454; -130.000; -536.000; -414.000
259.596;  -80.100; -483.000; -390.000
259.737; -152.500; -590.000; -474.000
259.879;   95.700;  217.000;  311.000
260.020;  199.900;  901.000;  636.000
260.162;  -42.400; -146.000; -253.000
260.303; -221.100; -768.000; -687.000
260.445; -132.300; -609.000; -613.000
260.586;   42.000;  392.000;  157.000
260.728;  -94.500; -360.000; -248.000
260.869; -145.600; -350.000; -343.000
261.011;  174.200;  706.000;  537.000
261.152; -124.600; -479.000; -319.000
261.293; -178.900; -576.000; -595.000
261.435;  -51.400; -219.000; -184.000
261.576;  -83.300; -455.000; -325.000
261.718;  130.100;  420.000;  470.000
261.859; -241.200; -940.000; -949.000
262.000; -287.200; -951.000;-1016.000
262.142;  -33.100;  -52.000;  -60.000
262.283; -198.300; -808.000; -691.000
262.424; -163.400; -666.000; -625.000
262.566; -297.100;-1161.000; -983.000
262.707; -211.300; -840.000; -830.000
262.848; -234.300; -769.000; -726.000
262.990;  -89.900; -362.000; -345.000
263.131;  150.600;  650.000;  681.000
263.272;  -11.900;  -61.000;  -41.000
263.413; -174.600; -589.000; -561.000
263.555; -121.600; -669.000; -143.000
263.696; -168.600; -550.000; -641.000
263.837; -103.400; -449.000; -551.000
263.978;    1.700;   -5.000;  -77.000
264.119;  -84.000; -283.000; -264.000
264.261; -228.900; -847.000; -630.000
264.402;   -7.300;   33.000;   40.000
264.543; -123.000; -509.000; -524.000
264.684;    0.700;   61.000;  -50.000
264.825; -153.000; -816.000; -538.000
264.966;    5.600;  -84.000;  -67.000
265.107; -231.100; -646.000; -670.000
265.248; -247.800; -825.000; -812.000
265.390;   -6.700;  152.000;   -9.000
265.531;  -37.600; -238.000; -107.000
265.672; -201.000; -557.000; -630.000
265.813;  151.200;  563.000;  439.000
265.954; -332.100; -959.000; -940.000
266.095;  -30.400; -372.000; -322.000
266.236; -202.500; -686.000; -548.000
266.377;  -68.400; -243.000; -297.000
266.518; -156.100; -619.000; -547.000
266.659;   67.000;  170.000;  268.000
266.800;   39.100;   83.000;   85.000
266.941; -148.000; -487.000; -478.000
267.082;   24.300;  354.000;   99.000
267.223;  -78.200; -344.000; -273.000
267.364; -242.300; -892.000; -686.000
267.504;    6.800;    3.000;  135.000
267.645;   26.000;  160.000;   67.000
267.786;  -53.400; -147.000;  -86.000
267.927; -151.500; -473.000; -379.000
268.068;  -23.200; -186.000;  -61.000
268.209;  -67.000; -175.000; -413.000
268.350;  -79.000; -388.000; -532.000
268.490; -174.900; -648.000; -521.000
268.631;   68.300;  127.000;  225.000
268.772; -235.000; -874.000; -647.000
268.913; -116.900; -328.000; -476.000
269.054;   -6.500; -117.000;   12.000
269.194;  -99.600; -418.000; -402.000
269.335; -314.500;-1137.000;-1074.000
269.476;  -16.100;   33.000;  -35.000
269.617; -118.700; -347.000; -392.000
269.757; -164.300; -713.000; -646.000
269.898; -236.700; -856.000; -613.000
270.039; -114.100; -415.000; -405.000
270.180; -271.700; -952.000; -816.000
270.320;  -38.900; -190.000; -250.000
270.461;  -64.100; -277.000; -249.000
270.602;  -42.300; -186.000; -156.000
270.742; -252.600; -868.000; -943.000
270.883; -114.100; -442.000; -390.000
271.023; -116.700; -358.000; -357.000
271.164; -137.400; -607.000; -528.000
271.305; -197.400; -666.000; -654.000
271.445; -193.900; -722.000; -683.000
271.586; -142.500; -462.000; -283.000
271.726;  -83.900; -397.000; -322.000
271.867; -191.000; -594.000; -534.000
272.008;  -83.000; -473.000; -285.000
272.148;  110.000;  462.000;  468.000
272.289;  -42.000; -113.000; -181.000
272.429;   18.800;   19.000;  185.000
272.570; -203.600; -633.000; -737.000
272.710; -193.500; -825.000; -775.000
272.851;  -56.800;  113.000; -130.000
272.991; -343.200;-1173.000;-1077.000
273.131; -102.000; -419.000; -459.000
273.272; -210.600; -683.000; -723.000
273.412;  -41.800; -143.000;  -31.000
273.553; -152.400; -488.000; -507.000
273.693;  221.400;  913.000;  858.000
273.834; -260.900; -894.000; -692.000
273.974; -165.200; -664.000; -615.000
274.114; -201.600; -772.000; -560.000
274.255;   79.800;  414.000;  373.000
274.395;  -87.900; -180.000; -125.000
274.535;   65.600;  199.000;  350.000
274.676;   40.500;  225.000;   94.000
274.816;  -21.100;  110.000;   34.000
274.956; -182.300; -624.000; -690.000
275.097; -260.100;-1014.000; -922.000
275.237; -252.900; -913.000; -803.000
275.377; -223.000; -778.000; -689.000
275.517; -305.800; -878.000; -937.000
275.658; -145.000; -590.000; -555.000
275.798; -196.900; -606.000; -413.000
275.938;   27.200;  215.000;  323.000
276.078; -203.600; -626.000; -395.000
276.218;   13.100;   99.000;  104.000
276.359; -295.200;-1026.000;-1024.000
276.499; -153.600; -605.000; -446.000
276.639;  -49.000; -305.000; -151.000
276.779;  -89.400; -475.000; -357.000
276.919; -231.500; -783.000; -624.000
277.059;  -65.600; -261.000; -212.000
277.199;  -93.600; -357.000; -259.000
277.340;   73.500;  287.000;  175.000
277.480; -252.100; -840.000; -693.000
277.620;   44.400;  192.000;   16.000
277.760; -389.700;-1533.000;-1294.000
277.900;   31.200;  113.000;   33.000
278.040;    0.900;  137.000;  159.000
278.180;   49.000;  270.000;  170.000
278.320;    7.200;   21.000;   56.000
278.460; -148.500; -443.000; -469.000
278.600; -176.900; -708.000; -598.000
278.740;   77.900;  448.000;  224.000
278.880; -261.100; -768.000; -791.000
279.020;  -37.800; -194.000; -144.000
279.160; -186.200; -672.000; -595.000
279.300; -259.800; -926.000; -873.000
279.440; -206.800; -709.000; -622.000
279.579; -283.400;-1014.000; -929.000
279.719; -126.700; -410.000; -394.000
279.859;   26.400;   -4.000;   41.000
279.999;  -47.900; -208.000;  101.000
280.139; -118.800; -435.000; -387.000
280.279; -205.200; -708.000; -745.000
280.419;  -18.600; -229.000; -147.000
280.559;  -87.300; -259.000; -180.000
280.698; -180.600; -790.000; -639.000
280.838; -221.400; -778.000; -800.000
280.978; -186.900; -846.000; -790.000
281.118; -230.700; -811.000; -704.000
281.257;   15.100;   24.000;    6.000
281.397; -324.000;-1094.000; -960.000
281.537; -182.800; -599.000; -712.000
281.677;  -54.300; -150.000; -101.000
281.816; -187.900; -700.000; -630.000
281.956;  -74.200; -193.000; -257.000
282.096; -129.700; -539.000; -396.000
282.235; -209.300; -672.000; -638.000
282.375;  -33.100; -243.000;  -98.000
282.515; -216.000; -715.000; -707.000
282.654;   20.400;   29.000;  106.000
282.794;   84.100;  388.000;  244.000
282.934; -112.200; -530.000; -491.000
283.073; -283.900;-1030.000; -857.000
283.213; -118.100; -460.000; -467.000
283.353; -113.000; -408.000; -349.000
283.492;  -81.700; -264.000; -296.000
283.632;  -98.100; -254.000; -168.000
283.771; -176.800; -859.000; -730.000
283.911; -115.800; -369.000; -260.000
284.050; -206.400; -794.000; -748.000
284.190; -311.500;-1229.000;-1096.000
284.329; -291.500;-1055.000; -964.000
284.469; -210.500; -516.000; -591.000
284.608; -127.900; -559.000; -598.000
284.748; -157.400; -614.000; -570.000
284.887;  -22.500;  -87.000;  -20.000
285.027; -264.600; -844.000; -892.000
285.166;  -63.800; -192.000; -249.000
285.306;  -35.800; -116.000;  -33.000
285.445;  -85.900; -229.000; -343.000
285.584; -175.500; -630.000; -494.000
285.724;  -84.300; -282.000; -322.000
285.863; -215.200; -857.000; -507.000
286.002;  -98.000; -366.000; -276.000
286.142; -198.100; -715.000; -622.000
286.281; -146.200; -525.000; -493.000
286.420; -154.200; -554.000; -417.000
286.560;  177.200;  653.000;  623.000
286.699; -259.000; -958.000; -912.000
286.838; -161.000; -590.000; -591.000
286.978; -193.300; -533.000; -537.000
287.117; -293.700;-1085.000; -950.000
287.256;  -83.500; -228.000; -211.000
287.395;  -87.500; -197.000; -378.000
287.535; -135.100; -370.000; -298.000
287.674; -150.600; -509.000; -484.000
287.813;  115.300;  661.000;  533.000
287.952; -265.200;-1010.000; -871.000
288.091; -307.900;-1049.000; -915.000
288.231;   15.200;   13.000;   15.000
288.370; -341.900;-1217.000;-1200.000
288.509; -181.500; -728.000; -645.000
288.648; -211.900; -770.000; -548.000
288.787;  -42.900; -243.000;  -87.000
288.926; -141.900; -454.000; -475.000
289.065;  214.900;  859.000;  672.000
289.204; -111.600; -377.000; -217.000
289.344; -215.000; -791.000; -690.000
289.483;   44.400;  416.000;  304.000
289.622;  -72.300; -291.000; -149.000
289.761;  -16.200; -309.000; -166.000
289.900; -209.000; -785.000; -626.000
290.039;  -41.100;  -12.000;  -95.000
290.178;  -69.100; -274.000; -180.000
290.317; -177.100; -618.000; -479.000
290.456; -144.800; -463.000; -451.000
290.595; -289.600; -961.000; -833.000
290.734; -258.700; -904.000; -891.000
290.873; -145.200; -456.000; -420.000
291.011; -230.500; -833.000; -843.000
291.150; -239.300; -770.000; -682.000
291.289;  -78.700; -343.000; -110.000
291.428; -173.700; -599.000; -480.000
291.567;  -84.600; -370.000; -442.000
291.706;   -8.100;  109.000;  154.000
291.845; -175.800; -597.000; -505.000
291.984; -346.000;-1234.000;-1061.000
292.122;  136.600;  602.000;  582.000
292.261;  140.300;  620.000;  463.000
292.400;    7.100; -144.000;  211.000
292.539; -237.100; -959.000; -813.000
292.678;  -73.100; -325.000; -300.000
292.816; -300.000;-1136.000; -965.000
292.955; -243.400; -844.000; -684.000
293.094;  -46.400; -173.000; -337.000
293.233;  -93.700; -556.000; -400.000
293.371;  -67.100; -225.000;  -84.000
293.510; -245.100; -866.000; -780.000
293.649; -304.100; -959.000; -924.000
293.787; -288.200;-1083.000;-1012.000
293.926;  -52.200; -113.000;  -32.000
294.065;  -96.100; -379.000; -290.000
294.203;   99.000;  298.000;  406.000
294.342;   12.100;   74.000;  156.000
294.481;11644.800;51180.000; -836.000
294.619;  -57.900; -425.000; -582.000
294.758; -316.200;-1230.000;-1137.000
294.896;   -2.500; -125.000;    5.000
295.035; -308.200;-1040.000;-1006.000
295.174; -304.500;-1082.000; -954.000
295.312;  -89.100; -323.000; -203.000
295.451; -113.300; -307.000; -428.000
295.589; -153.100; -389.000; -518.000
295.728;   -5.600; -292.000; -165.000
295.866;  -33.900;  -36.000;  -51.000
296.005; -158.500; -584.000; -341.000
296.143; -188.300; -558.000; -596.000
296.282; -197.500; -957.000; -881.000
296.420; -192.700; -657.000; -557.000
296.559; -184.900; -892.000; -633.000
296.697; -186.000; -847.000; -665.000
296.835; -304.900;-1141.000;-1002.000
296.974;  -14.100;  -23.000;   39.000
297.112; -177.000; -443.000; -504.000
297.251; -225.400; -815.000; -755.000
297.389; -138.700; -576.000; -438.000
297.527;  -50.100; -145.000;  -83.000
297.666; -181.300; -486.000; -438.000
297.804; -154.900; -404.000; -264.000
297.942;  -12.500; -136.000; -161.000
298.081;  -34.100; -183.000;   63.000
298.219;  -29.300;  -17.000;  -19.000
298.357; -113.600; -144.000;  -71.000
298.495; -250.100; -810.000; -812.000
298.634;   13.800;  245.000;  219.000
298.772;  -62.100; -220.000; -338.000
298.910; -151.600; -309.000; -182.000
299.048;  -45.600; -130.000; -153.000
299.187;  -88.700; -350.000; -250.000
299.325;   40.800;   52.000;  122.000
299.463; -103.800; -389.000; -299.000
299.601;  -54.400; -327.000; -271.000
299.739; -268.700; -908.000; -883.000
299.877; -187.200; -791.000; -703.000
300.016; -298.400;-1095.000; -935.000
300.154;  -22.800;  -19.000; -161.000
300.292; -143.900; -428.000; -348.000
300.430; -101.600; -408.000; -291.000
300.568; -277.100; -940.000; -874.000
300.706; -123.500; -366.000; -469.000
300.844; -298.400;-1108.000; -979.000
300.982;   78.800;  246.000;  282.000
301.120; -306.200; -965.000; -866.000
301.258; -186.600; -812.000; -705.000
301.396;    5.900;  104.000;  -41.000
301.534;  -76.400; -218.000; -293.000
301.672; -164.500; -664.000; -521.000
301.810; -175.900; -613.000; -545.000
301.948;   22.100;   53.000;  149.000
302.086;  -37.400; -250.000;  -32.000
302.224; -162.800; -610.000; -585.000
302.362; -189.400; -558.000; -622.000
302.500; -266.800; -923.000; -893.000
302.638;    1.100;  128.000;  245.000
302.776;  -74.300; -352.000; -408.000
302.913;   90.400;  447.000;  236.000
303.051;  -34.400;  -86.000;  -23.000
303.189;   23.700;   90.000;  118.000
303.327; -103.500; -341.000; -256.000
303.465; -176.400; -832.000; -588.000
303.603; -228.700; -805.000; -604.000
303.740;   88.400;  417.000;  241.000
303.878; -236.200; -800.000; -759.000
304.016; -203.700; -915.000; -790.000
304.154; -344.700;-1123.000;-1152.000
304.291; -133.000; -505.000; -554.000
304.429;   -2.100;  102.000;   74.000
304.567; -295.200; -908.000; -893.000
304.705; -154.900; -408.000; -515.000
304.842; -173.600; -616.000; -540.000
304.980;   24.100;  215.000;   35.000
305.118;  -82.300; -367.000; -365.000
305.255; -273.900; -945.000; -927.000
305.393;   73.300;  178.000;  239.000
305.531; -303.600;-1173.000; -956.000
305.668; -169.900; -663.000; -582.000
305.806; -124.300; -358.000; -439.000
305.943; -183.400; -629.000; -637.000
306.081; -101.900; -378.000; -267.000
306.219; -247.400; -863.000; -748.000
306.356;   11.700;  158.000;   27.000
306.494;  200.400;  981.000;  761.000
306.631;  -18.800;  -11.000;  -55.000
306.769;  -90.300; -613.000; -485.000
306.906; -121.600; -284.000; -258.000
307.044; -149.200; -473.000; -488.000
307.181; -153.500; -410.000; -332.000
307.319;   43.800;  112.000;   87.000
307.456; -368.400;-1191.000;-1153.000
307.594; -233.700; -980.000; -727.000
307.731;  -96.500; -371.000; -164.000
307.868;  -34.900;  -15.000;   20.000
308.006; -292.300; -961.000; -847.000
308.143; -127.200; -618.000; -330.000
308.281;  -29.700;  -37.000; -254.000
308.418; -208.000; -748.000; -640.000
308.555; -172.500; -400.000; -250.000
308.693; -159.200; -577.000; -573.000
308.830; -231.000; -712.000; -657.000
308.967;  -49.600; -215.000;  -95.000
309.105; -135.400; -507.000; -396.000
309.242; -106.900; -468.000; -367.000
309.379; -180.100; -577.000; -655.000
309.517; -267.500; -936.000; -948.000
309.654; -256.800; -910.000; -734.000
309.791; -187.000; -662.000; -580.000
309.928; -288.800; -977.000; -914.000
310.065;  159.800;  819.000;  697.000
310.203; -265.400; -825.000; -850.000
310.340; -134.400; -465.000; -321.000
310.477; -171.800; -412.000; -516.000
310.614; -134.000; -383.000; -473.000
310.751; -182.300; -427.000; -518.000
310.889;  -26.700;    1.000;   11.000
311.026; -340.400;-1161.000; -939.000
311.163; -118.300; -386.000; -380.000
311.300; -169.600; -512.000; -479.000
311.437; -157.100; -658.000; -619.000
311.574; -316.300;-1226.000; -985.000
311.711; -154.300; -595.000; -433.000
311.848;  -88.000; -380.000; -388.000
311.985;   25.500;  270.000;   93.000
312.122; -232.000; -932.000; -762.000
312.259; -267.100; -941.000; -994.000
312.396; -196.300; -508.000; -551.000
312.533; -203.100; -812.000; -790.000
312.670; -309.100;-1070.000; -898.000
312.807;  -78.700; -352.000; -367.000
312.944; -202.900; -513.000; -611.000
313.081; -111.600; -150.000; -415.000
313.218; -294.400;-1111.000; -867.000
313.355; -113.200; -531.000; -449.000
313.492; -106.800; -455.000; -292.000
313.629;  196.800;  815.000;  735.000
313.766; -348.100;-1176.000;-1008.000
313.902;  -40.500; -186.000;   21.000
314.039; -114.400; -372.000; -289.000
314.176;   42.800;  286.000;  192.000
314.313; -167.900; -569.000; -473.000
314.450; -192.700; -788.000; -684.000
314.587; -157.400; -468.000; -480.000
314.723;   -5.900;  -78.000;  130.000
314.860;   45.900;  318.000;  332.000
314.997;   26.600;  223.000;  142.000
315.134; -119.500; -385.000; -368.000
315.270; -143.500; -480.000; -496.000
315.407; -325.400;-1094.000; -967.000
315.544; -173.700; -657.000; -538.000
315.681; -192.800; -681.000; -565.000
315.817;  -59.200; -133.000; -176.000
315.954; -142.200; -613.000; -392.000
316.091; -295.900;-1045.000;-1023.000
316.227;  -71.500;  -71.000; -179.000
316.364;   11.700;   23.000;    6.000
316.500;  -58.200; -113.000; -300.000
316.637;  -71.400; -181.000; -302.000
316.774; -155.500; -625.000; -358.000
316.910; -182.500; -598.000; -629.000
317.047; -185.400; -487.000; -351.000
317.183; -134.300; -435.000; -566.000
317.320; -157.000; -367.000; -321.000
317.456; -223.900; -733.000; -805.000
317.593; -187.200; -598.000; -641.000
317.729;   15.400;  168.000;  -67.000
317.866; -403.800;-1434.000;-1285.000
318.002; -177.000; -708.000; -948.000
318.139; -270.600; -883.000; -867.000
318.275; -247.400;-1003.000; -738.000
318.412; -149.600; -517.000; -336.000
318.548; -198.800; -751.000; -720.000
318.685; -276.100; -985.000; -888.000
318.821; -225.000; -762.000; -735.000
318.957;  -49.300;   34.000;  -23.000
319.094;   64.100;  297.000;  154.000
319.230; -248.100; -756.000; -742.000
319.367; -137.700; -471.000; -520.000
319.503; -128.500; -538.000; -436.000
319.639; -206.500; -877.000; -793.000
319.775; -197.200; -750.000; -685.000
319.912; -143.300; -424.000; -519.000
320.048; -313.600;-1184.000;-1184.000
320.184;   57.000;   59.000;   70.000
320.321; -129.300; -497.000; -467.000
320.457;   97.700;  475.000;  662.000
320.593; -123.500; -375.000; -382.000
320.729; -228.000; -732.000; -734.000
320.866; -197.300; -577.000; -635.000
321.002; -223.200; -759.000; -809.000
321.138; -106.400; -135.000; -211.000
321.274;  -21.000; -148.000; -115.000
321.410; -159.600; -585.000; -353.000
321.546; -273.200;-1011.000; -911.000
321.683;   41.100;  400.000;  185.000
321.819;  -35.600;  -48.000; -117.000
321.955; -271.100; -743.000; -722.000
322.091; -143.800; -585.000; -540.000
322.227; -108.300; -382.000; -202.000
322.363; -114.400; -320.000; -215.000
322.499; -128.800; -343.000; -331.000
322.635;  152.600;  636.000;  443.000
322.771;  -54.100; -139.000;   12.000
322.907;   79.800;  129.000;  327.000
323.043; -114.900; -115.000; -206.000
323.179; -110.200; -394.000; -363.000
323.315; -141.800; -401.000; -371.000
323.451;  -89.900; -328.000; -236.000
323.587;  -70.700;  -60.000;  -77.000
323.723; -159.500; -682.000; -601.000
323.859;  -94.200; -258.000;  -76.000
323.995; -107.300; -467.000; -409.000
324.131; -264.600; -967.000; -892.000
324.267;  -77.500; -254.000; -276.000
324.402; -311.800; -960.000; -983.000
324.538;  -73.000; -279.000; -104.000
324.674;   21.100;  164.000;   77.000
324.810;    9.800;  226.000;  308.000
324.946; -165.300; -810.000; -658.000
325.082; -139.300; -568.000; -475.000
325.217;  -42.700;  -62.000;   16.000
325.353; -198.700; -764.000; -659.000
325.489; -174.000; -540.000; -506.000
325.625; -166.100; -579.000; -525.000
325.760;   84.300;  517.000;  376.000
325.896; -162.000; -515.000; -702.000
326.032;  -93.100; -403.000; -352.000
326.168; -123.300; -462.000; -369.000
326.303; -133.800; -352.000; -461.000
326.439;  -69.600; -336.000; -276.000
326.575;  -66.100; -190.000;  -29.000
326.710;  -31.700; -156.000;  -30.000
326.846;  -30.500;  146.000;  103.000
326.982; -189.600; -530.000; -548.000
327.117; -173.500; -481.000; -442.000
327.253; -228.900; -745.000; -742.000
327.388; -382.900;-1137.000;-1153.000
327.524; -213.600; -811.000; -578.000
327.659;  -59.000;  -58.000;  -22.000
327.795;  -25.400;   69.000;   45.000
327.931; -195.100; -723.000; -499.000
328.066; -111.000; -417.000; -276.000
328.202; -107.900;   12.000; -129.000
328.337;  197.600;  957.000;  713.000
328.473;   -6.900;  -12.000;  -74.000
328.608;  -70.200; -256.000; -267.000
328.743; -241.800; -799.000; -664.000
328.879;   34.800;  214.000;  114.000
329.014; -133.200; -102.000; -122.000
329.150; -177.000; -358.000; -483.000
329.285; -160.800; -465.000; -466.000
329.421; -101.700; -548.000; -246.000
329.556;  -65.200;  -36.000;   85.000
329.691; -181.700; -633.000; -615.000
329.827; -168.500; -626.000; -480.000
329.962; -103.300;  131.000; -301.000
330.097; -209.600; -673.000; -585.000
330.233; -126.600; -410.000; -223.000
330.368; -243.100; -839.000; -628.000
330.503;  -30.700;    3.000;   98.000
330.638;  -35.700;  -93.000; -125.000
330.774; -184.700; -609.000; -530.000
330.909;  -97.700; -434.000; -244.000
331.044; -178.200; -714.000; -708.000
331.179; -345.700;-1217.000;-1109.000
331.315;    8.300;   77.000;   20.000
331.450;   34.300;  157.000;  285.000
331.585; -211.100; -805.000; -706.000
331.720; -172.000; -510.000; -460.000
331.855;  -27.100;  -35.000; -102.000
331.990;  -25.800;   62.000;  138.000
332.126;  -15.600; -110.000;   71.000
332.261; -116.800; -379.000; -265.000
332.396;  -84.700; -135.000; -242.000
332.531; -316.000;-1074.000;-1031.000
332.666; -128.300; -519.000; -363.000
332.801; -238.200; -726.000; -807.000
332.936;  -58.900; -192.000; -122.000
333.071; -303.700; -870.000; -817.000
333.206;   47.900;  307.000;  379.000
333.341;   53.200;  344.000;  418.000
333.476; -180.300; -627.000; -623.000
333.611;  -59.500; -251.000; -173.000
333.746;  -85.000; -381.000; -464.000
333.881; -276.000; -973.000; -935.000
334.016; -239.900; -936.000; -917.000
334.151; -253.600; -746.000; -702.000
334.286;   29.800;  152.000;  186.000
334.421;  -40.300; -125.000; -178.000
334.556; -174.000; -611.000; -567.000
334.690; -199.700; -631.000; -577.000
334.825;   85.000;  381.000;   83.000
334.960; -168.900; -285.000; -413.000
335.095;  -20.400;  135.000;  -91.000
335.230; -233.700; -722.000; -738.000
335.365; -289.900;-1084.000; -990.000
335.499; -327.000;-1108.000;-1037.000
335.634;  -30.700;    9.000;  534.000
335.769; -270.500; -755.000; -720.000
335.904; -208.500; -603.000; -561.000
336.038; -213.200; -735.000; -657.000
336.173; -351.500;-1206.000;-1194.000
336.308;  -91.900; -116.000; -189.000
336.443; -121.200; -544.000; -634.000
336.577; -267.000; -936.000; -787.000
336.712;  -58.600;   -4.000;  -12.000
336.847; -233.500; -724.000; -607.000
336.981; -110.800; -272.000; -208.000
337.116;   69.600;  615.000;  501.000
337.250; -138.000; -434.000; -421.000
337.385; -114.600; -297.000; -208.000
337.520; -207.400; -632.000; -603.000
337.654;  -98.500; -215.000; -126.000
337.789; -262.100; -989.000; -933.000
337.923;  -69.700; -104.000; -205.000
338.058; -226.100; -673.000; -738.000
338.192; -210.100; -611.000; -488.000
338.327;  -74.000;  -18.000; -155.000
338.461; -187.200; -299.000; -469.000
338.596; -204.200; -780.000; -638.000
338.730; -246.600; -767.000; -803.000
338.865;  -40.900;  -46.000; -140.000
338.999; -266.900; -846.000; -702.000
339.134; -196.600; -634.000; -536.000
339.268; -225.800; -741.000; -603.000
339.403; -257.800; -740.000; -775.000
339.537; -241.500; -894.000; -820.000
339.671; -247.900; -829.000; -813.000
339.806; -191.700; -556.000; -512.000
339.940;  -45.400; -261.000; -235.000
340.074; -228.200; -685.000; -510.000
340.209;  -93.900; -351.000; -230.000
340.343; -176.800; -517.000; -573.000
340.477;  291.800;  998.000; 1036.000
340.612; -262.900;-1033.000; -900.000
340.746; -108.900; -199.000; -243.000
340.880; -239.100; -924.000; -785.000
341.014;  -44.400;  -45.000; -154.000
341.149; -215.000; -756.000; -718.000
341.283; -252.500; -839.000; -754.000
341.417; -326.300;-1124.000; -938.000
341.551; -217.700; -768.000; -708.000
341.685; -184.600; -633.000; -611.000
341.820; -186.900; -562.000; -493.000
341.954; -139.700; -218.000; -349.000
342.088; -296.000;-1102.000;-1019.000
342.222;   93.700;  565.000;  618.000
342.356; -140.300; -395.000; -335.000
342.490; -275.900; -880.000; -841.000
342.624;  -96.700; -339.000; -242.000
342.758; -112.300; -364.000; -312.000
342.892; -183.100; -710.000; -585.000
343.026;  -72.700;  -58.000; -116.000
343.160;  -93.200; -426.000; -376.000
343.294; -172.000; -474.000; -337.000
343.428; -168.200; -488.000; -448.000
343.562;  -73.000; -172.000;  -23.000
343.696; -105.700; -385.000; -314.000
343.830; -138.500; -362.000; -356.000
343.964;  -62.300; -231.000; -168.000
344.098;  -23.300;  199.000;   70.000
344.232;  -94.400; -266.000; -127.000
344.366; -189.900; -567.000; -453.000
344.500; -213.900; -665.000; -744.000
344.634; -124.100; -324.000; -164.000
344.768; -156.200; -531.000; -341.000
344.902;   33.000;  278.000;  256.000
345.035; -117.800; -556.000; -496.000
345.169; -303.600; -933.000; -656.000
345.303; -108.200; -308.000; -482.000
345.437; -219.700; -826.000; -717.000
345.571; -190.200; -675.000; -594.000
345.704; -100.600; -309.000; -532.000
345.838;  -73.600; -331.000; -284.000
345.972; -188.600; -543.000; -495.000
346.106;  -16.900; -179.000; -190.000
346.239;  -80.100; -312.000; -243.000
346.373; -107.500; -343.000; -302.000
346.507; -308.600; -950.000; -962.000
346.640;  -55.300;  -30.000;   13.000
346.774; -201.700; -650.000; -797.000
346.908;  -35.100; -138.000;  -11.000
347.041; -198.600; -646.000; -593.000
347.175;    4.500;  259.000;   27.000
347.309; -230.000; -698.000; -628.000
347.442; -252.800; -883.000; -732.000
347.576;  115.100;  670.000;  668.000
347.709;  -36.100; -123.000;  -52.000
347.843; -297.700; -933.000; -825.000
347.976;   60.100;  235.000;  294.000
348.110; -370.800;-1268.000;-1186.000
348.243; -197.400; -679.000; -772.000
348.377;  -23.700;  -26.000;   60.000
348.510;   93.200;  403.000;  540.000
348.644;  -88.600;  -37.000; -159.000
348.777;   18.100;  180.000;  191.000
348.911;  -81.000; -142.000; -112.000
349.044;   73.900;  471.000;  448.000
349.178; -329.300;-1069.000;-1006.000
349.311;   53.300;  141.000;  255.000
349.444; -255.900; -927.000; -813.000
349.578; -103.400; -347.000; -200.000
349.711; -293.600; -959.000; -862.000
349.845; -203.900; -661.000; -591.000
349.978; -367.900;-1224.000;-1137.000
350.111; -155.800; -546.000; -612.000
350.244; -236.500; -596.000; -700.000
350.378; -120.400; -392.000; -393.000
350.511; -140.000; -393.000; -426.000
350.644; -260.100; -808.000; -806.000
350.778;  -33.900;  168.000;  104.000
350.911;   -3.400;  134.000;  140.000
351.044; -209.500; -685.000; -615.000
351.177;  -89.500; -321.000; -281.000
351.310;  -37.800;    3.000; -131.000
351.444; -246.000; -888.000; -788.000
351.577;  -17.600;  140.000;   90.000
351.710;  135.400;  593.000;  417.000
351.843;  -64.000; -165.000;  -77.000
351.976;   -1.900;  149.000;  -79.000
352.109; -206.600; -621.000; -612.000
352.242; -143.900; -464.000; -419.000
352.376; -192.200; -580.000; -636.000
352.509; -112.100; -437.000; -356.000
352.642; -314.300; -654.000; -604.000
352.775;  -81.600; -141.000;  -98.000
352.908; -297.700; -933.000; -904.000
353.041; -235.200; -814.000; -824.000
353.174; -170.200; -551.000; -424.000
353.307; -224.100; -753.000; -764.000
353.440;  111.200;  541.000;  453.000
353.573; -275.800; -957.000;-1008.000
353.706; -237.300; -384.000; -558.000
353.839; -105.200; -264.000; -220.000
353.971; -189.800; -657.000; -512.000
354.104; -256.600; -896.000; -835.000
354.237; -239.000; -627.000; -662.000
354.370; -238.100; -846.000; -879.000
354.503; -379.100;-1231.000;-1308.000
354.636; -105.600; -529.000; -348.000
354.769; -289.000; -937.000; -860.000
354.902;  -79.900; -230.000; -139.000
355.034;  -72.800; -164.000; -220.000
355.167;  -99.100; -262.000; -162.000
355.300; -304.300;-1061.000; -880.000
355.433;  -17.900;  -71.000;  -14.000
355.565; -164.000; -402.000; -384.000
355.698; -124.400; -356.000; -296.000
355.831; -267.200; -882.000; -801.000
355.964; -106.300; -285.000; -170.000
356.096; -269.000; -856.000; -843.000
356.229; -160.400; -523.000; -530.000
356.362; -129.200; -373.000; -266.000
356.494;  -81.400; -229.000; -162.000
356.627;   35.600;  269.000;  377.000
356.760;    6.600;  120.000;   53.000
356.892; -197.800; -286.000; -601.000
357.025;   92.500;  403.000;  389.000
357.157;  -81.800; -167.000; -179.000
357.290; -249.500; -856.000; -713.000
357.423; -206.500; -667.000; -556.000
357.555;  -65.400; -217.000; -228.000
357.688; -184.500; -483.000; -364.000
357.820; -268.600; -870.000; -877.000
357.953; -208.400; -563.000; -589.000
358.085; -183.300; -632.000; -612.000
358.218; -335.600;-1131.000; -932.000
358.350;   -2.500;  -58.000;  312.000
358.483; -348.300;-1300.000;-1187.000
358.615; -319.700;-1182.000;-1078.000
358.747; -362.500;-1187.000;-1058.000
358.880; -225.700; -810.000; -744.000
359.012; -132.200; -376.000; -202.000
359.145; -187.000; -480.000; -511.000
359.277; -303.900; -962.000; -913.000
359.409;   67.600;  536.000;  231.000
359.542; -244.200; -738.000; -688.000
359.674;    2.800;   46.000;   13.000
359.806; -200.600; -565.000; -438.000
359.939; -143.700; -617.000; -516.000
360.071; -214.000; -583.000; -579.000
360.203; -107.700; -411.000; -364.000
360.335;  -39.400;  164.000;  -16.000
360.468; -100.600; -249.000; -307.000
360.600; -205.200; -547.000; -454.000
360.732; -184.300; -546.000; -423.000
360.864; -349.000;-1216.000;-1044.000
360.996; -168.600; -516.000; -554.000
361.129; -192.200; -389.000; -598.000
361.261;  -12.700;  110.000; -113.000
361.393; -100.800; -252.000; -214.000
361.525;    6.300;   94.000;  244.000
361.657; -244.200; -821.000; -703.000
361.789;  -27.400; -139.000; -155.000
361.921; -172.500; -642.000; -593.000
362.053;  106.500;  524.000;  541.000
362.185;   27.800;  288.000;   72.000
362.318; -250.000; -709.000; -705.000
362.450;   67.000;  294.000;  444.000
362.582; -288.100; -913.000; -870.000
362.714; -135.800; -353.000; -332.000
362.846; -167.500; -606.000; -490.000
362.978; -264.600; -941.000; -811.000
363.109;  -99.300; -161.000; -260.000
363.241; -256.300; -739.000; -749.000
363.373; -222.000; -649.000; -564.000
363.505;  -52.300; -186.000;  -91.000
363.637; -194.500; -787.000; -601.000
363.769; -343.600;-1067.000;-1080.000
363.901; -200.000; -596.000; -654.000
364.033; -316.500;-1103.000;-1062.000
364.165;  -32.900; -283.000; -283.000
364.296; -124.200; -316.000; -177.000
364.428; -398.900;-1344.000;-1220.000
364.560; -194.500; -679.000; -661.000
364.692; -199.400; -738.000; -835.000
364.824; -180.600; -588.000; -456.000
364.955;  -87.300; -402.000; -564.000
365.087; -319.000;-1097.000; -852.000
365.219; -203.700; -686.000; -816.000
365.351; -187.300; -526.000; -572.000
365.482;   18.100;  300.000;  240.000
365.614; -128.400; -402.000; -314.000
365.746; -206.700; -729.000; -752.000
365.877; -251.300; -706.000; -672.000
366.009;  -55.300;  -35.000;  -62.000
366.141; -369.400;-1249.000;-1134.000
366.272; -224.200; -803.000; -719.000
366.404; -260.200;-1005.000; -874.000
366.535;  -60.400; -139.000;  -12.000
366.667; -228.800; -644.000; -649.000
366.799;   72.700;  353.000;  203.000
366.930; -293.400; -862.000; -996.000
367.062; -175.900; -639.000; -613.000
367.193; -297.600; -872.000; -842.000
367.325; -161.600; -580.000; -684.000
367.456;  -83.200; -246.000;   31.000
367.588; -125.400; -371.000; -318.000
367.719; -103.300;  -44.000;  -45.000
367.851;  -98.600; -222.000; -241.000
367.982; -272.600; -875.000; -732.000
368.113; -120.100; -475.000; -358.000
368.245; -325.000; -960.000; -841.000
368.376;  -90.700; -254.000; -302.000
368.508; -122.300; -188.000; -263.000
368.639; -321.800;-1166.000;-1034.000
368.770; -237.200; -670.000; -589.000
368.902; -254.300; -836.000; -926.000
369.033; -290.700; -906.000; -855.000
369.164; -202.100; -720.000; -653.000
369.296; -235.900; -452.000; -601.000
369.427;  -48.600; -209.000; -144.000
369.558; -149.800; -593.000; -377.000
369.689; -204.500; -721.000; -569.000
369.821; -268.600; -951.000; -845.000
369.952;  -39.100;   42.000; -108.000
370.083; -122.700; -229.000; -108.000
370.214; -200.000; -735.000; -650.000
370.345;  -25.900;   65.000;   81.000
370.477; -240.200; -810.000; -790.000
370.608; -121.700; -328.000; -264.000
370.739; -368.800;-1233.000;-1292.000
370.870; -289.600;-1102.000; -923.000
371.001; -119.400; -378.000; -467.000
371.132; -234.400; -754.000; -735.000
371.263;  -45.900;  -42.000; -148.000
371.394; -271.600; -841.000; -748.000
371.525;   41.400;  345.000;  225.000
371.657; -239.700; -808.000; -670.000
371.788;   -7.800;  103.000;  199.000
371.919; -178.300; -384.000; -304.000
372.050;  -58.900;  -91.000; -156.000
372.181;  -46.400; -188.000; -294.000
372.311;  -33.700;   42.000; -127.000
372.442; -163.300; -457.000; -451.000
372.573;  -78.600; -444.000; -340.000
372.704; -306.600;-1008.000; -980.000
372.835; -107.100; -228.000; -289.000
372.966; -210.800; -646.000; -554.000
373.097; -227.800; -575.000; -711.000
373.228; -228.200; -717.000; -542.000
373.359; -212.900; -824.000; -536.000
373.490; -259.300; -881.000; -727.000
373.620; -271.300;-1001.000; -803.000
373.751; -156.000; -332.000; -396.000
373.882; -207.500; -663.000; -733.000
374.013; -147.800; -449.000; -262.000
374.143; -175.700; -581.000; -659.000
374.274; -317.000; -987.000; -908.000
374.405; -120.000; -388.000; -276.000
374.536; -167.000; -526.000; -387.000
374.666; -190.800; -759.000; -807.000
374.797; -258.700; -817.000; -868.000
374.928; -195.400; -710.000; -560.000
375.058; -194.200; -535.000; -500.000
375.189;  -57.200;  -59.000;  -93.000
375.320; -325.200; -928.000;-1034.000
375.450; -202.200; -625.000; -616.000
375.581; -158.100; -526.000; -436.000
375.712;  -98.000; -574.000; -250.000
375.842; -170.600; -438.000; -415.000
375.973; -169.400; -554.000; -513.000
376.103; -219.300; -665.000; -648.000
376.234; -191.700; -531.000; -552.000
376.364; -306.100; -944.000; -867.000
376.495;  198.100;  925.000;  529.000
376.625; -222.300; -472.000; -485.000
376.756; -168.200; -709.000; -678.000
376.886; -356.100;-1178.000;-1026.000
377.017; -320.100;-1048.000;-1061.000
377.147; -296.500; -786.000; -782.000
377.278;   41.200;  174.000;  228.000
377.408; -253.300; -801.000; -815.000
377.538; -216.000; -707.000; -693.000
377.669; -188.300; -537.000; -613.000
377.799; -237.800; -645.000; -635.000
377.929; -178.200; -610.000; -428.000
378.060; -276.300; -781.000; -847.000
378.190; -234.000; -726.000; -531.000
378.320; -133.000; -401.000; -406.000
378.451;  -39.100; -131.000;  -22.000
378.581;  -52.000;  -67.000; -110.000
378.711;  201.000; 1035.000;  866.000
378.841; -158.900; -533.000; -675.000
378.972; -295.100; -871.000; -751.000
379.102; -174.500; -652.000; -579.000
379.232; -123.100; -126.000;  -73.000
379.362; -283.400;-1001.000; -885.000
379.492; -197.400; -373.000; -424.000
379.623;   19.100;    0.000;  111.000
379.753; -305.000;-1107.000; -974.000
379.883;    3.400;   59.000;  156.000
380.013; -337.300;-1081.000;-1017.000
380.143; -320.100;-1097.000;-1056.000
380.273; -294.200; -985.000; -861.000
380.403;  -84.300; -344.000; -257.000
380.533; -240.900; -651.000; -664.000
380.663;   32.500;  173.000;  128.000
380.793; -334.000;-1027.000;-1074.000
380.923;  -68.000; -103.000;  -34.000
381.053; -242.000; -613.000; -623.000
381.183;  -89.600; -106.000; -248.000
381.313; -186.000; -656.000; -470.000
381.443; -209.400; -692.000; -473.000
381.573; -179.400; -402.000; -409.000
381.703; -357.800;-1249.000;-1095.000
381.833; -426.100;-1454.000;-1336.000
381.963;  -41.100; -134.000;  -87.000
382.093; -311.000; -925.000; -909.000
382.223; -184.900; -713.000; -602.000
382.353; -247.300; -801.000; -608.000
382.482; -315.400;-1091.000; -964.000
382.612; -236.600; -872.000; -644.000
382.742; -187.800; -695.000; -622.000
382.872; -182.600; -565.000; -551.000
383.002;  -20.100;  347.000; -132.000
383.131; -147.400; -226.000; -160.000
383.261; -208.800; -706.000; -768.000
383.391; -171.200; -552.000; -377.000
383.521;  110.100;  451.000;  263.000
383.650; -295.900; -947.000; -904.000
383.780; -217.100; -783.000; -656.000
383.910;  136.100;  880.000;  802.000
384.039; -243.200; -794.000; -656.000
384.169; -372.000;-1205.000;-1017.000
384.299; -194.800; -650.000; -662.000
384.428; -213.400; -764.000; -680.000
384.558; -154.200; -308.000; -275.000
384.687; -124.300; -414.000; -334.000
384.817;   -2.700;   75.000;   -2.000
384.947;  -76.800; -234.000; -141.000
385.076;  218.400;  982.000;  912.000
385.206;   96.000;  369.000;  480.000
385.335; -148.800; -549.000; -417.000
385.465; -239.700; -655.000; -663.000
385.594;  -45.900;  -53.000;  -44.000
385.724; -276.800; -868.000; -838.000
385.853;  -94.100; -296.000; -270.000
385.982; -241.800; -743.000; -787.000
386.112; -273.800;-1052.000; -871.000
386.241; -144.700; -307.000; -312.000
386.371;  -78.100; -174.000;  -87.000
386.500; -276.700; -825.000; -789.000
386.629; -234.500; -874.000; -817.000
386.759;  -52.000;  -43.000;   68.000
386.888;  -68.700; -170.000; -250.000
387.017; -201.100; -648.000; -620.000
387.147; -255.300; -771.000; -798.000
387.276; -193.000; -410.000; -397.000
387.405; -131.200; -398.000; -342.000
387.535; -162.900; -452.000; -361.000
387.664; -197.100; -692.000; -620.000
387.793;  -90.800; -198.000; -113.000
387.922;   38.500;  255.000;  200.000
388.052; -162.900; -576.000; -423.000
388.181; -155.600; -342.000; -472.000
388.310; -258.500; -889.000; -710.000
388.439; -251.300; -749.000; -742.000
388.568;   -0.600;  365.000;  244.000
388.697; -239.400; -756.000; -653.000
388.826; -199.900; -768.000; -666.000
388.956; -102.400; -285.000; -307.000
389.085; -144.200; -347.000; -287.000
389.214; -238.900; -842.000; -872.000
389.343; -226.900; -645.000; -413.000
389.472;   14.400;  126.000;  149.000
389.601;  -14.500;   91.000;    0.000
389.730; -189.600; -568.000; -687.000
389.859;    7.200;  226.000;   46.000
389.988; -129.500; -423.000; -408.000
390.117; -125.700; -168.000; -146.000
390.246; -110.300; -331.000; -320.000
390.375; -210.800; -673.000; -626.000
390.504; -203.300; -703.000; -621.000
390.633; -267.200; -672.000; -726.000
390.761; -239.600; -732.000; -645.000
390.890;  -94.200;   -4.000; -130.000
391.019; -151.600; -421.000; -441.000
391.148; -266.400; -826.000; -855.000
391.277; -156.000; -576.000; -493.000
391.406; -238.200; -821.000; -805.000
391.534;   10.100;  574.000; -301.000
391.663; -190.000; -583.000; -645.000
391.792; -205.600; -673.000; -701.000
391.921;  -71.400;   -3.000;   15.000
392.050; -153.000; -287.000; -228.000
392.178; -348.300;-1206.000;-1061.000
392.307; -263.600; -758.000; -712.000
392.436; -215.600; -427.000; -641.000
392.564;  -27.700;  166.000;   -6.000
392.693; -274.200; -860.000; -682.000
392.822; -183.600; -529.000; -534.000
392.950; -226.700; -880.000; -714.000
393.079; -145.700; -188.000; -328.000
393.208; -186.100; -488.000; -511.000
393.336;  -43.800; -170.000; -145.000
393.465; -147.500; -317.000; -199.000
393.593;   -6.000;   62.000;   79.000
393.722; -330.700;-1121.000; -916.000
393.850;  -54.600; -188.000;  -61.000
393.979; -318.800; -926.000; -805.000
394.107; -177.400; -517.000; -537.000
394.236; -219.200; -570.000; -507.000
394.364;   57.900;  383.000;  206.000
394.493; -275.200; -911.000; -767.000
394.621; -265.600; -955.000; -916.000
394.750; -288.100; -873.000; -923.000
394.878;  -97.600; -247.000; -149.000
395.007; -244.500; -721.000; -807.000
395.135; -261.200; -790.000; -721.000
395.263; -313.200;-1038.000;-1040.000
395.392;  -27.600;  -25.000; -107.000
395.520; -195.400; -818.000; -679.000
395.648; -297.800; -865.000; -915.000
395.777; -162.400; -366.000; -405.000
395.905; -171.100; -449.000; -564.000
396.033;  -19.100;  217.000;  172.000
396.162; -121.900; -399.000; -453.000
396.290;  -43.400;  -17.000;   -2.000
396.418; -171.300; -555.000; -514.000
396.546; -259.300; -571.000; -466.000
396.674; -264.900; -850.000; -878.000
396.803;  -16.400;  -72.000;  -23.000
396.931;  -93.500; -179.000; -199.000
397.059; -316.200;-1026.000; -989.000
397.187; -278.900;-1026.000; -975.000
397.315; -288.000; -884.000; -649.000
397.443; -189.400; -592.000; -443.000
397.572; -202.400; -578.000; -424.000
397.700; -216.600; -607.000; -614.000
397.828;  -69.300;  120.000;  -90.000
397.956; -156.300; -508.000; -478.000
398.084; -230.600; -767.000; -626.000
398.212;  -14.700;  137.000;  124.000
398.340;  -51.400;  -56.000;  159.000
398.468; -147.600; -390.000; -169.000
398.596; -297.800; -993.000; -953.000
398.724; -237.900; -762.000; -767.000
398.852; -300.700;-1024.000; -976.000
398.980; -176.300; -560.000; -560.000
399.108; -261.100; -982.000; -735.000
399.236;  -20.400;   13.000;    8.000
399.363;   18.600;  222.000;  196.000
399.491; -158.700; -404.000; -398.000
399.619; -278.900; -829.000; -800.000
399.747; -262.400; -859.000; -771.000
399.875;   33.300;  220.000;  234.000
400.003; -128.900; -359.000; -284.000
400.130; -161.500; -421.000; -341.000
400.258;  -41.400;  -83.000;   38.000
400.386; -114.700; -352.000; -168.000
400.514; -180.600; -526.000; -587.000
400.641; -293.300; -928.000; -802.000
400.769; -278.700; -979.000; -888.000
400.897; -258.200; -838.000; -793.000
401.025;  -82.600; -166.000; -152.000
401.152;   10.100;  220.000;   38.000
401.280; -163.600; -430.000; -429.000
401.408; -252.500; -712.000; -576.000
401.535; -218.900; -735.000; -758.000
401.663; -375.300;-1134.000;-1054.000
401.790; -193.700; -514.000; -525.000
401.918;   87.400;  436.000;  405.000
402.046;   -6.700;  134.000;  122.000
402.173;  -65.900;  -18.000;    7.000
402.301; -143.000; -519.000; -397.000
402.428;   70.900;  528.000;  383.000
402.556; -334.400;-1188.000; -913.000
402.683;  -87.000;  -20.000;   -1.000
402.811;  -34.800;  -37.000; -206.000
402.938;  -28.900;   20.000;   27.000
403.066; -200.900; -574.000; -558.000
403.193;  -32.000;  299.000;  239.000
403.321; -172.900; -396.000; -574.000
403.448;  -25.900;   83.000;   27.000
403.575;  -42.600;  -90.000;  -46.000
403.703; -263.400; -732.000; -557.000
403.830; -132.300; -531.000; -496.000
403.957; -358.000;-1117.000;-1023.000
404.085;  -92.000;  -61.000; -172.000
404.212;  -23.900;  -50.000;   63.000
404.339; -152.600; -566.000; -306.000
404.467; -156.100; -612.000; -524.000
404.594; -108.600; -287.000; -227.000
404.721; -259.500; -869.000; -764.000
404.848;  -55.600; -113.000; -202.000
404.976; -279.000; -856.000; -783.000
405.103;  -34.400;  -14.000;  -82.000
405.230;  -14.800;  190.000;  226.000
405.357;  -23.900;  117.000;   44.000
405.484;  -90.600;  -49.000;    5.000
405.612; -183.100; -548.000; -563.000
405.739; -157.500; -488.000; -243.000
405.866;  131.900;  669.000;  385.000
405.993; -144.000; -398.000; -102.000
406.120; -266.400; -801.000; -887.000
406.247; -152.200; -323.000; -342.000
406.374;  128.200;  540.000;  629.000
406.501; -209.700; -632.000; -702.000
406.628; -192.600; -621.000; -589.000
406.755; -262.000; -803.000; -620.000
406.882; -118.400; -228.000; -277.000
407.009; -257.800; -719.000; -628.000
407.136; -122.600; -480.000; -401.000
407.263; -290.900; -939.000; -829.000
407.390; -214.300; -692.000; -614.000
407.517; -366.300;-1139.000;-1187.000
407.644; -140.100; -332.000; -256.000
407.771; -175.600; -249.000; -287.000
407.898;    7.900;  168.000;  328.000
408.025; -179.000; -421.000; -313.000
408.151;  -19.700;   82.000;  153.000
408.278; -155.600; -267.000; -216.000
408.405; -253.100; -931.000; -899.000
408.532; -212.600; -549.000; -542.000
408.659; -239.900; -677.000; -648.000
408.785; -356.500;-1298.000;-1170.000
408.912; -129.900; -412.000; -296.000
409.039; -200.100; -610.000; -686.000
409.166; -184.800; -591.000; -555.000
409.292; -196.700; -571.000; -534.000
409.419; -190.400; -665.000; -649.000
409.546; -129.200; -431.000; -192.000
409.672; -224.100; -713.000; -545.000
409.799;  -82.800;  -36.000;   34.000
409.926;  -89.000; -180.000; -179.000
410.052; -370.700;-1127.000;-1091.000
410.179; -153.700; -368.000; -392.000
410.305; -187.700; -375.000; -493.000
410.432; -133.800; -220.000; -333.000
410.558; -188.500; -305.000; -380.000
410.685; -212.600; -688.000; -431.000
410.812; -176.900; -409.000; -588.000
410.938; -300.700; -964.000; -808.000
411.065; -211.100; -671.000; -645.000
411.191;  -87.300; -189.000; -174.000
411.317; -277.100; -823.000; -742.000
411.444; -110.500; -317.000; -246.000
411.570; -118.600; -339.000; -294.000
411.697; -210.500; -758.000; -752.000
411.823; -331.800; -989.000; -999.000
411.949;  -72.100;  -56.000;   17.000
412.076; -199.800; -539.000; -519.000
412.202; -236.300; -758.000; -757.000
412.329; -274.800; -798.000; -752.000
412.455; -214.600; -821.000; -657.000
412.581;  -42.400;  -15.000;  172.000
412.707; -165.600; -540.000; -457.000
412.834;   10.000;  156.000;  219.000
412.960; -251.500; -785.000; -784.000
413.086; -256.300; -743.000; -701.000
413.212;  112.500;  604.000;  578.000
413.339; -255.400; -685.000; -701.000
413.465; -168.300; -364.000; -310.000
413.591; -244.300; -757.000; -474.000
413.717; -141.200; -358.000; -366.000
413.843; -304.100; -839.000; -861.000
413.969; -141.400;  -47.000; -292.000
414.096; -231.400; -679.000; -679.000
414.222;    2.000;  -33.000;   85.000
414.348; -188.100; -652.000; -385.000
414.474;  -57.000;   38.000;  -52.000
414.600;  -65.100; -126.000; -144.000
414.726;  -47.900;  -96.000;  -55.000
414.852; -211.700; -365.000; -342.000
414.978;  -25.900;  104.000;  -18.000
415.104;  -36.300;   38.000;   80.000
415.230; -131.000; -329.000; -330.000
415.356; -208.100; -409.000; -514.000
415.482;  -90.600;   13.000;  -35.000
415.608; -122.200; -247.000; -323.000
415.734;  -31.100;   67.000;   38.000
415.860; -259.700; -875.000; -767.000
415.986; -228.500; -685.000; -607.000
416.111; -252.300; -798.000; -652.000
416.237; -158.600; -424.000; -571.000
416.363; -249.400; -765.000; -733.000
416.489; -112.000; -324.000; -251.000
416.615; -267.000; -707.000; -742.000
416.741; -224.100; -677.000; -784.000
416.866; -256.000; -673.000; -736.000
416.992; -288.300; -801.000; -818.000
417.118; -130.700;  -41.000;  -80.000
417.244; -242.400; -798.000; -531.000
417.369; -269.900; -801.000; -612.000
417.495; -139.000; -325.000; -254.000
417.621; -327.700;-1015.000; -803.000
417.746; -176.200; -579.000; -572.000
417.872;  -81.200; -254.000; -144.000
417.998; -153.300; -515.000; -530.000
418.123; -319.200;-1073.000; -845.000
418.249; -181.500; -512.000; -601.000
418.374; -279.600; -916.000; -824.000
418.500; -153.600; -383.000; -482.000
418.626;  -53.500;   70.000;  -59.000
418.751; -178.500; -549.000; -448.000
418.877; -251.200; -637.000; -643.000
419.002; -122.100; -688.000; -560.000
419.128; -287.100; -930.000; -721.000
419.253; -263.100; -967.000; -837.000
419.379; -219.200; -391.000; -338.000
419.504;   44.500;  325.000;  415.000
419.629; -128.800; -393.000; -212.000
419.755;  -54.100; -317.000; -254.000
419.880; -121.200;  -98.000;   67.000
420.006; -107.800; -280.000; -221.000
420.131; -244.600; -662.000; -775.000
420.256; -118.700; -315.000; -316.000
420.382; -225.100; -665.000; -687.000
420.507; -224.900; -649.000; -778.000
420.632; -163.200; -337.000; -339.000
420.758; -101.400; -251.000; -425.000
420.883; -279.400; -876.000; -672.000
421.008; -233.700; -775.000; -619.000
421.133; -188.300; -509.000; -467.000
421.259; -108.800; -325.000; -259.000
421.384; -290.000; -834.000; -693.000
421.509; -272.300;-1052.000; -862.000
421.634; -276.600; -936.000; -820.000
421.759; -143.400; -359.000; -327.000
421.885; -215.800; -717.000; -656.000
422.010; -179.100; -673.000; -542.000
422.135; -255.100; -695.000; -727.000
422.260;   26.600;  340.000;  280.000
422.385;  -96.100;   12.000;  -98.000
422.510;  -33.500;  151.000;  -26.000
422.635;  -54.300;  -87.000;  -43.000
422.760; -224.600; -766.000; -791.000
422.885;  -47.500;  -57.000;  -80.000
423.010;  -72.100; -112.000; -169.000
423.135; -221.500; -481.000; -561.000
423.260; -105.100; -150.000; -245.000
423.385;   10.100;  476.000;  222.000
423.510;   -1.100;   71.000;  -22.000
423.635;  -70.900;  133.000;   45.000
423.760;   59.900;  383.000;  328.000
423.885;   28.100;  336.000;  391.000
424.010;  -43.600;  -68.000;  -13.000
424.135;  -67.500;    5.000;  -33.000
424.259; -204.400; -654.000; -457.000
424.384; -174.400; -279.000; -272.000
424.509; -103.800; -260.000; -186.000
424.634; -249.300; -761.000; -623.000
424.759; -210.700; -688.000; -544.000
424.883; -217.500; -506.000; -527.000
425.008; -180.200; -502.000; -410.000
425.133; -236.600; -679.000; -653.000
425.258; -175.200; -517.000; -381.000
425.382; -253.700; -867.000; -774.000
425.507; -208.700; -487.000; -543.000
425.632; -270.400; -802.000; -663.000
425.756; -113.600; -256.000; -146.000
425.881; -276.900; -831.000; -857.000
426.006; -180.800; -604.000; -355.000
426.130; -246.600; -696.000; -508.000
426.255; -200.800; -611.000; -491.000
426.379; -116.000; -189.000; -577.000
426.504;  126.600;  660.000;  544.000
426.629; -215.200; -519.000; -466.000
426.753;  -38.900;   64.000;  -46.000
426.878; -106.200; -252.000; -288.000
427.002; -288.900; -651.000; -668.000
427.127; -129.200;  -35.000; -158.000
427.251;   36.500;  372.000;  401.000
427.375; -146.700; -191.000; -173.000
427.500; -196.700; -616.000; -610.000
427.624; -141.700; -234.000; -400.000
427.749; -111.300; -216.000; -225.000
427.873; -172.100; -499.000; -412.000
427.997;  -86.700; -222.000; -230.000
428.122;  138.100;  795.000;  703.000
428.246;   75.900;  433.000;  434.000
428.371; -308.800; -869.000; -773.000
428.495; -203.300; -624.000; -646.000
428.619;  -84.600; -186.000; -117.000
428.743;   -8.000;   65.000;  132.000
428.868; -253.800; -732.000; -643.000
428.992; -106.900; -219.000; -326.000
429.116; -148.800; -329.000; -357.000
429.240;   38.800;  419.000;  426.000
429.365; -181.200; -454.000; -574.000
429.489; -242.100; -638.000; -647.000
429.613;  -79.800; -236.000; -177.000
429.737; -183.500; -563.000; -432.000
429.861; -142.100; -247.000; -133.000
429.985; -157.500; -425.000; -305.000
430.109; -307.600; -770.000; -908.000
430.234;  -38.100;   76.000;  -50.000
430.358; -144.200; -250.000; -160.000
430.482; -232.400; -672.000; -564.000
430.606; -212.600; -655.000; -375.000
430.730; -153.000; -437.000; -388.000
430.854; -295.000; -909.000; -835.000
430.978; -237.200; -795.000; -764.000
431.102; -210.900; -499.000; -422.000
431.226; -294.600; -874.000; -815.000
431.350;   19.300;  345.000;  422.000
431.474; -200.000; -661.000; -373.000
431.597; -375.300;-1060.000; -848.000
431.721; -130.900; -276.000; -267.000
431.845; -233.600; -704.000; -472.000
431.969; -153.000; -304.000; -349.000
432.093; -198.100; -395.000; -317.000
432.217;  -44.900;   32.000;   82.000
432.341; -181.200; -523.000; -518.000
432.464;  -58.300;   96.000;   40.000
432.588; -210.200; -401.000; -329.000
432.712;  -83.900;  -52.000;  -52.000
432.836;   -7.500;  213.000;  263.000
432.959; -101.800; -372.000; -311.000
433.083;  -48.100;   11.000;    2.000
433.207;   76.600;  285.000;  930.000
433.330; -124.700; -391.000; -200.000
433.454; -205.000; -654.000; -638.000
433.578;   79.600;  583.000;  278.000
433.701; -236.400; -623.000; -675.000
433.825; -165.900; -292.000; -299.000
433.949;  -54.800;   28.000;  -72.000
434.072; -146.900; -410.000; -323.000
434.196; -107.300; -309.000; -117.000
434.319; 7153.500;25482.000;25124.000
434.443; -239.400; -656.000; -603.000
434.566;  -23.000;  281.000;   62.000
434.690; -200.900; -637.000; -383.000
434.813; -141.000; -251.000; -173.000
434.937; -230.300; -569.000; -696.000
435.060; -138.800; -423.000; -332.000
435.184; -127.200; -492.000; -217.000
435.307;  -23.700;  159.000;  102.000
435.431;  -74.100;  -40.000;   24.000
435.554; -123.400; -399.000; -240.000
435.677; -137.600; -350.000; -258.000
435.801;  -57.600;  -25.000;   49.000
435.924;  -42.300;    1.000;  -67.000
436.048; -302.300;-1019.000; -732.000
436.171; -134.700; -240.000;  -66.000
436.294; -148.000; -248.000; -229.000
436.417; -325.100; -963.000; -849.000
436.541; -284.300; -814.000; -840.000
436.664;  -91.800; -242.000; -316.000
436.787;  -15.100;   13.000;  113.000
436.910; -211.000; -792.000; -422.000
437.034;  -42.500;  142.000;  143.000
437.157;  -38.300;  -11.000;    0.000
437.280; -145.900; -392.000; -292.000
437.403; -306.200; -982.000; -869.000
437.526; -308.600; -903.000; -865.000
437.649; -162.900; -505.000; -332.000
437.772; -258.500; -692.000; -540.000
437.896;  139.600;  700.000;  544.000
438.019; -214.000; -758.000; -503.000
438.142; -185.700; -596.000; -506.000
438.265; -263.200; -639.000; -670.000
438.388; -168.300; -520.000; -410.000
438.511; -211.300; -597.000; -394.000
438.634; -142.900; -247.000; -125.000
438.757; -233.300; -693.000; -619.000
438.880;  -42.700;  -34.000;  -57.000
439.003; -182.100; -417.000; -437.000
439.126;  -95.400; -287.000; -167.000
439.248; -106.000;  -98.000; -139.000
439.371;  -65.800;    9.000;  -53.000
439.494;   66.000;  510.000;  439.000
439.617;  -66.700;   65.000;  -88.000
439.740; -318.100; -968.000; -816.000
439.863; -241.400; -755.000; -595.000
439.986; -236.900; -476.000; -431.000
440.108; -100.700; -161.000; -112.000
440.231; -355.700; -950.000; -836.000
440.354;  -68.400;  -64.000; -150.000
440.477; -242.100; -566.000; -542.000
440.599; -135.800; -200.000; -225.000
440.722; -252.300; -709.000; -586.000
440.845;  148.400;  751.000;  928.000
440.968; -172.800; -415.000; -311.000
441.090; -128.300; -199.000;  -33.000
441.213; -310.600;-1021.000; -825.000
441.336;  -79.500; -159.000;   -5.000
441.458; -184.200; -549.000; -396.000
441.581; -243.400; -628.000; -629.000
441.703;  -80.800; -152.000;   13.000
441.826; -199.100; -557.000; -400.000
441.948;  -33.500;   56.000;   51.000
442.071;   95.900;  555.000;  424.000
442.193; -206.200; -531.000; -485.000
442.316;   -5.500;  152.000;   97.000
442.438; -129.300; -233.000;  -10.000
442.561;    8.800;  272.000;  262.000
442.683; -260.000; -809.000; -522.000
442.806;  -59.800;   -8.000;   74.000
442.928; -278.700; -859.000; -604.000
443.051; -183.900; -577.000; -373.000
443.173; -161.400; -341.000; -339.000
443.295; -134.300; -263.000; -371.000
443.418; -133.300; -321.000;  -29.000
443.540;  -26.700; -106.000;   -4.000
443.662; -232.800; -563.000; -465.000
443.785;    0.200;  335.000;  199.000
443.907; -212.000; -362.000; -208.000
444.029; -243.900; -767.000; -494.000
444.152; -248.300; -644.000; -554.000
444.274;  -66.400;  -18.000;  -24.000
444.396; -183.100; -461.000; -221.000
444.518; -225.300; -691.000; -454.000
444.640; -173.100; -268.000; -111.000
444.763;    8.300;  388.000;  249.000
444.885; -232.500; -432.000; -392.000
445.007;  -21.600;   35.000;   86.000
445.129; -185.600; -610.000; -515.000
445.251; -202.200; -372.000; -439.000
445.373; -263.100; -537.000; -386.000
445.495;   55.900;  242.000;  350.000
445.617;  140.100;  853.000;  753.000
445.739; -145.100; -215.000;  -97.000
445.861;  -69.400; -245.000; -112.000
445.984; -119.600; -267.000; -101.000
446.105; -197.800; -418.000; -251.000
446.227;  -89.500; -176.000;  -19.000
446.349; -199.700; -358.000; -249.000
446.471; -229.100; -615.000; -448.000
446.593; -146.100; -316.000;   19.000
446.715;  -51.300;  -67.000;   41.000
446.837;  147.700;  697.000;  832.000
446.959; -183.800; -457.000; -478.000
447.081; -237.800; -628.000; -518.000
447.203;  185.000;  862.000;  834.000
447.325; -100.500; -270.000;   42.000
447.446;   48.400;  286.000;  530.000
447.568; -320.000; -921.000; -803.000
447.690; -155.500; -236.000; -245.000
447.812; -278.900; -798.000; -519.000
447.933;  -11.500;  155.000;  127.000
448.055; -109.500; -306.000; -261.000
448.177;  -55.500;   31.000;   79.000
448.299; -358.700; -935.000; -727.000
448.420;  -16.200;  -25.000;  159.000
448.542;  -61.900;   -3.000;   33.000
448.664;    6.700;  109.000;  322.000
448.785;  -32.500;  265.000;   83.000
448.907; -195.300; -614.000; -353.000
449.028; -267.500; -771.000; -471.000
449.150;  119.500;  492.000;  589.000
449.272; -335.800;-1044.000; -913.000
449.393;   96.600;  612.000;  694.000
449.515; -286.800; -634.000; -581.000
449.636; -118.900; -264.000; -155.000
449.758;  124.100;  763.000;  622.000
449.879; -182.300; -498.000; -396.000
450.001; -135.300; -149.000;  -49.000
450.122;  -65.600;  -95.000;  162.000
450.244;  -23.000;   37.000;  364.000
450.365; -208.400; -495.000; -301.000
450.486;  -98.300;   80.000;  268.000
450.608;   29.900;  393.000;  326.000
450.729;   86.800;  578.000;  645.000
450.850; -207.000; -574.000; -466.000
450.972; -220.200; -552.000; -389.000
451.093;    5.500;  190.000;  588.000
451.214; -211.600; -516.000; -337.000
451.336;  186.200;  773.000;  579.000
451.457;   33.500;  264.000;  393.000
451.578; -117.400; -118.000;  -74.000
451.699; -236.800; -546.000; -540.000
451.821;  -88.800; -284.000;  -50.000
451.942;   11.500;  278.000;  285.000
452.063;    3.300;  228.000;  419.000
452.184; -113.900;  -54.000;  -49.000
452.305;  -20.300;  103.000;  170.000
452.427; -208.100; -549.000; -301.000
452.548;  -81.300;   23.000;   79.000
452.669; -173.800; -257.000;  -89.000
452.790; -105.100;    3.000;  -18.000
452.911;  -15.300;  195.000;  259.000
453.032; -116.500; -289.000;  -60.000
453.153;  -65.300;  -29.000;   81.000
453.274;  147.100;  737.000;  868.000
453.395;  -92.200;  -51.000;  175.000
453.516;  254.100; 1317.000; 1388.000
453.637; -143.900; -205.000; -150.000
453.758;  -80.700;   15.000;   69.000
453.879; -207.400; -462.000; -250.000
454.000;  161.800; 1086.000;  948.000
454.121; -240.000; -554.000; -326.000
454.242; -215.800; -599.000; -383.000
454.362; -104.600;  -99.000;  114.000
454.483; -151.900; -309.000; -229.000
454.604;   13.700;  512.000;  580.000
454.725; -244.100; -627.000; -555.000
454.846; -210.700; -474.000; -406.000
454.967;    5.000;  230.000;  539.000
455.087;  -49.800;  179.000;  153.000
455.208;   59.800;  554.000;  856.000
455.329; -117.700;  -22.000;   82.000
455.450;   61.400;  473.000;  633.000
455.570; -156.400; -234.000; -211.000
455.691;  -54.300;  201.000;  407.000
455.812; -160.800; -270.000;  -92.000
455.932;  -65.000;  107.000;  -97.000
456.053;  -83.300;   36.000;   24.000
456.173; -173.400; -433.000; -355.000
456.294; -244.200; -476.000; -303.000
456.415;  -80.300;  -73.000;   70.000
456.535;  -13.100;  297.000;  273.000
456.656;  -53.500;  132.000;  240.000
456.776; -115.300;    3.000;  298.000
456.897;   44.400;  308.000;  513.000
457.017; -130.000; -153.000;   -3.000
457.138; -186.100; -402.000; -249.000
457.258;  -45.900;  263.000;  224.000
457.379;   22.700;  509.000;  521.000
457.499;  -23.200;  443.000;  432.000
457.620; -205.900; -407.000; -231.000
457.740; -108.300; -132.000;  -11.000
457.860;  -60.100;   87.000;   44.000
457.981;  -89.900;  132.000;  124.000
458.101; -161.800;  -89.000;   40.000
458.221;   53.600;  336.000;  402.000
458.342;  -87.600;   -4.000;  -37.000
458.462;  -15.600;  617.000;  352.000
458.582; -181.800; -302.000; -294.000
458.703;  -79.800;  303.000;  154.000
458.823;  -51.600;   22.000;  163.000
458.943;  -49.200;  341.000;  467.000
459.063;  -88.400; 1124.000;  192.000
459.183;  -34.500;  328.000;  313.000
459.304;   32.700;  315.000;  517.000
459.424; -130.200; -246.000;  -89.000
459.544;   48.300;  388.000;  764.000
459.664;   40.700;  499.000;  506.000
459.784;  185.600; 1004.000; 1175.000
459.904;   85.500;  867.000;  744.000
460.024;  186.900;  867.000;  684.000
460.144;   -0.900;  449.000;  554.000
460.264;   39.200;  515.000;  327.000
460.385;  -89.600; -145.000; -119.000
460.505;  112.700;  905.000;  858.000
460.625; -142.600;  -17.000;  -68.000
460.745;    7.900;  396.000;  541.000
460.864;  -76.500;  153.000;  469.000
460.984;   56.500;  499.000;  573.000
461.104;  322.200; 1656.000; 1775.000
461.224;   96.400;  657.000;  650.000
461.344;  -23.800;  431.000;  360.000
461.464;  -19.000;  258.000;  513.000
461.584;  -30.400;  283.000;  466.000
461.704;  -92.200;   58.000;  108.000
461.824;  -59.500;  238.000;  259.000
461.943;  -57.500;  191.000;  130.000
462.063; -119.000;    2.000;  324.000
462.183;   71.800;  639.000;  717.000
462.303;  235.000; 1678.000; 1230.000
462.422;  137.400;  781.000;  840.000
462.542;  -70.800;  271.000;  391.000
462.662;   20.800;  353.000;  380.000
462.782;   46.900;  833.000;  572.000
462.901;   50.900;  545.000;  717.000
463.021;  322.500; 1702.000; 1638.000
463.141;   16.800;  337.000;  770.000
463.260;   22.400;  614.000;  474.000
463.380;   60.100;  902.000;  884.000
463.499;   -2.400;  342.000;  332.000
463.619;  -10.500;  581.000;  559.000
463.738;  263.100; 1644.000;  903.000
463.858;   95.700;  657.000;  811.000
463.978;  -10.900;  542.000;  396.000
464.097;  102.600;  921.000; 1114.000
464.217;  163.400; 1196.000; 1143.000
464.336;  198.800; 1068.000; 1130.000
464.455;    1.500;  328.000;  659.000
464.575;   70.700;  597.000;  602.000
464.694;  195.200; 1204.000; 1179.000
464.814;  139.300; 1190.000; 1138.000
464.933;  149.100; 1095.000; 1027.000
465.052;  193.000; 1412.000; 1054.000
465.172;   90.800;  922.000;  799.000
465.291;  204.200; 1376.000; 1320.000
465.410;   48.900;  462.000;  735.000
465.530;  235.900; 1355.000; 1310.000
465.649;  155.100; 1209.000; 1273.000
465.768;  293.500; 1673.000; 1508.000
465.888;  113.100;  941.000; 1174.000
466.007;  217.400; 1335.000; 1440.000
466.126;   65.600;  721.000;  641.000
466.245;  130.900; 1176.000; 1187.000
466.364;   96.600;  950.000; 1060.000
466.484;  152.100; 1024.000; 1213.000
466.603;  107.600; 1101.000; 1222.000
466.722;  290.100; 1490.000; 1769.000
466.841;  181.300; 1151.000; 1401.000
466.960;  153.700; 1069.000;  972.000
467.079;  337.900; 1971.000; 1786.000
467.198;  156.700; 1238.000; 1181.000
467.317;  214.000; 1768.000; 1162.000
467.436;  199.200; 1709.000; 1261.000
467.555;  340.200; 1796.000; 1746.000
467.674;  209.800; 1227.000; 1329.000
467.793;  156.100; 1376.000; 1374.000
467.912;  224.300; 1658.000; 1539.000
468.031;  340.100; 2038.000; 1930.000
468.150;  301.100; 1842.000; 1837.000
468.269;  409.100; 2313.000; 2090.000
468.388;  454.000; 2168.000; 2339.000
468.507;  564.200; 2884.000; 2903.000
468.626;  607.900; 2555.000; 2541.000
468.744;  330.500; 2018.000; 2174.000
468.863;  434.400; 2312.000; 2523.000
468.982;  212.200; 1503.000; 1555.000
469.101;  490.100; 2788.000; 2692.000
469.220;  347.100; 2333.000; 2176.000
469.338;  535.500; 2935.000; 3051.000
469.457;  406.000; 2719.000; 2545.000
469.576;  715.300; 3953.000; 3784.000
469.695;  552.400; 2877.000; 3066.000
469.813;  853.400; 4148.000; 4192.000
469.932;  802.100; 4255.000; 4485.000
470.051;  800.900; 4075.000; 4161.000
470.169;  815.300; 4470.000; 4338.000
470.288;  891.400; 4700.000; 4809.000
470.406; 1034.500; 5059.000; 5194.000
470.525; 1228.900; 6101.000; 5787.000
470.644; 1312.100; 6847.000; 6794.000
470.762; 1662.600; 8397.000; 7873.000
470.881; 1783.600; 8651.000; 8464.000
470.999; 2101.100; 9685.000; 9151.000
471.118; 2265.700;11174.000;10711.000

