
Integration time [ms]: 200.000
Averaging Nr. [scans]: 10
Smoothing Nr. [pixels]: 0
Data measured with spectrometer [name]: 2101012U2
Wave   ;Sample   ;Dark     ;Reference
[nm]   ;[counts] ;[counts] ;[counts] 

197.733;  107.800;  516.000;  404.000
197.879; -162.800; -610.000; -634.000
198.025;  -85.600; -475.000; -420.000
198.171; -168.100; -602.000; -612.000
198.317;  -73.400; -401.000; -316.000
198.463; -139.900; -655.000; -404.000
198.609;   74.500;  181.000; -137.000
198.755; -168.700; -644.000; -410.000
198.901; -135.900; -505.000; -424.000
199.047; -131.600; -615.000; -488.000
199.193;  -78.800; -230.000; -468.000
199.339;  -86.800; -222.000; -369.000
199.485;   55.500;  330.000;  271.000
199.631;   -2.800;  227.000;  310.000
199.777;  -95.900; -466.000; -398.000
199.923; -173.000; -610.000; -424.000
200.069;   -0.200; -141.000;  -58.000
200.215;  104.300;  128.000;  453.000
200.361;   83.600;  243.000;  477.000
200.507; -168.400; -600.000; -373.000
200.653;  -80.000; -371.000; -194.000
200.798;  -74.800; -215.000; -125.000
200.944;   -7.200; -146.000;  -41.000
201.090;   97.400;   61.000;  222.000
201.236;   -9.400; -116.000; -158.000
201.382;  268.100;  874.000;  903.000
201.528;   10.900;  -58.000;  -48.000
201.674;  -86.900; -386.000; -293.000
201.819; -158.700; -540.000; -439.000
201.965; -152.300; -699.000; -447.000
202.111;  -74.300; -273.000; -226.000
202.257;  -73.300; -250.000; -238.000
202.402;   20.400;   13.000;  -36.000
202.548;  -73.300; -169.000; -116.000
202.694;  205.600;  410.000; -183.000
202.840; -178.800; -603.000; -531.000
202.985; -186.200; -681.000; -639.000
203.131; -225.500; -832.000; -666.000
203.277;  -91.100; -199.000; -262.000
203.423; -126.800; -434.000; -520.000
203.568; -114.500; -462.000; -237.000
203.714; -144.400; -535.000; -542.000
203.860; -186.200; -682.000; -641.000
204.005;   19.800;  112.000;  167.000
204.151;  160.500;  561.000;  556.000
204.296;  -93.400; -354.000; -221.000
204.442; -168.100; -600.000; -547.000
204.588; -184.700; -592.000; -579.000
204.733;   47.800;  178.000;  168.000
204.879; -277.900;-1018.000; -822.000
205.025;   49.500;  -99.000;  126.000
205.170;    3.800;  -17.000;   94.000
205.316;  182.900;  438.000;  661.000
205.461; -155.800; -698.000; -554.000
205.607;  189.800;  609.000;  665.000
205.752; -175.800; -626.000; -551.000
205.898; -110.000; -501.000; -391.000
206.043;  -97.600; -578.000; -506.000
206.189; -112.800; -243.000; -285.000
206.334;  141.100;  554.000;  606.000
206.480;  148.000;  409.000;  239.000
206.625; -182.600; -529.000; -552.000
206.771; -100.700; -451.000; -373.000
206.916;  -71.500; -210.000; -537.000
207.062; -153.100; -545.000; -591.000
207.207; -118.100; -546.000; -443.000
207.353;   93.600;  185.000;  460.000
207.498;   35.400;  196.000;   85.000
207.643; -134.800; -501.000; -370.000
207.789; -269.200;-1069.000; -910.000
207.934; -206.900; -665.000; -713.000
208.080;  -52.400; -154.000;   66.000
208.225;  -22.500;  -22.000;  -57.000
208.370; -169.800; -727.000; -619.000
208.516; -177.500; -741.000; -487.000
208.661;  -80.500; -127.000;  -69.000
208.806;  -54.300; -165.000; -171.000
208.952; -283.700;-1044.000; -731.000
209.097;  155.100;  378.000;  349.000
209.242;  -82.200; -307.000; -382.000
209.387;  105.300;  392.000;  350.000
209.533; -100.900; -321.000; -350.000
209.678;  164.500;  472.000;  543.000
209.823; -127.000; -408.000; -310.000
209.969; -206.700; -860.000; -757.000
210.114; -252.300; -907.000; -719.000
210.259; -248.800; -939.000; -889.000
210.404;  -17.600; -171.000;  103.000
210.549;   14.400;  108.000;    3.000
210.695;  -38.300;   -3.000;  -95.000
210.840;   48.600;   94.000;   67.000
210.985; -162.000; -484.000; -303.000
211.130;  161.400;  268.000;  406.000
211.275;   26.000;  207.000;  199.000
211.420; -111.400; -300.000; -289.000
211.566; -143.100; -536.000; -489.000
211.711;   36.200;  218.000;  157.000
211.856; -131.000; -545.000; -519.000
212.001;   -4.800;  151.000;   44.000
212.146;    9.600;  153.000;   49.000
212.291;  -54.700; -210.000; -186.000
212.436;  -86.100; -280.000;   -6.000
212.581; -172.500; -685.000; -653.000
212.726; -138.600; -487.000; -538.000
212.871; -115.800; -552.000; -217.000
213.016; -319.500;-1172.000;-1029.000
213.161;  102.900;  406.000;  291.000
213.306; -154.400; -435.000; -577.000
213.451; -205.100; -778.000; -689.000
213.596;  -90.300; -455.000; -347.000
213.741; -120.800; -448.000; -538.000
213.886; -203.100; -498.000; -517.000
214.031;  -53.500; -294.000; -124.000
214.176; -108.600; -408.000; -341.000
214.321;  -42.200; -296.000; -157.000
214.466;  -57.800; -163.000;  -43.000
214.611;  -18.700;  -61.000;  -10.000
214.756; -263.700; -948.000; -858.000
214.901;  -27.700; -388.000; -226.000
215.046; -265.600; -797.000; -825.000
215.191;   54.000;  128.000;   35.000
215.336;  -31.000; -157.000;  -19.000
215.480; -142.600; -684.000; -505.000
215.625;  -10.100; -175.000;  -19.000
215.770; -217.000; -757.000; -662.000
215.915;    2.700;   -5.000;  -97.000
216.060;   -3.200; -113.000;  -21.000
216.205; -240.200; -731.000; -779.000
216.349; -177.200; -470.000; -533.000
216.494; -282.400; -939.000; -867.000
216.639; -256.500; -823.000; -888.000
216.784; -220.000; -577.000; -525.000
216.929;  107.500;  392.000;  281.000
217.073;  -34.600; -244.000;  -31.000
217.218;   17.300;   78.000;  -47.000
217.363; -188.400; -656.000; -618.000
217.507; -182.200; -623.000; -588.000
217.652; -255.900; -845.000; -874.000
217.797; -203.400; -708.000; -659.000
217.942; -255.500; -856.000; -720.000
218.086;  126.200;  608.000;  539.000
218.231;  -49.900; -174.000;  -26.000
218.376;  -80.600; -337.000; -229.000
218.520;   14.900;  -41.000;   96.000
218.665;  -66.300; -338.000; -204.000
218.810;  -94.700; -275.000; -233.000
218.954;   59.700;  201.000;   35.000
219.099; -256.900; -713.000; -963.000
219.243; -122.000; -589.000; -554.000
219.388;  -81.600; -264.000; -136.000
219.532;   -5.200; -116.000; -116.000
219.677; -167.200; -564.000; -521.000
219.822;    0.200;   33.000;   89.000
219.966;   22.600;   17.000;  -99.000
220.111;  -52.200; -328.000;  -40.000
220.255; -217.300; -797.000; -750.000
220.400;  -44.000; -180.000; -146.000
220.544; -128.300; -516.000; -450.000
220.689; -131.300; -422.000; -451.000
220.833;  -26.600; -123.000;  -58.000
220.978;  -87.500; -393.000; -563.000
221.122;   36.700;  319.000;  307.000
221.267; -235.000; -906.000; -837.000
221.411; -155.900; -478.000; -394.000
221.555;  -14.400; -104.000;  -23.000
221.700;  -75.500; -329.000; -222.000
221.844;   65.300;  255.000;  272.000
221.989;  -96.300; -328.000; -311.000
222.133;  -76.100; -289.000; -307.000
222.277;   -0.200;    5.000;   78.000
222.422;   28.200;  227.000;  113.000
222.566;  -60.700; -381.000; -214.000
222.711; -140.600; -414.000; -479.000
222.855; -154.600; -643.000; -586.000
222.999; -167.100; -642.000; -717.000
223.144;  -57.200; -195.000; -194.000
223.288;  128.900;  423.000;  251.000
223.432;    9.500;  184.000;  230.000
223.576;   31.100;  152.000;  -21.000
223.721;   85.500;  364.000;  273.000
223.865; -106.900; -472.000; -475.000
224.009;  440.600; 1673.000; 1631.000
224.153; -153.500; -660.000; -671.000
224.298; -150.800; -531.000; -489.000
224.442;  -34.100;  -74.000;  -33.000
224.586;  -15.000; -169.000; -106.000
224.730; -223.600; -858.000; -670.000
224.875; -227.100; -739.000; -688.000
225.019;   35.900;  102.000;  188.000
225.163;  119.100;  208.000;  341.000
225.307;   62.700;   97.000;  -91.000
225.451;  110.500;  360.000;  481.000
225.595;   93.600;  264.000;  176.000
225.739;  -46.800; -170.000;  -94.000
225.884;   -2.700;   86.000;    5.000
226.028; -192.600; -760.000; -626.000
226.172;  -82.700; -260.000; -273.000
226.316; -226.200; -941.000; -902.000
226.460; -152.800; -645.000; -493.000
226.604; -102.400; -406.000; -400.000
226.748; -220.000; -836.000; -733.000
226.892;  -69.200; -227.000; -181.000
227.036;  -98.300; -537.000; -447.000
227.180; -128.100; -551.000; -375.000
227.324; -156.500; -561.000; -580.000
227.468; -239.500; -819.000; -717.000
227.612;   17.400;  242.000;  -28.000
227.756; -202.100; -845.000; -698.000
227.900;  113.500;  342.000;  441.000
228.044; -134.000; -509.000; -290.000
228.188;  129.200;  448.000;  568.000
228.332; -182.700; -546.000; -472.000
228.476;  -61.100; -223.000; -149.000
228.620;  -56.000; -210.000; -150.000
228.764;  129.400;  431.000;  349.000
228.908;  -47.300; -155.000;   30.000
229.052; -115.900; -615.000; -528.000
229.195;  -24.400; -172.000;   13.000
229.339;  -24.400; -235.000; -305.000
229.483;  -71.500;    5.000; -162.000
229.627;    4.100; -156.000;  139.000
229.771;  -90.700; -218.000; -294.000
229.915;   32.700;  230.000;   79.000
230.059; -202.000; -648.000; -663.000
230.202;  -63.600; -370.000; -317.000
230.346;    6.300; -107.000;  107.000
230.490; -149.200; -489.000; -521.000
230.634; -234.600; -736.000; -553.000
230.777;  157.600;  478.000;  509.000
230.921; -107.800; -450.000; -359.000
231.065;  -84.700; -246.000; -286.000
231.209;   58.200;  261.000;  265.000
231.352;   64.000;   54.000;   40.000
231.496;   64.600;  568.000;  188.000
231.640; -185.800; -693.000; -621.000
231.783;  117.600;  546.000;  525.000
231.927;  -93.000; -294.000; -365.000
232.071; -253.400; -962.000; -736.000
232.214; -225.800; -980.000; -764.000
232.358; -241.000; -683.000; -599.000
232.502;   30.400;  -19.000;    7.000
232.645; -293.200;-1090.000; -927.000
232.789;  -27.400; -257.000; -218.000
232.933; -103.300; -407.000; -224.000
233.076; -257.300;-1038.000; -897.000
233.220; -213.700; -752.000; -777.000
233.363; -162.200; -669.000; -477.000
233.507;  105.000;  371.000;  129.000
233.650; -231.700; -764.000; -834.000
233.794;  120.400;  438.000;  461.000
233.938; -162.400; -530.000; -362.000
234.081;  -35.200;  -93.000;   31.000
234.225; -139.600; -631.000; -539.000
234.368; -215.800; -773.000; -723.000
234.512;  -75.900; -385.000; -299.000
234.655; -190.700; -582.000; -555.000
234.798; -122.900; -493.000; -466.000
234.942; -265.600; -884.000;-1002.000
235.085; -145.700; -651.000; -443.000
235.229; -138.600; -405.000; -410.000
235.372;  -93.300; -247.000; -191.000
235.516; -129.000; -397.000; -321.000
235.659;   45.700;   92.000;  121.000
235.802;   -7.200;  -38.000;  -22.000
235.946;   81.700;  335.000;  215.000
236.089;   56.100;  126.000;  250.000
236.233;  141.200;  275.000;  298.000
236.376;  -96.300; -235.000; -378.000
236.519;  -93.000; -297.000; -319.000
236.663;  -12.700; -215.000; -117.000
236.806; -280.300;-1029.000; -999.000
236.949;  149.800;  543.000;  431.000
237.092;  126.900;  412.000;  391.000
237.236; -160.900; -589.000; -502.000
237.379;  141.100;  352.000;  428.000
237.522; -250.800; -879.000; -768.000
237.666;  -31.200; -271.000;   18.000
237.809; -262.300; -851.000; -823.000
237.952;   66.200;  469.000;  271.000
238.095; -153.500; -447.000; -442.000
238.238;  178.300;  688.000;  700.000
238.382;    5.100;  166.000;  103.000
238.525; -140.600; -598.000; -511.000
238.668; -288.300;-1060.000; -985.000
238.811; -170.000; -638.000; -643.000
238.954; -102.900; -483.000; -334.000
239.097;  204.600;  617.000;  664.000
239.241;   51.800;  394.000;  326.000
239.384;  -75.500; -254.000; -214.000
239.527; -115.800; -424.000; -224.000
239.670; -313.000; -994.000;-1091.000
239.813; -235.500; -696.000; -658.000
239.956;  174.500;  579.000;  473.000
240.099; -244.600; -778.000; -725.000
240.242;  148.100;  428.000;  432.000
240.385;  121.400;  466.000;  450.000
240.528; -131.600; -706.000; -473.000
240.671;   33.700;  189.000;  134.000
240.814;  -87.200; -441.000; -158.000
240.957; -212.000; -767.000; -578.000
241.100; -178.700; -779.000; -755.000
241.243; -298.900;-1234.000; -893.000
241.386; -149.300; -508.000; -379.000
241.529; -187.500; -735.000; -547.000
241.672; -138.200; -566.000; -495.000
241.815; -219.800; -832.000; -808.000
241.958;  -56.800; -125.000; -182.000
242.101; -145.900; -545.000; -390.000
242.244;  -72.000; -270.000; -325.000
242.387;  -82.600; -304.000; -246.000
242.530;  129.700;  470.000;  134.000
242.673;  -64.000; -381.000; -309.000
242.815; -265.500; -925.000; -899.000
242.958; -152.400; -482.000; -381.000
243.101;   35.600;  132.000;  187.000
243.244; -158.400; -564.000; -521.000
243.387;  -95.100; -313.000; -316.000
243.530; -196.300; -657.000; -674.000
243.672;   31.900;   43.000;  -92.000
243.815;  -76.600; -355.000; -283.000
243.958;   31.300;   98.000;  -26.000
244.101;   10.800;   59.000;  -16.000
244.243;  -12.100;  -47.000;  101.000
244.386; -243.300; -761.000; -630.000
244.529;  -51.000; -132.000; -139.000
244.672; -306.600;-1154.000; -951.000
244.814; -224.600; -621.000; -794.000
244.957; -115.500; -380.000; -304.000
245.100; -141.000; -489.000; -489.000
245.242; -118.900; -387.000; -374.000
245.385;  -22.700;  -59.000;  -39.000
245.528; -225.400; -871.000; -705.000
245.670;  162.500;  612.000;  634.000
245.813; -170.800; -599.000; -547.000
245.956;  -61.400; -324.000; -275.000
246.098; -178.500; -508.000; -650.000
246.241;   16.900;  194.000;   48.000
246.383;  -28.100; -119.000;  -73.000
246.526; -175.600; -454.000; -525.000
246.669; -223.500; -889.000; -780.000
246.811;   23.600;  172.000;   -1.000
246.954; -136.900; -512.000; -426.000
247.096;  -27.500;  -84.000;   -6.000
247.239; -171.500; -482.000; -445.000
247.381; -126.200; -647.000; -488.000
247.524;  166.400;  645.000;  679.000
247.666;   -2.700;   58.000;   11.000
247.809; -240.700; -887.000; -691.000
247.951;    5.200;  -75.000;  138.000
248.094;   55.700;  432.000;  308.000
248.236; -337.500;-1262.000;-1238.000
248.378;   15.900; -356.000;  -81.000
248.521;  -52.500; -334.000; -337.000
248.663;  -46.200; -236.000; -267.000
248.806;  -35.700; -300.000; -266.000
248.948; -178.900; -886.000; -763.000
249.090;  -94.700; -428.000; -398.000
249.233;  -70.800; -344.000; -381.000
249.375; -136.200; -474.000; -451.000
249.518;  -19.700;  -83.000; -133.000
249.660;    0.400; -103.000;    3.000
249.802; -346.000;-1303.000;-1189.000
249.945; -150.200; -612.000; -540.000
250.087; -223.900; -834.000; -768.000
250.229;  -92.500; -362.000; -480.000
250.371; -176.500; -494.000; -439.000
250.514;  -80.400; -310.000; -244.000
250.656;  -18.100;   69.000;  102.000
250.798; -235.500; -849.000; -800.000
250.940; -139.500; -322.000; -322.000
251.083;  -41.700; -335.000; -111.000
251.225;  112.600;  338.000;  310.000
251.367;  -79.700; -274.000; -373.000
251.509;  -58.500; -265.000; -210.000
251.651; -202.100; -731.000; -671.000
251.794;  140.700;  538.000;  632.000
251.936; -215.300; -821.000; -747.000
252.078; -156.600; -540.000; -461.000
252.220; -149.000; -645.000; -477.000
252.362;  184.700;  344.000;  462.000
252.504; -161.000; -677.000; -584.000
252.646; -237.400; -875.000; -722.000
252.788;    1.900;   14.000; -128.000
252.931;  -67.400; -257.000; -253.000
253.073;  -89.600; -376.000; -317.000
253.215;  -27.900;  141.000;  122.000
253.357;    7.800;   82.000; -153.000
253.499; -121.500; -374.000; -234.000
253.641; -195.000; -749.000; -594.000
253.783; -195.000; -609.000; -527.000
253.925; -178.700; -586.000; -591.000
254.067; -209.700; -744.000; -667.000
254.209;  -61.500; -391.000; -259.000
254.351; -276.300; -865.000; -883.000
254.493; -123.900; -441.000; -417.000
254.635; -231.200; -936.000; -818.000
254.777; -144.200; -752.000; -687.000
254.918; -144.000; -512.000; -430.000
255.060;  -94.100; -551.000; -395.000
255.202; -109.900; -473.000; -261.000
255.344; -132.800; -658.000; -455.000
255.486; -115.000; -471.000; -406.000
255.628; -228.300; -780.000; -781.000
255.770; -166.400; -676.000; -536.000
255.912; -105.100; -559.000; -468.000
256.053; -171.200; -730.000; -508.000
256.195;  346.700; 1008.000;  903.000
256.337; -185.400; -861.000; -595.000
256.479;  157.900;  532.000;  416.000
256.621; -108.700; -394.000; -212.000
256.762; -210.600; -789.000; -742.000
256.904;  138.800;  485.000;  487.000
257.046;  -59.700; -381.000; -271.000
257.188;  -69.900; -351.000; -264.000
257.329; -102.400; -525.000; -464.000
257.471; -232.200; -939.000; -807.000
257.613; -116.700; -584.000; -498.000
257.755; -311.100;-1073.000; -982.000
257.896;   88.800;  286.000;  392.000
258.038; -121.100; -403.000; -352.000
258.180;  -41.800; -354.000; -279.000
258.321; -166.700; -581.000; -457.000
258.463;   22.300;  -71.000;  133.000
258.605; -184.900; -562.000; -570.000
258.746; -218.700; -886.000; -772.000
258.888; -320.800;-1026.000;-1020.000
259.029;   39.200;  121.000;   -8.000
259.171; -175.300; -614.000; -550.000
259.313;   26.600;  -49.000;  -47.000
259.454; -142.900; -536.000; -414.000
259.596;  -96.600; -483.000; -390.000
259.737; -165.800; -590.000; -474.000
259.879;   98.100;  217.000;  311.000
260.020;  205.700;  901.000;  636.000
260.162;  -44.300; -146.000; -253.000
260.303; -241.500; -768.000; -687.000
260.445; -150.500; -609.000; -613.000
260.586;   78.300;  392.000;  157.000
260.728;  -77.300; -360.000; -248.000
260.869; -121.300; -350.000; -343.000
261.011;  164.700;  706.000;  537.000
261.152; -123.400; -479.000; -319.000
261.293; -148.000; -576.000; -595.000
261.435;  -35.100; -219.000; -184.000
261.576; -111.500; -455.000; -325.000
261.718;  125.500;  420.000;  470.000
261.859; -234.500; -940.000; -949.000
262.000; -271.700; -951.000;-1016.000
262.142;  -35.200;  -52.000;  -60.000
262.283; -253.000; -808.000; -691.000
262.424; -163.300; -666.000; -625.000
262.566; -293.900;-1161.000; -983.000
262.707; -227.800; -840.000; -830.000
262.848; -223.600; -769.000; -726.000
262.990;  -65.900; -362.000; -345.000
263.131;  163.900;  650.000;  681.000
263.272;   18.000;  -61.000;  -41.000
263.413; -165.400; -589.000; -561.000
263.555; -127.900; -669.000; -143.000
263.696; -169.600; -550.000; -641.000
263.837; -103.700; -449.000; -551.000
263.978;   -1.800;   -5.000;  -77.000
264.119;  -67.300; -283.000; -264.000
264.261; -224.100; -847.000; -630.000
264.402;   35.800;   33.000;   40.000
264.543; -131.600; -509.000; -524.000
264.684;   -7.600;   61.000;  -50.000
264.825; -130.500; -816.000; -538.000
264.966;   28.500;  -84.000;  -67.000
265.107; -215.800; -646.000; -670.000
265.248; -214.800; -825.000; -812.000
265.390;   -3.900;  152.000;   -9.000
265.531;  -23.100; -238.000; -107.000
265.672; -163.100; -557.000; -630.000
265.813;  160.900;  563.000;  439.000
265.954; -302.500; -959.000; -940.000
266.095;  -46.900; -372.000; -322.000
266.236; -183.100; -686.000; -548.000
266.377;  -51.900; -243.000; -297.000
266.518; -145.100; -619.000; -547.000
266.659;   99.300;  170.000;  268.000
266.800;   63.800;   83.000;   85.000
266.941; -144.600; -487.000; -478.000
267.082;   89.100;  354.000;   99.000
267.223; -118.800; -344.000; -273.000
267.364; -214.600; -892.000; -686.000
267.504;  -16.100;    3.000;  135.000
267.645;   33.900;  160.000;   67.000
267.786;  -70.400; -147.000;  -86.000
267.927; -114.300; -473.000; -379.000
268.068;  -23.400; -186.000;  -61.000
268.209;  -81.600; -175.000; -413.000
268.350; -101.200; -388.000; -532.000
268.490; -176.400; -648.000; -521.000
268.631;   96.000;  127.000;  225.000
268.772; -203.100; -874.000; -647.000
268.913;  -84.100; -328.000; -476.000
269.054;    1.000; -117.000;   12.000
269.194; -100.500; -418.000; -402.000
269.335; -304.800;-1137.000;-1074.000
269.476;   -5.100;   33.000;  -35.000
269.617;  -88.200; -347.000; -392.000
269.757; -162.900; -713.000; -646.000
269.898; -192.900; -856.000; -613.000
270.039; -121.400; -415.000; -405.000
270.180; -252.000; -952.000; -816.000
270.320;  -48.100; -190.000; -250.000
270.461;  -67.200; -277.000; -249.000
270.602;  -32.100; -186.000; -156.000
270.742; -233.500; -868.000; -943.000
270.883;  -79.300; -442.000; -390.000
271.023;  -89.600; -358.000; -357.000
271.164; -118.000; -607.000; -528.000
271.305; -203.200; -666.000; -654.000
271.445; -141.600; -722.000; -683.000
271.586; -128.600; -462.000; -283.000
271.726;  -79.500; -397.000; -322.000
271.867; -133.300; -594.000; -534.000
272.008;  324.600; -473.000; -285.000
272.148;  298.800;  462.000;  468.000
272.289;   19.700; -113.000; -181.000
272.429;   50.700;   19.000;  185.000
272.570; -145.800; -633.000; -737.000
272.710; -160.900; -825.000; -775.000
272.851;  -18.800;  113.000; -130.000
272.991; -327.000;-1173.000;-1077.000
273.131; -111.300; -419.000; -459.000
273.272; -177.900; -683.000; -723.000
273.412;   47.300; -143.000;  -31.000
273.553; -102.400; -488.000; -507.000
273.693;  288.800;  913.000;  858.000
273.834; -168.600; -894.000; -692.000
273.974; -119.800; -664.000; -615.000
274.114; -154.900; -772.000; -560.000
274.255;  203.200;  414.000;  373.000
274.395;   19.300; -180.000; -125.000
274.535;  107.100;  199.000;  350.000
274.676;  109.800;  225.000;   94.000
274.816;   17.800;  110.000;   34.000
274.956; -116.700; -624.000; -690.000
275.097; -148.300;-1014.000; -922.000
275.237; -215.300; -913.000; -803.000
275.377; -166.700; -778.000; -689.000
275.517; -274.900; -878.000; -937.000
275.658; -109.100; -590.000; -555.000
275.798; -128.200; -606.000; -413.000
275.938;   61.800;  215.000;  323.000
276.078; -126.400; -626.000; -395.000
276.218;   58.100;   99.000;  104.000
276.359; -241.900;-1026.000;-1024.000
276.499; -124.400; -605.000; -446.000
276.639;  -41.500; -305.000; -151.000
276.779;  -85.600; -475.000; -357.000
276.919; -201.700; -783.000; -624.000
277.059;  -14.700; -261.000; -212.000
277.199;  -56.900; -357.000; -259.000
277.340;  126.100;  287.000;  175.000
277.480; -182.700; -840.000; -693.000
277.620;   84.500;  192.000;   16.000
277.760; -404.000;-1533.000;-1294.000
277.900;   98.200;  113.000;   33.000
278.040;   41.400;  137.000;  159.000
278.180;  113.800;  270.000;  170.000
278.320;   33.900;   21.000;   56.000
278.460; -112.300; -443.000; -469.000
278.600; -131.800; -708.000; -598.000
278.740;  121.500;  448.000;  224.000
278.880;  -58.300; -768.000; -791.000
279.020;   51.400; -194.000; -144.000
279.160; -157.700; -672.000; -595.000
279.300; -229.800; -926.000; -873.000
279.440; -151.300; -709.000; -622.000
279.579;  -82.100;-1014.000; -929.000
279.719;  -64.600; -410.000; -394.000
279.859;  156.000;   -4.000;   41.000
279.999;   67.900; -208.000;  101.000
280.139;  -41.700; -435.000; -387.000
280.279; -143.100; -708.000; -745.000
280.419;    1.900; -229.000; -147.000
280.559;  -35.600; -259.000; -180.000
280.698; -152.100; -790.000; -639.000
280.838; -153.900; -778.000; -800.000
280.978; -154.000; -846.000; -790.000
281.118; -242.300; -811.000; -704.000
281.257;   46.900;   24.000;    6.000
281.397; -184.100;-1094.000; -960.000
281.537; -119.800; -599.000; -712.000
281.677;  -41.400; -150.000; -101.000
281.816; -186.300; -700.000; -630.000
281.956;  -53.400; -193.000; -257.000
282.096; -113.100; -539.000; -396.000
282.235; -193.000; -672.000; -638.000
282.375;   12.000; -243.000;  -98.000
282.515; -169.100; -715.000; -707.000
282.654;   87.100;   29.000;  106.000
282.794;  123.000;  388.000;  244.000
282.934; -109.200; -530.000; -491.000
283.073; -226.200;-1030.000; -857.000
283.213;  -70.000; -460.000; -467.000
283.353;   -3.100; -408.000; -349.000
283.492;   -9.500; -264.000; -296.000
283.632;  -58.500; -254.000; -168.000
283.771; -170.900; -859.000; -730.000
283.911;  -89.000; -369.000; -260.000
284.050; -153.500; -794.000; -748.000
284.190; -300.600;-1229.000;-1096.000
284.329; -256.700;-1055.000; -964.000
284.469;  -85.300; -516.000; -591.000
284.608;  -61.000; -559.000; -598.000
284.748; -168.500; -614.000; -570.000
284.887;   28.100;  -87.000;  -20.000
285.027; -219.000; -844.000; -892.000
285.166;  -28.600; -192.000; -249.000
285.306;   78.100; -116.000;  -33.000
285.445;  -66.500; -229.000; -343.000
285.584; -149.600; -630.000; -494.000
285.724;  -67.200; -282.000; -322.000
285.863; -186.400; -857.000; -507.000
286.002;  -48.600; -366.000; -276.000
286.142; -182.700; -715.000; -622.000
286.281; -107.700; -525.000; -493.000
286.420; -134.700; -554.000; -417.000
286.560;  260.600;  653.000;  623.000
286.699; -236.900; -958.000; -912.000
286.838; -140.900; -590.000; -591.000
286.978; -157.900; -533.000; -537.000
287.117; -264.900;-1085.000; -950.000
287.256;  -58.300; -228.000; -211.000
287.395;  -75.800; -197.000; -378.000
287.535;  -79.000; -370.000; -298.000
287.674; -148.300; -509.000; -484.000
287.813;  149.200;  661.000;  533.000
287.952; -251.100;-1010.000; -871.000
288.091; -305.600;-1049.000; -915.000
288.231;   36.800;   13.000;   15.000
288.370; -329.400;-1217.000;-1200.000
288.509; -143.000; -728.000; -645.000
288.648; -166.600; -770.000; -548.000
288.787;  -38.800; -243.000;  -87.000
288.926; -107.100; -454.000; -475.000
289.065;  263.900;  859.000;  672.000
289.204;  -89.500; -377.000; -217.000
289.344; -164.400; -791.000; -690.000
289.483;  103.100;  416.000;  304.000
289.622;    5.200; -291.000; -149.000
289.761;   25.200; -309.000; -166.000
289.900; -198.900; -785.000; -626.000
290.039;    7.300;  -12.000;  -95.000
290.178;  -48.100; -274.000; -180.000
290.317; -131.400; -618.000; -479.000
290.456;  -96.200; -463.000; -451.000
290.595; -257.500; -961.000; -833.000
290.734; -267.300; -904.000; -891.000
290.873; -105.800; -456.000; -420.000
291.011; -207.600; -833.000; -843.000
291.150; -193.300; -770.000; -682.000
291.289;  -11.900; -343.000; -110.000
291.428; -169.900; -599.000; -480.000
291.567;  -94.300; -370.000; -442.000
291.706;    3.800;  109.000;  154.000
291.845; -180.700; -597.000; -505.000
291.984; -308.300;-1234.000;-1061.000
292.122;  218.000;  602.000;  582.000
292.261;  107.100;  620.000;  463.000
292.400;   64.400; -144.000;  211.000
292.539; -234.600; -959.000; -813.000
292.678;  -34.400; -325.000; -300.000
292.816; -290.400;-1136.000; -965.000
292.955; -136.100; -844.000; -684.000
293.094;   -4.900; -173.000; -337.000
293.233;  -59.800; -556.000; -400.000
293.371;  -47.100; -225.000;  -84.000
293.510; -176.000; -866.000; -780.000
293.649; -217.200; -959.000; -924.000
293.787;  -66.000;-1083.000;-1012.000
293.926;   10.800; -113.000;  -32.000
294.065;  -61.400; -379.000; -290.000
294.203;  136.000;  298.000;  406.000
294.342;  109.200;   74.000;  156.000
294.481;13510.500;51180.000; -836.000
294.619;   10.500; -425.000; -582.000
294.758; -235.700;-1230.000;-1137.000
294.896;  218.300; -125.000;    5.000
295.035; -197.000;-1040.000;-1006.000
295.174; -221.100;-1082.000; -954.000
295.312;  -36.600; -323.000; -203.000
295.451;   -5.800; -307.000; -428.000
295.589;  -85.600; -389.000; -518.000
295.728;   88.200; -292.000; -165.000
295.866;   60.000;  -36.000;  -51.000
296.005; -107.400; -584.000; -341.000
296.143;  -91.900; -558.000; -596.000
296.282; -164.900; -957.000; -881.000
296.420; -125.400; -657.000; -557.000
296.559; -122.000; -892.000; -633.000
296.697;   74.800; -847.000; -665.000
296.835;  181.000;-1141.000;-1002.000
296.974;  141.800;  -23.000;   39.000
297.112;   82.700; -443.000; -504.000
297.251; -111.200; -815.000; -755.000
297.389;  268.900; -576.000; -438.000
297.527;  161.700; -145.000;  -83.000
297.666;  -43.400; -486.000; -438.000
297.804;  -77.300; -404.000; -264.000
297.942;   38.500; -136.000; -161.000
298.081;   49.300; -183.000;   63.000
298.219;  171.700;  -17.000;  -19.000
298.357;  138.300; -144.000;  -71.000
298.495;  122.900; -810.000; -812.000
298.634;  220.700;  245.000;  219.000
298.772;  186.500; -220.000; -338.000
298.910;  -48.600; -309.000; -182.000
299.048;   11.300; -130.000; -153.000
299.187;    1.300; -350.000; -250.000
299.325;   84.400;   52.000;  122.000
299.463;  136.200; -389.000; -299.000
299.601;  301.400; -327.000; -271.000
299.739; -208.100; -908.000; -883.000
299.877; -125.100; -791.000; -703.000
300.016;  -99.800;-1095.000; -935.000
300.154;  384.600;  -19.000; -161.000
300.292;  165.600; -428.000; -348.000
300.430;  146.800; -408.000; -291.000
300.568; -181.200; -940.000; -874.000
300.706;  -31.900; -366.000; -469.000
300.844; -109.400;-1108.000; -979.000
300.982;  284.300;  246.000;  282.000
301.120; -206.900; -965.000; -866.000
301.258;  -93.100; -812.000; -705.000
301.396;  125.800;  104.000;  -41.000
301.534;  238.100; -218.000; -293.000
301.672;   61.600; -664.000; -521.000
301.810;  111.100; -613.000; -545.000
301.948;  324.700;   53.000;  149.000
302.086; 1239.900; -250.000;  -32.000
302.224; 2042.800; -610.000; -585.000
302.362;   97.700; -558.000; -622.000
302.500;   21.700; -923.000; -893.000
302.638;  268.400;  128.000;  245.000
302.776;   36.900; -352.000; -408.000
302.913;  142.000;  447.000;  236.000
303.051;   66.000;  -86.000;  -23.000
303.189;  191.600;   90.000;  118.000
303.327;   -8.500; -341.000; -256.000
303.465; -108.100; -832.000; -588.000
303.603; -120.000; -805.000; -604.000
303.740;  263.200;  417.000;  241.000
303.878;   92.400; -800.000; -759.000
304.016; -142.000; -915.000; -790.000
304.154; -229.400;-1123.000;-1152.000
304.291;  -32.800; -505.000; -554.000
304.429;   49.500;  102.000;   74.000
304.567; -252.500; -908.000; -893.000
304.705;  -81.900; -408.000; -515.000
304.842;  194.000; -616.000; -540.000
304.980;  163.600;  215.000;   35.000
305.118;  177.000; -367.000; -365.000
305.255;  -73.900; -945.000; -927.000
305.393;  174.900;  178.000;  239.000
305.531; -162.200;-1173.000; -956.000
305.668;  -88.300; -663.000; -582.000
305.806;  206.800; -358.000; -439.000
305.943;  242.000; -629.000; -637.000
306.081;  170.600; -378.000; -267.000
306.219; -187.200; -863.000; -748.000
306.356;   31.300;  158.000;   27.000
306.494;  310.000;  981.000;  761.000
306.631;   62.200;  -11.000;  -55.000
306.769;   71.800; -613.000; -485.000
306.906;   29.100; -284.000; -258.000
307.044;  -44.700; -473.000; -488.000
307.181;  -52.800; -410.000; -332.000
307.319;   92.500;  112.000;   87.000
307.456; -336.900;-1191.000;-1153.000
307.594; -172.200; -980.000; -727.000
307.731;    1.100; -371.000; -164.000
307.868;   45.000;  -15.000;   20.000
308.006; -237.700; -961.000; -847.000
308.143;  -79.200; -618.000; -330.000
308.281;  517.300;  -37.000; -254.000
308.418;   85.800; -748.000; -640.000
308.555; -111.200; -400.000; -250.000
308.693;  -77.700; -577.000; -573.000
308.830; -155.300; -712.000; -657.000
308.967;   15.500; -215.000;  -95.000
309.105;   -9.700; -507.000; -396.000
309.242;  158.100; -468.000; -367.000
309.379;  976.100; -577.000; -655.000
309.517;   -4.100; -936.000; -948.000
309.654; -121.200; -910.000; -734.000
309.791;  -88.400; -662.000; -580.000
309.928; -190.300; -977.000; -914.000
310.065;  408.200;  819.000;  697.000
310.203;   53.400; -825.000; -850.000
310.340;   91.100; -465.000; -321.000
310.477;  -83.600; -412.000; -516.000
310.614;  -59.300; -383.000; -473.000
310.751;  -79.200; -427.000; -518.000
310.889;    2.800;    1.000;   11.000
311.026; -260.500;-1161.000; -939.000
311.163;  -39.800; -386.000; -380.000
311.300;  -95.500; -512.000; -479.000
311.437;  -85.600; -658.000; -619.000
311.574; -268.400;-1226.000; -985.000
311.711;  -73.700; -595.000; -433.000
311.848;  -16.500; -380.000; -388.000
311.985;   92.800;  270.000;   93.000
312.122; -183.200; -932.000; -762.000
312.259; -182.900; -941.000; -994.000
312.396; -104.800; -508.000; -551.000
312.533;  -90.300; -812.000; -790.000
312.670; -196.900;-1070.000; -898.000
312.807;  -15.600; -352.000; -367.000
312.944;  -91.400; -513.000; -611.000
313.081;  -15.900; -150.000; -415.000
313.218; -166.200;-1111.000; -867.000
313.355;   68.700; -531.000; -449.000
313.492;   44.600; -455.000; -292.000
313.629;  320.200;  815.000;  735.000
313.766; -264.500;-1176.000;-1008.000
313.902;   28.900; -186.000;   21.000
314.039;  -39.200; -372.000; -289.000
314.176;  115.300;  286.000;  192.000
314.313;  -72.900; -569.000; -473.000
314.450;  -77.400; -788.000; -684.000
314.587;  -46.600; -468.000; -480.000
314.723;   69.700;  -78.000;  130.000
314.860;  129.500;  318.000;  332.000
314.997;  150.900;  223.000;  142.000
315.134;  -31.900; -385.000; -368.000
315.270;    0.100; -480.000; -496.000
315.407; -184.800;-1094.000; -967.000
315.544;  -41.400; -657.000; -538.000
315.681;  -95.400; -681.000; -565.000
315.817;  129.300; -133.000; -176.000
315.954;  119.700; -613.000; -392.000
316.091; -223.500;-1045.000;-1023.000
316.227;   -4.200;  -71.000; -179.000
316.364;   56.800;   23.000;    6.000
316.500;   -9.300; -113.000; -300.000
316.637;   -2.300; -181.000; -302.000
316.774; -135.000; -625.000; -358.000
316.910; -169.400; -598.000; -629.000
317.047;  -85.200; -487.000; -351.000
317.183;  -74.700; -435.000; -566.000
317.320;  -11.800; -367.000; -321.000
317.456; -138.100; -733.000; -805.000
317.593; -123.700; -598.000; -641.000
317.729;   93.900;  168.000;  -67.000
317.866; -365.500;-1434.000;-1285.000
318.002; -124.000; -708.000; -948.000
318.139; -148.400; -883.000; -867.000
318.275; -172.100;-1003.000; -738.000
318.412;  -90.700; -517.000; -336.000
318.548;  -32.400; -751.000; -720.000
318.685; -163.500; -985.000; -888.000
318.821; -150.400; -762.000; -735.000
318.957;    7.500;   34.000;  -23.000
319.094;  176.000;  297.000;  154.000
319.230;  -73.900; -756.000; -742.000
319.367;  298.000; -471.000; -520.000
319.503;  143.600; -538.000; -436.000
319.639;  -86.800; -877.000; -793.000
319.775;  -91.400; -750.000; -685.000
319.912;  -55.400; -424.000; -519.000
320.048; -132.300;-1184.000;-1184.000
320.184;  171.800;   59.000;   70.000
320.321;  -64.800; -497.000; -467.000
320.457;  179.800;  475.000;  662.000
320.593; -100.600; -375.000; -382.000
320.729; -163.400; -732.000; -734.000
320.866; -102.200; -577.000; -635.000
321.002; -118.400; -759.000; -809.000
321.138;   40.300; -135.000; -211.000
321.274;  176.500; -148.000; -115.000
321.410;   -6.300; -585.000; -353.000
321.546;   10.900;-1011.000; -911.000
321.683;  163.400;  400.000;  185.000
321.819;   77.200;  -48.000; -117.000
321.955; -174.900; -743.000; -722.000
322.091;  -28.400; -585.000; -540.000
322.227;   13.900; -382.000; -202.000
322.363;    2.800; -320.000; -215.000
322.499;  -48.200; -343.000; -331.000
322.635;  387.000;  636.000;  443.000
322.771;  129.400; -139.000;   12.000
322.907;  248.700;  129.000;  327.000
323.043;   15.100; -115.000; -206.000
323.179;  -27.900; -394.000; -363.000
323.315;  149.800; -401.000; -371.000
323.451;  328.200; -328.000; -236.000
323.587;  197.400;  -60.000;  -77.000
323.723;   65.900; -682.000; -601.000
323.859;   15.800; -258.000;  -76.000
323.995;   -4.300; -467.000; -409.000
324.131; -204.900; -967.000; -892.000
324.267;  -17.800; -254.000; -276.000
324.402; -243.100; -960.000; -983.000
324.538;   44.900; -279.000; -104.000
324.674;  111.500;  164.000;   77.000
324.810;  448.800;  226.000;  308.000
324.946;  111.000; -810.000; -658.000
325.082;  -55.100; -568.000; -475.000
325.217;   18.900;  -62.000;   16.000
325.353; -175.200; -764.000; -659.000
325.489; -133.600; -540.000; -506.000
325.625; -107.800; -579.000; -525.000
325.760;  133.000;  517.000;  376.000
325.896;  -59.000; -515.000; -702.000
326.032;  -36.500; -403.000; -352.000
326.168;  -61.000; -462.000; -369.000
326.303;  -88.300; -352.000; -461.000
326.439;   14.600; -336.000; -276.000
326.575;   67.900; -190.000;  -29.000
326.710;   64.200; -156.000;  -30.000
326.846;   32.600;  146.000;  103.000
326.982; -174.200; -530.000; -548.000
327.117; -128.400; -481.000; -442.000
327.253; -150.900; -745.000; -742.000
327.388; -214.200;-1137.000;-1153.000
327.524;  -10.100; -811.000; -578.000
327.659;  -22.900;  -58.000;  -22.000
327.795;   26.800;   69.000;   45.000
327.931; -124.500; -723.000; -499.000
328.066;   20.100; -417.000; -276.000
328.202;   67.500;   12.000; -129.000
328.337;  267.900;  957.000;  713.000
328.473;    1.900;  -12.000;  -74.000
328.608;   27.200; -256.000; -267.000
328.743; -127.000; -799.000; -664.000
328.879;   87.500;  214.000;  114.000
329.014;  -81.700; -102.000; -122.000
329.150; -120.900; -358.000; -483.000
329.285;  -94.300; -465.000; -466.000
329.421;  -61.200; -548.000; -246.000
329.556;   39.500;  -36.000;   85.000
329.691; -147.400; -633.000; -615.000
329.827; -139.000; -626.000; -480.000
329.962;  -32.800;  131.000; -301.000
330.097; -146.600; -673.000; -585.000
330.233;  -60.000; -410.000; -223.000
330.368; -218.800; -839.000; -628.000
330.503;    8.000;    3.000;   98.000
330.638;   32.600;  -93.000; -125.000
330.774;  -43.900; -609.000; -530.000
330.909;  -29.400; -434.000; -244.000
331.044; -130.500; -714.000; -708.000
331.179; -291.900;-1217.000;-1109.000
331.315;   74.900;   77.000;   20.000
331.450;   63.200;  157.000;  285.000
331.585; -127.600; -805.000; -706.000
331.720; -138.900; -510.000; -460.000
331.855;    4.900;  -35.000; -102.000
331.990;  373.100;   62.000;  138.000
332.126;  238.000; -110.000;   71.000
332.261;   -7.000; -379.000; -265.000
332.396;   20.400; -135.000; -242.000
332.531; -211.800;-1074.000;-1031.000
332.666;   71.800; -519.000; -363.000
332.801; -180.200; -726.000; -807.000
332.936;    9.200; -192.000; -122.000
333.071; -267.800; -870.000; -817.000
333.206;  109.500;  307.000;  379.000
333.341;  114.000;  344.000;  418.000
333.476; -146.100; -627.000; -623.000
333.611;  -22.600; -251.000; -173.000
333.746;  -66.400; -381.000; -464.000
333.881; -171.400; -973.000; -935.000
334.016; -204.000; -936.000; -917.000
334.151; -201.600; -746.000; -702.000
334.286;  123.400;  152.000;  186.000
334.421;   56.100; -125.000; -178.000
334.556;  -96.600; -611.000; -567.000
334.690;  -96.200; -631.000; -577.000
334.825;  187.400;  381.000;   83.000
334.960;  -59.900; -285.000; -413.000
335.095;   72.400;  135.000;  -91.000
335.230; -150.700; -722.000; -738.000
335.365; -223.000;-1084.000; -990.000
335.499; -229.400;-1108.000;-1037.000
335.634;  121.300;    9.000;  534.000
335.769; -129.600; -755.000; -720.000
335.904;  -42.100; -603.000; -561.000
336.038;  -21.800; -735.000; -657.000
336.173; -122.400;-1206.000;-1194.000
336.308;  115.400; -116.000; -189.000
336.443;   87.200; -544.000; -634.000
336.577;  -88.900; -936.000; -787.000
336.712;  161.500;   -4.000;  -12.000
336.847;    5.300; -724.000; -607.000
336.981;  242.300; -272.000; -208.000
337.116;  700.000;  615.000;  501.000
337.250;  398.100; -434.000; -421.000
337.385;  332.900; -297.000; -208.000
337.520;   82.500; -632.000; -603.000
337.654;  -49.800; -215.000; -126.000
337.789; -197.400; -989.000; -933.000
337.923;   13.500; -104.000; -205.000
338.058; -112.900; -673.000; -738.000
338.192;   -7.500; -611.000; -488.000
338.327;   66.800;  -18.000; -155.000
338.461;  -81.400; -299.000; -469.000
338.596; -129.300; -780.000; -638.000
338.730; -166.600; -767.000; -803.000
338.865;  146.000;  -46.000; -140.000
338.999; -131.300; -846.000; -702.000
339.134;  -32.900; -634.000; -536.000
339.268;    9.300; -741.000; -603.000
339.403;  543.300; -740.000; -775.000
339.537;  111.500; -894.000; -820.000
339.671; -189.200; -829.000; -813.000
339.806;  -86.500; -556.000; -512.000
339.940;   46.100; -261.000; -235.000
340.074; -136.300; -685.000; -510.000
340.209;  -51.700; -351.000; -230.000
340.343; -141.200; -517.000; -573.000
340.477;  372.400;  998.000; 1036.000
340.612; -136.700;-1033.000; -900.000
340.746;  150.200; -199.000; -243.000
340.880; -100.600; -924.000; -785.000
341.014;   22.400;  -45.000; -154.000
341.149; -192.500; -756.000; -718.000
341.283; -178.200; -839.000; -754.000
341.417; -104.900;-1124.000; -938.000
341.551;  397.700; -768.000; -708.000
341.685;   -3.200; -633.000; -611.000
341.820;  -72.300; -562.000; -493.000
341.954;  -45.200; -218.000; -349.000
342.088; -243.800;-1102.000;-1019.000
342.222;  157.300;  565.000;  618.000
342.356;  -90.500; -395.000; -335.000
342.490; -122.600; -880.000; -841.000
342.624;  -43.000; -339.000; -242.000
342.758;   74.600; -364.000; -312.000
342.892;  -81.700; -710.000; -585.000
343.026;  -23.900;  -58.000; -116.000
343.160;  -67.900; -426.000; -376.000
343.294; -122.300; -474.000; -337.000
343.428;    2.800; -488.000; -448.000
343.562;   17.800; -172.000;  -23.000
343.696;    6.500; -385.000; -314.000
343.830;   36.000; -362.000; -356.000
343.964;   89.800; -231.000; -168.000
344.098; 2049.500;  199.000;   70.000
344.232; 1727.500; -266.000; -127.000
344.366;  193.900; -567.000; -453.000
344.500;  175.500; -665.000; -744.000
344.634;  150.600; -324.000; -164.000
344.768;   69.100; -531.000; -341.000
344.902;   81.300;  278.000;  256.000
345.035; -101.500; -556.000; -496.000
345.169; -249.400; -933.000; -656.000
345.303;   33.000; -308.000; -482.000
345.437;  -63.000; -826.000; -717.000
345.571; -111.000; -675.000; -594.000
345.704;  -67.100; -309.000; -532.000
345.838;   18.800; -331.000; -284.000
345.972;   -9.700; -543.000; -495.000
346.106;  274.600; -179.000; -190.000
346.239;  771.000; -312.000; -243.000
346.373;  103.800; -343.000; -302.000
346.507; -242.900; -950.000; -962.000
346.640;  414.300;  -30.000;   13.000
346.774;  -30.200; -650.000; -797.000
346.908;   32.300; -138.000;  -11.000
347.041; -174.000; -646.000; -593.000
347.175;   63.200;  259.000;   27.000
347.309;  -68.900; -698.000; -628.000
347.442; -140.900; -883.000; -732.000
347.576;  683.900;  670.000;  668.000
347.709;  515.700; -123.000;  -52.000
347.843; -119.200; -933.000; -825.000
347.976;  132.200;  235.000;  294.000
348.110; -290.500;-1268.000;-1186.000
348.243; -167.200; -679.000; -772.000
348.377;   48.500;  -26.000;   60.000
348.510;  148.100;  403.000;  540.000
348.644;  -11.300;  -37.000; -159.000
348.777;   74.100;  180.000;  191.000
348.911;  -51.100; -142.000; -112.000
349.044;  412.400;  471.000;  448.000
349.178;  407.000;-1069.000;-1006.000
349.311;  279.400;  141.000;  255.000
349.444;  -51.900; -927.000; -813.000
349.578;   23.600; -347.000; -200.000
349.711; -149.400; -959.000; -862.000
349.845;   67.300; -661.000; -591.000
349.978; -260.500;-1224.000;-1137.000
350.111; -141.700; -546.000; -612.000
350.244; -119.200; -596.000; -700.000
350.378;   86.200; -392.000; -393.000
350.511;  -70.300; -393.000; -426.000
350.644; -183.500; -808.000; -806.000
350.778;   69.500;  168.000;  104.000
350.911;   74.400;  134.000;  140.000
351.044; -120.200; -685.000; -615.000
351.177;   -1.500; -321.000; -281.000
351.310;   46.700;    3.000; -131.000
351.444;  -63.900; -888.000; -788.000
351.577;  314.300;  140.000;   90.000
351.710;  261.300;  593.000;  417.000
351.843;  -24.800; -165.000;  -77.000
351.976;   70.400;  149.000;  -79.000
352.109; -121.900; -621.000; -612.000
352.242;    6.000; -464.000; -419.000
352.376;  -45.500; -580.000; -636.000
352.509;  511.300; -437.000; -356.000
352.642;   95.600; -654.000; -604.000
352.775;  206.900; -141.000;  -98.000
352.908; -196.300; -933.000; -904.000
353.041; -160.000; -814.000; -824.000
353.174;  -54.500; -551.000; -424.000
353.307; -142.800; -753.000; -764.000
353.440;  209.400;  541.000;  453.000
353.573; -160.600; -957.000;-1008.000
353.706;  -64.100; -384.000; -558.000
353.839;   46.800; -264.000; -220.000
353.971; -111.500; -657.000; -512.000
354.104; -133.900; -896.000; -835.000
354.237;  -27.700; -627.000; -662.000
354.370; -148.400; -846.000; -879.000
354.503; -326.800;-1231.000;-1308.000
354.636;   21.500; -529.000; -348.000
354.769; -206.100; -937.000; -860.000
354.902;   45.200; -230.000; -139.000
355.034;    6.000; -164.000; -220.000
355.167;   25.500; -262.000; -162.000
355.300; -154.500;-1061.000; -880.000
355.433; 1474.900;  -71.000;  -14.000
355.565; 2250.800; -402.000; -384.000
355.698;  546.100; -356.000; -296.000
355.831;   50.000; -882.000; -801.000
355.964;  260.900; -285.000; -170.000
356.096;  -90.400; -856.000; -843.000
356.229;  146.400; -523.000; -530.000
356.362;  467.000; -373.000; -266.000
356.494;  888.600; -229.000; -162.000
356.627; 1058.300;  269.000;  377.000
356.760; 1072.900;  120.000;   53.000
356.892; 1452.300; -286.000; -601.000
357.025; 1445.700;  403.000;  389.000
357.157; 1385.700; -167.000; -179.000
357.290;  857.000; -856.000; -713.000
357.423;  270.700; -667.000; -556.000
357.555;  311.700; -217.000; -228.000
357.688;  306.500; -483.000; -364.000
357.820;  867.100; -870.000; -877.000
357.953; 6887.900; -563.000; -589.000
358.085; 1670.100; -632.000; -612.000
358.218; 3028.700;-1131.000; -932.000
358.350;  554.200;  -58.000;  312.000
358.483; -187.100;-1300.000;-1187.000
358.615;   76.100;-1182.000;-1078.000
358.747;  -31.100;-1187.000;-1058.000
358.880;  148.600; -810.000; -744.000
359.012;   18.500; -376.000; -202.000
359.145;  -17.500; -480.000; -511.000
359.277;  123.700; -962.000; -913.000
359.409; 5914.500;  536.000;  231.000
359.542; 1557.700; -738.000; -688.000
359.674;  181.800;   46.000;   13.000
359.806; -106.700; -565.000; -438.000
359.939;  -54.700; -617.000; -516.000
360.071;  -40.600; -583.000; -579.000
360.203;   38.600; -411.000; -364.000
360.335;  164.600;  164.000;  -16.000
360.468;  393.700; -249.000; -307.000
360.600; 4421.700; -547.000; -454.000
360.732; 3842.500; -546.000; -423.000
360.864;  504.800;-1216.000;-1044.000
360.996;  761.500; -516.000; -554.000
361.129;  188.200; -389.000; -598.000
361.261;   94.800;  110.000; -113.000
361.393;   11.000; -252.000; -214.000
361.525;  158.700;   94.000;  244.000
361.657;  -40.300; -821.000; -703.000
361.789;  104.600; -139.000; -155.000
361.921;  625.800; -642.000; -593.000
362.053;  650.300;  524.000;  541.000
362.185;  160.900;  288.000;   72.000
362.318;  -72.100; -709.000; -705.000
362.450;  420.000;  294.000;  444.000
362.582;  496.400; -913.000; -870.000
362.714;   20.000; -353.000; -332.000
362.846; -127.100; -606.000; -490.000
362.978; -248.800; -941.000; -811.000
363.109;  205.600; -161.000; -260.000
363.241; 1035.300; -739.000; -749.000
363.373;  761.200; -649.000; -564.000
363.505;  967.300; -186.000;  -91.000
363.637;  245.000; -787.000; -601.000
363.769; -228.700;-1067.000;-1080.000
363.901;  -71.900; -596.000; -654.000
364.033; -193.100;-1103.000;-1062.000
364.165;   67.300; -283.000; -283.000
364.296;  156.300; -316.000; -177.000
364.428;   48.400;-1344.000;-1220.000
364.560; -125.900; -679.000; -661.000
364.692;  -77.900; -738.000; -835.000
364.824;  722.300; -588.000; -456.000
364.955;  798.300; -402.000; -564.000
365.087; 1110.100;-1097.000; -852.000
365.219;   30.400; -686.000; -816.000
365.351;  -87.900; -526.000; -572.000
365.482;  125.000;  300.000;  240.000
365.614;  -35.300; -402.000; -314.000
365.746; -126.400; -729.000; -752.000
365.877; -154.400; -706.000; -672.000
366.009;  410.700;  -35.000;  -62.000
366.141; -187.000;-1249.000;-1134.000
366.272; -152.500; -803.000; -719.000
366.404; -179.500;-1005.000; -874.000
366.535;   18.200; -139.000;  -12.000
366.667; -128.900; -644.000; -649.000
366.799;  123.500;  353.000;  203.000
366.930; -159.700; -862.000; -996.000
367.062;  270.100; -639.000; -613.000
367.193;  174.800; -872.000; -842.000
367.325;  -89.000; -580.000; -684.000
367.456;  250.400; -246.000;   31.000
367.588;  285.300; -371.000; -318.000
367.719;   96.900;  -44.000;  -45.000
367.851;   21.100; -222.000; -241.000
367.982;   -7.400; -875.000; -732.000
368.113;  283.000; -475.000; -358.000
368.245; -165.000; -960.000; -841.000
368.376;   48.400; -254.000; -302.000
368.508;   -1.300; -188.000; -263.000
368.639; -232.200;-1166.000;-1034.000
368.770;   57.800; -670.000; -589.000
368.902;  -44.900; -836.000; -926.000
369.033; -173.400; -906.000; -855.000
369.164;  -63.000; -720.000; -653.000
369.296; -155.400; -452.000; -601.000
369.427;   66.100; -209.000; -144.000
369.558;  -25.800; -593.000; -377.000
369.689; -140.300; -721.000; -569.000
369.821; -231.300; -951.000; -845.000
369.952;   39.300;   42.000; -108.000
370.083;  -57.500; -229.000; -108.000
370.214; -112.200; -735.000; -650.000
370.345;   48.900;   65.000;   81.000
370.477; -122.000; -810.000; -790.000
370.608;  598.100; -328.000; -264.000
370.739;  -23.800;-1233.000;-1292.000
370.870;   27.300;-1102.000; -923.000
371.001;  269.800; -378.000; -467.000
371.132;  -78.300; -754.000; -735.000
371.263;   27.100;  -42.000; -148.000
371.394; -216.700; -841.000; -748.000
371.525;  152.300;  345.000;  225.000
371.657; -122.400; -808.000; -670.000
371.788;  215.900;  103.000;  199.000
371.919;  436.000; -384.000; -304.000
372.050; 7747.100;  -91.000; -156.000
372.181; 2203.100; -188.000; -294.000
372.311;  914.200;   42.000; -127.000
372.442;  151.000; -457.000; -451.000
372.573;   18.400; -444.000; -340.000
372.704; -196.200;-1008.000; -980.000
372.835;  233.200; -228.000; -289.000
372.966;  -64.000; -646.000; -554.000
373.097;  -48.400; -575.000; -711.000
373.228;  -49.400; -717.000; -542.000
373.359;  378.000; -824.000; -536.000
373.490; 2237.900; -881.000; -727.000
373.620; 2618.400;-1001.000; -803.000
373.751; 4154.900; -332.000; -396.000
373.882; 1795.000; -663.000; -733.000
374.013;  234.900; -449.000; -262.000
374.143;  -13.900; -581.000; -659.000
374.274; -150.700; -987.000; -908.000
374.405;  422.900; -388.000; -276.000
374.536; 1062.700; -526.000; -387.000
374.666; 2618.300; -759.000; -807.000
374.797;  604.100; -817.000; -868.000
374.928; 2056.800; -710.000; -560.000
375.058; 2056.800; -535.000; -500.000
375.189;  215.700;  -59.000;  -93.000
375.320; -144.700; -928.000;-1034.000
375.450;  -42.000; -625.000; -616.000
375.581;  -35.800; -526.000; -436.000
375.712;   46.100; -574.000; -250.000
375.842;  779.600; -438.000; -415.000
375.973;  541.100; -554.000; -513.000
376.103;    0.200; -665.000; -648.000
376.234;  -84.300; -531.000; -552.000
376.364;  -14.900; -944.000; -867.000
376.495;  776.700;  925.000;  529.000
376.625;  135.900; -472.000; -485.000
376.756;  274.000; -709.000; -678.000
376.886;  -62.500;-1178.000;-1026.000
377.017;   86.500;-1048.000;-1061.000
377.147;  482.100; -786.000; -782.000
377.278;  123.500;  174.000;  228.000
377.408; -174.600; -801.000; -815.000
377.538; -183.500; -707.000; -693.000
377.669; -104.400; -537.000; -613.000
377.799; -120.600; -645.000; -635.000
377.929;  -22.500; -610.000; -428.000
378.060; -190.900; -781.000; -847.000
378.190;  -87.700; -726.000; -531.000
378.320;  -33.900; -401.000; -406.000
378.451;   54.500; -131.000;  -22.000
378.581;   78.700;  -67.000; -110.000
378.711;  453.400; 1035.000;  866.000
378.841;   44.800; -533.000; -675.000
378.972;  -61.700; -871.000; -751.000
379.102;   78.000; -652.000; -579.000
379.232;   74.600; -126.000;  -73.000
379.362; -125.800;-1001.000; -885.000
379.492;  118.400; -373.000; -424.000
379.623;  322.000;    0.000;  111.000
379.753; -136.600;-1107.000; -974.000
379.883;  505.100;   59.000;  156.000
380.013;   55.900;-1081.000;-1017.000
380.143; -153.900;-1097.000;-1056.000
380.273; -137.900; -985.000; -861.000
380.403;   43.100; -344.000; -257.000
380.533;   -8.500; -651.000; -664.000
380.663;  259.300;  173.000;  128.000
380.793; -113.600;-1027.000;-1074.000
380.923;   59.800; -103.000;  -34.000
381.053;  -92.100; -613.000; -623.000
381.183;   -0.500; -106.000; -248.000
381.313;  194.400; -656.000; -470.000
381.443;  166.100; -692.000; -473.000
381.573;  606.900; -402.000; -409.000
381.703;  765.800;-1249.000;-1095.000
381.833; -138.400;-1454.000;-1336.000
381.963;  290.500; -134.000;  -87.000
382.093; 2886.400; -925.000; -909.000
382.223;  912.400; -713.000; -602.000
382.353;   34.600; -801.000; -608.000
382.482;  959.900;-1091.000; -964.000
382.612; 1667.000; -872.000; -644.000
382.742;  912.400; -695.000; -622.000
382.872;  710.300; -565.000; -551.000
383.002;  229.000;  347.000; -132.000
383.131;    6.600; -226.000; -160.000
383.261;  -42.300; -706.000; -768.000
383.391;  527.400; -552.000; -377.000
383.521; 4436.500;  451.000;  263.000
383.650;  834.500; -947.000; -904.000
383.780;   -6.600; -783.000; -656.000
383.910;  332.800;  880.000;  802.000
384.039;  156.400; -794.000; -656.000
384.169;  578.600;-1205.000;-1017.000
384.299;   44.700; -650.000; -662.000
384.428; -124.200; -764.000; -680.000
384.558;   25.300; -308.000; -275.000
384.687;   65.900; -414.000; -334.000
384.817;  181.100;   75.000;   -2.000
384.947;  185.200; -234.000; -141.000
385.076;  754.700;  982.000;  912.000
385.206;  317.500;  369.000;  480.000
385.335;   43.200; -549.000; -417.000
385.465;  -37.800; -655.000; -663.000
385.594;  409.300;  -53.000;  -44.000
385.724; 1060.000; -868.000; -838.000
385.853;  406.500; -296.000; -270.000
385.982; 3274.800; -743.000; -787.000
386.112; 4698.700;-1052.000; -871.000
386.241;  384.000; -307.000; -312.000
386.371;  137.000; -174.000;  -87.000
386.500;   80.000; -825.000; -789.000
386.629;  100.500; -874.000; -817.000
386.759;  250.700;  -43.000;   68.000
386.888;  164.600; -170.000; -250.000
387.017;  -13.000; -648.000; -620.000
387.147;  -38.800; -771.000; -798.000
387.276;  113.800; -410.000; -397.000
387.405;  138.800; -398.000; -342.000
387.535;    1.400; -452.000; -361.000
387.664;  -87.000; -692.000; -620.000
387.793;  269.500; -198.000; -113.000
387.922; 1327.100;  255.000;  200.000
388.052;  173.200; -576.000; -423.000
388.181;  243.700; -342.000; -472.000
388.310;  214.700; -889.000; -710.000
388.439;   62.700; -749.000; -742.000
388.568;  553.800;  365.000;  244.000
388.697; 2518.000; -756.000; -653.000
388.826;  528.300; -768.000; -666.000
388.956;  232.400; -285.000; -307.000
389.085;   41.500; -347.000; -287.000
389.214; -116.500; -842.000; -872.000
389.343;  -48.100; -645.000; -413.000
389.472;  750.800;  126.000;  149.000
389.601;  951.900;   91.000;    0.000
389.730;   96.700; -568.000; -687.000
389.859;  226.100;  226.000;   46.000
389.988;  501.600; -423.000; -408.000
390.117;  346.400; -168.000; -146.000
390.246;   94.100; -331.000; -320.000
390.375;  319.400; -673.000; -626.000
390.504;  -30.100; -703.000; -621.000
390.633; -141.700; -672.000; -726.000
390.761;  -40.600; -732.000; -645.000
390.890;  187.600;   -4.000; -130.000
391.019;   21.100; -421.000; -441.000
391.148; -172.000; -826.000; -855.000
391.277;  -42.200; -576.000; -493.000
391.406;  -14.900; -821.000; -805.000
391.534;  122.200;  574.000; -301.000
391.663;  -45.800; -583.000; -645.000
391.792; -101.700; -673.000; -701.000
391.921;  368.100;   -3.000;   15.000
392.050;  578.300; -287.000; -228.000
392.178;   23.500;-1206.000;-1061.000
392.307;  373.600; -758.000; -712.000
392.436;  262.200; -427.000; -641.000
392.564;  150.300;  166.000;   -6.000
392.693;  -87.500; -860.000; -682.000
392.822;  575.800; -529.000; -534.000
392.950;  286.100; -880.000; -714.000
393.079;  775.300; -188.000; -328.000
393.208;  113.000; -488.000; -511.000
393.336;   70.800; -170.000; -145.000
393.465;  -24.400; -317.000; -199.000
393.593;   71.500;   62.000;   79.000
393.722; -251.300;-1121.000; -916.000
393.850;   20.100; -188.000;  -61.000
393.979; -262.600; -926.000; -805.000
394.107;  -83.100; -517.000; -537.000
394.236;   42.000; -570.000; -507.000
394.364;  618.300;  383.000;  206.000
394.493; 1018.400; -911.000; -767.000
394.621;   36.300; -955.000; -916.000
394.750; 1143.700; -873.000; -923.000
394.878; 4553.600; -247.000; -149.000
395.007; 5936.000; -721.000; -807.000
395.135;  437.600; -790.000; -721.000
395.263; -175.900;-1038.000;-1040.000
395.392;   60.100;  -25.000; -107.000
395.520; -240.900; -818.000; -679.000
395.648; -104.700; -865.000; -915.000
395.777;   43.200; -366.000; -405.000
395.905;  -26.700; -449.000; -564.000
396.033;  112.800;  217.000;  172.000
396.162; 1762.600; -399.000; -453.000
396.290; 1490.900;  -17.000;   -2.000
396.418;  319.200; -555.000; -514.000
396.546;  -50.100; -571.000; -466.000
396.674; -129.000; -850.000; -878.000
396.803;   77.900;  -72.000;  -23.000
396.931;  327.900; -179.000; -199.000
397.059;  220.500;-1026.000; -989.000
397.187; -170.600;-1026.000; -975.000
397.315; -197.500; -884.000; -649.000
397.443; -119.400; -592.000; -443.000
397.572; -109.600; -578.000; -424.000
397.700;   59.300; -607.000; -614.000
397.828;  113.300;  120.000;  -90.000
397.956;  -32.400; -508.000; -478.000
398.084; -140.300; -767.000; -626.000
398.212;  183.800;  137.000;  124.000
398.340;  171.100;  -56.000;  159.000
398.468;  160.900; -390.000; -169.000
398.596; -193.300; -993.000; -953.000
398.724; -170.300; -762.000; -767.000
398.852; -295.100;-1024.000; -976.000
398.980;  -43.700; -560.000; -560.000
399.108;  -39.600; -982.000; -735.000
399.236;  161.900;   13.000;    8.000
399.363;   90.100;  222.000;  196.000
399.491;  -83.800; -404.000; -398.000
399.619; -179.300; -829.000; -800.000
399.747; -147.900; -859.000; -771.000
399.875;  244.300;  220.000;  234.000
400.003;  -17.600; -359.000; -284.000
400.130; -117.000; -421.000; -341.000
400.258;   23.000;  -83.000;   38.000
400.386;  -73.400; -352.000; -168.000
400.514;   29.700; -526.000; -587.000
400.641;  -79.900; -928.000; -802.000
400.769; -185.100; -979.000; -888.000
400.897;  -33.200; -838.000; -793.000
401.025;   82.600; -166.000; -152.000
401.152;   79.500;  220.000;   38.000
401.280; -121.900; -430.000; -429.000
401.408; -173.700; -712.000; -576.000
401.535; -125.700; -735.000; -758.000
401.663; -327.400;-1134.000;-1054.000
401.790;  -93.500; -514.000; -525.000
401.918;  155.300;  436.000;  405.000
402.046;   52.700;  134.000;  122.000
402.173;  -11.200;  -18.000;    7.000
402.301;  -52.900; -519.000; -397.000
402.428;  159.400;  528.000;  383.000
402.556; -212.500;-1188.000; -913.000
402.683;   25.100;  -20.000;   -1.000
402.811;   12.800;  -37.000; -206.000
402.938;   36.500;   20.000;   27.000
403.066;  477.200; -574.000; -558.000
403.193;  732.000;  299.000;  239.000
403.321;  656.400; -396.000; -574.000
403.448;  758.900;   83.000;   27.000
403.575;  380.000;  -90.000;  -46.000
403.703; -153.900; -732.000; -557.000
403.830;  -75.400; -531.000; -496.000
403.957; -215.200;-1117.000;-1023.000
404.085;   53.400;  -61.000; -172.000
404.212;  242.100;  -50.000;   63.000
404.339;  437.700; -566.000; -306.000
404.467; 8956.500; -612.000; -524.000
404.594; 6220.300; -287.000; -227.000
404.721; 1625.400; -869.000; -764.000
404.848;  206.000; -113.000; -202.000
404.976; -161.100; -856.000; -783.000
405.103;   14.700;  -14.000;  -82.000
405.230;   82.300;  190.000;  226.000
405.357;  151.800;  117.000;   44.000
405.484;  464.400;  -49.000;    5.000
405.612;   67.100; -548.000; -563.000
405.739;  -39.000; -488.000; -243.000
405.866;  239.600;  669.000;  385.000
405.993;    2.600; -398.000; -102.000
406.120; -218.800; -801.000; -887.000
406.247;  -59.300; -323.000; -342.000
406.374; 1187.900;  540.000;  629.000
406.501;  350.500; -632.000; -702.000
406.628;  -83.200; -621.000; -589.000
406.755; -147.800; -803.000; -620.000
406.882;  -44.200; -228.000; -277.000
407.009; -122.300; -719.000; -628.000
407.136;  254.600; -480.000; -401.000
407.263;  459.500; -939.000; -829.000
407.390;  -78.900; -692.000; -614.000
407.517; -212.700;-1139.000;-1187.000
407.644;  -26.800; -332.000; -256.000
407.771;  -35.800; -249.000; -287.000
407.898;   79.000;  168.000;  328.000
408.025;  -59.300; -421.000; -313.000
408.151;   94.200;   82.000;  153.000
408.278;  -60.900; -267.000; -216.000
408.405; -146.500; -931.000; -899.000
408.532;  -81.000; -549.000; -542.000
408.659; -164.300; -677.000; -648.000
408.785; -374.700;-1298.000;-1170.000
408.912;  -15.700; -412.000; -296.000
409.039; -171.900; -610.000; -686.000
409.166; -143.200; -591.000; -555.000
409.292; -165.500; -571.000; -534.000
409.419; -183.200; -665.000; -649.000
409.546; -128.900; -431.000; -192.000
409.672; -165.000; -713.000; -545.000
409.799;  -20.500;  -36.000;   34.000
409.926;   -8.700; -180.000; -179.000
410.052; -280.900;-1127.000;-1091.000
410.179;  -65.100; -368.000; -392.000
410.305; -103.300; -375.000; -493.000
410.432;  -16.400; -220.000; -333.000
410.558; -132.500; -305.000; -380.000
410.685; -122.400; -688.000; -431.000
410.812; -154.700; -409.000; -588.000
410.938; -240.900; -964.000; -808.000
411.065; -154.900; -671.000; -645.000
411.191;   25.300; -189.000; -174.000
411.317; -152.200; -823.000; -742.000
411.444;  -36.900; -317.000; -246.000
411.570;  -96.400; -339.000; -294.000
411.697; -187.800; -758.000; -752.000
411.823; -300.400; -989.000; -999.000
411.949;   25.800;  -56.000;   17.000
412.076; -139.000; -539.000; -519.000
412.202; -194.400; -758.000; -757.000
412.329; -208.100; -798.000; -752.000
412.455; -191.600; -821.000; -657.000
412.581;   24.700;  -15.000;  172.000
412.707;  -60.500; -540.000; -457.000
412.834;   93.900;  156.000;  219.000
412.960; -132.700; -785.000; -784.000
413.086; -143.400; -743.000; -701.000
413.212;  452.800;  604.000;  578.000
413.339;  -39.600; -685.000; -701.000
413.465;  106.400; -364.000; -310.000
413.591; -103.900; -757.000; -474.000
413.717;  -44.300; -358.000; -366.000
413.843; -223.700; -839.000; -861.000
413.969;  -38.500;  -47.000; -292.000
414.096; -145.100; -679.000; -679.000
414.222;   71.500;  -33.000;   85.000
414.348;   57.500; -652.000; -385.000
414.474;  279.100;   38.000;  -52.000
414.600;   68.900; -126.000; -144.000
414.726;   34.500;  -96.000;  -55.000
414.852;  -63.000; -365.000; -342.000
414.978;  120.100;  104.000;  -18.000
415.104;  165.100;   38.000;   80.000
415.230;   82.100; -329.000; -330.000
415.356;  105.900; -409.000; -514.000
415.482;  448.300;   13.000;  -35.000
415.608;  504.700; -247.000; -323.000
415.734; 1717.700;   67.000;   38.000
415.860;34620.300; -875.000; -767.000
415.986;22514.000; -685.000; -607.000
416.111; 1833.100; -798.000; -652.000
416.237;  403.900; -424.000; -571.000
416.363; 1824.100; -765.000; -733.000
416.489; 6261.800; -324.000; -251.000
416.615;  561.300; -707.000; -742.000
416.741;  -33.500; -677.000; -784.000
416.866; -124.800; -673.000; -736.000
416.992; -174.700; -801.000; -818.000
417.118;  -13.000;  -41.000;  -80.000
417.244;  -34.900; -798.000; -531.000
417.369; -134.200; -801.000; -612.000
417.495;   69.100; -325.000; -254.000
417.621; -110.100;-1015.000; -803.000
417.746;   40.100; -579.000; -572.000
417.872;  150.600; -254.000; -144.000
417.998;   87.800; -515.000; -530.000
418.123; 1801.200;-1073.000; -845.000
418.249; 8234.500; -512.000; -601.000
418.374;  981.600; -916.000; -824.000
418.500;  167.900; -383.000; -482.000
418.626;  235.800;   70.000;  -59.000
418.751;  200.400; -549.000; -448.000
418.877;  322.000; -637.000; -643.000
419.002; 3139.100; -688.000; -560.000
419.128;19340.300; -930.000; -721.000
419.253; 4246.200; -967.000; -837.000
419.379;  563.400; -391.000; -338.000
419.504;  716.300;  325.000;  415.000
419.629;  780.200; -393.000; -212.000
419.755; 5640.700; -317.000; -254.000
419.880;29914.300;  -98.000;   67.000
420.006;18308.600; -280.000; -221.000
420.131;45825.700; -662.000; -775.000
420.256; 6059.600; -315.000; -316.000
420.382;  840.800; -665.000; -687.000
420.507;  125.600; -649.000; -778.000
420.632;  403.700; -337.000; -339.000
420.758;  686.000; -251.000; -425.000
420.883;  -68.500; -876.000; -672.000
421.008; -140.000; -775.000; -619.000
421.133;  -94.600; -509.000; -467.000
421.259;  -24.200; -325.000; -259.000
421.384; -154.300; -834.000; -693.000
421.509;   29.900;-1052.000; -862.000
421.634; 3195.700; -936.000; -820.000
421.759; 1263.600; -359.000; -327.000
421.885;  -31.700; -717.000; -656.000
422.010;  -78.100; -673.000; -542.000
422.135; -217.900; -695.000; -727.000
422.260;  129.900;  340.000;  280.000
422.385;   -5.000;   12.000;  -98.000
422.510;  121.600;  151.000;  -26.000
422.635;  117.800;  -87.000;  -43.000
422.760;  221.700; -766.000; -791.000
422.885;  168.600;  -57.000;  -80.000
423.010;   33.600; -112.000; -169.000
423.135; -132.600; -481.000; -561.000
423.260;   93.000; -150.000; -245.000
423.385;  226.500;  476.000;  222.000
423.510;  120.500;   71.000;  -22.000
423.635;  252.500;  133.000;   45.000
423.760;  200.200;  383.000;  328.000
423.885;  205.200;  336.000;  391.000
424.010;  109.000;  -68.000;  -13.000
424.135;   67.900;    5.000;  -33.000
424.259; -111.200; -654.000; -457.000
424.384;  -46.700; -279.000; -272.000
424.509;   70.400; -260.000; -186.000
424.634; -147.800; -761.000; -623.000
424.759;    3.700; -688.000; -544.000
424.883;   15.900; -506.000; -527.000
425.008;  371.500; -502.000; -410.000
425.133; 3268.100; -679.000; -653.000
425.258; 1385.400; -517.000; -381.000
425.382; 2255.700; -867.000; -774.000
425.507; 5200.400; -487.000; -543.000
425.632;  746.400; -802.000; -663.000
425.756;  708.700; -256.000; -146.000
425.881; 9635.100; -831.000; -857.000
426.006;22877.900; -604.000; -355.000
426.130; 3464.300; -696.000; -508.000
426.255;  460.600; -611.000; -491.000
426.379;  285.900; -189.000; -577.000
426.504;  731.800;  660.000;  544.000
426.629; 7027.100; -519.000; -466.000
426.753; 4318.200;   64.000;  -46.000
426.878;  557.700; -252.000; -288.000
427.002;  369.500; -651.000; -668.000
427.127; 2858.100;  -35.000; -158.000
427.251;17916.600;  372.000;  401.000
427.375; 4547.400; -191.000; -173.000
427.500; 4658.500; -616.000; -610.000
427.624; 1446.300; -234.000; -400.000
427.749;  311.800; -216.000; -225.000
427.873;   13.000; -499.000; -412.000
427.997;  -30.000; -222.000; -230.000
428.122;  239.200;  795.000;  703.000
428.246;  255.600;  433.000;  434.000
428.371; -184.400; -869.000; -773.000
428.495; -135.500; -624.000; -646.000
428.619;   48.900; -186.000; -117.000
428.743;  157.000;   65.000;  132.000
428.868;  122.800; -732.000; -643.000
428.992; 3082.200; -219.000; -326.000
429.116; 1218.400; -329.000; -357.000
429.240;  741.800;  419.000;  426.000
429.365;   27.700; -454.000; -574.000
429.489;   23.200; -638.000; -647.000
429.613;  112.300; -236.000; -177.000
429.737;  169.700; -563.000; -432.000
429.861;  559.100; -247.000; -133.000
429.985; 9337.000; -425.000; -305.000
430.109; 9083.900; -770.000; -908.000
430.234; 1090.900;   76.000;  -50.000
430.358;  172.300; -250.000; -160.000
430.482;  -38.300; -672.000; -564.000
430.606;  -22.700; -655.000; -375.000
430.730;  179.600; -437.000; -388.000
430.854;  410.800; -909.000; -835.000
430.978;  -31.900; -795.000; -764.000
431.102;  -44.200; -499.000; -422.000
431.226;  -44.200; -874.000; -815.000
431.350;  241.500;  345.000;  422.000
431.474;  -72.500; -661.000; -373.000
431.597; -246.500;-1060.000; -848.000
431.721; -108.600; -276.000; -267.000
431.845; -217.000; -704.000; -472.000
431.969; -103.900; -304.000; -349.000
432.093; -125.700; -395.000; -317.000
432.217;   48.300;   32.000;   82.000
432.341; -105.500; -523.000; -518.000
432.464;  126.300;   96.000;   40.000
432.588;  669.500; -401.000; -329.000
432.712;  296.600;  -52.000;  -52.000
432.836;  139.000;  213.000;  263.000
432.959;   26.500; -372.000; -311.000
433.083;  173.100;   11.000;    2.000
433.207;  685.300;  285.000;  930.000
433.330; 8044.400; -391.000; -200.000
433.454; 9133.600; -654.000; -638.000
433.578; 5457.700;  583.000;  278.000
433.701;  981.300; -623.000; -675.000
433.825;  410.800; -292.000; -299.000
433.949;  651.300;   28.000;  -72.000
434.072;  260.800; -410.000; -323.000
434.196;   62.800; -309.000; -117.000
434.319; 7936.100;25482.000;25124.000
434.443; 1509.800; -656.000; -603.000
434.566; 4089.500;  281.000;   62.000
434.690;  606.300; -637.000; -383.000
434.813;  168.100; -251.000; -173.000
434.937;  -99.600; -569.000; -696.000
435.060;   23.400; -423.000; -332.000
435.184; 1081.900; -492.000; -217.000
435.307;  535.400;  159.000;  102.000
435.431;   71.600;  -40.000;   24.000
435.554; -103.700; -399.000; -240.000
435.677; -120.500; -350.000; -258.000
435.801;   -7.500;  -25.000;   49.000
435.924;   97.800;    1.000;  -67.000
436.048; -136.900;-1019.000; -732.000
436.171;  -69.000; -240.000;  -66.000
436.294;   24.000; -248.000; -229.000
436.417;  146.800; -963.000; -849.000
436.541; -142.800; -814.000; -840.000
436.664;    1.300; -242.000; -316.000
436.787;   59.300;   13.000;  113.000
436.910; -144.500; -792.000; -422.000
437.034;  104.800;  142.000;  143.000
437.157;  278.700;  -11.000;    0.000
437.280;   20.300; -392.000; -292.000
437.403;  -68.700; -982.000; -869.000
437.526; 1999.500; -903.000; -865.000
437.649; 5983.400; -505.000; -332.000
437.772;  889.500; -692.000; -540.000
437.896;  389.700;  700.000;  544.000
438.019; -101.200; -758.000; -503.000
438.142;  -77.700; -596.000; -506.000
438.265;  133.600; -639.000; -670.000
438.388; 1490.400; -520.000; -410.000
438.511;  351.500; -597.000; -394.000
438.634;   -4.000; -247.000; -125.000
438.757; -200.200; -693.000; -619.000
438.880;   46.800;  -34.000;  -57.000
439.003;  -84.800; -417.000; -437.000
439.126;  -81.200; -287.000; -167.000
439.248;  -63.000;  -98.000; -139.000
439.371;  -14.400;    9.000;  -53.000
439.494;  151.300;  510.000;  439.000
439.617;  -37.400;   65.000;  -88.000
439.740; -310.300; -968.000; -816.000
439.863; -192.100; -755.000; -595.000
439.986; -183.800; -476.000; -431.000
440.108;  -19.000; -161.000; -112.000
440.231; -257.600; -950.000; -836.000
440.354;   -0.800;  -64.000; -150.000
440.477;  181.400; -566.000; -542.000
440.599;  103.500; -200.000; -225.000
440.722; -152.200; -709.000; -586.000
440.845;  215.700;  751.000;  928.000
440.968; -182.500; -415.000; -311.000
441.090;  -70.900; -199.000;  -33.000
441.213; -292.200;-1021.000; -825.000
441.336;    6.100; -159.000;   -5.000
441.458;  -74.400; -549.000; -396.000
441.581;  -93.400; -628.000; -629.000
441.703;  -86.000; -152.000;   13.000
441.826; -171.900; -557.000; -400.000
441.948;  -47.000;   56.000;   51.000
442.071;  149.500;  555.000;  424.000
442.193; -184.900; -531.000; -485.000
442.316;  119.700;  152.000;   97.000
442.438;  110.500; -233.000;  -10.000
442.561;  226.300;  272.000;  262.000
442.683; 1615.600; -809.000; -522.000
442.806; 2904.800;   -8.000;   74.000
442.928;  142.300; -859.000; -604.000
443.051;  -18.300; -577.000; -373.000
443.173; -121.000; -341.000; -339.000
443.295;  -92.800; -263.000; -371.000
443.418;  -68.800; -321.000;  -29.000
443.540;   67.800; -106.000;   -4.000
443.662; -203.600; -563.000; -465.000
443.785;   61.000;  335.000;  199.000
443.907; -156.500; -362.000; -208.000
444.029; -216.500; -767.000; -494.000
444.152; -243.700; -644.000; -554.000
444.274;   29.500;  -18.000;  -24.000
444.396; -158.300; -461.000; -221.000
444.518; -200.600; -691.000; -454.000
444.640; -170.400; -268.000; -111.000
444.763;   12.600;  388.000;  249.000
444.885; -145.800; -432.000; -392.000
445.007;    6.200;   35.000;   86.000
445.129; -174.600; -610.000; -515.000
445.251; -129.300; -372.000; -439.000
445.373; -202.300; -537.000; -386.000
445.495;   90.000;  242.000;  350.000
445.617;  201.200;  853.000;  753.000
445.739;  -71.200; -215.000;  -97.000
445.861;   48.400; -245.000; -112.000
445.984;   -8.000; -267.000; -101.000
446.105;  602.300; -418.000; -251.000
446.227; 1486.300; -176.000;  -19.000
446.349;   52.800; -358.000; -249.000
446.471; -138.300; -615.000; -448.000
446.593;  -71.700; -316.000;   19.000
446.715;   86.200;  -67.000;   41.000
446.837;  197.900;  697.000;  832.000
446.959; -154.700; -457.000; -478.000
447.081; -188.800; -628.000; -518.000
447.203;  187.200;  862.000;  834.000
447.325; -134.300; -270.000;   42.000
447.446;   58.800;  286.000;  530.000
447.568; -233.400; -921.000; -803.000
447.690; -103.100; -236.000; -245.000
447.812; -236.000; -798.000; -519.000
447.933;   -6.400;  155.000;  127.000
448.055;  -58.300; -306.000; -261.000
448.177;  422.500;   31.000;   79.000
448.299;  253.900; -935.000; -727.000
448.420;  119.800;  -25.000;  159.000
448.542;  -26.400;   -3.000;   33.000
448.664;    9.900;  109.000;  322.000
448.785;   36.500;  265.000;   83.000
448.907;  -66.600; -614.000; -353.000
449.028;  -22.000; -771.000; -471.000
449.150;  212.500;  492.000;  589.000
449.272; -298.000;-1044.000; -913.000
449.393;  124.700;  612.000;  694.000
449.515; -202.200; -634.000; -581.000
449.636;  -27.100; -264.000; -155.000
449.758;  245.000;  763.000;  622.000
449.879; -103.600; -498.000; -396.000
450.001; -124.600; -149.000;  -49.000
450.122;   -6.300;  -95.000;  162.000
450.244;   43.200;   37.000;  364.000
450.365; -143.300; -495.000; -301.000
450.486;  -24.600;   80.000;  268.000
450.608;   89.700;  393.000;  326.000
450.729;  135.000;  578.000;  645.000
450.850;  -24.000; -574.000; -466.000
450.972; 1157.300; -552.000; -389.000
451.093; 7261.800;  190.000;  588.000
451.214; 2715.700; -516.000; -337.000
451.336;  638.700;  773.000;  579.000
451.457;  154.100;  264.000;  393.000
451.578;   -3.300; -118.000;  -74.000
451.699; -182.900; -546.000; -540.000
451.821; -110.100; -284.000;  -50.000
451.942;   71.800;  278.000;  285.000
452.063;  122.600;  228.000;  419.000
452.184;  914.100;  -54.000;  -49.000
452.305; 1678.000;  103.000;  170.000
452.427;  176.300; -549.000; -301.000
452.548;  -24.900;   23.000;   79.000
452.669;  -19.900; -257.000;  -89.000
452.790;   -2.000;    3.000;  -18.000
452.911;   46.400;  195.000;  259.000
453.032;  -68.000; -289.000;  -60.000
453.153;  -31.300;  -29.000;   81.000
453.274;  193.000;  737.000;  868.000
453.395;  -44.900;  -51.000;  175.000
453.516;  368.500; 1317.000; 1388.000
453.637;  -48.200; -205.000; -150.000
453.758;  -61.100;   15.000;   69.000
453.879; -186.700; -462.000; -250.000
454.000;  225.300; 1086.000;  948.000
454.121; -169.700; -554.000; -326.000
454.242; -168.700; -599.000; -383.000
454.362;  -20.600;  -99.000;  114.000
454.483;   -4.300; -309.000; -229.000
454.604;  202.700;  512.000;  580.000
454.725; -158.200; -627.000; -555.000
454.846; -174.200; -474.000; -406.000
454.967;   50.500;  230.000;  539.000
455.087;  -20.300;  179.000;  153.000
455.208;  104.700;  554.000;  856.000
455.329;  -58.500;  -22.000;   82.000
455.450;  103.800;  473.000;  633.000
455.570; -107.100; -234.000; -211.000
455.691;  -30.800;  201.000;  407.000
455.812; -152.100; -270.000;  -92.000
455.932;  -71.300;  107.000;  -97.000
456.053;  -66.300;   36.000;   24.000
456.173; -154.700; -433.000; -355.000
456.294; -192.600; -476.000; -303.000
456.415; -103.500;  -73.000;   70.000
456.535;   11.400;  297.000;  273.000
456.656;   13.000;  132.000;  240.000
456.776;  -84.200;    3.000;  298.000
456.897;   87.100;  308.000;  513.000
457.017;  -99.900; -153.000;   -3.000
457.138; -122.700; -402.000; -249.000
457.258;   12.400;  263.000;  224.000
457.379;   68.900;  509.000;  521.000
457.499;    2.300;  443.000;  432.000
457.620; -168.500; -407.000; -231.000
457.740; -106.500; -132.000;  -11.000
457.860;  -40.400;   87.000;   44.000
457.981;    1.400;  132.000;  124.000
458.101;  -81.000;  -89.000;   40.000
458.221;   14.800;  336.000;  402.000
458.342;  -50.800;   -4.000;  -37.000
458.462;   84.300;  617.000;  352.000
458.582;  -89.100; -302.000; -294.000
458.703;   10.700;  303.000;  154.000
458.823;   -0.300;   22.000;  163.000
458.943;  126.300;  341.000;  467.000
459.063;   53.900; 1124.000;  192.000
459.183;   23.500;  328.000;  313.000
459.304;   77.500;  315.000;  517.000
459.424;  -73.700; -246.000;  -89.000
459.544;  619.200;  388.000;  764.000
459.664; 1376.500;  499.000;  506.000
459.784;  529.400; 1004.000; 1175.000
459.904;  174.100;  867.000;  744.000
460.024;  271.300;  867.000;  684.000
460.144;   91.400;  449.000;  554.000
460.264;   63.200;  515.000;  327.000
460.385; -132.000; -145.000; -119.000
460.505;  136.600;  905.000;  858.000
460.625; -133.700;  -17.000;  -68.000
460.745;   55.800;  396.000;  541.000
460.864;  -13.400;  153.000;  469.000
460.984;  164.700;  499.000;  573.000
461.104;  376.900; 1656.000; 1775.000
461.224;  102.600;  657.000;  650.000
461.344;   21.100;  431.000;  360.000
461.464;  -11.300;  258.000;  513.000
461.584;   69.200;  283.000;  466.000
461.704;   -0.500;   58.000;  108.000
461.824;  -73.000;  238.000;  259.000
461.943;  -18.300;  191.000;  130.000
462.063;  -95.400;    2.000;  324.000
462.183;  160.400;  639.000;  717.000
462.303;  305.200; 1678.000; 1230.000
462.422;  121.800;  781.000;  840.000
462.542;  -15.100;  271.000;  391.000
462.662;  151.900;  353.000;  380.000
462.782;  524.800;  833.000;  572.000
462.901;  753.400;  545.000;  717.000
463.021;  550.900; 1702.000; 1638.000
463.141;   63.300;  337.000;  770.000
463.260;   42.900;  614.000;  474.000
463.380;  105.700;  902.000;  884.000
463.499;   26.600;  342.000;  332.000
463.619;  -23.300;  581.000;  559.000
463.738;  358.500; 1644.000;  903.000
463.858;  100.300;  657.000;  811.000
463.978;   -0.400;  542.000;  396.000
464.097;  180.300;  921.000; 1114.000
464.217;  228.000; 1196.000; 1143.000
464.336;  276.500; 1068.000; 1130.000
464.455;    7.300;  328.000;  659.000
464.575;  193.800;  597.000;  602.000
464.694;  437.900; 1204.000; 1179.000
464.814;  297.100; 1190.000; 1138.000
464.933;  207.300; 1095.000; 1027.000
465.052;  275.300; 1412.000; 1054.000
465.172;  230.300;  922.000;  799.000
465.291;  401.800; 1376.000; 1320.000
465.410;   88.800;  462.000;  735.000
465.530;  248.600; 1355.000; 1310.000
465.649;  219.800; 1209.000; 1273.000
465.768;  387.200; 1673.000; 1508.000
465.888;  194.900;  941.000; 1174.000
466.007;  299.700; 1335.000; 1440.000
466.126;   59.900;  721.000;  641.000
466.245;  176.700; 1176.000; 1187.000
466.364;  103.000;  950.000; 1060.000
466.484;  191.800; 1024.000; 1213.000
466.603;  157.900; 1101.000; 1222.000
466.722;  306.900; 1490.000; 1769.000
466.841;  248.300; 1151.000; 1401.000
466.960;  158.200; 1069.000;  972.000
467.079;  341.400; 1971.000; 1786.000
467.198;  199.100; 1238.000; 1181.000
467.317;  237.400; 1768.000; 1162.000
467.436;  218.900; 1709.000; 1261.000
467.555;  305.100; 1796.000; 1746.000
467.674;  180.700; 1227.000; 1329.000
467.793;  143.400; 1376.000; 1374.000
467.912;  234.600; 1658.000; 1539.000
468.031;  355.500; 2038.000; 1930.000
468.150;  387.400; 1842.000; 1837.000
468.269;  481.000; 2313.000; 2090.000
468.388;  473.100; 2168.000; 2339.000
468.507;  629.500; 2884.000; 2903.000
468.626;  609.400; 2555.000; 2541.000
468.744;  350.700; 2018.000; 2174.000
468.863;  489.300; 2312.000; 2523.000
468.982;  250.900; 1503.000; 1555.000
469.101;  530.600; 2788.000; 2692.000
469.220;  373.600; 2333.000; 2176.000
469.338;  617.800; 2935.000; 3051.000
469.457;  456.100; 2719.000; 2545.000
469.576;  775.800; 3953.000; 3784.000
469.695;  568.100; 2877.000; 3066.000
469.813;  985.500; 4148.000; 4192.000
469.932;  891.000; 4255.000; 4485.000
470.051;  922.000; 4075.000; 4161.000
470.169; 1623.400; 4470.000; 4338.000
470.288; 2574.800; 4700.000; 4809.000
470.406; 1542.700; 5059.000; 5194.000
470.525; 1268.400; 6101.000; 5787.000
470.644; 1364.600; 6847.000; 6794.000
470.762; 1757.700; 8397.000; 7873.000
470.881; 1876.000; 8651.000; 8464.000
470.999; 2169.100; 9685.000; 9151.000
471.118; 2311.700;11174.000;10711.000

