
Integration time [ms]: 100.000
Averaging Nr. [scans]: 40
Smoothing Nr. [pixels]: 0
Data measured with spectrometer [name]: 2101012U2
Wave   ;Sample   ;Dark     ;Reference
[nm]   ;[counts] ;[counts] ;[counts] 

197.733;   62.750;  516.000;  404.000
197.879; -102.375; -610.000; -634.000
198.025;  -49.825; -475.000; -420.000
198.171;  -63.150; -602.000; -612.000
198.317;  -33.625; -401.000; -316.000
198.463;  -62.600; -655.000; -404.000
198.609;   39.650;  181.000; -137.000
198.755;  -86.075; -644.000; -410.000
198.901;  -65.600; -505.000; -424.000
199.047;  -65.750; -615.000; -488.000
199.193;  -39.975; -230.000; -468.000
199.339;  -44.400; -222.000; -369.000
199.485;   44.150;  330.000;  271.000
199.631;    5.950;  227.000;  310.000
199.777;  -48.025; -466.000; -398.000
199.923;  -64.800; -610.000; -424.000
200.069;   -6.225; -141.000;  -58.000
200.215;   50.750;  128.000;  453.000
200.361;   44.625;  243.000;  477.000
200.507;  -74.250; -600.000; -373.000
200.653;  -26.450; -371.000; -194.000
200.798;  -39.450; -215.000; -125.000
200.944;   -7.300; -146.000;  -41.000
201.090;   43.775;   61.000;  222.000
201.236;   -9.575; -116.000; -158.000
201.382;  118.525;  874.000;  903.000
201.528;   12.250;  -58.000;  -48.000
201.674;  -52.950; -386.000; -293.000
201.819;  -66.600; -540.000; -439.000
201.965;  -81.725; -699.000; -447.000
202.111;  -24.850; -273.000; -226.000
202.257;  -35.875; -250.000; -238.000
202.402;    8.750;   13.000;  -36.000
202.548;  -15.975; -169.000; -116.000
202.694;   76.100;  410.000; -183.000
202.840;  -85.650; -603.000; -531.000
202.985;  -74.125; -681.000; -639.000
203.131; -106.075; -832.000; -666.000
203.277;  -16.325; -199.000; -262.000
203.423;  -60.150; -434.000; -520.000
203.568;  -43.525; -462.000; -237.000
203.714;  -61.950; -535.000; -542.000
203.860;  -88.800; -682.000; -641.000
204.005;   30.850;  112.000;  167.000
204.151;   83.350;  561.000;  556.000
204.296;  -54.900; -354.000; -221.000
204.442;  -68.675; -600.000; -547.000
204.588;  -88.850; -592.000; -579.000
204.733;   26.575;  178.000;  168.000
204.879; -125.150;-1018.000; -822.000
205.025;    6.825;  -99.000;  126.000
205.170;   -4.750;  -17.000;   94.000
205.316;   85.000;  438.000;  661.000
205.461;  -84.750; -698.000; -554.000
205.607;   84.925;  609.000;  665.000
205.752;  -80.700; -626.000; -551.000
205.898;  -62.275; -501.000; -391.000
206.043;  -75.975; -578.000; -506.000
206.189;  -45.750; -243.000; -285.000
206.334;   74.350;  554.000;  606.000
206.480;   79.125;  409.000;  239.000
206.625;  -95.950; -529.000; -552.000
206.771;  -42.900; -451.000; -373.000
206.916;  -46.150; -210.000; -537.000
207.062;  -70.050; -545.000; -591.000
207.207;  -76.900; -546.000; -443.000
207.353;   43.700;  185.000;  460.000
207.498;   17.025;  196.000;   85.000
207.643;  -61.225; -501.000; -370.000
207.789; -144.625;-1069.000; -910.000
207.934;  -99.075; -665.000; -713.000
208.080;  -28.250; -154.000;   66.000
208.225;   -3.075;  -22.000;  -57.000
208.370;  -89.000; -727.000; -619.000
208.516;  -80.650; -741.000; -487.000
208.661;  -33.700; -127.000;  -69.000
208.806;  -15.875; -165.000; -171.000
208.952; -132.475;-1044.000; -731.000
209.097;   70.875;  378.000;  349.000
209.242;  -48.275; -307.000; -382.000
209.387;   57.400;  392.000;  350.000
209.533;  -57.800; -321.000; -350.000
209.678;   87.050;  472.000;  543.000
209.823;  -53.575; -408.000; -310.000
209.969; -113.050; -860.000; -757.000
210.114; -110.000; -907.000; -719.000
210.259; -122.250; -939.000; -889.000
210.404;  -10.125; -171.000;  103.000
210.549;   10.000;  108.000;    3.000
210.695;  -21.900;   -3.000;  -95.000
210.840;   33.425;   94.000;   67.000
210.985;  -67.300; -484.000; -303.000
211.130;   68.750;  268.000;  406.000
211.275;   13.800;  207.000;  199.000
211.420;  -44.450; -300.000; -289.000
211.566;  -76.100; -536.000; -489.000
211.711;   30.200;  218.000;  157.000
211.856;  -72.700; -545.000; -519.000
212.001;    5.475;  151.000;   44.000
212.146;   24.800;  153.000;   49.000
212.291;  -16.475; -210.000; -186.000
212.436;  -37.975; -280.000;   -6.000
212.581;  -83.325; -685.000; -653.000
212.726;  -79.150; -487.000; -538.000
212.871;  -51.475; -552.000; -217.000
213.016; -161.600;-1172.000;-1029.000
213.161;   57.850;  406.000;  291.000
213.306;  -71.375; -435.000; -577.000
213.451; -102.125; -778.000; -689.000
213.596;  -55.150; -455.000; -347.000
213.741;  -59.000; -448.000; -538.000
213.886;  -75.225; -498.000; -517.000
214.031;  -17.950; -294.000; -124.000
214.176;  -65.875; -408.000; -341.000
214.321;  -32.500; -296.000; -157.000
214.466;  -19.950; -163.000;  -43.000
214.611;    1.300;  -61.000;  -10.000
214.756; -122.125; -948.000; -858.000
214.901;  -31.650; -388.000; -226.000
215.046; -133.975; -797.000; -825.000
215.191;   25.725;  128.000;   35.000
215.336;  -11.225; -157.000;  -19.000
215.480;  -70.625; -684.000; -505.000
215.625;   -9.825; -175.000;  -19.000
215.770;  -80.175; -757.000; -662.000
215.915;   -1.850;   -5.000;  -97.000
216.060;   18.550; -113.000;  -21.000
216.205; -110.950; -731.000; -779.000
216.349;  -77.550; -470.000; -533.000
216.494; -136.475; -939.000; -867.000
216.639; -122.375; -823.000; -888.000
216.784;  -93.975; -577.000; -525.000
216.929;   65.475;  392.000;  281.000
217.073;   -0.675; -244.000;  -31.000
217.218;    2.050;   78.000;  -47.000
217.363;  -95.100; -656.000; -618.000
217.507;  -84.375; -623.000; -588.000
217.652; -134.525; -845.000; -874.000
217.797;  -93.025; -708.000; -659.000
217.942; -119.050; -856.000; -720.000
218.086;   74.800;  608.000;  539.000
218.231;  -22.700; -174.000;  -26.000
218.376;  -34.350; -337.000; -229.000
218.520;   -2.700;  -41.000;   96.000
218.665;  -43.800; -338.000; -204.000
218.810;  -49.625; -275.000; -233.000
218.954;   20.550;  201.000;   35.000
219.099; -121.550; -713.000; -963.000
219.243;  -72.825; -589.000; -554.000
219.388;  -44.300; -264.000; -136.000
219.532;  -10.650; -116.000; -116.000
219.677;  -81.450; -564.000; -521.000
219.822;    2.225;   33.000;   89.000
219.966;    4.800;   17.000;  -99.000
220.111;  -35.100; -328.000;  -40.000
220.255;  -86.625; -797.000; -750.000
220.400;  -22.025; -180.000; -146.000
220.544;  -76.550; -516.000; -450.000
220.689;  -56.550; -422.000; -451.000
220.833;  -24.650; -123.000;  -58.000
220.978;  -41.325; -393.000; -563.000
221.122;    0.100;  319.000;  307.000
221.267; -112.325; -906.000; -837.000
221.411;  -75.900; -478.000; -394.000
221.555;   -4.650; -104.000;  -23.000
221.700;  -47.475; -329.000; -222.000
221.844;   44.150;  255.000;  272.000
221.989;  -61.800; -328.000; -311.000
222.133;  -47.350; -289.000; -307.000
222.277;  -13.225;    5.000;   78.000
222.422;   15.300;  227.000;  113.000
222.566;  -28.275; -381.000; -214.000
222.711;  -54.950; -414.000; -479.000
222.855;  -78.000; -643.000; -586.000
222.999;  -97.275; -642.000; -717.000
223.144;  -25.225; -195.000; -194.000
223.288;   55.050;  423.000;  251.000
223.432;   28.575;  184.000;  230.000
223.576;    6.125;  152.000;  -21.000
223.721;   33.875;  364.000;  273.000
223.865;  -59.025; -472.000; -475.000
224.009;  243.950; 1673.000; 1631.000
224.153;  -96.775; -660.000; -671.000
224.298;  -81.175; -531.000; -489.000
224.442;   -5.925;  -74.000;  -33.000
224.586;  -25.300; -169.000; -106.000
224.730; -105.550; -858.000; -670.000
224.875; -112.725; -739.000; -688.000
225.019;    6.400;  102.000;  188.000
225.163;   56.525;  208.000;  341.000
225.307;   18.825;   97.000;  -91.000
225.451;   43.650;  360.000;  481.000
225.595;   25.800;  264.000;  176.000
225.739;  -16.800; -170.000;  -94.000
225.884;    3.875;   86.000;    5.000
226.028; -109.275; -760.000; -626.000
226.172;  -51.900; -260.000; -273.000
226.316; -130.800; -941.000; -902.000
226.460;  -68.350; -645.000; -493.000
226.604;  -69.225; -406.000; -400.000
226.748; -100.500; -836.000; -733.000
226.892;  -48.000; -227.000; -181.000
227.036;  -53.050; -537.000; -447.000
227.180;  -64.600; -551.000; -375.000
227.324;  -73.500; -561.000; -580.000
227.468; -128.325; -819.000; -717.000
227.612;    8.325;  242.000;  -28.000
227.756; -104.250; -845.000; -698.000
227.900;   50.675;  342.000;  441.000
228.044;  -52.625; -509.000; -290.000
228.188;   43.950;  448.000;  568.000
228.332;  -95.700; -546.000; -472.000
228.476;  -30.300; -223.000; -149.000
228.620;  -33.175; -210.000; -150.000
228.764;   77.625;  431.000;  349.000
228.908;  -30.050; -155.000;   30.000
229.052;  -57.475; -615.000; -528.000
229.195;  -19.850; -172.000;   13.000
229.339;  -34.800; -235.000; -305.000
229.483;  -27.950;    5.000; -162.000
229.627;    3.725; -156.000;  139.000
229.771;  -60.900; -218.000; -294.000
229.915;   20.150;  230.000;   79.000
230.059;  -98.975; -648.000; -663.000
230.202;  -38.225; -370.000; -317.000
230.346;  -27.325; -107.000;  107.000
230.490;  -59.900; -489.000; -521.000
230.634; -110.350; -736.000; -553.000
230.777;   62.775;  478.000;  509.000
230.921;  -51.825; -450.000; -359.000
231.065;  -41.100; -246.000; -286.000
231.209;   28.275;  261.000;  265.000
231.352;   24.550;   54.000;   40.000
231.496;   21.300;  568.000;  188.000
231.640;  -77.375; -693.000; -621.000
231.783;   50.500;  546.000;  525.000
231.927;  -50.225; -294.000; -365.000
232.071; -126.125; -962.000; -736.000
232.214; -114.050; -980.000; -764.000
232.358; -116.600; -683.000; -599.000
232.502;    3.850;  -19.000;    7.000
232.645; -135.950;-1090.000; -927.000
232.789;  -14.875; -257.000; -218.000
232.933;  -51.275; -407.000; -224.000
233.076; -125.400;-1038.000; -897.000
233.220; -114.825; -752.000; -777.000
233.363;  -82.625; -669.000; -477.000
233.507;   68.600;  371.000;  129.000
233.650;  -98.225; -764.000; -834.000
233.794;   30.100;  438.000;  461.000
233.938;  -52.900; -530.000; -362.000
234.081;  -19.550;  -93.000;   31.000
234.225;  -67.450; -631.000; -539.000
234.368; -127.175; -773.000; -723.000
234.512;  -47.725; -385.000; -299.000
234.655;  -93.425; -582.000; -555.000
234.798;  -80.550; -493.000; -466.000
234.942; -132.075; -884.000;-1002.000
235.085;  -68.375; -651.000; -443.000
235.229;  -75.575; -405.000; -410.000
235.372;  -52.100; -247.000; -191.000
235.516;  -59.100; -397.000; -321.000
235.659;   26.875;   92.000;  121.000
235.802;  -18.075;  -38.000;  -22.000
235.946;   12.825;  335.000;  215.000
236.089;   27.950;  126.000;  250.000
236.233;   44.100;  275.000;  298.000
236.376;  -57.925; -235.000; -378.000
236.519;  -51.750; -297.000; -319.000
236.663;  -20.675; -215.000; -117.000
236.806; -137.550;-1029.000; -999.000
236.949;   71.850;  543.000;  431.000
237.092;   66.000;  412.000;  391.000
237.236;  -83.200; -589.000; -502.000
237.379;   62.700;  352.000;  428.000
237.522; -125.650; -879.000; -768.000
237.666;  -21.725; -271.000;   18.000
237.809; -134.300; -851.000; -823.000
237.952;   38.925;  469.000;  271.000
238.095;  -72.575; -447.000; -442.000
238.238;   86.100;  688.000;  700.000
238.382;  -15.700;  166.000;  103.000
238.525;  -82.425; -598.000; -511.000
238.668; -140.800;-1060.000; -985.000
238.811;  -85.850; -638.000; -643.000
238.954;  -78.000; -483.000; -334.000
239.097;  102.575;  617.000;  664.000
239.241;   25.550;  394.000;  326.000
239.384;  -33.175; -254.000; -214.000
239.527;  -75.675; -424.000; -224.000
239.670; -154.450; -994.000;-1091.000
239.813; -105.550; -696.000; -658.000
239.956;   76.775;  579.000;  473.000
240.099; -120.525; -778.000; -725.000
240.242;   49.875;  428.000;  432.000
240.385;   62.975;  466.000;  450.000
240.528;  -76.050; -706.000; -473.000
240.671;    8.975;  189.000;  134.000
240.814;  -49.125; -441.000; -158.000
240.957; -106.775; -767.000; -578.000
241.100;  -89.825; -779.000; -755.000
241.243; -137.475;-1234.000; -893.000
241.386;  -69.050; -508.000; -379.000
241.529; -103.050; -735.000; -547.000
241.672;  -67.400; -566.000; -495.000
241.815; -121.825; -832.000; -808.000
241.958;  -18.900; -125.000; -182.000
242.101;  -86.900; -545.000; -390.000
242.244;  -51.075; -270.000; -325.000
242.387;  -47.275; -304.000; -246.000
242.530;   63.575;  470.000;  134.000
242.673;  -49.425; -381.000; -309.000
242.815; -119.600; -925.000; -899.000
242.958;  -68.650; -482.000; -381.000
243.101;   12.800;  132.000;  187.000
243.244;  -89.900; -564.000; -521.000
243.387;  -51.575; -313.000; -316.000
243.530; -106.675; -657.000; -674.000
243.672;    2.625;   43.000;  -92.000
243.815;  -55.725; -355.000; -283.000
243.958;   -3.100;   98.000;  -26.000
244.101;   -2.350;   59.000;  -16.000
244.243;   -6.550;  -47.000;  101.000
244.386; -112.875; -761.000; -630.000
244.529;  -27.825; -132.000; -139.000
244.672; -165.350;-1154.000; -951.000
244.814; -111.625; -621.000; -794.000
244.957;  -49.550; -380.000; -304.000
245.100;  -79.850; -489.000; -489.000
245.242;  -68.775; -387.000; -374.000
245.385;    2.750;  -59.000;  -39.000
245.528; -142.350; -871.000; -705.000
245.670;   87.925;  612.000;  634.000
245.813;  -92.725; -599.000; -547.000
245.956;  -30.325; -324.000; -275.000
246.098;  -83.900; -508.000; -650.000
246.241;    1.875;  194.000;   48.000
246.383;  -17.125; -119.000;  -73.000
246.526;  -83.075; -454.000; -525.000
246.669; -131.050; -889.000; -780.000
246.811;   10.625;  172.000;   -1.000
246.954;  -78.525; -512.000; -426.000
247.096;  -32.475;  -84.000;   -6.000
247.239;  -60.650; -482.000; -445.000
247.381;  -69.575; -647.000; -488.000
247.524;   80.800;  645.000;  679.000
247.666;  -11.025;   58.000;   11.000
247.809; -126.625; -887.000; -691.000
247.951;   -6.200;  -75.000;  138.000
248.094;   16.400;  432.000;  308.000
248.236; -169.450;-1262.000;-1238.000
248.378;    3.025; -356.000;  -81.000
248.521;  -29.000; -334.000; -337.000
248.663;  -50.075; -236.000; -267.000
248.806;  -41.950; -300.000; -266.000
248.948; -115.400; -886.000; -763.000
249.090;  -42.275; -428.000; -398.000
249.233;  -47.550; -344.000; -381.000
249.375;  -63.000; -474.000; -451.000
249.518;  -22.675;  -83.000; -133.000
249.660;   -3.375; -103.000;    3.000
249.802; -180.300;-1303.000;-1189.000
249.945;  -92.000; -612.000; -540.000
250.087; -127.325; -834.000; -768.000
250.229;  -54.725; -362.000; -480.000
250.371;  -89.100; -494.000; -439.000
250.514;  -58.850; -310.000; -244.000
250.656;  -80.650;   69.000;  102.000
250.798; -123.825; -849.000; -800.000
250.940;  -72.025; -322.000; -322.000
251.083;  -35.200; -335.000; -111.000
251.225;   39.500;  338.000;  310.000
251.367;  -40.825; -274.000; -373.000
251.509;  -41.050; -265.000; -210.000
251.651; -102.700; -731.000; -671.000
251.794;   56.800;  538.000;  632.000
251.936; -107.175; -821.000; -747.000
252.078;  -76.575; -540.000; -461.000
252.220;  -70.200; -645.000; -477.000
252.362;   87.275;  344.000;  462.000
252.504;  -79.550; -677.000; -584.000
252.646; -120.525; -875.000; -722.000
252.788;    3.975;   14.000; -128.000
252.931;  -38.625; -257.000; -253.000
253.073;  -35.075; -376.000; -317.000
253.215;   -7.725;  141.000;  122.000
253.357;  -14.525;   82.000; -153.000
253.499;  -53.825; -374.000; -234.000
253.641;  -88.875; -749.000; -594.000
253.783;  -90.950; -609.000; -527.000
253.925;  -99.925; -586.000; -591.000
254.067; -102.050; -744.000; -667.000
254.209;  -19.300; -391.000; -259.000
254.351; -139.950; -865.000; -883.000
254.493;  -69.900; -441.000; -417.000
254.635; -142.325; -936.000; -818.000
254.777;  -86.200; -752.000; -687.000
254.918;  -61.600; -512.000; -430.000
255.060;  -60.575; -551.000; -395.000
255.202;  -64.350; -473.000; -261.000
255.344;  -79.950; -658.000; -455.000
255.486;  -76.525; -471.000; -406.000
255.628; -107.125; -780.000; -781.000
255.770;  -92.550; -676.000; -536.000
255.912;  -61.400; -559.000; -468.000
256.053; -115.850; -730.000; -508.000
256.195;  156.500; 1008.000;  903.000
256.337;  -99.575; -861.000; -595.000
256.479;   59.650;  532.000;  416.000
256.621;  -59.475; -394.000; -212.000
256.762;  -86.200; -789.000; -742.000
256.904;   54.800;  485.000;  487.000
257.046;  -42.400; -381.000; -271.000
257.188;  -45.600; -351.000; -264.000
257.329;  -72.500; -525.000; -464.000
257.471; -120.600; -939.000; -807.000
257.613;  -67.900; -584.000; -498.000
257.755; -141.350;-1073.000; -982.000
257.896;   49.200;  286.000;  392.000
258.038;  -77.575; -403.000; -352.000
258.180;  -37.450; -354.000; -279.000
258.321;  -90.875; -581.000; -457.000
258.463;    3.100;  -71.000;  133.000
258.605;  -96.825; -562.000; -570.000
258.746; -108.025; -886.000; -772.000
258.888; -161.225;-1026.000;-1020.000
259.029;   13.325;  121.000;   -8.000
259.171; -102.350; -614.000; -550.000
259.313;    0.600;  -49.000;  -47.000
259.454;  -98.150; -536.000; -414.000
259.596;  -62.600; -483.000; -390.000
259.737;  -87.400; -590.000; -474.000
259.879;   47.075;  217.000;  311.000
260.020;  101.025;  901.000;  636.000
260.162;  -38.475; -146.000; -253.000
260.303; -119.725; -768.000; -687.000
260.445;  -77.200; -609.000; -613.000
260.586;   20.575;  392.000;  157.000
260.728;  -54.500; -360.000; -248.000
260.869; -126.625; -350.000; -343.000
261.011;   89.850;  706.000;  537.000
261.152;  -70.950; -479.000; -319.000
261.293;  -81.650; -576.000; -595.000
261.435;  -27.800; -219.000; -184.000
261.576;  -54.125; -455.000; -325.000
261.718;   65.300;  420.000;  470.000
261.859; -133.000; -940.000; -949.000
262.000; -145.800; -951.000;-1016.000
262.142;  -29.650;  -52.000;  -60.000
262.283; -118.450; -808.000; -691.000
262.424;  -93.575; -666.000; -625.000
262.566; -157.400;-1161.000; -983.000
262.707; -120.950; -840.000; -830.000
262.848; -129.375; -769.000; -726.000
262.990;  -37.975; -362.000; -345.000
263.131;   80.250;  650.000;  681.000
263.272;   -9.775;  -61.000;  -41.000
263.413;  -96.075; -589.000; -561.000
263.555;  -69.525; -669.000; -143.000
263.696; -100.775; -550.000; -641.000
263.837;  -66.375; -449.000; -551.000
263.978;   -4.050;   -5.000;  -77.000
264.119;  -56.425; -283.000; -264.000
264.261; -127.475; -847.000; -630.000
264.402;   -0.725;   33.000;   40.000
264.543;  -83.775; -509.000; -524.000
264.684;  -11.625;   61.000;  -50.000
264.825;  -86.075; -816.000; -538.000
264.966;  -10.500;  -84.000;  -67.000
265.107; -116.850; -646.000; -670.000
265.248; -120.750; -825.000; -812.000
265.390;  -20.025;  152.000;   -9.000
265.531;  -34.775; -238.000; -107.000
265.672;  -84.925; -557.000; -630.000
265.813;   61.500;  563.000;  439.000
265.954; -142.075; -959.000; -940.000
266.095;  -26.825; -372.000; -322.000
266.236;  -90.325; -686.000; -548.000
266.377;  -39.950; -243.000; -297.000
266.518;  -63.375; -619.000; -547.000
266.659;   41.175;  170.000;  268.000
266.800;   -4.575;   83.000;   85.000
266.941;  -64.600; -487.000; -478.000
267.082;   16.900;  354.000;   99.000
267.223;  -49.400; -344.000; -273.000
267.364; -130.775; -892.000; -686.000
267.504;   -4.375;    3.000;  135.000
267.645;  -13.225;  160.000;   67.000
267.786;  -20.800; -147.000;  -86.000
267.927;  -86.025; -473.000; -379.000
268.068;  -17.725; -186.000;  -61.000
268.209;  -58.200; -175.000; -413.000
268.350;  -62.025; -388.000; -532.000
268.490;  -94.600; -648.000; -521.000
268.631;   30.625;  127.000;  225.000
268.772; -113.650; -874.000; -647.000
268.913;  -47.325; -328.000; -476.000
269.054;  -27.575; -117.000;   12.000
269.194;  -45.100; -418.000; -402.000
269.335; -164.300;-1137.000;-1074.000
269.476;  -20.675;   33.000;  -35.000
269.617;  -56.575; -347.000; -392.000
269.757;  -97.050; -713.000; -646.000
269.898; -108.500; -856.000; -613.000
270.039;  -61.525; -415.000; -405.000
270.180; -139.500; -952.000; -816.000
270.320;  -20.975; -190.000; -250.000
270.461;  -43.700; -277.000; -249.000
270.602;   -9.825; -186.000; -156.000
270.742; -128.850; -868.000; -943.000
270.883;  -67.875; -442.000; -390.000
271.023;  -69.175; -358.000; -357.000
271.164;  -83.500; -607.000; -528.000
271.305; -104.825; -666.000; -654.000
271.445; -102.250; -722.000; -683.000
271.586;  -66.350; -462.000; -283.000
271.726;  -55.175; -397.000; -322.000
271.867;  -66.000; -594.000; -534.000
272.008;  174.275; -473.000; -285.000
272.148;  145.975;  462.000;  468.000
272.289;   18.650; -113.000; -181.000
272.429;   15.350;   19.000;  185.000
272.570;  -83.400; -633.000; -737.000
272.710; -101.900; -825.000; -775.000
272.851;  -11.150;  113.000; -130.000
272.991; -165.900;-1173.000;-1077.000
273.131;  -67.200; -419.000; -459.000
273.272;  -93.225; -683.000; -723.000
273.412;    0.425; -143.000;  -31.000
273.553;  -49.750; -488.000; -507.000
273.693;  138.425;  913.000;  858.000
273.834;  -90.600; -894.000; -692.000
273.974;  -76.775; -664.000; -615.000
274.114; -103.175; -772.000; -560.000
274.255;   80.350;  414.000;  373.000
274.395;   18.325; -180.000; -125.000
274.535;   46.325;  199.000;  350.000
274.676;   19.875;  225.000;   94.000
274.816;   15.800;  110.000;   34.000
274.956;  -78.025; -624.000; -690.000
275.097;  -74.375;-1014.000; -922.000
275.237; -108.075; -913.000; -803.000
275.377;  -96.400; -778.000; -689.000
275.517; -156.100; -878.000; -937.000
275.658;  -46.675; -590.000; -555.000
275.798;  -79.175; -606.000; -413.000
275.938;   23.250;  215.000;  323.000
276.078;  -89.275; -626.000; -395.000
276.218;   11.250;   99.000;  104.000
276.359; -136.800;-1026.000;-1024.000
276.499;  -65.325; -605.000; -446.000
276.639;  -44.275; -305.000; -151.000
276.779;  -55.850; -475.000; -357.000
276.919; -106.600; -783.000; -624.000
277.059;  -13.125; -261.000; -212.000
277.199;  -47.525; -357.000; -259.000
277.340;   54.500;  287.000;  175.000
277.480; -111.925; -840.000; -693.000
277.620;   10.150;  192.000;   16.000
277.760; -210.700;-1533.000;-1294.000
277.900;   25.425;  113.000;   33.000
278.040;   24.525;  137.000;  159.000
278.180;   51.550;  270.000;  170.000
278.320;   -9.400;   21.000;   56.000
278.460;  -77.975; -443.000; -469.000
278.600;  -89.900; -708.000; -598.000
278.740;   59.550;  448.000;  224.000
278.880;  -42.900; -768.000; -791.000
279.020;   -7.850; -194.000; -144.000
279.160;  -93.575; -672.000; -595.000
279.300; -125.575; -926.000; -873.000
279.440;  -90.675; -709.000; -622.000
279.579;  -22.950;-1014.000; -929.000
279.719;  -43.850; -410.000; -394.000
279.859;   70.750;   -4.000;   41.000
279.999;   23.400; -208.000;  101.000
280.139;  -26.250; -435.000; -387.000
280.279;  -81.500; -708.000; -745.000
280.419;   -8.350; -229.000; -147.000
280.559;  -33.875; -259.000; -180.000
280.698;  -90.725; -790.000; -639.000
280.838;  -85.375; -778.000; -800.000
280.978; -104.450; -846.000; -790.000
281.118; -110.700; -811.000; -704.000
281.257;    1.200;   24.000;    6.000
281.397; -113.000;-1094.000; -960.000
281.537;  -88.000; -599.000; -712.000
281.677;  -22.525; -150.000; -101.000
281.816;  -90.000; -700.000; -630.000
281.956;  -29.800; -193.000; -257.000
282.096;  -69.800; -539.000; -396.000
282.235; -102.400; -672.000; -638.000
282.375;  -25.725; -243.000;  -98.000
282.515;  -92.250; -715.000; -707.000
282.654;   26.225;   29.000;  106.000
282.794;   25.400;  388.000;  244.000
282.934;  -58.125; -530.000; -491.000
283.073; -142.625;-1030.000; -857.000
283.213;  -53.950; -460.000; -467.000
283.353;  -34.425; -408.000; -349.000
283.492;  -39.100; -264.000; -296.000
283.632;  -44.300; -254.000; -168.000
283.771;  -86.725; -859.000; -730.000
283.911;  -39.300; -369.000; -260.000
284.050; -122.475; -794.000; -748.000
284.190; -164.400;-1229.000;-1096.000
284.329; -144.725;-1055.000; -964.000
284.469;  -57.125; -516.000; -591.000
284.608;  -52.500; -559.000; -598.000
284.748;  -84.900; -614.000; -570.000
284.887;  -14.700;  -87.000;  -20.000
285.027; -132.425; -844.000; -892.000
285.166;  -29.025; -192.000; -249.000
285.306;   16.625; -116.000;  -33.000
285.445;  -34.325; -229.000; -343.000
285.584;  -95.075; -630.000; -494.000
285.724;  -33.925; -282.000; -322.000
285.863; -113.000; -857.000; -507.000
286.002;  -45.275; -366.000; -276.000
286.142; -116.125; -715.000; -622.000
286.281;  -83.850; -525.000; -493.000
286.420;  -76.225; -554.000; -417.000
286.560;  106.775;  653.000;  623.000
286.699; -147.525; -958.000; -912.000
286.838;  -83.500; -590.000; -591.000
286.978;  -91.025; -533.000; -537.000
287.117; -137.925;-1085.000; -950.000
287.256;  -30.750; -228.000; -211.000
287.395;  -55.625; -197.000; -378.000
287.535;  -46.525; -370.000; -298.000
287.674;  -75.300; -509.000; -484.000
287.813;   66.300;  661.000;  533.000
287.952; -129.175;-1010.000; -871.000
288.091; -141.950;-1049.000; -915.000
288.231;    3.175;   13.000;   15.000
288.370; -175.600;-1217.000;-1200.000
288.509; -101.550; -728.000; -645.000
288.648;  -97.125; -770.000; -548.000
288.787;  -27.650; -243.000;  -87.000
288.926;  -71.750; -454.000; -475.000
289.065;  132.450;  859.000;  672.000
289.204;  -43.475; -377.000; -217.000
289.344;  -85.950; -791.000; -690.000
289.483;   25.375;  416.000;  304.000
289.622;  -14.050; -291.000; -149.000
289.761;   -2.600; -309.000; -166.000
289.900; -118.675; -785.000; -626.000
290.039;  -16.175;  -12.000;  -95.000
290.178;  -44.000; -274.000; -180.000
290.317;  -84.425; -618.000; -479.000
290.456;  -69.250; -463.000; -451.000
290.595; -139.925; -961.000; -833.000
290.734; -143.250; -904.000; -891.000
290.873;  -79.600; -456.000; -420.000
291.011; -105.600; -833.000; -843.000
291.150; -111.075; -770.000; -682.000
291.289;  -22.275; -343.000; -110.000
291.428;  -88.450; -599.000; -480.000
291.567;  -50.450; -370.000; -442.000
291.706;    4.175;  109.000;  154.000
291.845;  -84.300; -597.000; -505.000
291.984; -168.625;-1234.000;-1061.000
292.122;   71.925;  602.000;  582.000
292.261;   35.450;  620.000;  463.000
292.400;   10.150; -144.000;  211.000
292.539; -123.600; -959.000; -813.000
292.678;  -33.475; -325.000; -300.000
292.816; -161.025;-1136.000; -965.000
292.955;  -98.450; -844.000; -684.000
293.094;  -29.800; -173.000; -337.000
293.233;  -57.850; -556.000; -400.000
293.371;  -37.325; -225.000;  -84.000
293.510; -107.275; -866.000; -780.000
293.649; -130.150; -959.000; -924.000
293.787;  -68.175;-1083.000;-1012.000
293.926;    2.875; -113.000;  -32.000
294.065;  -31.125; -379.000; -290.000
294.203;   40.400;  298.000;  406.000
294.342;   26.175;   74.000;  156.000
294.481; 5933.325;51180.000; -836.000
294.619;  -33.275; -425.000; -582.000
294.758; -142.425;-1230.000;-1137.000
294.896;   90.700; -125.000;    5.000
295.035; -128.250;-1040.000;-1006.000
295.174; -123.450;-1082.000; -954.000
295.312;  -44.975; -323.000; -203.000
295.451;   -0.875; -307.000; -428.000
295.589;  -46.150; -389.000; -518.000
295.728;   25.125; -292.000; -165.000
295.866;    7.600;  -36.000;  -51.000
296.005;  -66.450; -584.000; -341.000
296.143;  -69.800; -558.000; -596.000
296.282;  -94.475; -957.000; -881.000
296.420;  -95.450; -657.000; -557.000
296.559;  -79.325; -892.000; -633.000
296.697;   30.475; -847.000; -665.000
296.835;  102.000;-1141.000;-1002.000
296.974;   46.325;  -23.000;   39.000
297.112;    9.625; -443.000; -504.000
297.251;  -72.850; -815.000; -755.000
297.389;  128.900; -576.000; -438.000
297.527;   48.275; -145.000;  -83.000
297.666;  -43.625; -486.000; -438.000
297.804;  -59.825; -404.000; -264.000
297.942;    1.825; -136.000; -161.000
298.081;  -10.050; -183.000;   63.000
298.219;   95.375;  -17.000;  -19.000
298.357;   61.000; -144.000;  -71.000
298.495;   51.475; -810.000; -812.000
298.634;   94.375;  245.000;  219.000
298.772;   73.900; -220.000; -338.000
298.910;  -21.050; -309.000; -182.000
299.048;   -3.200; -130.000; -153.000
299.187;  -33.600; -350.000; -250.000
299.325;   37.575;   52.000;  122.000
299.463;   68.475; -389.000; -299.000
299.601;  137.675; -327.000; -271.000
299.739; -103.125; -908.000; -883.000
299.877;  -79.550; -791.000; -703.000
300.016;  -53.525;-1095.000; -935.000
300.154;  181.650;  -19.000; -161.000
300.292;   74.475; -428.000; -348.000
300.430;   42.425; -408.000; -291.000
300.568; -107.975; -940.000; -874.000
300.706;  -41.625; -366.000; -469.000
300.844;  -67.700;-1108.000; -979.000
300.982;  128.100;  246.000;  282.000
301.120; -104.150; -965.000; -866.000
301.258;  -68.150; -812.000; -705.000
301.396;   42.800;  104.000;  -41.000
301.534;  112.325; -218.000; -293.000
301.672;   11.975; -664.000; -521.000
301.810;   54.650; -613.000; -545.000
301.948;  130.500;   53.000;  149.000
302.086;  660.275; -250.000;  -32.000
302.224; 1059.075; -610.000; -585.000
302.362;   46.625; -558.000; -622.000
302.500;   -4.350; -923.000; -893.000
302.638;  134.875;  128.000;  245.000
302.776;    4.725; -352.000; -408.000
302.913;   42.975;  447.000;  236.000
303.051;    1.275;  -86.000;  -23.000
303.189;   73.275;   90.000;  118.000
303.327;  -32.500; -341.000; -256.000
303.465;  -86.650; -832.000; -588.000
303.603; -104.550; -805.000; -604.000
303.740;  122.150;  417.000;  241.000
303.878;   35.300; -800.000; -759.000
304.016;  -90.075; -915.000; -790.000
304.154; -119.150;-1123.000;-1152.000
304.291;  -33.400; -505.000; -554.000
304.429;    6.575;  102.000;   74.000
304.567; -124.725; -908.000; -893.000
304.705;  -56.500; -408.000; -515.000
304.842;  108.250; -616.000; -540.000
304.980;   60.100;  215.000;   35.000
305.118;   62.550; -367.000; -365.000
305.255;  -58.700; -945.000; -927.000
305.393;   69.225;  178.000;  239.000
305.531;  -93.600;-1173.000; -956.000
305.668;  -73.600; -663.000; -582.000
305.806;  100.625; -358.000; -439.000
305.943;  119.075; -629.000; -637.000
306.081;   76.575; -378.000; -267.000
306.219;  -98.250; -863.000; -748.000
306.356;    8.400;  158.000;   27.000
306.494;  120.375;  981.000;  761.000
306.631;   -3.300;  -11.000;  -55.000
306.769;    9.650; -613.000; -485.000
306.906;  -15.075; -284.000; -258.000
307.044;  -69.025; -473.000; -488.000
307.181;  -56.375; -410.000; -332.000
307.319;   12.550;  112.000;   87.000
307.456; -166.525;-1191.000;-1153.000
307.594; -100.925; -980.000; -727.000
307.731;  -14.925; -371.000; -164.000
307.868;    7.225;  -15.000;   20.000
308.006; -158.100; -961.000; -847.000
308.143;  -57.450; -618.000; -330.000
308.281;  138.375;  -37.000; -254.000
308.418;  -19.825; -748.000; -640.000
308.555;  -79.625; -400.000; -250.000
308.693;  -88.450; -577.000; -573.000
308.830; -110.025; -712.000; -657.000
308.967;  -15.925; -215.000;  -95.000
309.105;  -46.550; -507.000; -396.000
309.242;   16.825; -468.000; -367.000
309.379;  230.350; -577.000; -655.000
309.517;  -62.050; -936.000; -948.000
309.654; -107.875; -910.000; -734.000
309.791;  -67.700; -662.000; -580.000
309.928; -109.075; -977.000; -914.000
310.065;  193.825;  819.000;  697.000
310.203;    9.300; -825.000; -850.000
310.340;    6.725; -465.000; -321.000
310.477;  -71.125; -412.000; -516.000
310.614;  -74.200; -383.000; -473.000
310.751;  -75.700; -427.000; -518.000
310.889;  -25.750;    1.000;   11.000
311.026; -154.650;-1161.000; -939.000
311.163;  -35.825; -386.000; -380.000
311.300;  -77.425; -512.000; -479.000
311.437;  -66.575; -658.000; -619.000
311.574; -166.150;-1226.000; -985.000
311.711;  -69.625; -595.000; -433.000
311.848;  -35.275; -380.000; -388.000
311.985;    8.900;  270.000;   93.000
312.122; -107.125; -932.000; -762.000
312.259; -121.350; -941.000; -994.000
312.396;  -84.550; -508.000; -551.000
312.533;  -89.750; -812.000; -790.000
312.670; -127.675;-1070.000; -898.000
312.807;  -29.700; -352.000; -367.000
312.944;  -70.950; -513.000; -611.000
313.081;  -17.550; -150.000; -415.000
313.218; -105.875;-1111.000; -867.000
313.355;   16.200; -531.000; -449.000
313.492;   14.325; -455.000; -292.000
313.629;  154.300;  815.000;  735.000
313.766; -157.950;-1176.000;-1008.000
313.902;   -2.125; -186.000;   21.000
314.039;  -53.325; -372.000; -289.000
314.176;   39.525;  286.000;  192.000
314.313;  -74.150; -569.000; -473.000
314.450;  -70.075; -788.000; -684.000
314.587;  -56.550; -468.000; -480.000
314.723;   10.650;  -78.000;  130.000
314.860;   38.525;  318.000;  332.000
314.997;   41.350;  223.000;  142.000
315.134;  -36.625; -385.000; -368.000
315.270;  -24.875; -480.000; -496.000
315.407; -109.625;-1094.000; -967.000
315.544;  -42.925; -657.000; -538.000
315.681;  -56.250; -681.000; -565.000
315.817;   30.800; -133.000; -176.000
315.954;   22.675; -613.000; -392.000
316.091; -127.325;-1045.000;-1023.000
316.227;  -25.250;  -71.000; -179.000
316.364;    8.000;   23.000;    6.000
316.500;  -32.800; -113.000; -300.000
316.637;  -33.275; -181.000; -302.000
316.774;  -88.425; -625.000; -358.000
316.910;  -89.350; -598.000; -629.000
317.047;  -58.900; -487.000; -351.000
317.183;  -39.575; -435.000; -566.000
317.320;  -28.100; -367.000; -321.000
317.456;  -91.500; -733.000; -805.000
317.593;  -94.550; -598.000; -641.000
317.729;    7.050;  168.000;  -67.000
317.866; -211.875;-1434.000;-1285.000
318.002;  -94.950; -708.000; -948.000
318.139;  -99.600; -883.000; -867.000
318.275; -109.250;-1003.000; -738.000
318.412;  -63.900; -517.000; -336.000
318.548;  -30.650; -751.000; -720.000
318.685;  -96.350; -985.000; -888.000
318.821;  -94.325; -762.000; -735.000
318.957;  -23.975;   34.000;  -23.000
319.094;   36.725;  297.000;  154.000
319.230;  -60.575; -756.000; -742.000
319.367;  149.375; -471.000; -520.000
319.503;   66.600; -538.000; -436.000
319.639;  -94.875; -877.000; -793.000
319.775;  -68.550; -750.000; -685.000
319.912;  -56.050; -424.000; -519.000
320.048;  -84.850;-1184.000;-1184.000
320.184;   78.500;   59.000;   70.000
320.321;  -62.225; -497.000; -467.000
320.457;   76.200;  475.000;  662.000
320.593;  -69.900; -375.000; -382.000
320.729;  -97.350; -732.000; -734.000
320.866;  -70.700; -577.000; -635.000
321.002;  -71.450; -759.000; -809.000
321.138;  -10.525; -135.000; -211.000
321.274;   79.125; -148.000; -115.000
321.410;  -23.875; -585.000; -353.000
321.546;  -22.050;-1011.000; -911.000
321.683;   56.525;  400.000;  185.000
321.819;   10.275;  -48.000; -117.000
321.955; -118.500; -743.000; -722.000
322.091;  -38.475; -585.000; -540.000
322.227;  -14.575; -382.000; -202.000
322.363;  -16.300; -320.000; -215.000
322.499;  -41.600; -343.000; -331.000
322.635;  169.400;  636.000;  443.000
322.771;   40.150; -139.000;   12.000
322.907;   97.850;  129.000;  327.000
323.043;  -12.750; -115.000; -206.000
323.179;  -33.650; -394.000; -363.000
323.315;   47.800; -401.000; -371.000
323.451;  139.250; -328.000; -236.000
323.587;   72.975;  -60.000;  -77.000
323.723;   25.375; -682.000; -601.000
323.859;    1.325; -258.000;  -76.000
323.995;  -23.650; -467.000; -409.000
324.131; -112.850; -967.000; -892.000
324.267;  -39.025; -254.000; -276.000
324.402; -126.850; -960.000; -983.000
324.538;   -5.775; -279.000; -104.000
324.674;   30.475;  164.000;   77.000
324.810;  171.750;  226.000;  308.000
324.946;   26.825; -810.000; -658.000
325.082;  -70.550; -568.000; -475.000
325.217;    1.875;  -62.000;   16.000
325.353; -102.850; -764.000; -659.000
325.489;  -86.350; -540.000; -506.000
325.625;  -81.725; -579.000; -525.000
325.760;   53.125;  517.000;  376.000
325.896;  -38.300; -515.000; -702.000
326.032;  -47.825; -403.000; -352.000
326.168;  -47.500; -462.000; -369.000
326.303;  -63.525; -352.000; -461.000
326.439;  -23.250; -336.000; -276.000
326.575;   -2.500; -190.000;  -29.000
326.710;    8.025; -156.000;  -30.000
326.846;   -1.100;  146.000;  103.000
326.982;  -81.875; -530.000; -548.000
327.117;  -82.600; -481.000; -442.000
327.253;  -93.500; -745.000; -742.000
327.388; -165.825;-1137.000;-1153.000
327.524;  -30.775; -811.000; -578.000
327.659;  -29.725;  -58.000;  -22.000
327.795;   -3.000;   69.000;   45.000
327.931;  -92.975; -723.000; -499.000
328.066;  -22.625; -417.000; -276.000
328.202;   -5.250;   12.000; -129.000
328.337;  109.625;  957.000;  713.000
328.473;   38.725;  -12.000;  -74.000
328.608;  -20.650; -256.000; -267.000
328.743;  -79.550; -799.000; -664.000
328.879;   31.300;  214.000;  114.000
329.014;  -35.625; -102.000; -122.000
329.150;  -79.875; -358.000; -483.000
329.285;  -72.850; -465.000; -466.000
329.421;  -56.025; -548.000; -246.000
329.556;  -14.525;  -36.000;   85.000
329.691;  -90.600; -633.000; -615.000
329.827;  -85.825; -626.000; -480.000
329.962;  -31.575;  131.000; -301.000
330.097; -101.450; -673.000; -585.000
330.233;  -58.400; -410.000; -223.000
330.368; -123.425; -839.000; -628.000
330.503;  -14.725;    3.000;   98.000
330.638;    3.800;  -93.000; -125.000
330.774;  -50.325; -609.000; -530.000
330.909;  -44.475; -434.000; -244.000
331.044;  -90.000; -714.000; -708.000
331.179; -183.525;-1217.000;-1109.000
331.315;   18.050;   77.000;   20.000
331.450;   20.075;  157.000;  285.000
331.585;  -82.200; -805.000; -706.000
331.720;  -82.950; -510.000; -460.000
331.855;  -11.325;  -35.000; -102.000
331.990;  202.600;   62.000;  138.000
332.126;  101.025; -110.000;   71.000
332.261;  -27.925; -379.000; -265.000
332.396;  -11.600; -135.000; -242.000
332.531; -114.625;-1074.000;-1031.000
332.666;   -5.000; -519.000; -363.000
332.801;  -98.225; -726.000; -807.000
332.936;  -18.800; -192.000; -122.000
333.071; -140.325; -870.000; -817.000
333.206;   11.975;  307.000;  379.000
333.341;   32.025;  344.000;  418.000
333.476;  -87.625; -627.000; -623.000
333.611;  -36.275; -251.000; -173.000
333.746;  -44.200; -381.000; -464.000
333.881; -116.275; -973.000; -935.000
334.016; -127.700; -936.000; -917.000
334.151; -129.275; -746.000; -702.000
334.286;   34.625;  152.000;  186.000
334.421;   -0.550; -125.000; -178.000
334.556;  -69.675; -611.000; -567.000
334.690;  -85.825; -631.000; -577.000
334.825;   69.900;  381.000;   83.000
334.960;  -64.425; -285.000; -413.000
335.095;   24.625;  135.000;  -91.000
335.230;  -84.225; -722.000; -738.000
335.365; -131.450;-1084.000; -990.000
335.499; -125.425;-1108.000;-1037.000
335.634;   41.325;    9.000;  534.000
335.769;  -86.150; -755.000; -720.000
335.904;  -40.875; -603.000; -561.000
336.038;  -34.200; -735.000; -657.000
336.173;  -97.650;-1206.000;-1194.000
336.308;   22.100; -116.000; -189.000
336.443;   22.400; -544.000; -634.000
336.577;  -54.275; -936.000; -787.000
336.712;   75.575;   -4.000;  -12.000
336.847;  -25.025; -724.000; -607.000
336.981;  105.275; -272.000; -208.000
337.116;  347.350;  615.000;  501.000
337.250;  213.700; -434.000; -421.000
337.385;  179.825; -297.000; -208.000
337.520;   47.050; -632.000; -603.000
337.654;  -55.075; -215.000; -126.000
337.789; -125.750; -989.000; -933.000
337.923;  -40.775; -104.000; -205.000
338.058;  -81.650; -673.000; -738.000
338.192;  -34.650; -611.000; -488.000
338.327;    3.775;  -18.000; -155.000
338.461;  -61.675; -299.000; -469.000
338.596;  -94.250; -780.000; -638.000
338.730; -112.125; -767.000; -803.000
338.865;   62.500;  -46.000; -140.000
338.999;  -77.800; -846.000; -702.000
339.134;  -47.350; -634.000; -536.000
339.268;   -7.600; -741.000; -603.000
339.403;  297.350; -740.000; -775.000
339.537;   57.450; -894.000; -820.000
339.671; -120.175; -829.000; -813.000
339.806;  -75.700; -556.000; -512.000
339.940;    3.300; -261.000; -235.000
340.074; -102.450; -685.000; -510.000
340.209;  -50.225; -351.000; -230.000
340.343;  -99.025; -517.000; -573.000
340.477;  177.250;  998.000; 1036.000
340.612;  -76.400;-1033.000; -900.000
340.746;  102.575; -199.000; -243.000
340.880;  -77.150; -924.000; -785.000
341.014;  -16.725;  -45.000; -154.000
341.149; -118.375; -756.000; -718.000
341.283; -107.350; -839.000; -754.000
341.417;  -92.500;-1124.000; -938.000
341.551;  188.700; -768.000; -708.000
341.685;  -24.525; -633.000; -611.000
341.820;  -54.925; -562.000; -493.000
341.954;  -58.575; -218.000; -349.000
342.088; -149.775;-1102.000;-1019.000
342.222;   57.175;  565.000;  618.000
342.356;  -32.950; -395.000; -335.000
342.490;  -97.325; -880.000; -841.000
342.624;  -38.475; -339.000; -242.000
342.758;    8.925; -364.000; -312.000
342.892;  -58.450; -710.000; -585.000
343.026;  -53.950;  -58.000; -116.000
343.160;  -61.475; -426.000; -376.000
343.294;  -71.750; -474.000; -337.000
343.428;  -17.550; -488.000; -448.000
343.562;  -18.650; -172.000;  -23.000
343.696;  -21.950; -385.000; -314.000
343.830;  -10.025; -362.000; -356.000
343.964;   25.175; -231.000; -168.000
344.098; 1042.825;  199.000;   70.000
344.232;  888.100; -266.000; -127.000
344.366;   80.150; -567.000; -453.000
344.500;   87.025; -665.000; -744.000
344.634;   30.950; -324.000; -164.000
344.768;   -5.125; -531.000; -341.000
344.902;   39.550;  278.000;  256.000
345.035;  -81.350; -556.000; -496.000
345.169; -138.875; -933.000; -656.000
345.303;  -12.275; -308.000; -482.000
345.437;  -69.875; -826.000; -717.000
345.571;  -75.450; -675.000; -594.000
345.704;  -74.100; -309.000; -532.000
345.838;  -16.925; -331.000; -284.000
345.972;  -22.900; -543.000; -495.000
346.106;  131.300; -179.000; -190.000
346.239;  400.225; -312.000; -243.000
346.373;    8.100; -343.000; -302.000
346.507; -138.800; -950.000; -962.000
346.640;  188.350;  -30.000;   13.000
346.774;  -30.100; -650.000; -797.000
346.908;  -25.275; -138.000;  -11.000
347.041; -100.750; -646.000; -593.000
347.175;   15.725;  259.000;   27.000
347.309;  -61.700; -698.000; -628.000
347.442;  -90.750; -883.000; -732.000
347.576;  324.175;  670.000;  668.000
347.709;  237.275; -123.000;  -52.000
347.843;  -86.500; -933.000; -825.000
347.976;   35.600;  235.000;  294.000
348.110; -186.075;-1268.000;-1186.000
348.243; -104.025; -679.000; -772.000
348.377;   -3.600;  -26.000;   60.000
348.510;   64.925;  403.000;  540.000
348.644;  -30.750;  -37.000; -159.000
348.777;   19.900;  180.000;  191.000
348.911;  -49.375; -142.000; -112.000
349.044;  177.050;  471.000;  448.000
349.178;  211.525;-1069.000;-1006.000
349.311;  117.850;  141.000;  255.000
349.444;  -35.425; -927.000; -813.000
349.578;  -16.275; -347.000; -200.000
349.711; -100.425; -959.000; -862.000
349.845;   26.275; -661.000; -591.000
349.978; -151.925;-1224.000;-1137.000
350.111;  -82.375; -546.000; -612.000
350.244;  -70.850; -596.000; -700.000
350.378;    6.000; -392.000; -393.000
350.511;  -65.725; -393.000; -426.000
350.644; -106.075; -808.000; -806.000
350.778;   -1.275;  168.000;  104.000
350.911;    5.575;  134.000;  140.000
351.044;  -89.525; -685.000; -615.000
351.177;  -23.225; -321.000; -281.000
351.310;  -10.325;    3.000; -131.000
351.444;  -69.750; -888.000; -788.000
351.577;  143.450;  140.000;   90.000
351.710;  110.150;  593.000;  417.000
351.843;  -30.275; -165.000;  -77.000
351.976;    6.150;  149.000;  -79.000
352.109;  -87.900; -621.000; -612.000
352.242;  -11.525; -464.000; -419.000
352.376;  -51.150; -580.000; -636.000
352.509;  234.200; -437.000; -356.000
352.642;   45.650; -654.000; -604.000
352.775;   79.550; -141.000;  -98.000
352.908; -123.275; -933.000; -904.000
353.041;  -88.550; -814.000; -824.000
353.174;  -63.700; -551.000; -424.000
353.307;  -68.625; -753.000; -764.000
353.440;   83.575;  541.000;  453.000
353.573; -118.575; -957.000;-1008.000
353.706;  -38.050; -384.000; -558.000
353.839;  -10.400; -264.000; -220.000
353.971;  -83.475; -657.000; -512.000
354.104;  -69.450; -896.000; -835.000
354.237;  -34.575; -627.000; -662.000
354.370;  -77.125; -846.000; -879.000
354.503; -183.650;-1231.000;-1308.000
354.636;  -33.125; -529.000; -348.000
354.769; -134.050; -937.000; -860.000
354.902;   -9.050; -230.000; -139.000
355.034;  -10.175; -164.000; -220.000
355.167;  -22.950; -262.000; -162.000
355.300;  -98.175;-1061.000; -880.000
355.433;  843.500;  -71.000;  -14.000
355.565; 1252.700; -402.000; -384.000
355.698;  307.150; -356.000; -296.000
355.831;   -6.550; -882.000; -801.000
355.964;  118.600; -285.000; -170.000
356.096;  -66.775; -856.000; -843.000
356.229;   27.050; -523.000; -530.000
356.362;  250.900; -373.000; -266.000
356.494;  491.575; -229.000; -162.000
356.627;  533.500;  269.000;  377.000
356.760;  592.225;  120.000;   53.000
356.892;  779.525; -286.000; -601.000
357.025;  734.600;  403.000;  389.000
357.157;  694.800; -167.000; -179.000
357.290;  506.000; -856.000; -713.000
357.423;  154.125; -667.000; -556.000
357.555;  129.400; -217.000; -228.000
357.688;  153.750; -483.000; -364.000
357.820;  475.350; -870.000; -877.000
357.953; 3894.575; -563.000; -589.000
358.085;  936.450; -632.000; -612.000
358.218; 1466.300;-1131.000; -932.000
358.350;  256.725;  -58.000;  312.000
358.483; -119.575;-1300.000;-1187.000
358.615;   19.575;-1182.000;-1078.000
358.747;  -37.075;-1187.000;-1058.000
358.880;   52.300; -810.000; -744.000
359.012;   -3.150; -376.000; -202.000
359.145;  -38.850; -480.000; -511.000
359.277;   67.675; -962.000; -913.000
359.409; 3285.200;  536.000;  231.000
359.542;  859.525; -738.000; -688.000
359.674;   65.825;   46.000;   13.000
359.806;  -53.825; -565.000; -438.000
359.939;  -34.450; -617.000; -516.000
360.071;  -34.100; -583.000; -579.000
360.203;  -28.175; -411.000; -364.000
360.335;   39.100;  164.000;  -16.000
360.468;  200.500; -249.000; -307.000
360.600; 2537.375; -547.000; -454.000
360.732; 2243.125; -546.000; -423.000
360.864;  301.300;-1216.000;-1044.000
360.996;  366.300; -516.000; -554.000
361.129;   54.625; -389.000; -598.000
361.261;   15.900;  110.000; -113.000
361.393;  -30.250; -252.000; -214.000
361.525;   25.775;   94.000;  244.000
361.657;  -37.525; -821.000; -703.000
361.789;   13.725; -139.000; -155.000
361.921;  303.750; -642.000; -593.000
362.053;  291.425;  524.000;  541.000
362.185;   71.050;  288.000;   72.000
362.318;  -67.400; -709.000; -705.000
362.450;  166.450;  294.000;  444.000
362.582;  216.900; -913.000; -870.000
362.714;  -24.000; -353.000; -332.000
362.846;  -77.625; -606.000; -490.000
362.978; -142.050; -941.000; -811.000
363.109;   57.050; -161.000; -260.000
363.241;  518.675; -739.000; -749.000
363.373;  369.000; -649.000; -564.000
363.505;  527.275; -186.000;  -91.000
363.637;  110.275; -787.000; -601.000
363.769; -121.325;-1067.000;-1080.000
363.901;  -62.875; -596.000; -654.000
364.033; -113.975;-1103.000;-1062.000
364.165;   -0.700; -283.000; -283.000
364.296;   47.625; -316.000; -177.000
364.428;   19.350;-1344.000;-1220.000
364.560;  -76.550; -679.000; -661.000
364.692;  -49.575; -738.000; -835.000
364.824;  344.050; -588.000; -456.000
364.955;  408.050; -402.000; -564.000
365.087;  640.550;-1097.000; -852.000
365.219;    2.250; -686.000; -816.000
365.351;  -70.100; -526.000; -572.000
365.482;   48.300;  300.000;  240.000
365.614;  -37.875; -402.000; -314.000
365.746;  -94.325; -729.000; -752.000
365.877; -106.775; -706.000; -672.000
366.009;  202.000;  -35.000;  -62.000
366.141; -122.425;-1249.000;-1134.000
366.272;  -98.850; -803.000; -719.000
366.404; -128.700;-1005.000; -874.000
366.535;  -11.500; -139.000;  -12.000
366.667; -105.650; -644.000; -649.000
366.799;   56.000;  353.000;  203.000
366.930; -103.575; -862.000; -996.000
367.062;  113.525; -639.000; -613.000
367.193;   72.325; -872.000; -842.000
367.325;  -79.975; -580.000; -684.000
367.456;  108.575; -246.000;   31.000
367.588;  136.800; -371.000; -318.000
367.719;   18.425;  -44.000;  -45.000
367.851;   -4.750; -222.000; -241.000
367.982;  -36.550; -875.000; -732.000
368.113;  127.050; -475.000; -358.000
368.245; -118.375; -960.000; -841.000
368.376;  -19.800; -254.000; -302.000
368.508;  -39.300; -188.000; -263.000
368.639; -134.525;-1166.000;-1034.000
368.770;    0.250; -670.000; -589.000
368.902;  -44.925; -836.000; -926.000
369.033; -107.325; -906.000; -855.000
369.164;  -52.275; -720.000; -653.000
369.296; -106.375; -452.000; -601.000
369.427;    6.475; -209.000; -144.000
369.558;  -36.225; -593.000; -377.000
369.689;  -85.400; -721.000; -569.000
369.821; -137.250; -951.000; -845.000
369.952;  -23.425;   42.000; -108.000
370.083;  -56.200; -229.000; -108.000
370.214;  -77.950; -735.000; -650.000
370.345;   -0.575;   65.000;   81.000
370.477;  -68.325; -810.000; -790.000
370.608;  288.525; -328.000; -264.000
370.739;  -29.675;-1233.000;-1292.000
370.870;  -22.375;-1102.000; -923.000
371.001;  109.575; -378.000; -467.000
371.132;  -83.950; -754.000; -735.000
371.263;  -21.600;  -42.000; -148.000
371.394; -134.925; -841.000; -748.000
371.525;   25.150;  345.000;  225.000
371.657;  -93.375; -808.000; -670.000
371.788;   77.725;  103.000;  199.000
371.919;  209.825; -384.000; -304.000
372.050; 4120.025;  -91.000; -156.000
372.181; 1182.825; -188.000; -294.000
372.311;  440.600;   42.000; -127.000
372.442;   49.025; -457.000; -451.000
372.573;   -9.225; -444.000; -340.000
372.704; -112.650;-1008.000; -980.000
372.835;  110.800; -228.000; -289.000
372.966;  -54.225; -646.000; -554.000
373.097;  -54.500; -575.000; -711.000
373.228;  -38.125; -717.000; -542.000
373.359;  173.425; -824.000; -536.000
373.490; 1092.800; -881.000; -727.000
373.620; 1347.250;-1001.000; -803.000
373.751; 2132.325; -332.000; -396.000
373.882;  931.950; -663.000; -733.000
374.013;  108.700; -449.000; -262.000
374.143;  -35.425; -581.000; -659.000
374.274;  -99.325; -987.000; -908.000
374.405;  199.000; -388.000; -276.000
374.536;  541.400; -526.000; -387.000
374.666; 1352.500; -759.000; -807.000
374.797;  282.400; -817.000; -868.000
374.928; 1062.650; -710.000; -560.000
375.058; 1049.525; -535.000; -500.000
375.189;  106.825;  -59.000;  -93.000
375.320; -100.175; -928.000;-1034.000
375.450;  -32.150; -625.000; -616.000
375.581;  -52.225; -526.000; -436.000
375.712;  -23.325; -574.000; -250.000
375.842;  359.425; -438.000; -415.000
375.973;  260.050; -554.000; -513.000
376.103;  -17.300; -665.000; -648.000
376.234;  -63.400; -531.000; -552.000
376.364;  -30.025; -944.000; -867.000
376.495;  362.775;  925.000;  529.000
376.625;   23.475; -472.000; -485.000
376.756;   94.300; -709.000; -678.000
376.886;  -69.325;-1178.000;-1026.000
377.017;    1.850;-1048.000;-1061.000
377.147;  249.350; -786.000; -782.000
377.278;   54.550;  174.000;  228.000
377.408; -126.950; -801.000; -815.000
377.538;  -92.625; -707.000; -693.000
377.669;  -82.725; -537.000; -613.000
377.799;  -80.900; -645.000; -635.000
377.929;  -44.050; -610.000; -428.000
378.060; -124.125; -781.000; -847.000
378.190;  -57.400; -726.000; -531.000
378.320;  -52.325; -401.000; -406.000
378.451;   -8.225; -131.000;  -22.000
378.581;    5.300;  -67.000; -110.000
378.711;  183.300; 1035.000;  866.000
378.841;  -11.775; -533.000; -675.000
378.972;  -62.850; -871.000; -751.000
379.102;   35.525; -652.000; -579.000
379.232;  -12.000; -126.000;  -73.000
379.362;  -96.425;-1001.000; -885.000
379.492;   33.900; -373.000; -424.000
379.623;  127.875;    0.000;  111.000
379.753;  -89.525;-1107.000; -974.000
379.883;  213.525;   59.000;  156.000
380.013;   20.025;-1081.000;-1017.000
380.143;  -93.025;-1097.000;-1056.000
380.273;  -93.375; -985.000; -861.000
380.403;    0.625; -344.000; -257.000
380.533;  -14.100; -651.000; -664.000
380.663;   80.650;  173.000;  128.000
380.793;  -79.300;-1027.000;-1074.000
380.923;  -18.000; -103.000;  -34.000
381.053;  -92.525; -613.000; -623.000
381.183;  -25.725; -106.000; -248.000
381.313;   52.275; -656.000; -470.000
381.443;   59.650; -692.000; -473.000
381.573;  252.950; -402.000; -409.000
381.703;  372.450;-1249.000;-1095.000
381.833; -116.775;-1454.000;-1336.000
381.963;  133.225; -134.000;  -87.000
382.093; 1541.800; -925.000; -909.000
382.223;  439.425; -713.000; -602.000
382.353;    0.700; -801.000; -608.000
382.482;  487.175;-1091.000; -964.000
382.612;  861.725; -872.000; -644.000
382.742;  471.475; -695.000; -622.000
382.872;  339.875; -565.000; -551.000
383.002;   97.700;  347.000; -132.000
383.131;  -24.175; -226.000; -160.000
383.261;  -34.500; -706.000; -768.000
383.391;  254.750; -552.000; -377.000
383.521; 2549.075;  451.000;  263.000
383.650;  508.650; -947.000; -904.000
383.780;  -32.900; -783.000; -656.000
383.910;  109.700;  880.000;  802.000
384.039;   61.475; -794.000; -656.000
384.169;  265.600;-1205.000;-1017.000
384.299;    9.675; -650.000; -662.000
384.428;  -84.900; -764.000; -680.000
384.558;  -39.375; -308.000; -275.000
384.687;  -39.800; -414.000; -334.000
384.817;   24.025;   75.000;   -2.000
384.947;   39.575; -234.000; -141.000
385.076;  328.350;  982.000;  912.000
385.206;  116.200;  369.000;  480.000
385.335;  -31.625; -549.000; -417.000
385.465;  -54.675; -655.000; -663.000
385.594;  173.225;  -53.000;  -44.000
385.724;  534.975; -868.000; -838.000
385.853;  151.275; -296.000; -270.000
385.982; 1679.775; -743.000; -787.000
386.112; 2504.175;-1052.000; -871.000
386.241;  186.175; -307.000; -312.000
386.371;   40.300; -174.000;  -87.000
386.500;   12.225; -825.000; -789.000
386.629;   24.200; -874.000; -817.000
386.759;   59.550;  -43.000;   68.000
386.888;   15.425; -170.000; -250.000
387.017;  -49.625; -648.000; -620.000
387.147;  -73.525; -771.000; -798.000
387.276;   14.000; -410.000; -397.000
387.405;   33.825; -398.000; -342.000
387.535;  -26.800; -452.000; -361.000
387.664;  -48.725; -692.000; -620.000
387.793;   88.975; -198.000; -113.000
387.922;  639.850;  255.000;  200.000
388.052;   39.150; -576.000; -423.000
388.181;   65.900; -342.000; -472.000
388.310;   71.500; -889.000; -710.000
388.439;   -4.425; -749.000; -742.000
388.568;  213.175;  365.000;  244.000
388.697; 1266.750; -756.000; -653.000
388.826;  256.075; -768.000; -666.000
388.956;   84.150; -285.000; -307.000
389.085;  -20.875; -347.000; -287.000
389.214;  -84.775; -842.000; -872.000
389.343;  -62.575; -645.000; -413.000
389.472;  354.975;  126.000;  149.000
389.601;  477.075;   91.000;    0.000
389.730;   32.250; -568.000; -687.000
389.859;   84.450;  226.000;   46.000
389.988;  234.575; -423.000; -408.000
390.117;  160.550; -168.000; -146.000
390.246;    6.850; -331.000; -320.000
390.375;  138.800; -673.000; -626.000
390.504;  -50.725; -703.000; -621.000
390.633;  -96.025; -672.000; -726.000
390.761;  -58.050; -732.000; -645.000
390.890;   52.850;   -4.000; -130.000
391.019;  -23.825; -421.000; -441.000
391.148; -139.575; -826.000; -855.000
391.277;  -54.475; -576.000; -493.000
391.406;  -66.600; -821.000; -805.000
391.534;   43.000;  574.000; -301.000
391.663;  -54.475; -583.000; -645.000
391.792;  -72.925; -673.000; -701.000
391.921;  160.450;   -3.000;   15.000
392.050;  252.250; -287.000; -228.000
392.178;  -14.450;-1206.000;-1061.000
392.307;  200.550; -758.000; -712.000
392.436;   78.075; -427.000; -641.000
392.564;   10.925;  166.000;   -6.000
392.693;  -99.750; -860.000; -682.000
392.822;  260.650; -529.000; -534.000
392.950;  138.875; -880.000; -714.000
393.079;  415.250; -188.000; -328.000
393.208;   35.300; -488.000; -511.000
393.336;   -0.575; -170.000; -145.000
393.465;  -61.050; -317.000; -199.000
393.593;    1.850;   62.000;   79.000
393.722; -161.650;-1121.000; -916.000
393.850;  -28.250; -188.000;  -61.000
393.979; -153.400; -926.000; -805.000
394.107;  -50.275; -517.000; -537.000
394.236;  -24.950; -570.000; -507.000
394.364;  191.475;  383.000;  206.000
394.493;  267.675; -911.000; -767.000
394.621;  -41.675; -955.000; -916.000
394.750;  579.725; -873.000; -923.000
394.878; 2532.425; -247.000; -149.000
395.007; 3306.150; -721.000; -807.000
395.135;  212.100; -790.000; -721.000
395.263;  -89.400;-1038.000;-1040.000
395.392;    9.075;  -25.000; -107.000
395.520; -144.975; -818.000; -679.000
395.648;  -88.675; -865.000; -915.000
395.777;  -26.875; -366.000; -405.000
395.905;  -48.900; -449.000; -564.000
396.033;   -0.775;  217.000;  172.000
396.162;  456.750; -399.000; -453.000
396.290;  376.775;  -17.000;   -2.000
396.418;  127.950; -555.000; -514.000
396.546;  -74.050; -571.000; -466.000
396.674;  -91.100; -850.000; -878.000
396.803;    7.875;  -72.000;  -23.000
396.931;  121.525; -179.000; -199.000
397.059;   93.175;-1026.000; -989.000
397.187; -112.425;-1026.000; -975.000
397.315; -125.675; -884.000; -649.000
397.443;  -91.375; -592.000; -443.000
397.572;  -95.325; -578.000; -424.000
397.700;    6.200; -607.000; -614.000
397.828;    3.800;  120.000;  -90.000
397.956;  -44.025; -508.000; -478.000
398.084;  -81.700; -767.000; -626.000
398.212;   55.525;  137.000;  124.000
398.340;   20.650;  -56.000;  159.000
398.468;   51.125; -390.000; -169.000
398.596; -140.525; -993.000; -953.000
398.724; -133.675; -762.000; -767.000
398.852; -169.475;-1024.000; -976.000
398.980;  -58.725; -560.000; -560.000
399.108;  -44.800; -982.000; -735.000
399.236;   45.475;   13.000;    8.000
399.363;    8.025;  222.000;  196.000
399.491;  -79.925; -404.000; -398.000
399.619; -123.450; -829.000; -800.000
399.747;  -91.125; -859.000; -771.000
399.875;   89.550;  220.000;  234.000
400.003;  -59.400; -359.000; -284.000
400.130; -103.425; -421.000; -341.000
400.258;  -20.950;  -83.000;   38.000
400.386;  -64.925; -352.000; -168.000
400.514;  -22.325; -526.000; -587.000
400.641;  -76.200; -928.000; -802.000
400.769; -149.850; -979.000; -888.000
400.897;  -96.675; -838.000; -793.000
401.025;  -14.575; -166.000; -152.000
401.152;   11.900;  220.000;   38.000
401.280;  -78.925; -430.000; -429.000
401.408; -116.525; -712.000; -576.000
401.535; -101.675; -735.000; -758.000
401.663; -199.925;-1134.000;-1054.000
401.790;  -77.800; -514.000; -525.000
401.918;   43.050;  436.000;  405.000
402.046;  -16.800;  134.000;  122.000
402.173;  -39.025;  -18.000;    7.000
402.301;  -77.425; -519.000; -397.000
402.428;   38.300;  528.000;  383.000
402.556; -149.000;-1188.000; -913.000
402.683;  -23.500;  -20.000;   -1.000
402.811;  -16.200;  -37.000; -206.000
402.938;  -16.625;   20.000;   27.000
403.066;  246.350; -574.000; -558.000
403.193;  394.100;  299.000;  239.000
403.321;  334.150; -396.000; -574.000
403.448;  390.175;   83.000;   27.000
403.575;  182.675;  -90.000;  -46.000
403.703;  -91.475; -732.000; -557.000
403.830;  -66.425; -531.000; -496.000
403.957; -145.775;-1117.000;-1023.000
404.085;   12.750;  -61.000; -172.000
404.212;  110.175;  -50.000;   63.000
404.339;  215.775; -566.000; -306.000
404.467; 4862.675; -612.000; -524.000
404.594; 3475.175; -287.000; -227.000
404.721;  889.850; -869.000; -764.000
404.848;   74.775; -113.000; -202.000
404.976; -105.650; -856.000; -783.000
405.103;   -3.275;  -14.000;  -82.000
405.230;   -7.025;  190.000;  226.000
405.357;   18.625;  117.000;   44.000
405.484;  222.200;  -49.000;    5.000
405.612;   34.300; -548.000; -563.000
405.739;  -64.900; -488.000; -243.000
405.866;   72.650;  669.000;  385.000
405.993;  -49.525; -398.000; -102.000
406.120; -132.825; -801.000; -887.000
406.247;  -53.200; -323.000; -342.000
406.374;  551.125;  540.000;  629.000
406.501;  143.750; -632.000; -702.000
406.628;  -79.700; -621.000; -589.000
406.755; -102.775; -803.000; -620.000
406.882;  -34.225; -228.000; -277.000
407.009; -110.375; -719.000; -628.000
407.136;   72.850; -480.000; -401.000
407.263;  197.100; -939.000; -829.000
407.390;  -68.950; -692.000; -614.000
407.517; -174.500;-1139.000;-1187.000
407.644;  -46.450; -332.000; -256.000
407.771;  -61.250; -249.000; -287.000
407.898;   14.625;  168.000;  328.000
408.025;  -67.975; -421.000; -313.000
408.151;  -17.425;   82.000;  153.000
408.278;  -59.950; -267.000; -216.000
408.405; -111.325; -931.000; -899.000
408.532;  -79.600; -549.000; -542.000
408.659; -114.250; -677.000; -648.000
408.785; -204.600;-1298.000;-1170.000
408.912;  -64.275; -412.000; -296.000
409.039; -109.475; -610.000; -686.000
409.166; -110.050; -591.000; -555.000
409.292; -112.100; -571.000; -534.000
409.419; -125.600; -665.000; -649.000
409.546;  -89.025; -431.000; -192.000
409.672; -111.575; -713.000; -545.000
409.799;  -26.550;  -36.000;   34.000
409.926;  -43.675; -180.000; -179.000
410.052; -174.750;-1127.000;-1091.000
410.179;  -63.125; -368.000; -392.000
410.305;  -90.875; -375.000; -493.000
410.432;  -37.350; -220.000; -333.000
410.558;  -88.425; -305.000; -380.000
410.685; -116.325; -688.000; -431.000
410.812; -111.850; -409.000; -588.000
410.938; -145.475; -964.000; -808.000
411.065; -111.350; -671.000; -645.000
411.191;  -17.100; -189.000; -174.000
411.317; -131.800; -823.000; -742.000
411.444;  -69.650; -317.000; -246.000
411.570;  -84.000; -339.000; -294.000
411.697; -122.825; -758.000; -752.000
411.823; -177.300; -989.000; -999.000
411.949;  -38.600;  -56.000;   17.000
412.076; -120.500; -539.000; -519.000
412.202; -118.825; -758.000; -757.000
412.329; -141.800; -798.000; -752.000
412.455; -114.275; -821.000; -657.000
412.581;  -30.275;  -15.000;  172.000
412.707;  -49.650; -540.000; -457.000
412.834;   16.550;  156.000;  219.000
412.960;  -78.475; -785.000; -784.000
413.086; -125.375; -743.000; -701.000
413.212;  178.200;  604.000;  578.000
413.339;  -44.575; -685.000; -701.000
413.465;   23.950; -364.000; -310.000
413.591;  -94.325; -757.000; -474.000
413.717;  -60.300; -358.000; -366.000
413.843; -138.300; -839.000; -861.000
413.969;  -61.250;  -47.000; -292.000
414.096; -112.200; -679.000; -679.000
414.222;  -15.350;  -33.000;   85.000
414.348;   -8.375; -652.000; -385.000
414.474;  116.775;   38.000;  -52.000
414.600;  -10.225; -126.000; -144.000
414.726;  -22.100;  -96.000;  -55.000
414.852;  -66.400; -365.000; -342.000
414.978;   35.825;  104.000;  -18.000
415.104;   40.725;   38.000;   80.000
415.230;   20.225; -329.000; -330.000
415.356;   40.575; -409.000; -514.000
415.482;  189.500;   13.000;  -35.000
415.608;  229.750; -247.000; -323.000
415.734;  866.200;   67.000;   38.000
415.860;18137.700; -875.000; -767.000
415.986;12591.500; -685.000; -607.000
416.111; 1034.775; -798.000; -652.000
416.237;  207.725; -424.000; -571.000
416.363;  950.350; -765.000; -733.000
416.489; 3443.525; -324.000; -251.000
416.615;  341.525; -707.000; -742.000
416.741;  -34.575; -677.000; -784.000
416.866; -107.725; -673.000; -736.000
416.992; -129.550; -801.000; -818.000
417.118;  -33.550;  -41.000;  -80.000
417.244;  -69.375; -798.000; -531.000
417.369; -115.650; -801.000; -612.000
417.495;    2.425; -325.000; -254.000
417.621;  -86.700;-1015.000; -803.000
417.746;    0.200; -579.000; -572.000
417.872;   38.200; -254.000; -144.000
417.998;   18.025; -515.000; -530.000
418.123;  908.525;-1073.000; -845.000
418.249; 4573.925; -512.000; -601.000
418.374;  568.600; -916.000; -824.000
418.500;   83.825; -383.000; -482.000
418.626;   90.875;   70.000;  -59.000
418.751;   84.200; -549.000; -448.000
418.877;  152.050; -637.000; -643.000
419.002; 1574.975; -688.000; -560.000
419.128;10691.075; -930.000; -721.000
419.253; 2458.400; -967.000; -837.000
419.379;  313.475; -391.000; -338.000
419.504;  338.975;  325.000;  415.000
419.629;  427.525; -393.000; -212.000
419.755; 2995.425; -317.000; -254.000
419.880;17107.750;  -98.000;   67.000
420.006; 9765.450; -280.000; -221.000
420.131;25489.925; -662.000; -775.000
420.256; 3540.775; -315.000; -316.000
420.382;  452.050; -665.000; -687.000
420.507;   36.750; -649.000; -778.000
420.632;  178.050; -337.000; -339.000
420.758;  321.775; -251.000; -425.000
420.883;  -81.700; -876.000; -672.000
421.008; -106.125; -775.000; -619.000
421.133;  -81.400; -509.000; -467.000
421.259;  -45.650; -325.000; -259.000
421.384; -117.975; -834.000; -693.000
421.509;  -10.800;-1052.000; -862.000
421.634; 1595.550; -936.000; -820.000
421.759;  645.100; -359.000; -327.000
421.885;  -46.650; -717.000; -656.000
422.010;  -73.950; -673.000; -542.000
422.135; -162.975; -695.000; -727.000
422.260;   39.150;  340.000;  280.000
422.385;  -38.400;   12.000;  -98.000
422.510;   22.750;  151.000;  -26.000
422.635;   12.550;  -87.000;  -43.000
422.760;   72.725; -766.000; -791.000
422.885;   49.375;  -57.000;  -80.000
423.010;  -35.825; -112.000; -169.000
423.135; -105.925; -481.000; -561.000
423.260;    0.275; -150.000; -245.000
423.385;   74.350;  476.000;  222.000
423.510;   30.475;   71.000;  -22.000
423.635;   83.325;  133.000;   45.000
423.760;   61.425;  383.000;  328.000
423.885;   46.300;  336.000;  391.000
424.010;    0.500;  -68.000;  -13.000
424.135;  -23.075;    5.000;  -33.000
424.259;  -94.700; -654.000; -457.000
424.384;  -64.175; -279.000; -272.000
424.509;  -32.525; -260.000; -186.000
424.634; -108.275; -761.000; -623.000
424.759;  -46.350; -688.000; -544.000
424.883;  -18.950; -506.000; -527.000
425.008;  128.550; -502.000; -410.000
425.133; 1718.675; -679.000; -653.000
425.258;  757.725; -517.000; -381.000
425.382; 1165.425; -867.000; -774.000
425.507; 2889.975; -487.000; -543.000
425.632;  422.100; -802.000; -663.000
425.756;  401.675; -256.000; -146.000
425.881; 5286.975; -831.000; -857.000
426.006;13528.550; -604.000; -355.000
426.130; 2097.650; -696.000; -508.000
426.255;  249.400; -611.000; -491.000
426.379;  118.025; -189.000; -577.000
426.504;  339.175;  660.000;  544.000
426.629; 3651.900; -519.000; -466.000
426.753; 2435.025;   64.000;  -46.000
426.878;  264.525; -252.000; -288.000
427.002;  118.750; -651.000; -668.000
427.127; 1442.100;  -35.000; -158.000
427.251; 9765.000;  372.000;  401.000
427.375; 2639.100; -191.000; -173.000
427.500; 2521.775; -616.000; -610.000
427.624;  807.950; -234.000; -400.000
427.749;  112.325; -216.000; -225.000
427.873;  -32.900; -499.000; -412.000
427.997;  -43.225; -222.000; -230.000
428.122;   60.950;  795.000;  703.000
428.246;   71.750;  433.000;  434.000
428.371; -117.900; -869.000; -773.000
428.495; -117.700; -624.000; -646.000
428.619;  -32.425; -186.000; -117.000
428.743;   27.400;   65.000;  132.000
428.868;   33.200; -732.000; -643.000
428.992; 1620.525; -219.000; -326.000
429.116;  654.800; -329.000; -357.000
429.240;  338.125;  419.000;  426.000
429.365;  -26.525; -454.000; -574.000
429.489;  -26.700; -638.000; -647.000
429.613;   10.675; -236.000; -177.000
429.737;   26.900; -563.000; -432.000
429.861;  236.850; -247.000; -133.000
429.985; 4895.825; -425.000; -305.000
430.109; 5129.375; -770.000; -908.000
430.234;  582.375;   76.000;  -50.000
430.358;   50.525; -250.000; -160.000
430.482;  -69.425; -672.000; -564.000
430.606;  -54.400; -655.000; -375.000
430.730;   45.825; -437.000; -388.000
430.854;  182.200; -909.000; -835.000
430.978;  -54.650; -795.000; -764.000
431.102;  -83.200; -499.000; -422.000
431.226; -103.850; -874.000; -815.000
431.350;   33.950;  345.000;  422.000
431.474;  -84.600; -661.000; -373.000
431.597; -153.575;-1060.000; -848.000
431.721;  -90.850; -276.000; -267.000
431.845; -140.375; -704.000; -472.000
431.969;  -86.675; -304.000; -349.000
432.093; -111.225; -395.000; -317.000
432.217;   -9.600;   32.000;   82.000
432.341; -100.875; -523.000; -518.000
432.464;   19.025;   96.000;   40.000
432.588;  265.025; -401.000; -329.000
432.712;  128.400;  -52.000;  -52.000
432.836;   50.150;  213.000;  263.000
432.959;  -28.425; -372.000; -311.000
433.083;   51.225;   11.000;    2.000
433.207;  316.250;  285.000;  930.000
433.330; 4321.150; -391.000; -200.000
433.454; 5139.250; -654.000; -638.000
433.578; 3052.800;  583.000;  278.000
433.701;  527.450; -623.000; -675.000
433.825;  175.750; -292.000; -299.000
433.949;  266.200;   28.000;  -72.000
434.072;   97.225; -410.000; -323.000
434.196;  -10.700; -309.000; -117.000
434.319; 3832.950;25482.000;25124.000
434.443;  735.400; -656.000; -603.000
434.566; 2313.150;  281.000;   62.000
434.690;  343.150; -637.000; -383.000
434.813;   33.950; -251.000; -173.000
434.937;  -81.175; -569.000; -696.000
435.060;  -20.725; -423.000; -332.000
435.184;  474.300; -492.000; -217.000
435.307;  243.200;  159.000;  102.000
435.431;   -0.475;  -40.000;   24.000
435.554;  -76.700; -399.000; -240.000
435.677;  -94.150; -350.000; -258.000
435.801;  -58.750;  -25.000;   49.000
435.924;   -8.900;    1.000;  -67.000
436.048;  -97.050;-1019.000; -732.000
436.171;  -61.775; -240.000;  -66.000
436.294;  -37.375; -248.000; -229.000
436.417;   37.500; -963.000; -849.000
436.541;  -96.375; -814.000; -840.000
436.664;  -34.450; -242.000; -316.000
436.787;  -31.000;   13.000;  113.000
436.910; -111.350; -792.000; -422.000
437.034;   17.825;  142.000;  143.000
437.157;   97.275;  -11.000;    0.000
437.280;  -34.975; -392.000; -292.000
437.403;  -64.900; -982.000; -869.000
437.526;  906.225; -903.000; -865.000
437.649; 3110.775; -505.000; -332.000
437.772;  454.550; -692.000; -540.000
437.896;  138.250;  700.000;  544.000
438.019;  -90.550; -758.000; -503.000
438.142;  -78.700; -596.000; -506.000
438.265;   11.525; -639.000; -670.000
438.388;  713.250; -520.000; -410.000
438.511;  131.400; -597.000; -394.000
438.634;  -33.650; -247.000; -125.000
438.757; -136.375; -693.000; -619.000
438.880;  -24.925;  -34.000;  -57.000
439.003;  -89.750; -417.000; -437.000
439.126;  -68.150; -287.000; -167.000
439.248;  -59.975;  -98.000; -139.000
439.371;  -50.675;    9.000;  -53.000
439.494;   17.375;  510.000;  439.000
439.617;  -54.775;   65.000;  -88.000
439.740; -191.300; -968.000; -816.000
439.863; -143.475; -755.000; -595.000
439.986; -123.450; -476.000; -431.000
440.108;  -51.825; -161.000; -112.000
440.231; -161.125; -950.000; -836.000
440.354;  -45.850;  -64.000; -150.000
440.477;   49.875; -566.000; -542.000
440.599;   14.425; -200.000; -225.000
440.722; -133.100; -709.000; -586.000
440.845;   65.300;  751.000;  928.000
440.968; -113.050; -415.000; -311.000
441.090;  -71.550; -199.000;  -33.000
441.213; -168.725;-1021.000; -825.000
441.336;  -51.625; -159.000;   -5.000
441.458;  -74.150; -549.000; -396.000
441.581;  -83.025; -628.000; -629.000
441.703;  -68.575; -152.000;   13.000
441.826; -121.875; -557.000; -400.000
441.948;  -51.175;   56.000;   51.000
442.071;   37.575;  555.000;  424.000
442.193; -121.000; -531.000; -485.000
442.316;   24.800;  152.000;   97.000
442.438;   23.100; -233.000;  -10.000
442.561;   73.250;  272.000;  262.000
442.683;  767.850; -809.000; -522.000
442.806; 1514.325;   -8.000;   74.000
442.928;   61.825; -859.000; -604.000
443.051;  -60.550; -577.000; -373.000
443.173; -114.025; -341.000; -339.000
443.295;  -93.700; -263.000; -371.000
443.418;  -77.525; -321.000;  -29.000
443.540;  -21.025; -106.000;   -4.000
443.662; -122.550; -563.000; -465.000
443.785;  -15.950;  335.000;  199.000
443.907; -113.300; -362.000; -208.000
444.029; -138.625; -767.000; -494.000
444.152; -135.625; -644.000; -554.000
444.274;  -33.150;  -18.000;  -24.000
444.396; -107.075; -461.000; -221.000
444.518; -138.325; -691.000; -454.000
444.640; -122.475; -268.000; -111.000
444.763;  -26.450;  388.000;  249.000
444.885; -140.700; -432.000; -392.000
445.007;  -18.375;   35.000;   86.000
445.129; -129.700; -610.000; -515.000
445.251; -120.400; -372.000; -439.000
445.373; -140.225; -537.000; -386.000
445.495;    6.375;  242.000;  350.000
445.617;   57.800;  853.000;  753.000
445.739;  -74.750; -215.000;  -97.000
445.861;  -22.475; -245.000; -112.000
445.984;  -37.575; -267.000; -101.000
446.105;  249.100; -418.000; -251.000
446.227;  744.750; -176.000;  -19.000
446.349;   11.825; -358.000; -249.000
446.471;  -98.025; -615.000; -448.000
446.593;  -75.700; -316.000;   19.000
446.715;   10.725;  -67.000;   41.000
446.837;   59.750;  697.000;  832.000
446.959; -105.400; -457.000; -478.000
447.081; -144.425; -628.000; -518.000
447.203;   53.500;  862.000;  834.000
447.325;  -86.400; -270.000;   42.000
447.446;  -15.525;  286.000;  530.000
447.568; -166.000; -921.000; -803.000
447.690;  -76.300; -236.000; -245.000
447.812; -150.325; -798.000; -519.000
447.933;  -39.950;  155.000;  127.000
448.055;  -56.975; -306.000; -261.000
448.177;  193.725;   31.000;   79.000
448.299;  113.025; -935.000; -727.000
448.420;   17.575;  -25.000;  159.000
448.542;  -55.425;   -3.000;   33.000
448.664;  -31.725;  109.000;  322.000
448.785;  -36.825;  265.000;   83.000
448.907;  -69.825; -614.000; -353.000
449.028;  -38.475; -771.000; -471.000
449.150;   53.925;  492.000;  589.000
449.272; -196.625;-1044.000; -913.000
449.393;   31.350;  612.000;  694.000
449.515; -148.350; -634.000; -581.000
449.636;  -62.600; -264.000; -155.000
449.758;   80.075;  763.000;  622.000
449.879; -109.300; -498.000; -396.000
450.001;  -83.875; -149.000;  -49.000
450.122;  -43.450;  -95.000;  162.000
450.244;  -33.225;   37.000;  364.000
450.365; -116.000; -495.000; -301.000
450.486;  -41.525;   80.000;  268.000
450.608;    3.850;  393.000;  326.000
450.729;   58.400;  578.000;  645.000
450.850;  -40.000; -574.000; -466.000
450.972;  586.450; -552.000; -389.000
451.093; 4009.200;  190.000;  588.000
451.214; 1609.075; -516.000; -337.000
451.336;  293.050;  773.000;  579.000
451.457;   30.175;  264.000;  393.000
451.578;  -51.950; -118.000;  -74.000
451.699; -136.325; -546.000; -540.000
451.821;  -63.600; -284.000;  -50.000
451.942;   -8.025;  278.000;  285.000
452.063;    9.625;  228.000;  419.000
452.184;  462.050;  -54.000;  -49.000
452.305;  909.075;  103.000;  170.000
452.427;   62.950; -549.000; -301.000
452.548;  -22.950;   23.000;   79.000
452.669;  -47.800; -257.000;  -89.000
452.790;  -45.875;    3.000;  -18.000
452.911;   -0.400;  195.000;  259.000
453.032;  -61.875; -289.000;  -60.000
453.153;  -38.250;  -29.000;   81.000
453.274;   73.075;  737.000;  868.000
453.395;  -50.325;  -51.000;  175.000
453.516;  126.475; 1317.000; 1388.000
453.637;  -65.625; -205.000; -150.000
453.758;  -60.400;   15.000;   69.000
453.879; -119.150; -462.000; -250.000
454.000;   76.500; 1086.000;  948.000
454.121; -105.950; -554.000; -326.000
454.242; -113.725; -599.000; -383.000
454.362;  -65.450;  -99.000;  114.000
454.483;  -47.075; -309.000; -229.000
454.604;   52.300;  512.000;  580.000
454.725; -133.750; -627.000; -555.000
454.846; -123.325; -474.000; -406.000
454.967;  -25.150;  230.000;  539.000
455.087;  -50.550;  179.000;  153.000
455.208;    7.400;  554.000;  856.000
455.329;  -67.950;  -22.000;   82.000
455.450;   12.075;  473.000;  633.000
455.570;  -96.575; -234.000; -211.000
455.691;  -55.125;  201.000;  407.000
455.812; -121.300; -270.000;  -92.000
455.932;  -79.475;  107.000;  -97.000
456.053;  -85.025;   36.000;   24.000
456.173; -115.175; -433.000; -355.000
456.294; -125.225; -476.000; -303.000
456.415;  -76.975;  -73.000;   70.000
456.535;  -45.850;  297.000;  273.000
456.656;  -49.225;  132.000;  240.000
456.776;  -81.175;    3.000;  298.000
456.897;   -2.275;  308.000;  513.000
457.017;  -80.325; -153.000;   -3.000
457.138; -108.825; -402.000; -249.000
457.258;  -38.500;  263.000;  224.000
457.379;  -13.500;  509.000;  521.000
457.499;  -30.425;  443.000;  432.000
457.620; -138.950; -407.000; -231.000
457.740; -108.225; -132.000;  -11.000
457.860;  -56.075;   87.000;   44.000
457.981;  -38.975;  132.000;  124.000
458.101;  -81.875;  -89.000;   40.000
458.221;  -22.000;  336.000;  402.000
458.342;  -61.425;   -4.000;  -37.000
458.462;   11.550;  617.000;  352.000
458.582;  -50.650; -302.000; -294.000
458.703;  -18.525;  303.000;  154.000
458.823;  -27.175;   22.000;  163.000
458.943;   28.925;  341.000;  467.000
459.063;  -13.000; 1124.000;  192.000
459.183;  -35.900;  328.000;  313.000
459.304;    0.200;  315.000;  517.000
459.424;  -87.725; -246.000;  -89.000
459.544;  283.675;  388.000;  764.000
459.664;  700.075;  499.000;  506.000
459.784;  252.200; 1004.000; 1175.000
459.904;   41.300;  867.000;  744.000
460.024;   62.825;  867.000;  684.000
460.144;   11.725;  449.000;  554.000
460.264;  -25.200;  515.000;  327.000
460.385; -101.300; -145.000; -119.000
460.505;   44.450;  905.000;  858.000
460.625;  -98.050;  -17.000;  -68.000
460.745;  -27.950;  396.000;  541.000
460.864;  -51.150;  153.000;  469.000
460.984;    2.850;  499.000;  573.000
461.104;  146.900; 1656.000; 1775.000
461.224;   16.350;  657.000;  650.000
461.344;  -19.675;  431.000;  360.000
461.464;  -34.125;  258.000;  513.000
461.584;  -22.250;  283.000;  466.000
461.704;  -58.425;   58.000;  108.000
461.824;  -64.050;  238.000;  259.000
461.943;  -43.275;  191.000;  130.000
462.063;  -75.800;    2.000;  324.000
462.183;   32.075;  639.000;  717.000
462.303;   99.050; 1678.000; 1230.000
462.422;   30.425;  781.000;  840.000
462.542;  -46.200;  271.000;  391.000
462.662;   33.400;  353.000;  380.000
462.782;  227.400;  833.000;  572.000
462.901;  397.450;  545.000;  717.000
463.021;  248.050; 1702.000; 1638.000
463.141;  -17.925;  337.000;  770.000
463.260;  -31.075;  614.000;  474.000
463.380;    6.850;  902.000;  884.000
463.499;  -57.925;  342.000;  332.000
463.619;  -40.300;  581.000;  559.000
463.738;  106.325; 1644.000;  903.000
463.858;   15.650;  657.000;  811.000
463.978;  -40.150;  542.000;  396.000
464.097;   37.675;  921.000; 1114.000
464.217;  102.025; 1196.000; 1143.000
464.336;   93.950; 1068.000; 1130.000
464.455;  -33.300;  328.000;  659.000
464.575;   45.725;  597.000;  602.000
464.694;  187.400; 1204.000; 1179.000
464.814;  100.075; 1190.000; 1138.000
464.933;   61.950; 1095.000; 1027.000
465.052;   91.125; 1412.000; 1054.000
465.172;   71.400;  922.000;  799.000
465.291;  145.150; 1376.000; 1320.000
465.410;   -0.900;  462.000;  735.000
465.530;   83.350; 1355.000; 1310.000
465.649;   79.425; 1209.000; 1273.000
465.768;  146.575; 1673.000; 1508.000
465.888;   49.000;  941.000; 1174.000
466.007;   85.100; 1335.000; 1440.000
466.126;  -21.325;  721.000;  641.000
466.245;   50.225; 1176.000; 1187.000
466.364;   16.000;  950.000; 1060.000
466.484;   63.125; 1024.000; 1213.000
466.603;   33.175; 1101.000; 1222.000
466.722;  108.400; 1490.000; 1769.000
466.841;   72.350; 1151.000; 1401.000
466.960;   47.250; 1069.000;  972.000
467.079;  130.500; 1971.000; 1786.000
467.198;   50.000; 1238.000; 1181.000
467.317;   81.925; 1768.000; 1162.000
467.436;   73.625; 1709.000; 1261.000
467.555;  123.550; 1796.000; 1746.000
467.674;   69.625; 1227.000; 1329.000
467.793;   31.250; 1376.000; 1374.000
467.912;   81.150; 1658.000; 1539.000
468.031;  127.800; 2038.000; 1930.000
468.150;  144.650; 1842.000; 1837.000
468.269;  171.800; 2313.000; 2090.000
468.388;  186.975; 2168.000; 2339.000
468.507;  249.175; 2884.000; 2903.000
468.626;  262.225; 2555.000; 2541.000
468.744;  133.775; 2018.000; 2174.000
468.863;  203.875; 2312.000; 2523.000
468.982;   92.125; 1503.000; 1555.000
469.101;  233.500; 2788.000; 2692.000
469.220;  160.225; 2333.000; 2176.000
469.338;  233.150; 2935.000; 3051.000
469.457;  203.650; 2719.000; 2545.000
469.576;  355.225; 3953.000; 3784.000
469.695;  223.425; 2877.000; 3066.000
469.813;  412.850; 4148.000; 4192.000
469.932;  405.900; 4255.000; 4485.000
470.051;  410.175; 4075.000; 4161.000
470.169;  766.725; 4470.000; 4338.000
470.288; 1303.900; 4700.000; 4809.000
470.406;  803.300; 5059.000; 5194.000
470.525;  610.900; 6101.000; 5787.000
470.644;  663.400; 6847.000; 6794.000
470.762;  811.500; 8397.000; 7873.000
470.881;  910.825; 8651.000; 8464.000
470.999; 1047.825; 9685.000; 9151.000
471.118; 1107.650;11174.000;10711.000

