
Integration time [ms]: 100.000
Averaging Nr. [scans]: 40
Smoothing Nr. [pixels]: 0
Data measured with spectrometer [name]: 2101012U2
Wave   ;Sample   ;Dark     ;Reference
[nm]   ;[counts] ;[counts] ;[counts] 

197.733;   53.000;  516.000;  404.000
197.879;  -72.325; -610.000; -634.000
198.025;  -60.950; -475.000; -420.000
198.171;  -62.325; -602.000; -612.000
198.317;  -39.900; -401.000; -316.000
198.463;  -52.850; -655.000; -404.000
198.609;   17.775;  181.000; -137.000
198.755;  -69.800; -644.000; -410.000
198.901;  -64.250; -505.000; -424.000
199.047;  -49.350; -615.000; -488.000
199.193;  -38.025; -230.000; -468.000
199.339;  -31.150; -222.000; -369.000
199.485;   24.775;  330.000;  271.000
199.631;   20.475;  227.000;  310.000
199.777;  -53.525; -466.000; -398.000
199.923;  -52.925; -610.000; -424.000
200.069;  -12.275; -141.000;  -58.000
200.215;   61.450;  128.000;  453.000
200.361;   43.825;  243.000;  477.000
200.507;  -50.500; -600.000; -373.000
200.653;  -26.000; -371.000; -194.000
200.798;  -29.500; -215.000; -125.000
200.944;    2.900; -146.000;  -41.000
201.090;   39.075;   61.000;  222.000
201.236;   -2.525; -116.000; -158.000
201.382;  131.275;  874.000;  903.000
201.528;   -1.675;  -58.000;  -48.000
201.674;  -51.800; -386.000; -293.000
201.819;  -65.150; -540.000; -439.000
201.965;  -81.550; -699.000; -447.000
202.111;  -41.800; -273.000; -226.000
202.257;  -31.775; -250.000; -238.000
202.402;   -2.675;   13.000;  -36.000
202.548;  -15.750; -169.000; -116.000
202.694;   72.875;  410.000; -183.000
202.840;  -66.400; -603.000; -531.000
202.985;  -68.975; -681.000; -639.000
203.131;  -92.600; -832.000; -666.000
203.277;  -34.750; -199.000; -262.000
203.423;  -37.475; -434.000; -520.000
203.568;  -43.050; -462.000; -237.000
203.714;  -57.925; -535.000; -542.000
203.860;  -80.850; -682.000; -641.000
204.005;   22.125;  112.000;  167.000
204.151;   72.000;  561.000;  556.000
204.296;  -39.425; -354.000; -221.000
204.442;  -69.525; -600.000; -547.000
204.588;  -78.025; -592.000; -579.000
204.733;   16.850;  178.000;  168.000
204.879; -109.425;-1018.000; -822.000
205.025;   -1.325;  -99.000;  126.000
205.170;   11.125;  -17.000;   94.000
205.316;   71.100;  438.000;  661.000
205.461;  -65.875; -698.000; -554.000
205.607;   72.475;  609.000;  665.000
205.752;  -64.700; -626.000; -551.000
205.898;  -55.650; -501.000; -391.000
206.043;  -34.025; -578.000; -506.000
206.189;  -52.275; -243.000; -285.000
206.334;   84.025;  554.000;  606.000
206.480;   78.800;  409.000;  239.000
206.625;  -69.550; -529.000; -552.000
206.771;  -48.200; -451.000; -373.000
206.916;  -30.975; -210.000; -537.000
207.062;  -76.325; -545.000; -591.000
207.207;  -46.025; -546.000; -443.000
207.353;   43.325;  185.000;  460.000
207.498;   34.025;  196.000;   85.000
207.643;  -55.800; -501.000; -370.000
207.789; -123.175;-1069.000; -910.000
207.934; -105.825; -665.000; -713.000
208.080;  -26.000; -154.000;   66.000
208.225;   -9.750;  -22.000;  -57.000
208.370;  -80.875; -727.000; -619.000
208.516;  -77.275; -741.000; -487.000
208.661;   -9.850; -127.000;  -69.000
208.806;  -18.600; -165.000; -171.000
208.952;  -96.550;-1044.000; -731.000
209.097;   65.175;  378.000;  349.000
209.242;  -29.350; -307.000; -382.000
209.387;   49.025;  392.000;  350.000
209.533;  -50.775; -321.000; -350.000
209.678;   77.975;  472.000;  543.000
209.823;  -59.375; -408.000; -310.000
209.969;  -99.575; -860.000; -757.000
210.114;  -98.925; -907.000; -719.000
210.259; -116.725; -939.000; -889.000
210.404;    9.075; -171.000;  103.000
210.549;   10.050;  108.000;    3.000
210.695;   -7.600;   -3.000;  -95.000
210.840;   32.275;   94.000;   67.000
210.985;  -56.650; -484.000; -303.000
211.130;   60.000;  268.000;  406.000
211.275;   25.950;  207.000;  199.000
211.420;  -59.775; -300.000; -289.000
211.566;  -56.900; -536.000; -489.000
211.711;   17.275;  218.000;  157.000
211.856;  -50.300; -545.000; -519.000
212.001;    4.025;  151.000;   44.000
212.146;   30.925;  153.000;   49.000
212.291;  -29.575; -210.000; -186.000
212.436;  -25.500; -280.000;   -6.000
212.581;  -82.475; -685.000; -653.000
212.726;  -66.950; -487.000; -538.000
212.871;  -44.975; -552.000; -217.000
213.016; -131.700;-1172.000;-1029.000
213.161;   61.550;  406.000;  291.000
213.306;  -60.500; -435.000; -577.000
213.451;  -96.550; -778.000; -689.000
213.596;  -38.150; -455.000; -347.000
213.741;  -56.425; -448.000; -538.000
213.886;  -69.475; -498.000; -517.000
214.031;  -22.200; -294.000; -124.000
214.176;  -56.150; -408.000; -341.000
214.321;  -33.700; -296.000; -157.000
214.466;  -12.775; -163.000;  -43.000
214.611;   -5.925;  -61.000;  -10.000
214.756; -106.500; -948.000; -858.000
214.901;  -27.225; -388.000; -226.000
215.046; -115.825; -797.000; -825.000
215.191;   15.775;  128.000;   35.000
215.336;  -11.250; -157.000;  -19.000
215.480;  -70.525; -684.000; -505.000
215.625;   -6.675; -175.000;  -19.000
215.770;  -88.150; -757.000; -662.000
215.915;    8.575;   -5.000;  -97.000
216.060;  -21.775; -113.000;  -21.000
216.205; -105.825; -731.000; -779.000
216.349;  -88.200; -470.000; -533.000
216.494; -111.225; -939.000; -867.000
216.639; -121.600; -823.000; -888.000
216.784;  -74.850; -577.000; -525.000
216.929;   42.225;  392.000;  281.000
217.073;    0.075; -244.000;  -31.000
217.218;   -7.500;   78.000;  -47.000
217.363;  -71.525; -656.000; -618.000
217.507;  -85.125; -623.000; -588.000
217.652; -118.025; -845.000; -874.000
217.797;  -89.925; -708.000; -659.000
217.942; -102.650; -856.000; -720.000
218.086;   82.450;  608.000;  539.000
218.231;   -7.000; -174.000;  -26.000
218.376;  -33.775; -337.000; -229.000
218.520;    7.225;  -41.000;   96.000
218.665;  -38.350; -338.000; -204.000
218.810;  -36.650; -275.000; -233.000
218.954;    9.800;  201.000;   35.000
219.099; -100.000; -713.000; -963.000
219.243;  -79.100; -589.000; -554.000
219.388;  -19.325; -264.000; -136.000
219.532;   -8.125; -116.000; -116.000
219.677;  -67.250; -564.000; -521.000
219.822;   -1.125;   33.000;   89.000
219.966;   20.250;   17.000;  -99.000
220.111;  -33.000; -328.000;  -40.000
220.255; -103.525; -797.000; -750.000
220.400;  -12.400; -180.000; -146.000
220.544;  -62.050; -516.000; -450.000
220.689;  -66.650; -422.000; -451.000
220.833;  -13.875; -123.000;  -58.000
220.978;  -45.050; -393.000; -563.000
221.122;   29.425;  319.000;  307.000
221.267; -116.225; -906.000; -837.000
221.411;  -55.725; -478.000; -394.000
221.555;  -15.275; -104.000;  -23.000
221.700;  -31.625; -329.000; -222.000
221.844;   26.250;  255.000;  272.000
221.989;  -35.175; -328.000; -311.000
222.133;  -39.525; -289.000; -307.000
222.277;    8.050;    5.000;   78.000
222.422;    4.500;  227.000;  113.000
222.566;  -35.975; -381.000; -214.000
222.711;  -55.625; -414.000; -479.000
222.855;  -77.600; -643.000; -586.000
222.999;  -94.600; -642.000; -717.000
223.144;  -22.625; -195.000; -194.000
223.288;   49.550;  423.000;  251.000
223.432;   36.600;  184.000;  230.000
223.576;    9.350;  152.000;  -21.000
223.721;   40.950;  364.000;  273.000
223.865;  -57.575; -472.000; -475.000
224.009;  253.975; 1673.000; 1631.000
224.153;  -90.950; -660.000; -671.000
224.298;  -73.675; -531.000; -489.000
224.442;  -15.500;  -74.000;  -33.000
224.586;   -0.575; -169.000; -106.000
224.730; -118.300; -858.000; -670.000
224.875; -103.300; -739.000; -688.000
225.019;    6.825;  102.000;  188.000
225.163;   61.200;  208.000;  341.000
225.307;   20.300;   97.000;  -91.000
225.451;   32.600;  360.000;  481.000
225.595;   20.225;  264.000;  176.000
225.739;  -10.150; -170.000;  -94.000
225.884;    3.825;   86.000;    5.000
226.028;  -86.100; -760.000; -626.000
226.172;  -44.625; -260.000; -273.000
226.316; -102.800; -941.000; -902.000
226.460;  -75.300; -645.000; -493.000
226.604;  -51.050; -406.000; -400.000
226.748; -107.175; -836.000; -733.000
226.892;  -34.000; -227.000; -181.000
227.036;  -38.075; -537.000; -447.000
227.180;  -58.075; -551.000; -375.000
227.324;  -77.300; -561.000; -580.000
227.468; -104.800; -819.000; -717.000
227.612;   -4.525;  242.000;  -28.000
227.756; -102.225; -845.000; -698.000
227.900;   55.025;  342.000;  441.000
228.044;  -48.850; -509.000; -290.000
228.188;   36.650;  448.000;  568.000
228.332;  -81.500; -546.000; -472.000
228.476;  -42.500; -223.000; -149.000
228.620;  -22.125; -210.000; -150.000
228.764;   61.275;  431.000;  349.000
228.908;   -5.800; -155.000;   30.000
229.052;  -67.675; -615.000; -528.000
229.195;  -16.425; -172.000;   13.000
229.339;  -32.625; -235.000; -305.000
229.483;  -27.725;    5.000; -162.000
229.627;  -15.200; -156.000;  139.000
229.771;  -37.875; -218.000; -294.000
229.915;    8.975;  230.000;   79.000
230.059;  -89.100; -648.000; -663.000
230.202;  -52.475; -370.000; -317.000
230.346;   -8.850; -107.000;  107.000
230.490;  -76.200; -489.000; -521.000
230.634; -101.025; -736.000; -553.000
230.777;   71.300;  478.000;  509.000
230.921;  -50.075; -450.000; -359.000
231.065;  -47.825; -246.000; -286.000
231.209;   29.225;  261.000;  265.000
231.352;   19.975;   54.000;   40.000
231.496;   25.825;  568.000;  188.000
231.640;  -72.950; -693.000; -621.000
231.783;   61.825;  546.000;  525.000
231.927;  -42.125; -294.000; -365.000
232.071; -104.000; -962.000; -736.000
232.214; -108.000; -980.000; -764.000
232.358; -104.700; -683.000; -599.000
232.502;   -5.225;  -19.000;    7.000
232.645; -133.700;-1090.000; -927.000
232.789;  -23.925; -257.000; -218.000
232.933;  -36.300; -407.000; -224.000
233.076; -116.700;-1038.000; -897.000
233.220; -105.550; -752.000; -777.000
233.363;  -80.050; -669.000; -477.000
233.507;   58.925;  371.000;  129.000
233.650; -103.700; -764.000; -834.000
233.794;   59.050;  438.000;  461.000
233.938;  -75.750; -530.000; -362.000
234.081;   -1.325;  -93.000;   31.000
234.225;  -73.100; -631.000; -539.000
234.368; -105.025; -773.000; -723.000
234.512;  -35.550; -385.000; -299.000
234.655;  -71.350; -582.000; -555.000
234.798;  -68.475; -493.000; -466.000
234.942; -115.100; -884.000;-1002.000
235.085;  -73.850; -651.000; -443.000
235.229;  -61.800; -405.000; -410.000
235.372;  -53.275; -247.000; -191.000
235.516;  -52.825; -397.000; -321.000
235.659;   10.475;   92.000;  121.000
235.802;  -14.600;  -38.000;  -22.000
235.946;   19.575;  335.000;  215.000
236.089;   36.425;  126.000;  250.000
236.233;   33.600;  275.000;  298.000
236.376;  -28.175; -235.000; -378.000
236.519;  -57.500; -297.000; -319.000
236.663;  -27.775; -215.000; -117.000
236.806; -145.850;-1029.000; -999.000
236.949;   56.700;  543.000;  431.000
237.092;   58.375;  412.000;  391.000
237.236;  -78.225; -589.000; -502.000
237.379;   63.200;  352.000;  428.000
237.522; -112.875; -879.000; -768.000
237.666;  -21.975; -271.000;   18.000
237.809; -100.650; -851.000; -823.000
237.952;   20.100;  469.000;  271.000
238.095;  -59.900; -447.000; -442.000
238.238;   84.750;  688.000;  700.000
238.382;    3.525;  166.000;  103.000
238.525;  -76.725; -598.000; -511.000
238.668; -135.025;-1060.000; -985.000
238.811;  -84.225; -638.000; -643.000
238.954;  -58.975; -483.000; -334.000
239.097;   82.850;  617.000;  664.000
239.241;   29.250;  394.000;  326.000
239.384;  -33.650; -254.000; -214.000
239.527;  -44.100; -424.000; -224.000
239.670; -131.975; -994.000;-1091.000
239.813;  -95.225; -696.000; -658.000
239.956;   76.975;  579.000;  473.000
240.099;  -94.550; -778.000; -725.000
240.242;   59.250;  428.000;  432.000
240.385;   40.825;  466.000;  450.000
240.528;  -84.100; -706.000; -473.000
240.671;   11.100;  189.000;  134.000
240.814;  -48.850; -441.000; -158.000
240.957;  -87.200; -767.000; -578.000
241.100; -100.275; -779.000; -755.000
241.243; -127.975;-1234.000; -893.000
241.386;  -63.900; -508.000; -379.000
241.529;  -82.375; -735.000; -547.000
241.672;  -69.575; -566.000; -495.000
241.815; -103.275; -832.000; -808.000
241.958;  -37.000; -125.000; -182.000
242.101;  -67.050; -545.000; -390.000
242.244;  -69.225; -270.000; -325.000
242.387;  -44.125; -304.000; -246.000
242.530;   53.025;  470.000;  134.000
242.673;  -40.550; -381.000; -309.000
242.815; -120.375; -925.000; -899.000
242.958;  -56.825; -482.000; -381.000
243.101;    5.125;  132.000;  187.000
243.244;  -71.875; -564.000; -521.000
243.387;  -61.175; -313.000; -316.000
243.530;  -78.450; -657.000; -674.000
243.672;  -11.350;   43.000;  -92.000
243.815;  -46.650; -355.000; -283.000
243.958;  -13.075;   98.000;  -26.000
244.101;    1.350;   59.000;  -16.000
244.243;  -17.825;  -47.000;  101.000
244.386; -115.025; -761.000; -630.000
244.529;  -24.900; -132.000; -139.000
244.672; -152.100;-1154.000; -951.000
244.814;  -97.250; -621.000; -794.000
244.957;  -46.175; -380.000; -304.000
245.100;  -71.225; -489.000; -489.000
245.242;  -53.425; -387.000; -374.000
245.385;   -3.900;  -59.000;  -39.000
245.528; -120.025; -871.000; -705.000
245.670;   82.075;  612.000;  634.000
245.813;  -81.025; -599.000; -547.000
245.956;  -40.000; -324.000; -275.000
246.098;  -70.100; -508.000; -650.000
246.241;   -2.825;  194.000;   48.000
246.383;  -18.850; -119.000;  -73.000
246.526;  -70.300; -454.000; -525.000
246.669; -107.625; -889.000; -780.000
246.811;    1.225;  172.000;   -1.000
246.954;  -55.475; -512.000; -426.000
247.096;  -32.225;  -84.000;   -6.000
247.239;  -64.250; -482.000; -445.000
247.381;  -65.625; -647.000; -488.000
247.524;   89.300;  645.000;  679.000
247.666;  -16.850;   58.000;   11.000
247.809; -105.975; -887.000; -691.000
247.951;  -13.125;  -75.000;  138.000
248.094;   33.675;  432.000;  308.000
248.236; -154.525;-1262.000;-1238.000
248.378;   24.675; -356.000;  -81.000
248.521;  -43.075; -334.000; -337.000
248.663;  -26.050; -236.000; -267.000
248.806;  -18.700; -300.000; -266.000
248.948;  -77.525; -886.000; -763.000
249.090;  -50.875; -428.000; -398.000
249.233;  -51.925; -344.000; -381.000
249.375;  -64.200; -474.000; -451.000
249.518;   -6.350;  -83.000; -133.000
249.660;    2.250; -103.000;    3.000
249.802; -155.300;-1303.000;-1189.000
249.945;  -71.575; -612.000; -540.000
250.087; -114.425; -834.000; -768.000
250.229;  -63.200; -362.000; -480.000
250.371;  -67.025; -494.000; -439.000
250.514;  -51.750; -310.000; -244.000
250.656;    4.875;   69.000;  102.000
250.798; -137.000; -849.000; -800.000
250.940;  -47.500; -322.000; -322.000
251.083;  -43.025; -335.000; -111.000
251.225;   61.125;  338.000;  310.000
251.367;  -28.900; -274.000; -373.000
251.509;  -32.200; -265.000; -210.000
251.651;  -90.500; -731.000; -671.000
251.794;   53.475;  538.000;  632.000
251.936; -115.725; -821.000; -747.000
252.078;  -66.400; -540.000; -461.000
252.220;  -67.575; -645.000; -477.000
252.362;   89.925;  344.000;  462.000
252.504;  -71.225; -677.000; -584.000
252.646; -108.675; -875.000; -722.000
252.788;   -0.475;   14.000; -128.000
252.931;  -22.950; -257.000; -253.000
253.073;  -52.325; -376.000; -317.000
253.215;  -18.025;  141.000;  122.000
253.357;  -35.400;   82.000; -153.000
253.499;  -58.600; -374.000; -234.000
253.641;  -90.325; -749.000; -594.000
253.783;  -81.425; -609.000; -527.000
253.925;  -88.575; -586.000; -591.000
254.067;  -95.600; -744.000; -667.000
254.209;  -33.000; -391.000; -259.000
254.351; -123.575; -865.000; -883.000
254.493;  -67.250; -441.000; -417.000
254.635; -107.425; -936.000; -818.000
254.777;  -95.225; -752.000; -687.000
254.918;  -72.275; -512.000; -430.000
255.060;  -48.975; -551.000; -395.000
255.202;  -50.800; -473.000; -261.000
255.344;  -75.550; -658.000; -455.000
255.486;  -59.700; -471.000; -406.000
255.628; -113.825; -780.000; -781.000
255.770;  -86.100; -676.000; -536.000
255.912;  -67.150; -559.000; -468.000
256.053;  -68.575; -730.000; -508.000
256.195;  131.700; 1008.000;  903.000
256.337;  -96.750; -861.000; -595.000
256.479;   53.100;  532.000;  416.000
256.621;  -45.825; -394.000; -212.000
256.762;  -98.150; -789.000; -742.000
256.904;   45.175;  485.000;  487.000
257.046;  -41.525; -381.000; -271.000
257.188;  -42.975; -351.000; -264.000
257.329;  -80.425; -525.000; -464.000
257.471; -107.800; -939.000; -807.000
257.613;  -55.000; -584.000; -498.000
257.755; -138.125;-1073.000; -982.000
257.896;   35.550;  286.000;  392.000
258.038;  -54.475; -403.000; -352.000
258.180;  -48.100; -354.000; -279.000
258.321;  -79.125; -581.000; -457.000
258.463;  -21.525;  -71.000;  133.000
258.605;  -86.575; -562.000; -570.000
258.746; -109.275; -886.000; -772.000
258.888; -134.600;-1026.000;-1020.000
259.029;   14.900;  121.000;   -8.000
259.171;  -74.150; -614.000; -550.000
259.313;  -13.950;  -49.000;  -47.000
259.454;  -72.400; -536.000; -414.000
259.596;  -58.925; -483.000; -390.000
259.737;  -68.775; -590.000; -474.000
259.879;   24.850;  217.000;  311.000
260.020;   82.775;  901.000;  636.000
260.162;  -33.800; -146.000; -253.000
260.303;  -98.475; -768.000; -687.000
260.445;  -73.850; -609.000; -613.000
260.586;   26.025;  392.000;  157.000
260.728;  -40.775; -360.000; -248.000
260.869; -111.100; -350.000; -343.000
261.011;   71.800;  706.000;  537.000
261.152;  -66.575; -479.000; -319.000
261.293;  -78.175; -576.000; -595.000
261.435;  -28.425; -219.000; -184.000
261.576;  -43.600; -455.000; -325.000
261.718;   56.375;  420.000;  470.000
261.859; -118.300; -940.000; -949.000
262.000; -121.975; -951.000;-1016.000
262.142;  -34.825;  -52.000;  -60.000
262.283; -104.675; -808.000; -691.000
262.424; -100.400; -666.000; -625.000
262.566; -134.350;-1161.000; -983.000
262.707; -118.025; -840.000; -830.000
262.848; -115.975; -769.000; -726.000
262.990;  -52.900; -362.000; -345.000
263.131;   82.500;  650.000;  681.000
263.272;  -11.375;  -61.000;  -41.000
263.413;  -94.375; -589.000; -561.000
263.555;  -70.175; -669.000; -143.000
263.696;  -74.775; -550.000; -641.000
263.837;  -51.350; -449.000; -551.000
263.978;    3.350;   -5.000;  -77.000
264.119;  -60.425; -283.000; -264.000
264.261; -101.750; -847.000; -630.000
264.402;  -12.625;   33.000;   40.000
264.543;  -62.575; -509.000; -524.000
264.684;  -16.975;   61.000;  -50.000
264.825;  -60.100; -816.000; -538.000
264.966;  -28.525;  -84.000;  -67.000
265.107; -102.675; -646.000; -670.000
265.248; -115.500; -825.000; -812.000
265.390;   15.375;  152.000;   -9.000
265.531;  -27.875; -238.000; -107.000
265.672;  -81.975; -557.000; -630.000
265.813;   51.950;  563.000;  439.000
265.954; -126.725; -959.000; -940.000
266.095;  -31.400; -372.000; -322.000
266.236;  -91.325; -686.000; -548.000
266.377;  -41.550; -243.000; -297.000
266.518;  -58.075; -619.000; -547.000
266.659;   14.775;  170.000;  268.000
266.800;    4.850;   83.000;   85.000
266.941;  -76.075; -487.000; -478.000
267.082;   24.525;  354.000;   99.000
267.223;  -46.800; -344.000; -273.000
267.364; -108.850; -892.000; -686.000
267.504;  -23.275;    3.000;  135.000
267.645;    2.550;  160.000;   67.000
267.786;  -26.625; -147.000;  -86.000
267.927;  -63.025; -473.000; -379.000
268.068;  -18.400; -186.000;  -61.000
268.209;  -37.450; -175.000; -413.000
268.350;  -59.500; -388.000; -532.000
268.490;  -82.800; -648.000; -521.000
268.631;   26.300;  127.000;  225.000
268.772; -105.775; -874.000; -647.000
268.913;  -54.125; -328.000; -476.000
269.054;   -2.800; -117.000;   12.000
269.194;  -53.975; -418.000; -402.000
269.335; -140.875;-1137.000;-1074.000
269.476;  -22.375;   33.000;  -35.000
269.617;  -26.225; -347.000; -392.000
269.757; -105.250; -713.000; -646.000
269.898;  -79.350; -856.000; -613.000
270.039;  -49.250; -415.000; -405.000
270.180; -133.050; -952.000; -816.000
270.320;  -28.450; -190.000; -250.000
270.461;  -31.525; -277.000; -249.000
270.602;  -17.300; -186.000; -156.000
270.742; -112.200; -868.000; -943.000
270.883;  -49.475; -442.000; -390.000
271.023;  -49.600; -358.000; -357.000
271.164;  -72.100; -607.000; -528.000
271.305;  -86.725; -666.000; -654.000
271.445;  -92.875; -722.000; -683.000
271.586;  -60.100; -462.000; -283.000
271.726;  -59.450; -397.000; -322.000
271.867;  -25.225; -594.000; -534.000
272.008;  207.275; -473.000; -285.000
272.148;  148.450;  462.000;  468.000
272.289;    1.650; -113.000; -181.000
272.429;   30.900;   19.000;  185.000
272.570; -106.325; -633.000; -737.000
272.710;  -81.700; -825.000; -775.000
272.851;  -33.175;  113.000; -130.000
272.991; -155.725;-1173.000;-1077.000
273.131;  -77.825; -419.000; -459.000
273.272;  -87.350; -683.000; -723.000
273.412;   25.900; -143.000;  -31.000
273.553;  -41.925; -488.000; -507.000
273.693;  132.500;  913.000;  858.000
273.834;  -64.650; -894.000; -692.000
273.974;  -70.200; -664.000; -615.000
274.114;  -79.250; -772.000; -560.000
274.255;   77.550;  414.000;  373.000
274.395;   22.400; -180.000; -125.000
274.535;   41.425;  199.000;  350.000
274.676;   25.250;  225.000;   94.000
274.816;   -5.025;  110.000;   34.000
274.956;  -66.800; -624.000; -690.000
275.097;  -55.275;-1014.000; -922.000
275.237;  -88.900; -913.000; -803.000
275.377;  -96.625; -778.000; -689.000
275.517; -114.025; -878.000; -937.000
275.658;  -57.375; -590.000; -555.000
275.798;  -51.300; -606.000; -413.000
275.938;   10.625;  215.000;  323.000
276.078;  -90.600; -626.000; -395.000
276.218;    7.125;   99.000;  104.000
276.359; -110.775;-1026.000;-1024.000
276.499;  -62.575; -605.000; -446.000
276.639;  -31.650; -305.000; -151.000
276.779;  -40.950; -475.000; -357.000
276.919; -102.000; -783.000; -624.000
277.059;  -22.625; -261.000; -212.000
277.199;  -37.450; -357.000; -259.000
277.340;   35.600;  287.000;  175.000
277.480;  -96.150; -840.000; -693.000
277.620;   17.625;  192.000;   16.000
277.760; -172.500;-1533.000;-1294.000
277.900;   19.175;  113.000;   33.000
278.040;   33.925;  137.000;  159.000
278.180;   29.525;  270.000;  170.000
278.320;   -3.075;   21.000;   56.000
278.460;  -65.825; -443.000; -469.000
278.600;  -67.850; -708.000; -598.000
278.740;   51.375;  448.000;  224.000
278.880;  -13.775; -768.000; -791.000
279.020;   -3.750; -194.000; -144.000
279.160;  -72.875; -672.000; -595.000
279.300; -121.425; -926.000; -873.000
279.440;  -79.600; -709.000; -622.000
279.579;   -1.575;-1014.000; -929.000
279.719;  -43.225; -410.000; -394.000
279.859;   92.025;   -4.000;   41.000
279.999;   40.375; -208.000;  101.000
280.139;  -16.825; -435.000; -387.000
280.279;  -69.950; -708.000; -745.000
280.419;  -23.300; -229.000; -147.000
280.559;  -17.175; -259.000; -180.000
280.698;  -67.125; -790.000; -639.000
280.838;  -76.100; -778.000; -800.000
280.978; -100.025; -846.000; -790.000
281.118; -114.800; -811.000; -704.000
281.257;   16.275;   24.000;    6.000
281.397;  -81.550;-1094.000; -960.000
281.537;  -99.600; -599.000; -712.000
281.677;  -16.275; -150.000; -101.000
281.816; -101.900; -700.000; -630.000
281.956;   -6.000; -193.000; -257.000
282.096;  -71.850; -539.000; -396.000
282.235; -109.700; -672.000; -638.000
282.375;  -27.250; -243.000;  -98.000
282.515;  -81.750; -715.000; -707.000
282.654;   21.700;   29.000;  106.000
282.794;   29.600;  388.000;  244.000
282.934;  -67.025; -530.000; -491.000
283.073; -114.950;-1030.000; -857.000
283.213;  -63.350; -460.000; -467.000
283.353;  -19.025; -408.000; -349.000
283.492;  -22.425; -264.000; -296.000
283.632;  -33.450; -254.000; -168.000
283.771;  -98.875; -859.000; -730.000
283.911;  -33.550; -369.000; -260.000
284.050; -108.000; -794.000; -748.000
284.190; -134.275;-1229.000;-1096.000
284.329; -130.975;-1055.000; -964.000
284.469;  -38.025; -516.000; -591.000
284.608;  -56.900; -559.000; -598.000
284.748;  -73.600; -614.000; -570.000
284.887;  -10.600;  -87.000;  -20.000
285.027; -115.150; -844.000; -892.000
285.166;  -44.875; -192.000; -249.000
285.306;   19.700; -116.000;  -33.000
285.445;  -49.150; -229.000; -343.000
285.584;  -80.350; -630.000; -494.000
285.724;  -36.200; -282.000; -322.000
285.863;  -96.700; -857.000; -507.000
286.002;  -46.325; -366.000; -276.000
286.142; -100.000; -715.000; -622.000
286.281;  -76.350; -525.000; -493.000
286.420;  -62.150; -554.000; -417.000
286.560;   83.525;  653.000;  623.000
286.699; -130.000; -958.000; -912.000
286.838;  -85.350; -590.000; -591.000
286.978;  -72.875; -533.000; -537.000
287.117; -130.800;-1085.000; -950.000
287.256;  -23.150; -228.000; -211.000
287.395;  -65.975; -197.000; -378.000
287.535;  -46.725; -370.000; -298.000
287.674;  -80.175; -509.000; -484.000
287.813;   66.025;  661.000;  533.000
287.952; -134.475;-1010.000; -871.000
288.091; -126.300;-1049.000; -915.000
288.231;    8.325;   13.000;   15.000
288.370; -158.100;-1217.000;-1200.000
288.509;  -95.350; -728.000; -645.000
288.648;  -84.125; -770.000; -548.000
288.787;  -36.400; -243.000;  -87.000
288.926;  -60.350; -454.000; -475.000
289.065;  120.275;  859.000;  672.000
289.204;  -36.050; -377.000; -217.000
289.344;  -95.100; -791.000; -690.000
289.483;   24.725;  416.000;  304.000
289.622;  -37.375; -291.000; -149.000
289.761;    2.050; -309.000; -166.000
289.900; -107.200; -785.000; -626.000
290.039;  -11.050;  -12.000;  -95.000
290.178;  -46.600; -274.000; -180.000
290.317;  -56.250; -618.000; -479.000
290.456;  -71.100; -463.000; -451.000
290.595; -108.425; -961.000; -833.000
290.734; -136.975; -904.000; -891.000
290.873;  -56.100; -456.000; -420.000
291.011; -106.600; -833.000; -843.000
291.150;  -85.125; -770.000; -682.000
291.289;  -17.600; -343.000; -110.000
291.428;  -83.775; -599.000; -480.000
291.567;  -61.450; -370.000; -442.000
291.706;   21.950;  109.000;  154.000
291.845;  -93.150; -597.000; -505.000
291.984; -153.600;-1234.000;-1061.000
292.122;   67.550;  602.000;  582.000
292.261;   47.150;  620.000;  463.000
292.400;    1.900; -144.000;  211.000
292.539; -117.400; -959.000; -813.000
292.678;  -41.125; -325.000; -300.000
292.816; -142.400;-1136.000; -965.000
292.955;  -76.525; -844.000; -684.000
293.094;  -10.525; -173.000; -337.000
293.233;  -61.200; -556.000; -400.000
293.371;  -20.850; -225.000;  -84.000
293.510; -103.400; -866.000; -780.000
293.649;  -99.775; -959.000; -924.000
293.787;  -31.375;-1083.000;-1012.000
293.926;   10.100; -113.000;  -32.000
294.065;  -37.475; -379.000; -290.000
294.203;   53.000;  298.000;  406.000
294.342;   24.300;   74.000;  156.000
294.481; 5396.825;51180.000; -836.000
294.619;  -25.225; -425.000; -582.000
294.758; -130.300;-1230.000;-1137.000
294.896;   86.175; -125.000;    5.000
295.035;  -97.950;-1040.000;-1006.000
295.174; -116.950;-1082.000; -954.000
295.312;  -23.500; -323.000; -203.000
295.451;    2.200; -307.000; -428.000
295.589;  -35.800; -389.000; -518.000
295.728;   12.275; -292.000; -165.000
295.866;   21.150;  -36.000;  -51.000
296.005;  -62.225; -584.000; -341.000
296.143;  -49.400; -558.000; -596.000
296.282; -110.300; -957.000; -881.000
296.420;  -79.775; -657.000; -557.000
296.559;  -73.525; -892.000; -633.000
296.697;   75.825; -847.000; -665.000
296.835;  122.375;-1141.000;-1002.000
296.974;   53.500;  -23.000;   39.000
297.112;   29.050; -443.000; -504.000
297.251;  -61.575; -815.000; -755.000
297.389;  114.950; -576.000; -438.000
297.527;   62.950; -145.000;  -83.000
297.666;  -45.375; -486.000; -438.000
297.804;  -39.750; -404.000; -264.000
297.942;   -7.150; -136.000; -161.000
298.081;   17.325; -183.000;   63.000
298.219;   85.850;  -17.000;  -19.000
298.357;   79.575; -144.000;  -71.000
298.495;   83.900; -810.000; -812.000
298.634;  114.700;  245.000;  219.000
298.772;   96.325; -220.000; -338.000
298.910;  -21.200; -309.000; -182.000
299.048;  -15.875; -130.000; -153.000
299.187;   -7.225; -350.000; -250.000
299.325;   21.500;   52.000;  122.000
299.463;  111.200; -389.000; -299.000
299.601;  149.625; -327.000; -271.000
299.739;  -77.275; -908.000; -883.000
299.877;  -81.050; -791.000; -703.000
300.016;  -15.025;-1095.000; -935.000
300.154;  197.075;  -19.000; -161.000
300.292;  108.900; -428.000; -348.000
300.430;   44.300; -408.000; -291.000
300.568;  -84.050; -940.000; -874.000
300.706;  -47.450; -366.000; -469.000
300.844;  -34.450;-1108.000; -979.000
300.982;  133.500;  246.000;  282.000
301.120;  -79.900; -965.000; -866.000
301.258;  -62.200; -812.000; -705.000
301.396;   56.075;  104.000;  -41.000
301.534;  127.525; -218.000; -293.000
301.672;   35.400; -664.000; -521.000
301.810;   76.650; -613.000; -545.000
301.948;  158.050;   53.000;  149.000
302.086;  801.675; -250.000;  -32.000
302.224; 1181.150; -610.000; -585.000
302.362;   60.650; -558.000; -622.000
302.500;   24.275; -923.000; -893.000
302.638;  148.900;  128.000;  245.000
302.776;   18.875; -352.000; -408.000
302.913;   34.850;  447.000;  236.000
303.051;   13.250;  -86.000;  -23.000
303.189;   59.250;   90.000;  118.000
303.327;  -31.050; -341.000; -256.000
303.465;  -89.925; -832.000; -588.000
303.603;  -77.225; -805.000; -604.000
303.740;  119.050;  417.000;  241.000
303.878;   74.100; -800.000; -759.000
304.016;  -81.700; -915.000; -790.000
304.154;  -87.100;-1123.000;-1152.000
304.291;  -26.750; -505.000; -554.000
304.429;   13.275;  102.000;   74.000
304.567; -135.325; -908.000; -893.000
304.705;  -46.850; -408.000; -515.000
304.842;  157.275; -616.000; -540.000
304.980;   80.525;  215.000;   35.000
305.118;   75.725; -367.000; -365.000
305.255;  -41.300; -945.000; -927.000
305.393;   73.550;  178.000;  239.000
305.531;  -74.400;-1173.000; -956.000
305.668;  -61.300; -663.000; -582.000
305.806;  156.075; -358.000; -439.000
305.943;  140.725; -629.000; -637.000
306.081;   79.350; -378.000; -267.000
306.219;  -99.825; -863.000; -748.000
306.356;    5.400;  158.000;   27.000
306.494;  107.775;  981.000;  761.000
306.631;   13.675;  -11.000;  -55.000
306.769;   18.500; -613.000; -485.000
306.906;   11.675; -284.000; -258.000
307.044;  -52.575; -473.000; -488.000
307.181;  -48.550; -410.000; -332.000
307.319;    0.300;  112.000;   87.000
307.456; -153.725;-1191.000;-1153.000
307.594;  -93.625; -980.000; -727.000
307.731;    1.800; -371.000; -164.000
307.868;    1.100;  -15.000;   20.000
308.006; -116.000; -961.000; -847.000
308.143;  -54.875; -618.000; -330.000
308.281;  235.225;  -37.000; -254.000
308.418;   22.875; -748.000; -640.000
308.555;  -56.175; -400.000; -250.000
308.693;  -75.800; -577.000; -573.000
308.830; -104.225; -712.000; -657.000
308.967;  -24.825; -215.000;  -95.000
309.105;  -33.500; -507.000; -396.000
309.242;   58.450; -468.000; -367.000
309.379;  454.075; -577.000; -655.000
309.517;  -43.425; -936.000; -948.000
309.654;  -92.900; -910.000; -734.000
309.791;  -71.750; -662.000; -580.000
309.928;  -88.950; -977.000; -914.000
310.065;  183.250;  819.000;  697.000
310.203;   32.700; -825.000; -850.000
310.340;   11.525; -465.000; -321.000
310.477;  -67.850; -412.000; -516.000
310.614;  -70.725; -383.000; -473.000
310.751;  -65.750; -427.000; -518.000
310.889;  -25.725;    1.000;   11.000
311.026; -129.275;-1161.000; -939.000
311.163;  -38.325; -386.000; -380.000
311.300;  -67.425; -512.000; -479.000
311.437;  -72.825; -658.000; -619.000
311.574; -144.050;-1226.000; -985.000
311.711;  -55.675; -595.000; -433.000
311.848;  -29.100; -380.000; -388.000
311.985;    8.000;  270.000;   93.000
312.122; -100.000; -932.000; -762.000
312.259; -124.325; -941.000; -994.000
312.396;  -71.350; -508.000; -551.000
312.533;  -86.125; -812.000; -790.000
312.670; -100.700;-1070.000; -898.000
312.807;  -42.925; -352.000; -367.000
312.944;  -61.725; -513.000; -611.000
313.081;  -14.850; -150.000; -415.000
313.218;  -88.650;-1111.000; -867.000
313.355;   10.225; -531.000; -449.000
313.492;   24.350; -455.000; -292.000
313.629;  126.675;  815.000;  735.000
313.766; -151.225;-1176.000;-1008.000
313.902;  -20.525; -186.000;   21.000
314.039;  -39.750; -372.000; -289.000
314.176;   19.975;  286.000;  192.000
314.313;  -58.350; -569.000; -473.000
314.450;  -71.000; -788.000; -684.000
314.587;  -27.775; -468.000; -480.000
314.723;    6.700;  -78.000;  130.000
314.860;   53.575;  318.000;  332.000
314.997;   26.700;  223.000;  142.000
315.134;  -21.475; -385.000; -368.000
315.270;  -16.375; -480.000; -496.000
315.407; -102.800;-1094.000; -967.000
315.544;  -49.575; -657.000; -538.000
315.681;  -43.575; -681.000; -565.000
315.817;   34.075; -133.000; -176.000
315.954;   54.300; -613.000; -392.000
316.091; -119.750;-1045.000;-1023.000
316.227;  -19.125;  -71.000; -179.000
316.364;    5.050;   23.000;    6.000
316.500;  -24.850; -113.000; -300.000
316.637;  -36.125; -181.000; -302.000
316.774;  -68.950; -625.000; -358.000
316.910;  -87.775; -598.000; -629.000
317.047;  -54.525; -487.000; -351.000
317.183;  -41.800; -435.000; -566.000
317.320;    2.525; -367.000; -321.000
317.456;  -69.300; -733.000; -805.000
317.593;  -74.900; -598.000; -641.000
317.729;   12.800;  168.000;  -67.000
317.866; -189.325;-1434.000;-1285.000
318.002;  -76.475; -708.000; -948.000
318.139;  -58.425; -883.000; -867.000
318.275; -118.450;-1003.000; -738.000
318.412;  -65.000; -517.000; -336.000
318.548;  -10.800; -751.000; -720.000
318.685;  -81.250; -985.000; -888.000
318.821;  -98.175; -762.000; -735.000
318.957;  -14.825;   34.000;  -23.000
319.094;   34.275;  297.000;  154.000
319.230;  -44.100; -756.000; -742.000
319.367;  183.950; -471.000; -520.000
319.503;   92.950; -538.000; -436.000
319.639;  -98.200; -877.000; -793.000
319.775;  -46.500; -750.000; -685.000
319.912;  -47.325; -424.000; -519.000
320.048;  -55.250;-1184.000;-1184.000
320.184;   72.450;   59.000;   70.000
320.321;  -45.000; -497.000; -467.000
320.457;   51.275;  475.000;  662.000
320.593;  -64.050; -375.000; -382.000
320.729; -101.325; -732.000; -734.000
320.866;  -56.275; -577.000; -635.000
321.002;  -70.075; -759.000; -809.000
321.138;    7.325; -135.000; -211.000
321.274;   76.425; -148.000; -115.000
321.410;   11.075; -585.000; -353.000
321.546;   -8.275;-1011.000; -911.000
321.683;   70.500;  400.000;  185.000
321.819;    3.925;  -48.000; -117.000
321.955;  -87.725; -743.000; -722.000
322.091;  -33.125; -585.000; -540.000
322.227;    5.425; -382.000; -202.000
322.363;  -18.175; -320.000; -215.000
322.499;  -23.775; -343.000; -331.000
322.635;  183.250;  636.000;  443.000
322.771;   37.400; -139.000;   12.000
322.907;   88.425;  129.000;  327.000
323.043;   -5.550; -115.000; -206.000
323.179;  -18.400; -394.000; -363.000
323.315;   70.125; -401.000; -371.000
323.451;  151.725; -328.000; -236.000
323.587;   81.400;  -60.000;  -77.000
323.723;   40.925; -682.000; -601.000
323.859;   -4.750; -258.000;  -76.000
323.995;  -36.175; -467.000; -409.000
324.131; -106.900; -967.000; -892.000
324.267;  -35.700; -254.000; -276.000
324.402; -109.700; -960.000; -983.000
324.538;   -6.150; -279.000; -104.000
324.674;   35.225;  164.000;   77.000
324.810;  163.100;  226.000;  308.000
324.946;   45.300; -810.000; -658.000
325.082;  -66.825; -568.000; -475.000
325.217;   -1.650;  -62.000;   16.000
325.353;  -96.350; -764.000; -659.000
325.489;  -65.850; -540.000; -506.000
325.625;  -72.475; -579.000; -525.000
325.760;   69.675;  517.000;  376.000
325.896;  -37.300; -515.000; -702.000
326.032;  -31.900; -403.000; -352.000
326.168;  -51.100; -462.000; -369.000
326.303;  -59.850; -352.000; -461.000
326.439;  -28.975; -336.000; -276.000
326.575;   31.700; -190.000;  -29.000
326.710;  -11.750; -156.000;  -30.000
326.846;   -3.175;  146.000;  103.000
326.982;  -89.675; -530.000; -548.000
327.117;  -62.125; -481.000; -442.000
327.253;  -90.950; -745.000; -742.000
327.388; -135.825;-1137.000;-1153.000
327.524;  -20.550; -811.000; -578.000
327.659;  -25.225;  -58.000;  -22.000
327.795;   -7.950;   69.000;   45.000
327.931;  -75.800; -723.000; -499.000
328.066;  -22.050; -417.000; -276.000
328.202;   13.950;   12.000; -129.000
328.337;   88.900;  957.000;  713.000
328.473;   47.775;  -12.000;  -74.000
328.608;  -30.825; -256.000; -267.000
328.743;  -63.475; -799.000; -664.000
328.879;   18.550;  214.000;  114.000
329.014;  -25.375; -102.000; -122.000
329.150;  -76.025; -358.000; -483.000
329.285;  -56.000; -465.000; -466.000
329.421;  -60.275; -548.000; -246.000
329.556;  -16.850;  -36.000;   85.000
329.691;  -98.000; -633.000; -615.000
329.827;  -76.700; -626.000; -480.000
329.962;  -49.475;  131.000; -301.000
330.097;  -81.525; -673.000; -585.000
330.233;  -54.475; -410.000; -223.000
330.368; -106.700; -839.000; -628.000
330.503;  -22.925;    3.000;   98.000
330.638;    8.575;  -93.000; -125.000
330.774;  -49.175; -609.000; -530.000
330.909;  -45.050; -434.000; -244.000
331.044; -100.675; -714.000; -708.000
331.179; -153.450;-1217.000;-1109.000
331.315;    2.850;   77.000;   20.000
331.450;   24.275;  157.000;  285.000
331.585;  -82.125; -805.000; -706.000
331.720;  -79.375; -510.000; -460.000
331.855;  -18.325;  -35.000; -102.000
331.990;  232.550;   62.000;  138.000
332.126;  112.050; -110.000;   71.000
332.261;  -15.450; -379.000; -265.000
332.396;    3.050; -135.000; -242.000
332.531;  -78.925;-1074.000;-1031.000
332.666;   11.100; -519.000; -363.000
332.801;  -95.175; -726.000; -807.000
332.936;  -21.325; -192.000; -122.000
333.071; -128.925; -870.000; -817.000
333.206;    6.775;  307.000;  379.000
333.341;   29.825;  344.000;  418.000
333.476;  -83.600; -627.000; -623.000
333.611;  -38.100; -251.000; -173.000
333.746;  -36.625; -381.000; -464.000
333.881;  -94.925; -973.000; -935.000
334.016; -125.950; -936.000; -917.000
334.151; -112.175; -746.000; -702.000
334.286;   22.850;  152.000;  186.000
334.421;   -3.400; -125.000; -178.000
334.556;  -71.775; -611.000; -567.000
334.690;  -74.675; -631.000; -577.000
334.825;   46.750;  381.000;   83.000
334.960;  -40.975; -285.000; -413.000
335.095;    5.375;  135.000;  -91.000
335.230;  -87.675; -722.000; -738.000
335.365; -116.650;-1084.000; -990.000
335.499; -110.975;-1108.000;-1037.000
335.634;   23.700;    9.000;  534.000
335.769;  -86.525; -755.000; -720.000
335.904;  -42.800; -603.000; -561.000
336.038;  -36.575; -735.000; -657.000
336.173; -100.800;-1206.000;-1194.000
336.308;   36.800; -116.000; -189.000
336.443;   35.525; -544.000; -634.000
336.577;  -63.175; -936.000; -787.000
336.712;   79.050;   -4.000;  -12.000
336.847;  -12.425; -724.000; -607.000
336.981;   93.750; -272.000; -208.000
337.116;  347.000;  615.000;  501.000
337.250;  202.725; -434.000; -421.000
337.385;  226.850; -297.000; -208.000
337.520;   46.150; -632.000; -603.000
337.654;  -26.725; -215.000; -126.000
337.789; -112.400; -989.000; -933.000
337.923;  -33.650; -104.000; -205.000
338.058;  -71.000; -673.000; -738.000
338.192;    8.625; -611.000; -488.000
338.327;    0.225;  -18.000; -155.000
338.461;  -47.650; -299.000; -469.000
338.596;  -90.375; -780.000; -638.000
338.730;  -93.175; -767.000; -803.000
338.865;   66.125;  -46.000; -140.000
338.999;  -43.225; -846.000; -702.000
339.134;  -32.575; -634.000; -536.000
339.268;   47.200; -741.000; -603.000
339.403;  353.400; -740.000; -775.000
339.537;  116.425; -894.000; -820.000
339.671; -118.800; -829.000; -813.000
339.806;  -64.600; -556.000; -512.000
339.940;    7.175; -261.000; -235.000
340.074;  -74.950; -685.000; -510.000
340.209;  -56.700; -351.000; -230.000
340.343;  -71.900; -517.000; -573.000
340.477;  153.300;  998.000; 1036.000
340.612;  -41.300;-1033.000; -900.000
340.746;  128.400; -199.000; -243.000
340.880;  -33.250; -924.000; -785.000
341.014;  -28.225;  -45.000; -154.000
341.149;  -91.125; -756.000; -718.000
341.283; -118.575; -839.000; -754.000
341.417;  -49.000;-1124.000; -938.000
341.551;  213.100; -768.000; -708.000
341.685;   -3.900; -633.000; -611.000
341.820;  -51.825; -562.000; -493.000
341.954;  -37.250; -218.000; -349.000
342.088; -148.900;-1102.000;-1019.000
342.222;   72.675;  565.000;  618.000
342.356;  -58.875; -395.000; -335.000
342.490;  -72.000; -880.000; -841.000
342.624;  -43.400; -339.000; -242.000
342.758;   29.950; -364.000; -312.000
342.892;  -52.050; -710.000; -585.000
343.026;  -31.550;  -58.000; -116.000
343.160;  -62.250; -426.000; -376.000
343.294;  -73.225; -474.000; -337.000
343.428;   -0.050; -488.000; -448.000
343.562;    2.050; -172.000;  -23.000
343.696;  -14.200; -385.000; -314.000
343.830;    2.000; -362.000; -356.000
343.964;   29.025; -231.000; -168.000
344.098; 1185.275;  199.000;   70.000
344.232;  955.875; -266.000; -127.000
344.366;  121.975; -567.000; -453.000
344.500;  110.525; -665.000; -744.000
344.634;   68.025; -324.000; -164.000
344.768;   14.725; -531.000; -341.000
344.902;   33.600;  278.000;  256.000
345.035;  -80.850; -556.000; -496.000
345.169; -120.800; -933.000; -656.000
345.303;  -10.025; -308.000; -482.000
345.437;  -32.600; -826.000; -717.000
345.571;  -67.175; -675.000; -594.000
345.704;  -58.825; -309.000; -532.000
345.838;   -2.650; -331.000; -284.000
345.972;  -22.100; -543.000; -495.000
346.106;  155.450; -179.000; -190.000
346.239;  468.475; -312.000; -243.000
346.373;   14.700; -343.000; -302.000
346.507; -113.000; -950.000; -962.000
346.640;  199.125;  -30.000;   13.000
346.774;   -9.050; -650.000; -797.000
346.908;  -10.575; -138.000;  -11.000
347.041;  -79.525; -646.000; -593.000
347.175;    3.325;  259.000;   27.000
347.309;  -46.400; -698.000; -628.000
347.442;  -85.950; -883.000; -732.000
347.576;  349.650;  670.000;  668.000
347.709;  268.150; -123.000;  -52.000
347.843;  -61.475; -933.000; -825.000
347.976;   31.875;  235.000;  294.000
348.110; -158.725;-1268.000;-1186.000
348.243;  -92.675; -679.000; -772.000
348.377;   20.000;  -26.000;   60.000
348.510;   39.725;  403.000;  540.000
348.644;  -32.050;  -37.000; -159.000
348.777;   -7.600;  180.000;  191.000
348.911;  -32.325; -142.000; -112.000
349.044;  192.125;  471.000;  448.000
349.178;  245.125;-1069.000;-1006.000
349.311;  115.850;  141.000;  255.000
349.444;    9.450; -927.000; -813.000
349.578;  -13.150; -347.000; -200.000
349.711;  -69.600; -959.000; -862.000
349.845;   36.125; -661.000; -591.000
349.978; -122.450;-1224.000;-1137.000
350.111;  -74.725; -546.000; -612.000
350.244;  -55.175; -596.000; -700.000
350.378;   26.125; -392.000; -393.000
350.511;  -60.425; -393.000; -426.000
350.644; -104.050; -808.000; -806.000
350.778;   11.725;  168.000;  104.000
350.911;   -7.175;  134.000;  140.000
351.044;  -76.125; -685.000; -615.000
351.177;  -24.550; -321.000; -281.000
351.310;  -15.075;    3.000; -131.000
351.444;  -47.700; -888.000; -788.000
351.577;  165.275;  140.000;   90.000
351.710;  100.250;  593.000;  417.000
351.843;  -21.350; -165.000;  -77.000
351.976;  -22.325;  149.000;  -79.000
352.109;  -73.475; -621.000; -612.000
352.242;   -4.375; -464.000; -419.000
352.376;  -27.075; -580.000; -636.000
352.509;  242.475; -437.000; -356.000
352.642;   95.850; -654.000; -604.000
352.775;   86.775; -141.000;  -98.000
352.908;  -94.650; -933.000; -904.000
353.041;  -92.525; -814.000; -824.000
353.174;  -55.300; -551.000; -424.000
353.307;  -73.425; -753.000; -764.000
353.440;   81.500;  541.000;  453.000
353.573; -111.375; -957.000;-1008.000
353.706;  -25.550; -384.000; -558.000
353.839;   -6.750; -264.000; -220.000
353.971;  -69.125; -657.000; -512.000
354.104;  -70.275; -896.000; -835.000
354.237;   -3.650; -627.000; -662.000
354.370;  -90.875; -846.000; -879.000
354.503; -160.625;-1231.000;-1308.000
354.636;  -48.475; -529.000; -348.000
354.769; -116.600; -937.000; -860.000
354.902;    1.450; -230.000; -139.000
355.034;    6.075; -164.000; -220.000
355.167;  -24.725; -262.000; -162.000
355.300;  -73.750;-1061.000; -880.000
355.433;  914.350;  -71.000;  -14.000
355.565; 1418.725; -402.000; -384.000
355.698;  360.900; -356.000; -296.000
355.831;   19.475; -882.000; -801.000
355.964;  107.675; -285.000; -170.000
356.096;  -51.075; -856.000; -843.000
356.229;   34.375; -523.000; -530.000
356.362;  295.175; -373.000; -266.000
356.494;  554.175; -229.000; -162.000
356.627;  591.625;  269.000;  377.000
356.760;  649.850;  120.000;   53.000
356.892;  902.300; -286.000; -601.000
357.025;  800.375;  403.000;  389.000
357.157;  776.700; -167.000; -179.000
357.290;  576.400; -856.000; -713.000
357.423;  198.800; -667.000; -556.000
357.555;  140.025; -217.000; -228.000
357.688;  168.875; -483.000; -364.000
357.820;  562.375; -870.000; -877.000
357.953; 4316.450; -563.000; -589.000
358.085; 1016.825; -632.000; -612.000
358.218; 1614.300;-1131.000; -932.000
358.350;  293.475;  -58.000;  312.000
358.483;  -84.850;-1300.000;-1187.000
358.615;   45.150;-1182.000;-1078.000
358.747;   -1.075;-1187.000;-1058.000
358.880;   57.200; -810.000; -744.000
359.012;   26.975; -376.000; -202.000
359.145;  -40.300; -480.000; -511.000
359.277;  122.700; -962.000; -913.000
359.409; 3575.600;  536.000;  231.000
359.542; 1007.700; -738.000; -688.000
359.674;   90.775;   46.000;   13.000
359.806;  -39.375; -565.000; -438.000
359.939;  -37.700; -617.000; -516.000
360.071;   -3.900; -583.000; -579.000
360.203;  -19.150; -411.000; -364.000
360.335;   72.775;  164.000;  -16.000
360.468;  241.275; -249.000; -307.000
360.600; 2818.925; -547.000; -454.000
360.732; 2622.475; -546.000; -423.000
360.864;  398.775;-1216.000;-1044.000
360.996;  397.150; -516.000; -554.000
361.129;  103.825; -389.000; -598.000
361.261;   15.725;  110.000; -113.000
361.393;   -6.325; -252.000; -214.000
361.525;   26.950;   94.000;  244.000
361.657;  -12.450; -821.000; -703.000
361.789;   20.900; -139.000; -155.000
361.921;  341.875; -642.000; -593.000
362.053;  323.125;  524.000;  541.000
362.185;   78.450;  288.000;   72.000
362.318;  -67.875; -709.000; -705.000
362.450;  178.150;  294.000;  444.000
362.582;  221.025; -913.000; -870.000
362.714;   -3.375; -353.000; -332.000
362.846;  -76.350; -606.000; -490.000
362.978; -125.975; -941.000; -811.000
363.109;   86.675; -161.000; -260.000
363.241;  591.875; -739.000; -749.000
363.373;  444.775; -649.000; -564.000
363.505;  624.975; -186.000;  -91.000
363.637;  159.850; -787.000; -601.000
363.769; -103.650;-1067.000;-1080.000
363.901;  -66.375; -596.000; -654.000
364.033;  -89.050;-1103.000;-1062.000
364.165;    7.650; -283.000; -283.000
364.296;   87.975; -316.000; -177.000
364.428;   59.725;-1344.000;-1220.000
364.560;  -62.725; -679.000; -661.000
364.692;  -58.875; -738.000; -835.000
364.824;  406.975; -588.000; -456.000
364.955;  452.675; -402.000; -564.000
365.087;  777.150;-1097.000; -852.000
365.219;   38.150; -686.000; -816.000
365.351;  -44.275; -526.000; -572.000
365.482;   56.325;  300.000;  240.000
365.614;  -34.700; -402.000; -314.000
365.746;  -88.550; -729.000; -752.000
365.877;  -82.350; -706.000; -672.000
366.009;  236.650;  -35.000;  -62.000
366.141;  -79.875;-1249.000;-1134.000
366.272; -107.350; -803.000; -719.000
366.404; -102.950;-1005.000; -874.000
366.535;   -0.475; -139.000;  -12.000
366.667;  -81.425; -644.000; -649.000
366.799;   32.950;  353.000;  203.000
366.930;  -83.400; -862.000; -996.000
367.062;  135.850; -639.000; -613.000
367.193;  143.700; -872.000; -842.000
367.325;  -50.975; -580.000; -684.000
367.456;  100.975; -246.000;   31.000
367.588;  143.450; -371.000; -318.000
367.719;   52.550;  -44.000;  -45.000
367.851;  -13.100; -222.000; -241.000
367.982;   -5.825; -875.000; -732.000
368.113;  143.925; -475.000; -358.000
368.245;  -89.350; -960.000; -841.000
368.376;   -4.025; -254.000; -302.000
368.508;  -17.750; -188.000; -263.000
368.639; -131.925;-1166.000;-1034.000
368.770;   27.225; -670.000; -589.000
368.902;  -35.100; -836.000; -926.000
369.033;  -88.475; -906.000; -855.000
369.164;  -65.150; -720.000; -653.000
369.296; -101.100; -452.000; -601.000
369.427;    8.650; -209.000; -144.000
369.558;  -26.075; -593.000; -377.000
369.689;  -76.100; -721.000; -569.000
369.821; -124.825; -951.000; -845.000
369.952;   -8.275;   42.000; -108.000
370.083;  -46.200; -229.000; -108.000
370.214;  -90.525; -735.000; -650.000
370.345;   -0.075;   65.000;   81.000
370.477;  -73.150; -810.000; -790.000
370.608;  316.625; -328.000; -264.000
370.739;  -16.975;-1233.000;-1292.000
370.870;    5.625;-1102.000; -923.000
371.001;  133.775; -378.000; -467.000
371.132;  -44.150; -754.000; -735.000
371.263;  -22.750;  -42.000; -148.000
371.394; -115.725; -841.000; -748.000
371.525;   38.925;  345.000;  225.000
371.657;  -62.050; -808.000; -670.000
371.788;   89.900;  103.000;  199.000
371.919;  270.050; -384.000; -304.000
372.050; 4493.725;  -91.000; -156.000
372.181; 1403.000; -188.000; -294.000
372.311;  473.225;   42.000; -127.000
372.442;   84.025; -457.000; -451.000
372.573;   -0.200; -444.000; -340.000
372.704;  -81.275;-1008.000; -980.000
372.835;  110.250; -228.000; -289.000
372.966;  -37.750; -646.000; -554.000
373.097;  -38.000; -575.000; -711.000
373.228;   -4.850; -717.000; -542.000
373.359;  204.500; -824.000; -536.000
373.490; 1235.200; -881.000; -727.000
373.620; 1581.150;-1001.000; -803.000
373.751; 2315.225; -332.000; -396.000
373.882; 1081.850; -663.000; -733.000
374.013;  118.575; -449.000; -262.000
374.143;  -18.825; -581.000; -659.000
374.274;  -72.100; -987.000; -908.000
374.405;  233.725; -388.000; -276.000
374.536;  594.300; -526.000; -387.000
374.666; 1498.675; -759.000; -807.000
374.797;  337.875; -817.000; -868.000
374.928; 1146.375; -710.000; -560.000
375.058; 1220.000; -535.000; -500.000
375.189;  123.925;  -59.000;  -93.000
375.320;  -81.900; -928.000;-1034.000
375.450;  -17.750; -625.000; -616.000
375.581;  -31.400; -526.000; -436.000
375.712;  -30.375; -574.000; -250.000
375.842;  447.150; -438.000; -415.000
375.973;  310.375; -554.000; -513.000
376.103;   -6.500; -665.000; -648.000
376.234;  -74.150; -531.000; -552.000
376.364;   13.900; -944.000; -867.000
376.495;  404.700;  925.000;  529.000
376.625;   46.375; -472.000; -485.000
376.756;  118.050; -709.000; -678.000
376.886;  -35.825;-1178.000;-1026.000
377.017;   31.400;-1048.000;-1061.000
377.147;  312.900; -786.000; -782.000
377.278;   49.100;  174.000;  228.000
377.408; -111.575; -801.000; -815.000
377.538;  -93.775; -707.000; -693.000
377.669;  -70.850; -537.000; -613.000
377.799;  -72.775; -645.000; -635.000
377.929;  -38.075; -610.000; -428.000
378.060; -116.500; -781.000; -847.000
378.190;  -40.325; -726.000; -531.000
378.320;  -53.650; -401.000; -406.000
378.451;    9.725; -131.000;  -22.000
378.581;   11.625;  -67.000; -110.000
378.711;  179.350; 1035.000;  866.000
378.841;    9.125; -533.000; -675.000
378.972;  -45.625; -871.000; -751.000
379.102;   11.250; -652.000; -579.000
379.232;   -2.325; -126.000;  -73.000
379.362;  -86.900;-1001.000; -885.000
379.492;   54.725; -373.000; -424.000
379.623;  145.650;    0.000;  111.000
379.753;  -65.725;-1107.000; -974.000
379.883;  240.125;   59.000;  156.000
380.013;   75.150;-1081.000;-1017.000
380.143;  -78.825;-1097.000;-1056.000
380.273;  -86.875; -985.000; -861.000
380.403;   16.575; -344.000; -257.000
380.533;   12.800; -651.000; -664.000
380.663;  101.000;  173.000;  128.000
380.793;  -55.600;-1027.000;-1074.000
380.923;  -13.700; -103.000;  -34.000
381.053;  -77.000; -613.000; -623.000
381.183;  -20.275; -106.000; -248.000
381.313;   73.825; -656.000; -470.000
381.443;   78.050; -692.000; -473.000
381.573;  308.450; -402.000; -409.000
381.703;  457.400;-1249.000;-1095.000
381.833;  -85.150;-1454.000;-1336.000
381.963;  146.100; -134.000;  -87.000
382.093; 1728.300; -925.000; -909.000
382.223;  587.025; -713.000; -602.000
382.353;   28.475; -801.000; -608.000
382.482;  521.725;-1091.000; -964.000
382.612;  986.175; -872.000; -644.000
382.742;  577.000; -695.000; -622.000
382.872;  396.250; -565.000; -551.000
383.002;   97.500;  347.000; -132.000
383.131;   12.350; -226.000; -160.000
383.261;  -31.675; -706.000; -768.000
383.391;  314.925; -552.000; -377.000
383.521; 2866.225;  451.000;  263.000
383.650;  698.525; -947.000; -904.000
383.780;  -10.400; -783.000; -656.000
383.910;  123.200;  880.000;  802.000
384.039;   65.475; -794.000; -656.000
384.169;  345.525;-1205.000;-1017.000
384.299;   19.650; -650.000; -662.000
384.428;  -66.325; -764.000; -680.000
384.558;  -40.025; -308.000; -275.000
384.687;  -22.750; -414.000; -334.000
384.817;   27.400;   75.000;   -2.000
384.947;   62.300; -234.000; -141.000
385.076;  349.175;  982.000;  912.000
385.206;  145.075;  369.000;  480.000
385.335;   -6.575; -549.000; -417.000
385.465;  -27.750; -655.000; -663.000
385.594;  171.675;  -53.000;  -44.000
385.724;  634.675; -868.000; -838.000
385.853;  176.625; -296.000; -270.000
385.982; 1742.250; -743.000; -787.000
386.112; 2861.625;-1052.000; -871.000
386.241;  221.325; -307.000; -312.000
386.371;   32.975; -174.000;  -87.000
386.500;   39.000; -825.000; -789.000
386.629;   43.275; -874.000; -817.000
386.759;   72.825;  -43.000;   68.000
386.888;    7.950; -170.000; -250.000
387.017;  -43.775; -648.000; -620.000
387.147;  -58.750; -771.000; -798.000
387.276;   44.400; -410.000; -397.000
387.405;   45.100; -398.000; -342.000
387.535;   -4.800; -452.000; -361.000
387.664;  -45.125; -692.000; -620.000
387.793;   88.675; -198.000; -113.000
387.922;  683.775;  255.000;  200.000
388.052;   92.025; -576.000; -423.000
388.181;   52.725; -342.000; -472.000
388.310;   85.875; -889.000; -710.000
388.439;   -6.900; -749.000; -742.000
388.568;  246.100;  365.000;  244.000
388.697; 1393.025; -756.000; -653.000
388.826;  326.125; -768.000; -666.000
388.956;  107.000; -285.000; -307.000
389.085;    0.000; -347.000; -287.000
389.214; -108.775; -842.000; -872.000
389.343;  -45.325; -645.000; -413.000
389.472;  382.550;  126.000;  149.000
389.601;  559.900;   91.000;    0.000
389.730;   55.450; -568.000; -687.000
389.859;   92.150;  226.000;   46.000
389.988;  268.025; -423.000; -408.000
390.117;  211.650; -168.000; -146.000
390.246;   18.175; -331.000; -320.000
390.375;  187.750; -673.000; -626.000
390.504;  -45.325; -703.000; -621.000
390.633;  -80.625; -672.000; -726.000
390.761;  -40.625; -732.000; -645.000
390.890;   48.150;   -4.000; -130.000
391.019;  -11.500; -421.000; -441.000
391.148; -110.850; -826.000; -855.000
391.277;  -64.325; -576.000; -493.000
391.406;  -45.475; -821.000; -805.000
391.534;   15.800;  574.000; -301.000
391.663;  -48.225; -583.000; -645.000
391.792;  -78.700; -673.000; -701.000
391.921;  161.075;   -3.000;   15.000
392.050;  281.200; -287.000; -228.000
392.178;   25.375;-1206.000;-1061.000
392.307;  200.200; -758.000; -712.000
392.436;  133.175; -427.000; -641.000
392.564;   20.525;  166.000;   -6.000
392.693;  -66.200; -860.000; -682.000
392.822;  286.975; -529.000; -534.000
392.950;  174.200; -880.000; -714.000
393.079;  430.225; -188.000; -328.000
393.208;   85.225; -488.000; -511.000
393.336;  -13.375; -170.000; -145.000
393.465;  -37.750; -317.000; -199.000
393.593;   -5.625;   62.000;   79.000
393.722; -139.425;-1121.000; -916.000
393.850;  -30.825; -188.000;  -61.000
393.979; -143.275; -926.000; -805.000
394.107;  -60.425; -517.000; -537.000
394.236;    7.825; -570.000; -507.000
394.364;  257.700;  383.000;  206.000
394.493;  522.300; -911.000; -767.000
394.621;   17.275; -955.000; -916.000
394.750;  626.525; -873.000; -923.000
394.878; 2705.925; -247.000; -149.000
395.007; 3867.625; -721.000; -807.000
395.135;  310.775; -790.000; -721.000
395.263;  -72.925;-1038.000;-1040.000
395.392;    8.450;  -25.000; -107.000
395.520; -116.650; -818.000; -679.000
395.648;  -81.200; -865.000; -915.000
395.777;   18.925; -366.000; -405.000
395.905;  -33.925; -449.000; -564.000
396.033;   33.250;  217.000;  172.000
396.162;  773.275; -399.000; -453.000
396.290;  717.325;  -17.000;   -2.000
396.418;  166.450; -555.000; -514.000
396.546;  -43.500; -571.000; -466.000
396.674;  -81.325; -850.000; -878.000
396.803;   43.150;  -72.000;  -23.000
396.931;  135.400; -179.000; -199.000
397.059;  167.350;-1026.000; -989.000
397.187;  -95.525;-1026.000; -975.000
397.315; -120.175; -884.000; -649.000
397.443;  -94.200; -592.000; -443.000
397.572;  -81.625; -578.000; -424.000
397.700;   19.025; -607.000; -614.000
397.828;   24.250;  120.000;  -90.000
397.956;  -64.800; -508.000; -478.000
398.084;  -50.750; -767.000; -626.000
398.212;   39.175;  137.000;  124.000
398.340;   28.325;  -56.000;  159.000
398.468;   42.825; -390.000; -169.000
398.596; -103.225; -993.000; -953.000
398.724; -110.925; -762.000; -767.000
398.852; -140.900;-1024.000; -976.000
398.980;  -57.300; -560.000; -560.000
399.108;  -23.300; -982.000; -735.000
399.236;   59.750;   13.000;    8.000
399.363;   29.675;  222.000;  196.000
399.491;  -73.450; -404.000; -398.000
399.619; -103.400; -829.000; -800.000
399.747;  -97.950; -859.000; -771.000
399.875;  106.675;  220.000;  234.000
400.003;  -41.775; -359.000; -284.000
400.130;  -82.425; -421.000; -341.000
400.258;  -41.750;  -83.000;   38.000
400.386;  -49.600; -352.000; -168.000
400.514;  -34.850; -526.000; -587.000
400.641;  -34.250; -928.000; -802.000
400.769; -135.375; -979.000; -888.000
400.897;  -84.525; -838.000; -793.000
401.025;   -4.675; -166.000; -152.000
401.152;   11.725;  220.000;   38.000
401.280;  -76.775; -430.000; -429.000
401.408; -101.600; -712.000; -576.000
401.535;  -93.150; -735.000; -758.000
401.663; -180.125;-1134.000;-1054.000
401.790;  -76.025; -514.000; -525.000
401.918;   56.325;  436.000;  405.000
402.046;  -29.500;  134.000;  122.000
402.173;  -25.225;  -18.000;    7.000
402.301;  -77.450; -519.000; -397.000
402.428;   65.950;  528.000;  383.000
402.556; -134.025;-1188.000; -913.000
402.683;  -16.925;  -20.000;   -1.000
402.811;  -18.875;  -37.000; -206.000
402.938;    5.225;   20.000;   27.000
403.066;  266.075; -574.000; -558.000
403.193;  459.925;  299.000;  239.000
403.321;  365.125; -396.000; -574.000
403.448;  437.000;   83.000;   27.000
403.575;  206.475;  -90.000;  -46.000
403.703;  -74.575; -732.000; -557.000
403.830;  -69.575; -531.000; -496.000
403.957; -123.250;-1117.000;-1023.000
404.085;   -5.800;  -61.000; -172.000
404.212;  126.775;  -50.000;   63.000
404.339;  231.675; -566.000; -306.000
404.467; 5326.800; -612.000; -524.000
404.594; 3972.075; -287.000; -227.000
404.721; 1104.725; -869.000; -764.000
404.848;   92.575; -113.000; -202.000
404.976;  -85.050; -856.000; -783.000
405.103;   -4.875;  -14.000;  -82.000
405.230;    3.200;  190.000;  226.000
405.357;   32.600;  117.000;   44.000
405.484;  252.375;  -49.000;    5.000
405.612;   49.175; -548.000; -563.000
405.739;  -42.900; -488.000; -243.000
405.866;   81.500;  669.000;  385.000
405.993;  -29.950; -398.000; -102.000
406.120; -126.950; -801.000; -887.000
406.247;  -54.375; -323.000; -342.000
406.374;  581.150;  540.000;  629.000
406.501;  215.450; -632.000; -702.000
406.628;  -73.775; -621.000; -589.000
406.755;  -76.375; -803.000; -620.000
406.882;  -32.425; -228.000; -277.000
407.009;  -90.050; -719.000; -628.000
407.136;   75.425; -480.000; -401.000
407.263;  254.100; -939.000; -829.000
407.390;  -62.500; -692.000; -614.000
407.517; -145.950;-1139.000;-1187.000
407.644;  -58.375; -332.000; -256.000
407.771;  -47.025; -249.000; -287.000
407.898;   -3.400;  168.000;  328.000
408.025;  -55.275; -421.000; -313.000
408.151;  -12.950;   82.000;  153.000
408.278;  -62.350; -267.000; -216.000
408.405; -106.775; -931.000; -899.000
408.532;  -51.450; -549.000; -542.000
408.659; -124.625; -677.000; -648.000
408.785; -189.925;-1298.000;-1170.000
408.912;  -70.100; -412.000; -296.000
409.039;  -98.775; -610.000; -686.000
409.166; -113.050; -591.000; -555.000
409.292; -103.250; -571.000; -534.000
409.419; -114.300; -665.000; -649.000
409.546;  -70.525; -431.000; -192.000
409.672; -106.125; -713.000; -545.000
409.799;   -1.725;  -36.000;   34.000
409.926;  -55.150; -180.000; -179.000
410.052; -165.375;-1127.000;-1091.000
410.179;  -50.050; -368.000; -392.000
410.305;  -79.925; -375.000; -493.000
410.432;  -44.875; -220.000; -333.000
410.558;  -75.375; -305.000; -380.000
410.685; -109.200; -688.000; -431.000
410.812;  -82.150; -409.000; -588.000
410.938; -150.275; -964.000; -808.000
411.065;  -78.700; -671.000; -645.000
411.191;  -17.500; -189.000; -174.000
411.317;  -95.600; -823.000; -742.000
411.444;  -73.325; -317.000; -246.000
411.570;  -63.700; -339.000; -294.000
411.697; -132.950; -758.000; -752.000
411.823; -156.250; -989.000; -999.000
411.949;  -26.125;  -56.000;   17.000
412.076; -107.700; -539.000; -519.000
412.202; -124.825; -758.000; -757.000
412.329;  -98.075; -798.000; -752.000
412.455; -109.475; -821.000; -657.000
412.581;   -4.625;  -15.000;  172.000
412.707;  -50.675; -540.000; -457.000
412.834;   24.350;  156.000;  219.000
412.960;  -77.075; -785.000; -784.000
413.086;  -88.525; -743.000; -701.000
413.212;  177.650;  604.000;  578.000
413.339;  -30.925; -685.000; -701.000
413.465;   34.525; -364.000; -310.000
413.591;  -67.625; -757.000; -474.000
413.717;  -57.650; -358.000; -366.000
413.843; -128.050; -839.000; -861.000
413.969;  -52.950;  -47.000; -292.000
414.096;  -85.775; -679.000; -679.000
414.222;   -4.075;  -33.000;   85.000
414.348;   -6.950; -652.000; -385.000
414.474;  148.250;   38.000;  -52.000
414.600;   -1.375; -126.000; -144.000
414.726;   -2.075;  -96.000;  -55.000
414.852;  -47.200; -365.000; -342.000
414.978;   38.375;  104.000;  -18.000
415.104;   41.400;   38.000;   80.000
415.230;   32.725; -329.000; -330.000
415.356;   65.800; -409.000; -514.000
415.482;  225.400;   13.000;  -35.000
415.608;  276.525; -247.000; -323.000
415.734;  922.000;   67.000;   38.000
415.860;18854.400; -875.000; -767.000
415.986;14818.100; -685.000; -607.000
416.111; 1309.300; -798.000; -652.000
416.237;  260.750; -424.000; -571.000
416.363;  995.875; -765.000; -733.000
416.489; 3944.625; -324.000; -251.000
416.615;  472.175; -707.000; -742.000
416.741;  -30.475; -677.000; -784.000
416.866;  -76.025; -673.000; -736.000
416.992;  -99.925; -801.000; -818.000
417.118;  -14.700;  -41.000;  -80.000
417.244;  -69.525; -798.000; -531.000
417.369;  -53.600; -801.000; -612.000
417.495;  -16.775; -325.000; -254.000
417.621;  -62.600;-1015.000; -803.000
417.746;   -2.900; -579.000; -572.000
417.872;   54.975; -254.000; -144.000
417.998;   49.825; -515.000; -530.000
418.123;  937.025;-1073.000; -845.000
418.249; 5174.200; -512.000; -601.000
418.374;  797.800; -916.000; -824.000
418.500;  105.350; -383.000; -482.000
418.626;  126.450;   70.000;  -59.000
418.751;  120.825; -549.000; -448.000
418.877;  202.400; -637.000; -643.000
419.002; 1579.200; -688.000; -560.000
419.128;11814.075; -930.000; -721.000
419.253; 3123.425; -967.000; -837.000
419.379;  402.325; -391.000; -338.000
419.504;  357.600;  325.000;  415.000
419.629;  484.300; -393.000; -212.000
419.755; 3015.850; -317.000; -254.000
419.880;19238.375;  -98.000;   67.000
420.006;10646.900; -280.000; -221.000
420.131;28553.575; -662.000; -775.000
420.256; 4466.225; -315.000; -316.000
420.382;  611.475; -665.000; -687.000
420.507;   83.100; -649.000; -778.000
420.632;  182.050; -337.000; -339.000
420.758;  359.075; -251.000; -425.000
420.883;  -53.675; -876.000; -672.000
421.008;  -87.825; -775.000; -619.000
421.133;  -60.875; -509.000; -467.000
421.259;  -47.025; -325.000; -259.000
421.384;  -94.050; -834.000; -693.000
421.509;   -7.225;-1052.000; -862.000
421.634; 1581.550; -936.000; -820.000
421.759;  773.400; -359.000; -327.000
421.885;  -21.750; -717.000; -656.000
422.010;  -65.775; -673.000; -542.000
422.135; -126.225; -695.000; -727.000
422.260;   28.525;  340.000;  280.000
422.385;  -22.625;   12.000;  -98.000
422.510;   -0.475;  151.000;  -26.000
422.635;   43.075;  -87.000;  -43.000
422.760;  130.250; -766.000; -791.000
422.885;   85.075;  -57.000;  -80.000
423.010;  -41.500; -112.000; -169.000
423.135;  -80.225; -481.000; -561.000
423.260;   -8.525; -150.000; -245.000
423.385;   91.725;  476.000;  222.000
423.510;   38.550;   71.000;  -22.000
423.635;   99.725;  133.000;   45.000
423.760;   68.725;  383.000;  328.000
423.885;   61.000;  336.000;  391.000
424.010;   18.850;  -68.000;  -13.000
424.135;  -19.025;    5.000;  -33.000
424.259;  -86.500; -654.000; -457.000
424.384;  -56.475; -279.000; -272.000
424.509;  -24.450; -260.000; -186.000
424.634;  -89.975; -761.000; -623.000
424.759;  -10.525; -688.000; -544.000
424.883;   -6.675; -506.000; -527.000
425.008;  155.675; -502.000; -410.000
425.133; 1898.700; -679.000; -653.000
425.258;  948.800; -517.000; -381.000
425.382; 1193.100; -867.000; -774.000
425.507; 3263.525; -487.000; -543.000
425.632;  553.500; -802.000; -663.000
425.756;  419.925; -256.000; -146.000
425.881; 5530.875; -831.000; -857.000
426.006;15910.600; -604.000; -355.000
426.130; 2795.825; -696.000; -508.000
426.255;  341.225; -611.000; -491.000
426.379;  161.100; -189.000; -577.000
426.504;  350.500;  660.000;  544.000
426.629; 3843.050; -519.000; -466.000
426.753; 2860.325;   64.000;  -46.000
426.878;  355.000; -252.000; -288.000
427.002;  151.900; -651.000; -668.000
427.127; 1468.125;  -35.000; -158.000
427.251;10638.275;  372.000;  401.000
427.375; 3403.525; -191.000; -173.000
427.500; 2739.000; -616.000; -610.000
427.624; 1039.125; -234.000; -400.000
427.749;  117.400; -216.000; -225.000
427.873;   -2.825; -499.000; -412.000
427.997;  -36.475; -222.000; -230.000
428.122;   76.225;  795.000;  703.000
428.246;   86.125;  433.000;  434.000
428.371; -101.550; -869.000; -773.000
428.495;  -98.175; -624.000; -646.000
428.619;  -15.750; -186.000; -117.000
428.743;   25.850;   65.000;  132.000
428.868;   57.150; -732.000; -643.000
428.992; 1721.650; -219.000; -326.000
429.116;  778.350; -329.000; -357.000
429.240;  367.375;  419.000;  426.000
429.365;    7.625; -454.000; -574.000
429.489;  -16.325; -638.000; -647.000
429.613;   21.350; -236.000; -177.000
429.737;   45.700; -563.000; -432.000
429.861;  267.550; -247.000; -133.000
429.985; 5117.025; -425.000; -305.000
430.109; 6079.275; -770.000; -908.000
430.234;  741.575;   76.000;  -50.000
430.358;   77.050; -250.000; -160.000
430.482;  -59.025; -672.000; -564.000
430.606;  -42.925; -655.000; -375.000
430.730;   32.600; -437.000; -388.000
430.854;  235.575; -909.000; -835.000
430.978;  -54.100; -795.000; -764.000
431.102;  -63.225; -499.000; -422.000
431.226; -109.300; -874.000; -815.000
431.350;   38.425;  345.000;  422.000
431.474;  -59.700; -661.000; -373.000
431.597; -122.125;-1060.000; -848.000
431.721;  -83.400; -276.000; -267.000
431.845; -132.000; -704.000; -472.000
431.969;  -79.325; -304.000; -349.000
432.093;  -83.825; -395.000; -317.000
432.217;  -19.375;   32.000;   82.000
432.341;  -78.725; -523.000; -518.000
432.464;   22.525;   96.000;   40.000
432.588;  297.675; -401.000; -329.000
432.712;  160.725;  -52.000;  -52.000
432.836;   50.725;  213.000;  263.000
432.959;  -20.575; -372.000; -311.000
433.083;   85.475;   11.000;    2.000
433.207;  349.500;  285.000;  930.000
433.330; 4550.000; -391.000; -200.000
433.454; 6003.750; -654.000; -638.000
433.578; 3439.650;  583.000;  278.000
433.701;  693.625; -623.000; -675.000
433.825;  190.225; -292.000; -299.000
433.949;  263.825;   28.000;  -72.000
434.072;  152.725; -410.000; -323.000
434.196;  -11.325; -309.000; -117.000
434.319; 3569.325;25482.000;25124.000
434.443;  724.475; -656.000; -603.000
434.566; 2572.150;  281.000;   62.000
434.690;  474.400; -637.000; -383.000
434.813;   73.225; -251.000; -173.000
434.937;  -76.675; -569.000; -696.000
435.060;  -24.100; -423.000; -332.000
435.184;  465.000; -492.000; -217.000
435.307;  268.950;  159.000;  102.000
435.431;    1.750;  -40.000;   24.000
435.554;  -72.000; -399.000; -240.000
435.677;  -89.450; -350.000; -258.000
435.801;  -23.400;  -25.000;   49.000
435.924;   -3.675;    1.000;  -67.000
436.048;  -63.875;-1019.000; -732.000
436.171;  -59.175; -240.000;  -66.000
436.294;  -23.350; -248.000; -229.000
436.417;   69.275; -963.000; -849.000
436.541;  -52.775; -814.000; -840.000
436.664;  -62.475; -242.000; -316.000
436.787;   -7.950;   13.000;  113.000
436.910; -104.300; -792.000; -422.000
437.034;   31.850;  142.000;  143.000
437.157;   84.600;  -11.000;    0.000
437.280;   -6.975; -392.000; -292.000
437.403;  -61.875; -982.000; -869.000
437.526;  863.800; -903.000; -865.000
437.649; 3238.125; -505.000; -332.000
437.772;  597.350; -692.000; -540.000
437.896;  138.225;  700.000;  544.000
438.019;  -78.375; -758.000; -503.000
438.142;  -79.100; -596.000; -506.000
438.265;   16.500; -639.000; -670.000
438.388;  800.650; -520.000; -410.000
438.511;  227.450; -597.000; -394.000
438.634;  -16.925; -247.000; -125.000
438.757; -124.175; -693.000; -619.000
438.880;  -17.575;  -34.000;  -57.000
439.003;  -45.575; -417.000; -437.000
439.126;  -72.050; -287.000; -167.000
439.248;  -48.000;  -98.000; -139.000
439.371;  -62.725;    9.000;  -53.000
439.494;   28.575;  510.000;  439.000
439.617;  -64.575;   65.000;  -88.000
439.740; -163.025; -968.000; -816.000
439.863; -147.550; -755.000; -595.000
439.986; -100.875; -476.000; -431.000
440.108;  -38.475; -161.000; -112.000
440.231; -153.150; -950.000; -836.000
440.354;  -40.100;  -64.000; -150.000
440.477;   82.475; -566.000; -542.000
440.599;   28.325; -200.000; -225.000
440.722; -103.050; -709.000; -586.000
440.845;   62.850;  751.000;  928.000
440.968;  -98.175; -415.000; -311.000
441.090;  -64.525; -199.000;  -33.000
441.213; -158.150;-1021.000; -825.000
441.336;  -53.225; -159.000;   -5.000
441.458;  -58.325; -549.000; -396.000
441.581;  -64.575; -628.000; -629.000
441.703;  -63.200; -152.000;   13.000
441.826; -119.525; -557.000; -400.000
441.948;  -47.775;   56.000;   51.000
442.071;   29.600;  555.000;  424.000
442.193;  -94.125; -531.000; -485.000
442.316;   12.375;  152.000;   97.000
442.438;   50.500; -233.000;  -10.000
442.561;   76.175;  272.000;  262.000
442.683;  734.050; -809.000; -522.000
442.806; 1635.050;   -8.000;   74.000
442.928;  142.050; -859.000; -604.000
443.051;  -62.075; -577.000; -373.000
443.173;  -74.500; -341.000; -339.000
443.295;  -90.325; -263.000; -371.000
443.418;  -53.850; -321.000;  -29.000
443.540;   -3.875; -106.000;   -4.000
443.662; -105.450; -563.000; -465.000
443.785;  -27.825;  335.000;  199.000
443.907;  -98.900; -362.000; -208.000
444.029; -133.850; -767.000; -494.000
444.152; -127.050; -644.000; -554.000
444.274;  -36.275;  -18.000;  -24.000
444.396;  -98.775; -461.000; -221.000
444.518; -128.700; -691.000; -454.000
444.640;  -96.000; -268.000; -111.000
444.763;  -20.600;  388.000;  249.000
444.885; -101.550; -432.000; -392.000
445.007;  -44.600;   35.000;   86.000
445.129;  -99.150; -610.000; -515.000
445.251;  -87.650; -372.000; -439.000
445.373; -127.125; -537.000; -386.000
445.495;    0.000;  242.000;  350.000
445.617;   55.675;  853.000;  753.000
445.739;  -64.975; -215.000;  -97.000
445.861;  -12.250; -245.000; -112.000
445.984;  -36.875; -267.000; -101.000
446.105;  283.075; -418.000; -251.000
446.227;  834.175; -176.000;  -19.000
446.349;   72.675; -358.000; -249.000
446.471;  -99.325; -615.000; -448.000
446.593;  -56.975; -316.000;   19.000
446.715;   19.650;  -67.000;   41.000
446.837;   72.225;  697.000;  832.000
446.959; -100.675; -457.000; -478.000
447.081; -120.825; -628.000; -518.000
447.203;   42.700;  862.000;  834.000
447.325;  -88.875; -270.000;   42.000
447.446;  -14.475;  286.000;  530.000
447.568; -136.200; -921.000; -803.000
447.690;  -71.850; -236.000; -245.000
447.812; -134.500; -798.000; -519.000
447.933;  -28.750;  155.000;  127.000
448.055;  -62.525; -306.000; -261.000
448.177;  193.500;   31.000;   79.000
448.299;  170.225; -935.000; -727.000
448.420;   41.900;  -25.000;  159.000
448.542;  -33.950;   -3.000;   33.000
448.664;  -31.000;  109.000;  322.000
448.785;  -30.200;  265.000;   83.000
448.907;  -75.275; -614.000; -353.000
449.028;    6.750; -771.000; -471.000
449.150;   78.250;  492.000;  589.000
449.272; -145.600;-1044.000; -913.000
449.393;   42.425;  612.000;  694.000
449.515; -124.700; -634.000; -581.000
449.636;  -62.350; -264.000; -155.000
449.758;   97.125;  763.000;  622.000
449.879;  -92.725; -498.000; -396.000
450.001;  -72.250; -149.000;  -49.000
450.122;  -35.750;  -95.000;  162.000
450.244;  -21.250;   37.000;  364.000
450.365; -103.325; -495.000; -301.000
450.486;  -23.125;   80.000;  268.000
450.608;    7.350;  393.000;  326.000
450.729;   72.475;  578.000;  645.000
450.850;   -7.000; -574.000; -466.000
450.972;  621.225; -552.000; -389.000
451.093; 4419.325;  190.000;  588.000
451.214; 2106.650; -516.000; -337.000
451.336;  380.125;  773.000;  579.000
451.457;   62.550;  264.000;  393.000
451.578;  -46.475; -118.000;  -74.000
451.699; -123.350; -546.000; -540.000
451.821;  -67.250; -284.000;  -50.000
451.942;   -0.875;  278.000;  285.000
452.063;   27.325;  228.000;  419.000
452.184;  497.300;  -54.000;  -49.000
452.305; 1048.750;  103.000;  170.000
452.427;  167.200; -549.000; -301.000
452.548;  -16.575;   23.000;   79.000
452.669;  -16.600; -257.000;  -89.000
452.790;  -42.925;    3.000;  -18.000
452.911;    2.425;  195.000;  259.000
453.032;  -62.625; -289.000;  -60.000
453.153;  -34.925;  -29.000;   81.000
453.274;   59.100;  737.000;  868.000
453.395;  -41.100;  -51.000;  175.000
453.516;  126.325; 1317.000; 1388.000
453.637;  -46.275; -205.000; -150.000
453.758;  -34.600;   15.000;   69.000
453.879; -111.500; -462.000; -250.000
454.000;   73.700; 1086.000;  948.000
454.121;  -89.975; -554.000; -326.000
454.242; -114.825; -599.000; -383.000
454.362;  -42.775;  -99.000;  114.000
454.483;  -46.600; -309.000; -229.000
454.604;   78.150;  512.000;  580.000
454.725; -107.275; -627.000; -555.000
454.846; -121.800; -474.000; -406.000
454.967;  -25.925;  230.000;  539.000
455.087;  -33.825;  179.000;  153.000
455.208;   -5.325;  554.000;  856.000
455.329;  -54.600;  -22.000;   82.000
455.450;   18.525;  473.000;  633.000
455.570;  -72.000; -234.000; -211.000
455.691;  -54.425;  201.000;  407.000
455.812;  -96.600; -270.000;  -92.000
455.932;  -73.175;  107.000;  -97.000
456.053;  -75.775;   36.000;   24.000
456.173; -119.200; -433.000; -355.000
456.294; -117.525; -476.000; -303.000
456.415;  -72.800;  -73.000;   70.000
456.535;  -31.625;  297.000;  273.000
456.656;  -51.725;  132.000;  240.000
456.776;  -71.875;    3.000;  298.000
456.897;   -8.275;  308.000;  513.000
457.017;  -63.575; -153.000;   -3.000
457.138;  -99.975; -402.000; -249.000
457.258;  -16.525;  263.000;  224.000
457.379;   -9.450;  509.000;  521.000
457.499;  -35.600;  443.000;  432.000
457.620; -132.725; -407.000; -231.000
457.740;  -94.000; -132.000;  -11.000
457.860;  -54.675;   87.000;   44.000
457.981;  -37.575;  132.000;  124.000
458.101;  -69.300;  -89.000;   40.000
458.221;  -13.225;  336.000;  402.000
458.342;  -51.625;   -4.000;  -37.000
458.462;   13.025;  617.000;  352.000
458.582;  -45.625; -302.000; -294.000
458.703;   -9.400;  303.000;  154.000
458.823;  -26.900;   22.000;  163.000
458.943;   40.000;  341.000;  467.000
459.063;  -19.175; 1124.000;  192.000
459.183;    1.175;  328.000;  313.000
459.304;    4.900;  315.000;  517.000
459.424;  -57.225; -246.000;  -89.000
459.544;  289.850;  388.000;  764.000
459.664;  787.600;  499.000;  506.000
459.784;  312.500; 1004.000; 1175.000
459.904;   72.050;  867.000;  744.000
460.024;   69.075;  867.000;  684.000
460.144;   19.875;  449.000;  554.000
460.264;  -11.900;  515.000;  327.000
460.385;  -88.500; -145.000; -119.000
460.505;   36.775;  905.000;  858.000
460.625;  -73.300;  -17.000;  -68.000
460.745;  -23.350;  396.000;  541.000
460.864;  -37.400;  153.000;  469.000
460.984;   12.850;  499.000;  573.000
461.104;  141.425; 1656.000; 1775.000
461.224;   17.000;  657.000;  650.000
461.344;  -16.725;  431.000;  360.000
461.464;  -25.175;  258.000;  513.000
461.584;   15.175;  283.000;  466.000
461.704;  -32.225;   58.000;  108.000
461.824;  -39.525;  238.000;  259.000
461.943;  -50.600;  191.000;  130.000
462.063;  -65.050;    2.000;  324.000
462.183;   26.625;  639.000;  717.000
462.303;  122.250; 1678.000; 1230.000
462.422;   16.225;  781.000;  840.000
462.542;  -25.900;  271.000;  391.000
462.662;   41.525;  353.000;  380.000
462.782;  223.025;  833.000;  572.000
462.901;  464.650;  545.000;  717.000
463.021;  290.475; 1702.000; 1638.000
463.141;  -16.850;  337.000;  770.000
463.260;  -14.200;  614.000;  474.000
463.380;    8.500;  902.000;  884.000
463.499;  -40.125;  342.000;  332.000
463.619;  -18.200;  581.000;  559.000
463.738;  107.475; 1644.000;  903.000
463.858;   16.950;  657.000;  811.000
463.978;  -18.875;  542.000;  396.000
464.097;   24.100;  921.000; 1114.000
464.217;  116.225; 1196.000; 1143.000
464.336;  101.650; 1068.000; 1130.000
464.455;  -35.800;  328.000;  659.000
464.575;   52.125;  597.000;  602.000
464.694;  202.675; 1204.000; 1179.000
464.814;  123.950; 1190.000; 1138.000
464.933;   69.900; 1095.000; 1027.000
465.052;   83.775; 1412.000; 1054.000
465.172;  109.425;  922.000;  799.000
465.291;  147.975; 1376.000; 1320.000
465.410;   34.850;  462.000;  735.000
465.530;   80.300; 1355.000; 1310.000
465.649;   80.250; 1209.000; 1273.000
465.768;  145.625; 1673.000; 1508.000
465.888;   68.800;  941.000; 1174.000
466.007;   84.425; 1335.000; 1440.000
466.126;   11.525;  721.000;  641.000
466.245;   49.650; 1176.000; 1187.000
466.364;   21.875;  950.000; 1060.000
466.484;   59.575; 1024.000; 1213.000
466.603;   54.775; 1101.000; 1222.000
466.722;  119.075; 1490.000; 1769.000
466.841;   80.975; 1151.000; 1401.000
466.960;   48.325; 1069.000;  972.000
467.079;  138.650; 1971.000; 1786.000
467.198;   43.050; 1238.000; 1181.000
467.317;   93.775; 1768.000; 1162.000
467.436;   72.300; 1709.000; 1261.000
467.555;  129.825; 1796.000; 1746.000
467.674;   53.750; 1227.000; 1329.000
467.793;   45.675; 1376.000; 1374.000
467.912;   89.875; 1658.000; 1539.000
468.031;  135.775; 2038.000; 1930.000
468.150;  129.275; 1842.000; 1837.000
468.269;  210.175; 2313.000; 2090.000
468.388;  186.925; 2168.000; 2339.000
468.507;  250.700; 2884.000; 2903.000
468.626;  265.525; 2555.000; 2541.000
468.744;  143.250; 2018.000; 2174.000
468.863;  190.150; 2312.000; 2523.000
468.982;  112.800; 1503.000; 1555.000
469.101;  223.700; 2788.000; 2692.000
469.220;  161.675; 2333.000; 2176.000
469.338;  249.900; 2935.000; 3051.000
469.457;  206.150; 2719.000; 2545.000
469.576;  327.800; 3953.000; 3784.000
469.695;  258.225; 2877.000; 3066.000
469.813;  401.325; 4148.000; 4192.000
469.932;  410.900; 4255.000; 4485.000
470.051;  401.200; 4075.000; 4161.000
470.169;  815.625; 4470.000; 4338.000
470.288; 1419.325; 4700.000; 4809.000
470.406;  885.875; 5059.000; 5194.000
470.525;  616.750; 6101.000; 5787.000
470.644;  634.225; 6847.000; 6794.000
470.762;  797.550; 8397.000; 7873.000
470.881;  916.200; 8651.000; 8464.000
470.999; 1040.200; 9685.000; 9151.000
471.118; 1106.375;11174.000;10711.000

