
Integration time [ms]: 200.000
Averaging Nr. [scans]: 10
Smoothing Nr. [pixels]: 0
Data measured with spectrometer [name]: 2101012U2
Wave   ;Sample   ;Dark     ;Reference
[nm]   ;[counts] ;[counts] ;[counts] 

197.733;  149.100;  516.000;  404.000
197.879; -172.000; -610.000; -634.000
198.025; -106.700; -475.000; -420.000
198.171; -124.800; -602.000; -612.000
198.317;  -45.400; -401.000; -316.000
198.463; -133.600; -655.000; -404.000
198.609;   21.400;  181.000; -137.000
198.755; -134.600; -644.000; -410.000
198.901; -131.400; -505.000; -424.000
199.047; -120.600; -615.000; -488.000
199.193;  -81.700; -230.000; -468.000
199.339;  -75.700; -222.000; -369.000
199.485;   70.500;  330.000;  271.000
199.631;   41.600;  227.000;  310.000
199.777; -101.800; -466.000; -398.000
199.923; -118.500; -610.000; -424.000
200.069;    5.600; -141.000;  -58.000
200.215;  114.100;  128.000;  453.000
200.361;   91.900;  243.000;  477.000
200.507; -123.500; -600.000; -373.000
200.653;  -68.200; -371.000; -194.000
200.798;  -61.600; -215.000; -125.000
200.944;  -20.700; -146.000;  -41.000
201.090;   85.300;   61.000;  222.000
201.236;   19.300; -116.000; -158.000
201.382;  269.900;  874.000;  903.000
201.528;    5.100;  -58.000;  -48.000
201.674;  -75.500; -386.000; -293.000
201.819; -133.500; -540.000; -439.000
201.965; -155.600; -699.000; -447.000
202.111;  -61.300; -273.000; -226.000
202.257;  -76.600; -250.000; -238.000
202.402;   20.000;   13.000;  -36.000
202.548;  -51.700; -169.000; -116.000
202.694;  183.200;  410.000; -183.000
202.840; -121.300; -603.000; -531.000
202.985; -146.000; -681.000; -639.000
203.131; -208.800; -832.000; -666.000
203.277;  -69.700; -199.000; -262.000
203.423; -106.500; -434.000; -520.000
203.568;  -68.900; -462.000; -237.000
203.714; -108.700; -535.000; -542.000
203.860; -167.800; -682.000; -641.000
204.005;   27.300;  112.000;  167.000
204.151;  164.300;  561.000;  556.000
204.296;  -86.700; -354.000; -221.000
204.442; -166.200; -600.000; -547.000
204.588; -141.600; -592.000; -579.000
204.733;   45.300;  178.000;  168.000
204.879; -265.000;-1018.000; -822.000
205.025;   21.300;  -99.000;  126.000
205.170;   24.100;  -17.000;   94.000
205.316;  140.300;  438.000;  661.000
205.461; -167.100; -698.000; -554.000
205.607;  197.700;  609.000;  665.000
205.752; -157.800; -626.000; -551.000
205.898; -103.900; -501.000; -391.000
206.043; -121.100; -578.000; -506.000
206.189;  -76.400; -243.000; -285.000
206.334;  161.400;  554.000;  606.000
206.480;  156.700;  409.000;  239.000
206.625; -144.500; -529.000; -552.000
206.771;  -94.800; -451.000; -373.000
206.916;  -79.600; -210.000; -537.000
207.062; -162.200; -545.000; -591.000
207.207; -109.400; -546.000; -443.000
207.353;   96.900;  185.000;  460.000
207.498;   51.700;  196.000;   85.000
207.643;  -91.000; -501.000; -370.000
207.789; -264.700;-1069.000; -910.000
207.934; -197.700; -665.000; -713.000
208.080;  -59.800; -154.000;   66.000
208.225;   -5.400;  -22.000;  -57.000
208.370; -163.800; -727.000; -619.000
208.516; -145.600; -741.000; -487.000
208.661;  -26.600; -127.000;  -69.000
208.806;  -54.900; -165.000; -171.000
208.952; -241.300;-1044.000; -731.000
209.097;  144.100;  378.000;  349.000
209.242;  -82.600; -307.000; -382.000
209.387;  134.100;  392.000;  350.000
209.533; -106.700; -321.000; -350.000
209.678;  187.100;  472.000;  543.000
209.823;  -90.500; -408.000; -310.000
209.969; -183.100; -860.000; -757.000
210.114; -180.900; -907.000; -719.000
210.259; -204.400; -939.000; -889.000
210.404;   -4.400; -171.000;  103.000
210.549;   25.800;  108.000;    3.000
210.695;  -27.700;   -3.000;  -95.000
210.840;   67.100;   94.000;   67.000
210.985; -147.200; -484.000; -303.000
211.130;  164.500;  268.000;  406.000
211.275;   43.000;  207.000;  199.000
211.420;  -78.600; -300.000; -289.000
211.566; -120.100; -536.000; -489.000
211.711;   46.100;  218.000;  157.000
211.856; -153.800; -545.000; -519.000
212.001;   24.200;  151.000;   44.000
212.146;   -0.700;  153.000;   49.000
212.291;  -59.400; -210.000; -186.000
212.436;  -61.700; -280.000;   -6.000
212.581; -163.500; -685.000; -653.000
212.726; -171.200; -487.000; -538.000
212.871;  -71.200; -552.000; -217.000
213.016; -301.600;-1172.000;-1029.000
213.161;  118.700;  406.000;  291.000
213.306; -156.200; -435.000; -577.000
213.451; -193.800; -778.000; -689.000
213.596; -109.900; -455.000; -347.000
213.741; -125.000; -448.000; -538.000
213.886; -159.900; -498.000; -517.000
214.031;  -43.200; -294.000; -124.000
214.176; -117.800; -408.000; -341.000
214.321;  -56.500; -296.000; -157.000
214.466;  -62.300; -163.000;  -43.000
214.611;  -22.300;  -61.000;  -10.000
214.756; -216.600; -948.000; -858.000
214.901;  -22.000; -388.000; -226.000
215.046; -222.800; -797.000; -825.000
215.191;   22.600;  128.000;   35.000
215.336;  -36.800; -157.000;  -19.000
215.480; -146.300; -684.000; -505.000
215.625;  -36.500; -175.000;  -19.000
215.770; -173.900; -757.000; -662.000
215.915;  -14.400;   -5.000;  -97.000
216.060;  -34.000; -113.000;  -21.000
216.205; -226.300; -731.000; -779.000
216.349; -116.800; -470.000; -533.000
216.494; -262.800; -939.000; -867.000
216.639; -218.300; -823.000; -888.000
216.784; -170.400; -577.000; -525.000
216.929;  120.900;  392.000;  281.000
217.073;  -34.300; -244.000;  -31.000
217.218;   20.600;   78.000;  -47.000
217.363; -176.400; -656.000; -618.000
217.507; -153.700; -623.000; -588.000
217.652; -246.300; -845.000; -874.000
217.797; -184.400; -708.000; -659.000
217.942; -232.500; -856.000; -720.000
218.086;  154.800;  608.000;  539.000
218.231;  -41.100; -174.000;  -26.000
218.376;  -91.500; -337.000; -229.000
218.520;    8.800;  -41.000;   96.000
218.665;  -82.000; -338.000; -204.000
218.810;  -72.300; -275.000; -233.000
218.954;   34.200;  201.000;   35.000
219.099; -227.900; -713.000; -963.000
219.243; -121.400; -589.000; -554.000
219.388;  -38.200; -264.000; -136.000
219.532;  -14.500; -116.000; -116.000
219.677; -178.600; -564.000; -521.000
219.822;   22.100;   33.000;   89.000
219.966;    4.800;   17.000;  -99.000
220.111;  -82.600; -328.000;  -40.000
220.255; -178.200; -797.000; -750.000
220.400;  -45.100; -180.000; -146.000
220.544; -146.300; -516.000; -450.000
220.689; -109.300; -422.000; -451.000
220.833;  -19.300; -123.000;  -58.000
220.978;  -75.700; -393.000; -563.000
221.122;   22.800;  319.000;  307.000
221.267; -215.200; -906.000; -837.000
221.411; -141.700; -478.000; -394.000
221.555;   -5.100; -104.000;  -23.000
221.700;  -99.200; -329.000; -222.000
221.844;   73.800;  255.000;  272.000
221.989;  -89.800; -328.000; -311.000
222.133;  -46.700; -289.000; -307.000
222.277;  -14.300;    5.000;   78.000
222.422;   17.200;  227.000;  113.000
222.566;  -76.600; -381.000; -214.000
222.711; -116.900; -414.000; -479.000
222.855; -153.600; -643.000; -586.000
222.999; -151.400; -642.000; -717.000
223.144;  -70.500; -195.000; -194.000
223.288;  101.300;  423.000;  251.000
223.432;   46.300;  184.000;  230.000
223.576;   25.800;  152.000;  -21.000
223.721;   82.700;  364.000;  273.000
223.865;  -96.400; -472.000; -475.000
224.009;  519.800; 1673.000; 1631.000
224.153; -152.100; -660.000; -671.000
224.298; -112.700; -531.000; -489.000
224.442;  -18.800;  -74.000;  -33.000
224.586;  -40.000; -169.000; -106.000
224.730; -186.000; -858.000; -670.000
224.875; -195.400; -739.000; -688.000
225.019;   21.200;  102.000;  188.000
225.163;  139.100;  208.000;  341.000
225.307;   59.800;   97.000;  -91.000
225.451;  101.300;  360.000;  481.000
225.595;   49.700;  264.000;  176.000
225.739;  -17.300; -170.000;  -94.000
225.884;   -0.700;   86.000;    5.000
226.028; -198.400; -760.000; -626.000
226.172;  -73.500; -260.000; -273.000
226.316; -237.200; -941.000; -902.000
226.460; -145.000; -645.000; -493.000
226.604; -106.700; -406.000; -400.000
226.748; -209.200; -836.000; -733.000
226.892;  -82.400; -227.000; -181.000
227.036;  -78.600; -537.000; -447.000
227.180;  -97.600; -551.000; -375.000
227.324; -139.900; -561.000; -580.000
227.468; -219.500; -819.000; -717.000
227.612;   37.100;  242.000;  -28.000
227.756; -210.500; -845.000; -698.000
227.900;  103.400;  342.000;  441.000
228.044;  -88.000; -509.000; -290.000
228.188;  141.300;  448.000;  568.000
228.332; -160.700; -546.000; -472.000
228.476;  -52.500; -223.000; -149.000
228.620;  -38.900; -210.000; -150.000
228.764;  148.900;  431.000;  349.000
228.908;  -57.500; -155.000;   30.000
229.052; -116.300; -615.000; -528.000
229.195;  -26.300; -172.000;   13.000
229.339;  -39.300; -235.000; -305.000
229.483;  -42.900;    5.000; -162.000
229.627;    3.700; -156.000;  139.000
229.771;  -90.000; -218.000; -294.000
229.915;   39.300;  230.000;   79.000
230.059; -184.600; -648.000; -663.000
230.202;  -54.400; -370.000; -317.000
230.346;   -9.000; -107.000;  107.000
230.490;  -93.800; -489.000; -521.000
230.634; -208.300; -736.000; -553.000
230.777;  167.600;  478.000;  509.000
230.921; -120.200; -450.000; -359.000
231.065;  -79.800; -246.000; -286.000
231.209;   55.100;  261.000;  265.000
231.352;   35.300;   54.000;   40.000
231.496;   39.700;  568.000;  188.000
231.640; -166.000; -693.000; -621.000
231.783;  153.000;  546.000;  525.000
231.927;  -83.900; -294.000; -365.000
232.071; -236.000; -962.000; -736.000
232.214; -216.500; -980.000; -764.000
232.358; -188.400; -683.000; -599.000
232.502;   17.900;  -19.000;    7.000
232.645; -250.200;-1090.000; -927.000
232.789;  -40.500; -257.000; -218.000
232.933;  -95.100; -407.000; -224.000
233.076; -257.900;-1038.000; -897.000
233.220; -226.700; -752.000; -777.000
233.363; -150.500; -669.000; -477.000
233.507;   77.700;  371.000;  129.000
233.650; -168.100; -764.000; -834.000
233.794;  113.700;  438.000;  461.000
233.938; -109.700; -530.000; -362.000
234.081;  -39.200;  -93.000;   31.000
234.225;  -98.600; -631.000; -539.000
234.368; -190.700; -773.000; -723.000
234.512;  -68.400; -385.000; -299.000
234.655; -143.900; -582.000; -555.000
234.798; -123.200; -493.000; -466.000
234.942; -249.700; -884.000;-1002.000
235.085; -133.900; -651.000; -443.000
235.229; -140.200; -405.000; -410.000
235.372;  -99.200; -247.000; -191.000
235.516; -117.100; -397.000; -321.000
235.659;   51.000;   92.000;  121.000
235.802;  -10.700;  -38.000;  -22.000
235.946;   83.600;  335.000;  215.000
236.089;   37.200;  126.000;  250.000
236.233;  125.600;  275.000;  298.000
236.376; -101.400; -235.000; -378.000
236.519;  -75.100; -297.000; -319.000
236.663;  -43.800; -215.000; -117.000
236.806; -276.300;-1029.000; -999.000
236.949;  107.400;  543.000;  431.000
237.092;  107.300;  412.000;  391.000
237.236; -145.300; -589.000; -502.000
237.379;  127.800;  352.000;  428.000
237.522; -209.000; -879.000; -768.000
237.666;  -46.500; -271.000;   18.000
237.809; -269.100; -851.000; -823.000
237.952;   98.200;  469.000;  271.000
238.095; -110.900; -447.000; -442.000
238.238;  183.300;  688.000;  700.000
238.382;   20.600;  166.000;  103.000
238.525; -114.600; -598.000; -511.000
238.668; -263.600;-1060.000; -985.000
238.811; -147.100; -638.000; -643.000
238.954; -102.700; -483.000; -334.000
239.097;  193.000;  617.000;  664.000
239.241;   72.000;  394.000;  326.000
239.384;  -69.400; -254.000; -214.000
239.527;  -86.400; -424.000; -224.000
239.670; -270.200; -994.000;-1091.000
239.813; -217.200; -696.000; -658.000
239.956;  156.800;  579.000;  473.000
240.099; -212.900; -778.000; -725.000
240.242;  119.800;  428.000;  432.000
240.385;  110.600;  466.000;  450.000
240.528; -140.700; -706.000; -473.000
240.671;   20.700;  189.000;  134.000
240.814;  -92.500; -441.000; -158.000
240.957; -189.500; -767.000; -578.000
241.100; -170.300; -779.000; -755.000
241.243; -285.000;-1234.000; -893.000
241.386; -143.300; -508.000; -379.000
241.529; -180.600; -735.000; -547.000
241.672; -115.800; -566.000; -495.000
241.815; -230.900; -832.000; -808.000
241.958;  -55.600; -125.000; -182.000
242.101; -184.500; -545.000; -390.000
242.244;  -56.900; -270.000; -325.000
242.387;  -50.300; -304.000; -246.000
242.530;  132.400;  470.000;  134.000
242.673; -100.400; -381.000; -309.000
242.815; -242.300; -925.000; -899.000
242.958; -114.400; -482.000; -381.000
243.101;   27.700;  132.000;  187.000
243.244; -152.500; -564.000; -521.000
243.387;  -79.100; -313.000; -316.000
243.530; -177.800; -657.000; -674.000
243.672;   15.500;   43.000;  -92.000
243.815; -104.500; -355.000; -283.000
243.958;   -3.000;   98.000;  -26.000
244.101;   46.800;   59.000;  -16.000
244.243;  -10.700;  -47.000;  101.000
244.386; -191.100; -761.000; -630.000
244.529;  -39.700; -132.000; -139.000
244.672; -311.300;-1154.000; -951.000
244.814; -194.700; -621.000; -794.000
244.957;  -65.000; -380.000; -304.000
245.100; -143.100; -489.000; -489.000
245.242; -130.700; -387.000; -374.000
245.385;   12.700;  -59.000;  -39.000
245.528; -206.900; -871.000; -705.000
245.670;  228.400;  612.000;  634.000
245.813; -140.500; -599.000; -547.000
245.956;  -40.700; -324.000; -275.000
246.098; -129.600; -508.000; -650.000
246.241;   36.800;  194.000;   48.000
246.383;  -14.600; -119.000;  -73.000
246.526; -132.000; -454.000; -525.000
246.669; -222.700; -889.000; -780.000
246.811;   65.300;  172.000;   -1.000
246.954; -125.800; -512.000; -426.000
247.096;  -51.900;  -84.000;   -6.000
247.239; -120.700; -482.000; -445.000
247.381; -138.700; -647.000; -488.000
247.524;  168.700;  645.000;  679.000
247.666;   20.600;   58.000;   11.000
247.809; -234.200; -887.000; -691.000
247.951;  -43.100;  -75.000;  138.000
248.094;   74.500;  432.000;  308.000
248.236; -315.500;-1262.000;-1238.000
248.378;  -68.800; -356.000;  -81.000
248.521;  -97.800; -334.000; -337.000
248.663;  -51.800; -236.000; -267.000
248.806;  -61.400; -300.000; -266.000
248.948; -243.600; -886.000; -763.000
249.090; -101.500; -428.000; -398.000
249.233; -118.000; -344.000; -381.000
249.375; -125.600; -474.000; -451.000
249.518;  -10.500;  -83.000; -133.000
249.660;  -11.500; -103.000;    3.000
249.802; -347.300;-1303.000;-1189.000
249.945; -131.200; -612.000; -540.000
250.087; -175.200; -834.000; -768.000
250.229;  -67.700; -362.000; -480.000
250.371; -145.600; -494.000; -439.000
250.514;  -79.800; -310.000; -244.000
250.656;  -11.200;   69.000;  102.000
250.798; -219.400; -849.000; -800.000
250.940; -109.300; -322.000; -322.000
251.083;  -13.500; -335.000; -111.000
251.225;  145.500;  338.000;  310.000
251.367;  -74.200; -274.000; -373.000
251.509;  -77.300; -265.000; -210.000
251.651; -175.600; -731.000; -671.000
251.794;  170.700;  538.000;  632.000
251.936; -211.900; -821.000; -747.000
252.078; -149.800; -540.000; -461.000
252.220; -138.200; -645.000; -477.000
252.362;   82.800;  344.000;  462.000
252.504; -172.900; -677.000; -584.000
252.646; -223.400; -875.000; -722.000
252.788;  -35.600;   14.000; -128.000
252.931;  -90.100; -257.000; -253.000
253.073;  -81.600; -376.000; -317.000
253.215;   -0.300;  141.000;  122.000
253.357;   -8.900;   82.000; -153.000
253.499; -104.800; -374.000; -234.000
253.641; -200.900; -749.000; -594.000
253.783; -179.500; -609.000; -527.000
253.925; -202.700; -586.000; -591.000
254.067; -221.500; -744.000; -667.000
254.209;  -30.400; -391.000; -259.000
254.351; -282.100; -865.000; -883.000
254.493; -122.600; -441.000; -417.000
254.635; -220.400; -936.000; -818.000
254.777; -182.400; -752.000; -687.000
254.918; -142.700; -512.000; -430.000
255.060; -133.700; -551.000; -395.000
255.202; -105.800; -473.000; -261.000
255.344; -116.800; -658.000; -455.000
255.486; -164.300; -471.000; -406.000
255.628; -223.800; -780.000; -781.000
255.770; -170.600; -676.000; -536.000
255.912; -125.300; -559.000; -468.000
256.053; -159.600; -730.000; -508.000
256.195;  307.300; 1008.000;  903.000
256.337; -155.500; -861.000; -595.000
256.479;  150.500;  532.000;  416.000
256.621;  -69.000; -394.000; -212.000
256.762; -186.100; -789.000; -742.000
256.904;  130.200;  485.000;  487.000
257.046;  -71.200; -381.000; -271.000
257.188;  -75.200; -351.000; -264.000
257.329; -132.200; -525.000; -464.000
257.471; -220.600; -939.000; -807.000
257.613; -139.000; -584.000; -498.000
257.755; -293.400;-1073.000; -982.000
257.896;   83.400;  286.000;  392.000
258.038; -134.700; -403.000; -352.000
258.180;  -81.600; -354.000; -279.000
258.321; -167.400; -581.000; -457.000
258.463;   -7.200;  -71.000;  133.000
258.605; -173.000; -562.000; -570.000
258.746; -210.500; -886.000; -772.000
258.888; -271.200;-1026.000;-1020.000
259.029;   69.900;  121.000;   -8.000
259.171; -175.200; -614.000; -550.000
259.313;   30.800;  -49.000;  -47.000
259.454; -137.200; -536.000; -414.000
259.596; -100.000; -483.000; -390.000
259.737; -174.300; -590.000; -474.000
259.879;   58.300;  217.000;  311.000
260.020;  175.900;  901.000;  636.000
260.162;  -52.300; -146.000; -253.000
260.303; -215.900; -768.000; -687.000
260.445; -159.700; -609.000; -613.000
260.586;   74.800;  392.000;  157.000
260.728; -100.700; -360.000; -248.000
260.869; -145.200; -350.000; -343.000
261.011;  176.900;  706.000;  537.000
261.152; -110.700; -479.000; -319.000
261.293; -158.900; -576.000; -595.000
261.435;  -42.800; -219.000; -184.000
261.576;  -91.400; -455.000; -325.000
261.718;   55.600;  420.000;  470.000
261.859; -263.600; -940.000; -949.000
262.000; -271.000; -951.000;-1016.000
262.142;  -14.600;  -52.000;  -60.000
262.283; -234.900; -808.000; -691.000
262.424; -179.100; -666.000; -625.000
262.566; -321.900;-1161.000; -983.000
262.707; -204.700; -840.000; -830.000
262.848; -242.500; -769.000; -726.000
262.990;  -74.800; -362.000; -345.000
263.131;  156.700;  650.000;  681.000
263.272;  -27.500;  -61.000;  -41.000
263.413; -168.000; -589.000; -561.000
263.555; -115.900; -669.000; -143.000
263.696; -192.900; -550.000; -641.000
263.837; -100.500; -449.000; -551.000
263.978;   -3.300;   -5.000;  -77.000
264.119;  -67.400; -283.000; -264.000
264.261; -205.000; -847.000; -630.000
264.402;   11.000;   33.000;   40.000
264.543; -139.900; -509.000; -524.000
264.684;  -14.800;   61.000;  -50.000
264.825; -156.300; -816.000; -538.000
264.966;    7.900;  -84.000;  -67.000
265.107; -201.600; -646.000; -670.000
265.248; -241.500; -825.000; -812.000
265.390;    1.300;  152.000;   -9.000
265.531;  -45.600; -238.000; -107.000
265.672; -171.500; -557.000; -630.000
265.813;  126.900;  563.000;  439.000
265.954; -289.200; -959.000; -940.000
266.095;  -23.600; -372.000; -322.000
266.236; -195.200; -686.000; -548.000
266.377;  -72.500; -243.000; -297.000
266.518; -126.400; -619.000; -547.000
266.659;   57.900;  170.000;  268.000
266.800;    6.800;   83.000;   85.000
266.941; -160.400; -487.000; -478.000
267.082;   42.000;  354.000;   99.000
267.223;  -75.600; -344.000; -273.000
267.364; -243.300; -892.000; -686.000
267.504;  -10.200;    3.000;  135.000
267.645;   -1.900;  160.000;   67.000
267.786;  -49.700; -147.000;  -86.000
267.927; -155.300; -473.000; -379.000
268.068;  -14.700; -186.000;  -61.000
268.209;  -83.800; -175.000; -413.000
268.350;  -60.900; -388.000; -532.000
268.490; -184.400; -648.000; -521.000
268.631;   87.100;  127.000;  225.000
268.772; -214.800; -874.000; -647.000
268.913;  -78.500; -328.000; -476.000
269.054;  -26.400; -117.000;   12.000
269.194;  -98.000; -418.000; -402.000
269.335; -287.700;-1137.000;-1074.000
269.476;  -25.800;   33.000;  -35.000
269.617;  -59.600; -347.000; -392.000
269.757; -183.600; -713.000; -646.000
269.898; -190.300; -856.000; -613.000
270.039;  -93.300; -415.000; -405.000
270.180; -268.100; -952.000; -816.000
270.320;  -44.500; -190.000; -250.000
270.461;  -57.500; -277.000; -249.000
270.602;  -25.500; -186.000; -156.000
270.742; -241.500; -868.000; -943.000
270.883; -119.100; -442.000; -390.000
271.023; -105.700; -358.000; -357.000
271.164; -156.900; -607.000; -528.000
271.305; -187.100; -666.000; -654.000
271.445; -162.700; -722.000; -683.000
271.586; -149.300; -462.000; -283.000
271.726;  -98.000; -397.000; -322.000
271.867; -168.300; -594.000; -534.000
272.008;  -58.000; -473.000; -285.000
272.148;   80.500;  462.000;  468.000
272.289;  -38.500; -113.000; -181.000
272.429;    5.600;   19.000;  185.000
272.570; -202.500; -633.000; -737.000
272.710; -225.800; -825.000; -775.000
272.851;  -25.000;  113.000; -130.000
272.991; -314.100;-1173.000;-1077.000
273.131; -135.800; -419.000; -459.000
273.272; -212.300; -683.000; -723.000
273.412;  -44.900; -143.000;  -31.000
273.553; -163.800; -488.000; -507.000
273.693;  221.300;  913.000;  858.000
273.834; -277.400; -894.000; -692.000
273.974; -168.700; -664.000; -615.000
274.114; -218.400; -772.000; -560.000
274.255;  100.700;  414.000;  373.000
274.395;  -57.400; -180.000; -125.000
274.535;   80.900;  199.000;  350.000
274.676;   54.600;  225.000;   94.000
274.816;  -17.200;  110.000;   34.000
274.956; -217.400; -624.000; -690.000
275.097; -266.200;-1014.000; -922.000
275.237; -247.500; -913.000; -803.000
275.377; -213.900; -778.000; -689.000
275.517; -327.200; -878.000; -937.000
275.658; -151.300; -590.000; -555.000
275.798; -174.500; -606.000; -413.000
275.938;   57.700;  215.000;  323.000
276.078; -199.400; -626.000; -395.000
276.218;   -8.700;   99.000;  104.000
276.359; -283.300;-1026.000;-1024.000
276.499; -150.900; -605.000; -446.000
276.639;  -68.800; -305.000; -151.000
276.779;  -93.500; -475.000; -357.000
276.919; -193.300; -783.000; -624.000
277.059;  -63.800; -261.000; -212.000
277.199;  -62.300; -357.000; -259.000
277.340;   59.400;  287.000;  175.000
277.480; -226.900; -840.000; -693.000
277.620;  100.200;  192.000;   16.000
277.760; -391.300;-1533.000;-1294.000
277.900;   36.900;  113.000;   33.000
278.040;   30.300;  137.000;  159.000
278.180;   58.500;  270.000;  170.000
278.320;   37.700;   21.000;   56.000
278.460; -136.800; -443.000; -469.000
278.600; -173.400; -708.000; -598.000
278.740;  106.300;  448.000;  224.000
278.880; -255.200; -768.000; -791.000
279.020;  -57.400; -194.000; -144.000
279.160; -167.700; -672.000; -595.000
279.300; -244.500; -926.000; -873.000
279.440; -219.800; -709.000; -622.000
279.579; -269.600;-1014.000; -929.000
279.719; -144.900; -410.000; -394.000
279.859;   18.900;   -4.000;   41.000
279.999;  -66.000; -208.000;  101.000
280.139; -129.300; -435.000; -387.000
280.279; -217.800; -708.000; -745.000
280.419;  -26.400; -229.000; -147.000
280.559;  -82.100; -259.000; -180.000
280.698; -182.600; -790.000; -639.000
280.838; -223.300; -778.000; -800.000
280.978; -210.500; -846.000; -790.000
281.118; -210.900; -811.000; -704.000
281.257;   18.500;   24.000;    6.000
281.397; -311.600;-1094.000; -960.000
281.537; -204.800; -599.000; -712.000
281.677;  -49.100; -150.000; -101.000
281.816; -181.100; -700.000; -630.000
281.956;  -70.400; -193.000; -257.000
282.096; -122.700; -539.000; -396.000
282.235; -200.800; -672.000; -638.000
282.375;  -41.000; -243.000;  -98.000
282.515; -212.000; -715.000; -707.000
282.654;    8.400;   29.000;  106.000
282.794;   44.600;  388.000;  244.000
282.934;  -93.200; -530.000; -491.000
283.073; -283.600;-1030.000; -857.000
283.213; -106.900; -460.000; -467.000
283.353; -107.500; -408.000; -349.000
283.492;  -57.300; -264.000; -296.000
283.632; -105.600; -254.000; -168.000
283.771; -196.500; -859.000; -730.000
283.911; -121.900; -369.000; -260.000
284.050; -250.100; -794.000; -748.000
284.190; -333.900;-1229.000;-1096.000
284.329; -304.100;-1055.000; -964.000
284.469; -197.900; -516.000; -591.000
284.608; -127.000; -559.000; -598.000
284.748; -150.800; -614.000; -570.000
284.887;    2.200;  -87.000;  -20.000
285.027; -256.400; -844.000; -892.000
285.166;  -63.700; -192.000; -249.000
285.306;  -46.100; -116.000;  -33.000
285.445;  -74.100; -229.000; -343.000
285.584; -178.100; -630.000; -494.000
285.724;  -98.900; -282.000; -322.000
285.863; -245.800; -857.000; -507.000
286.002; -104.500; -366.000; -276.000
286.142; -208.400; -715.000; -622.000
286.281; -110.400; -525.000; -493.000
286.420; -185.100; -554.000; -417.000
286.560;  222.000;  653.000;  623.000
286.699; -260.700; -958.000; -912.000
286.838; -138.300; -590.000; -591.000
286.978; -181.800; -533.000; -537.000
287.117; -266.600;-1085.000; -950.000
287.256;  -49.800; -228.000; -211.000
287.395; -135.500; -197.000; -378.000
287.535; -117.600; -370.000; -298.000
287.674; -162.400; -509.000; -484.000
287.813;  129.500;  661.000;  533.000
287.952; -252.200;-1010.000; -871.000
288.091; -325.200;-1049.000; -915.000
288.231;   -0.400;   13.000;   15.000
288.370; -361.300;-1217.000;-1200.000
288.509; -180.200; -728.000; -645.000
288.648; -185.200; -770.000; -548.000
288.787;  -83.500; -243.000;  -87.000
288.926; -134.100; -454.000; -475.000
289.065;  190.900;  859.000;  672.000
289.204; -119.700; -377.000; -217.000
289.344; -165.900; -791.000; -690.000
289.483;   24.400;  416.000;  304.000
289.622;  -33.100; -291.000; -149.000
289.761;  -42.300; -309.000; -166.000
289.900; -229.900; -785.000; -626.000
290.039;  -30.000;  -12.000;  -95.000
290.178;  -80.600; -274.000; -180.000
290.317; -177.100; -618.000; -479.000
290.456; -123.600; -463.000; -451.000
290.595; -280.000; -961.000; -833.000
290.734; -276.100; -904.000; -891.000
290.873; -156.200; -456.000; -420.000
291.011; -251.700; -833.000; -843.000
291.150; -224.800; -770.000; -682.000
291.289;  -55.000; -343.000; -110.000
291.428; -203.100; -599.000; -480.000
291.567;  -88.500; -370.000; -442.000
291.706;   16.400;  109.000;  154.000
291.845; -170.700; -597.000; -505.000
291.984; -338.300;-1234.000;-1061.000
292.122;  158.200;  602.000;  582.000
292.261;  104.600;  620.000;  463.000
292.400;   45.700; -144.000;  211.000
292.539; -259.300; -959.000; -813.000
292.678;  -68.100; -325.000; -300.000
292.816; -299.400;-1136.000; -965.000
292.955; -211.000; -844.000; -684.000
293.094;  -69.700; -173.000; -337.000
293.233; -104.400; -556.000; -400.000
293.371;  -71.800; -225.000;  -84.000
293.510; -234.500; -866.000; -780.000
293.649; -290.800; -959.000; -924.000
293.787; -276.700;-1083.000;-1012.000
293.926;  -42.000; -113.000;  -32.000
294.065;  -82.200; -379.000; -290.000
294.203;   96.100;  298.000;  406.000
294.342;    0.500;   74.000;  156.000
294.481;12930.400;51180.000; -836.000
294.619;  -59.600; -425.000; -582.000
294.758; -352.200;-1230.000;-1137.000
294.896;  -10.700; -125.000;    5.000
295.035; -301.600;-1040.000;-1006.000
295.174; -250.100;-1082.000; -954.000
295.312;  -64.500; -323.000; -203.000
295.451; -105.700; -307.000; -428.000
295.589; -163.100; -389.000; -518.000
295.728;   22.000; -292.000; -165.000
295.866;  -28.900;  -36.000;  -51.000
296.005; -163.200; -584.000; -341.000
296.143; -182.600; -558.000; -596.000
296.282; -235.300; -957.000; -881.000
296.420; -188.800; -657.000; -557.000
296.559; -213.700; -892.000; -633.000
296.697; -178.800; -847.000; -665.000
296.835; -304.200;-1141.000;-1002.000
296.974;   -4.900;  -23.000;   39.000
297.112; -117.900; -443.000; -504.000
297.251; -225.200; -815.000; -755.000
297.389; -128.400; -576.000; -438.000
297.527;  -30.600; -145.000;  -83.000
297.666; -174.200; -486.000; -438.000
297.804; -102.300; -404.000; -264.000
297.942;  -46.400; -136.000; -161.000
298.081;  -15.000; -183.000;   63.000
298.219;  -62.400;  -17.000;  -19.000
298.357;  -59.000; -144.000;  -71.000
298.495; -235.200; -810.000; -812.000
298.634;   -4.000;  245.000;  219.000
298.772;  -75.200; -220.000; -338.000
298.910; -124.600; -309.000; -182.000
299.048;  -30.800; -130.000; -153.000
299.187;  -85.600; -350.000; -250.000
299.325;   17.500;   52.000;  122.000
299.463; -135.600; -389.000; -299.000
299.601;  -82.000; -327.000; -271.000
299.739; -263.900; -908.000; -883.000
299.877; -176.900; -791.000; -703.000
300.016; -306.200;-1095.000; -935.000
300.154;    6.200;  -19.000; -161.000
300.292; -119.000; -428.000; -348.000
300.430;  -96.600; -408.000; -291.000
300.568; -262.300; -940.000; -874.000
300.706; -123.500; -366.000; -469.000
300.844; -320.300;-1108.000; -979.000
300.982;  114.500;  246.000;  282.000
301.120; -267.800; -965.000; -866.000
301.258; -203.200; -812.000; -705.000
301.396;   -5.600;  104.000;  -41.000
301.534;  -73.500; -218.000; -293.000
301.672; -201.400; -664.000; -521.000
301.810; -183.500; -613.000; -545.000
301.948;   28.000;   53.000;  149.000
302.086;  -67.700; -250.000;  -32.000
302.224; -196.800; -610.000; -585.000
302.362; -184.800; -558.000; -622.000
302.500; -278.200; -923.000; -893.000
302.638;   17.700;  128.000;  245.000
302.776;  -91.600; -352.000; -408.000
302.913;   84.400;  447.000;  236.000
303.051;  -65.400;  -86.000;  -23.000
303.189;   44.000;   90.000;  118.000
303.327; -130.700; -341.000; -256.000
303.465; -188.100; -832.000; -588.000
303.603; -206.100; -805.000; -604.000
303.740;   92.200;  417.000;  241.000
303.878; -208.100; -800.000; -759.000
304.016; -214.700; -915.000; -790.000
304.154; -319.900;-1123.000;-1152.000
304.291; -136.200; -505.000; -554.000
304.429;   -7.100;  102.000;   74.000
304.567; -274.000; -908.000; -893.000
304.705; -136.600; -408.000; -515.000
304.842; -191.800; -616.000; -540.000
304.980;   -5.900;  215.000;   35.000
305.118;  -61.200; -367.000; -365.000
305.255; -295.100; -945.000; -927.000
305.393;   58.300;  178.000;  239.000
305.531; -288.900;-1173.000; -956.000
305.668; -198.400; -663.000; -582.000
305.806; -110.200; -358.000; -439.000
305.943; -149.300; -629.000; -637.000
306.081;  -99.100; -378.000; -267.000
306.219; -206.300; -863.000; -748.000
306.356;   49.500;  158.000;   27.000
306.494;  197.200;  981.000;  761.000
306.631;   -9.100;  -11.000;  -55.000
306.769; -138.800; -613.000; -485.000
306.906; -135.800; -284.000; -258.000
307.044; -139.500; -473.000; -488.000
307.181; -135.500; -410.000; -332.000
307.319;   17.600;  112.000;   87.000
307.456; -372.200;-1191.000;-1153.000
307.594; -240.000; -980.000; -727.000
307.731;  -47.600; -371.000; -164.000
307.868;  -22.800;  -15.000;   20.000
308.006; -298.300; -961.000; -847.000
308.143; -136.500; -618.000; -330.000
308.281;  -31.700;  -37.000; -254.000
308.418; -153.900; -748.000; -640.000
308.555; -162.500; -400.000; -250.000
308.693; -166.200; -577.000; -573.000
308.830; -211.900; -712.000; -657.000
308.967;  -24.100; -215.000;  -95.000
309.105; -129.500; -507.000; -396.000
309.242;  -99.400; -468.000; -367.000
309.379; -197.200; -577.000; -655.000
309.517; -250.400; -936.000; -948.000
309.654; -224.600; -910.000; -734.000
309.791; -196.800; -662.000; -580.000
309.928; -257.200; -977.000; -914.000
310.065;  183.500;  819.000;  697.000
310.203; -252.900; -825.000; -850.000
310.340; -102.300; -465.000; -321.000
310.477; -172.900; -412.000; -516.000
310.614; -140.000; -383.000; -473.000
310.751; -152.200; -427.000; -518.000
310.889;  -53.300;    1.000;   11.000
311.026; -311.100;-1161.000; -939.000
311.163; -111.800; -386.000; -380.000
311.300; -180.300; -512.000; -479.000
311.437; -161.300; -658.000; -619.000
311.574; -347.200;-1226.000; -985.000
311.711; -154.400; -595.000; -433.000
311.848;  -93.200; -380.000; -388.000
311.985;   22.100;  270.000;   93.000
312.122; -247.700; -932.000; -762.000
312.259; -265.200; -941.000; -994.000
312.396; -163.700; -508.000; -551.000
312.533; -210.600; -812.000; -790.000
312.670; -307.200;-1070.000; -898.000
312.807;  -83.100; -352.000; -367.000
312.944; -162.800; -513.000; -611.000
313.081;  -89.800; -150.000; -415.000
313.218; -305.500;-1111.000; -867.000
313.355; -112.600; -531.000; -449.000
313.492;  -99.800; -455.000; -292.000
313.629;  153.600;  815.000;  735.000
313.766; -325.100;-1176.000;-1008.000
313.902;  -53.100; -186.000;   21.000
314.039; -101.300; -372.000; -289.000
314.176;   66.100;  286.000;  192.000
314.313; -177.400; -569.000; -473.000
314.450; -203.300; -788.000; -684.000
314.587; -144.400; -468.000; -480.000
314.723;  -19.600;  -78.000;  130.000
314.860;   17.900;  318.000;  332.000
314.997;   37.200;  223.000;  142.000
315.134; -100.500; -385.000; -368.000
315.270; -152.300; -480.000; -496.000
315.407; -332.800;-1094.000; -967.000
315.544; -160.800; -657.000; -538.000
315.681; -187.800; -681.000; -565.000
315.817;  -39.900; -133.000; -176.000
315.954; -155.600; -613.000; -392.000
316.091; -302.900;-1045.000;-1023.000
316.227;  -68.000;  -71.000; -179.000
316.364;   -3.500;   23.000;    6.000
316.500;  -99.600; -113.000; -300.000
316.637;  -76.600; -181.000; -302.000
316.774; -143.900; -625.000; -358.000
316.910; -172.800; -598.000; -629.000
317.047; -181.300; -487.000; -351.000
317.183; -162.300; -435.000; -566.000
317.320; -130.900; -367.000; -321.000
317.456; -242.100; -733.000; -805.000
317.593; -205.700; -598.000; -641.000
317.729;   19.300;  168.000;  -67.000
317.866; -412.000;-1434.000;-1285.000
318.002; -191.900; -708.000; -948.000
318.139; -243.100; -883.000; -867.000
318.275; -229.900;-1003.000; -738.000
318.412; -143.400; -517.000; -336.000
318.548; -201.800; -751.000; -720.000
318.685; -283.100; -985.000; -888.000
318.821; -202.200; -762.000; -735.000
318.957;  -53.400;   34.000;  -23.000
319.094;   72.600;  297.000;  154.000
319.230; -242.100; -756.000; -742.000
319.367; -133.200; -471.000; -520.000
319.503; -136.100; -538.000; -436.000
319.639; -247.500; -877.000; -793.000
319.775; -241.000; -750.000; -685.000
319.912;  -87.700; -424.000; -519.000
320.048; -336.900;-1184.000;-1184.000
320.184;   -8.900;   59.000;   70.000
320.321; -127.300; -497.000; -467.000
320.457;  113.500;  475.000;  662.000
320.593; -120.400; -375.000; -382.000
320.729; -225.700; -732.000; -734.000
320.866; -183.300; -577.000; -635.000
321.002; -204.500; -759.000; -809.000
321.138; -113.000; -135.000; -211.000
321.274;  -25.000; -148.000; -115.000
321.410; -155.300; -585.000; -353.000
321.546; -265.800;-1011.000; -911.000
321.683;   61.800;  400.000;  185.000
321.819;  -32.500;  -48.000; -117.000
321.955; -227.800; -743.000; -722.000
322.091; -132.600; -585.000; -540.000
322.227;  -95.700; -382.000; -202.000
322.363;  -79.500; -320.000; -215.000
322.499; -104.700; -343.000; -331.000
322.635;  174.700;  636.000;  443.000
322.771;  -22.200; -139.000;   12.000
322.907;   75.100;  129.000;  327.000
323.043;  -86.200; -115.000; -206.000
323.179; -123.400; -394.000; -363.000
323.315; -135.000; -401.000; -371.000
323.451;  -87.500; -328.000; -236.000
323.587;  -68.100;  -60.000;  -77.000
323.723; -180.300; -682.000; -601.000
323.859;  -77.400; -258.000;  -76.000
323.995; -102.200; -467.000; -409.000
324.131; -278.500; -967.000; -892.000
324.267;  -52.600; -254.000; -276.000
324.402; -280.000; -960.000; -983.000
324.538;  -80.300; -279.000; -104.000
324.674;    7.600;  164.000;   77.000
324.810;    1.100;  226.000;  308.000
324.946; -152.600; -810.000; -658.000
325.082; -157.700; -568.000; -475.000
325.217;  -69.600;  -62.000;   16.000
325.353; -194.000; -764.000; -659.000
325.489; -196.300; -540.000; -506.000
325.625; -143.900; -579.000; -525.000
325.760;   68.900;  517.000;  376.000
325.896; -186.300; -515.000; -702.000
326.032; -105.300; -403.000; -352.000
326.168; -147.900; -462.000; -369.000
326.303; -112.900; -352.000; -461.000
326.439;  -75.000; -336.000; -276.000
326.575;  -52.500; -190.000;  -29.000
326.710;   -4.200; -156.000;  -30.000
326.846;    7.900;  146.000;  103.000
326.982; -189.400; -530.000; -548.000
327.117; -139.000; -481.000; -442.000
327.253; -188.300; -745.000; -742.000
327.388; -396.200;-1137.000;-1153.000
327.524; -205.100; -811.000; -578.000
327.659;  -59.200;  -58.000;  -22.000
327.795;  -12.800;   69.000;   45.000
327.931; -175.300; -723.000; -499.000
328.066;  -76.400; -417.000; -276.000
328.202;  -36.100;   12.000; -129.000
328.337;  199.900;  957.000;  713.000
328.473;  -38.600;  -12.000;  -74.000
328.608;  -53.400; -256.000; -267.000
328.743; -236.300; -799.000; -664.000
328.879;    0.300;  214.000;  114.000
329.014; -126.800; -102.000; -122.000
329.150; -153.900; -358.000; -483.000
329.285; -144.600; -465.000; -466.000
329.421;  -94.200; -548.000; -246.000
329.556;   -9.200;  -36.000;   85.000
329.691; -185.400; -633.000; -615.000
329.827; -170.700; -626.000; -480.000
329.962;  -91.400;  131.000; -301.000
330.097; -191.800; -673.000; -585.000
330.233;  -90.900; -410.000; -223.000
330.368; -269.200; -839.000; -628.000
330.503;  -25.800;    3.000;   98.000
330.638;  -50.500;  -93.000; -125.000
330.774; -156.300; -609.000; -530.000
330.909;  -92.800; -434.000; -244.000
331.044; -189.900; -714.000; -708.000
331.179; -352.500;-1217.000;-1109.000
331.315;   13.500;   77.000;   20.000
331.450;   -6.800;  157.000;  285.000
331.585; -166.600; -805.000; -706.000
331.720; -175.000; -510.000; -460.000
331.855;  -52.600;  -35.000; -102.000
331.990;  -23.400;   62.000;  138.000
332.126;    5.100; -110.000;   71.000
332.261; -110.100; -379.000; -265.000
332.396;  -77.300; -135.000; -242.000
332.531; -296.100;-1074.000;-1031.000
332.666;  -91.500; -519.000; -363.000
332.801; -237.900; -726.000; -807.000
332.936;  -41.300; -192.000; -122.000
333.071; -297.400; -870.000; -817.000
333.206;   43.100;  307.000;  379.000
333.341;   62.200;  344.000;  418.000
333.476; -191.500; -627.000; -623.000
333.611;  -76.800; -251.000; -173.000
333.746; -100.600; -381.000; -464.000
333.881; -272.000; -973.000; -935.000
334.016; -251.500; -936.000; -917.000
334.151; -260.000; -746.000; -702.000
334.286;   -8.800;  152.000;  186.000
334.421;  -38.500; -125.000; -178.000
334.556; -154.200; -611.000; -567.000
334.690; -177.500; -631.000; -577.000
334.825;  112.300;  381.000;   83.000
334.960; -136.800; -285.000; -413.000
335.095;   15.200;  135.000;  -91.000
335.230; -212.300; -722.000; -738.000
335.365; -292.200;-1084.000; -990.000
335.499; -293.200;-1108.000;-1037.000
335.634;   -7.900;    9.000;  534.000
335.769; -258.800; -755.000; -720.000
335.904; -196.500; -603.000; -561.000
336.038; -213.500; -735.000; -657.000
336.173; -339.100;-1206.000;-1194.000
336.308; -121.700; -116.000; -189.000
336.443; -188.600; -544.000; -634.000
336.577; -266.100; -936.000; -787.000
336.712;  -11.500;   -4.000;  -12.000
336.847; -207.700; -724.000; -607.000
336.981;  -89.800; -272.000; -208.000
337.116;  147.000;  615.000;  501.000
337.250; -147.300; -434.000; -421.000
337.385; -120.800; -297.000; -208.000
337.520; -222.500; -632.000; -603.000
337.654;  -97.700; -215.000; -126.000
337.789; -298.700; -989.000; -933.000
337.923;  -65.000; -104.000; -205.000
338.058; -227.400; -673.000; -738.000
338.192; -169.200; -611.000; -488.000
338.327;  -49.300;  -18.000; -155.000
338.461; -175.200; -299.000; -469.000
338.596; -164.300; -780.000; -638.000
338.730; -238.200; -767.000; -803.000
338.865;  -24.600;  -46.000; -140.000
338.999; -258.000; -846.000; -702.000
339.134; -188.600; -634.000; -536.000
339.268; -203.200; -741.000; -603.000
339.403; -218.200; -740.000; -775.000
339.537; -231.600; -894.000; -820.000
339.671; -228.100; -829.000; -813.000
339.806; -195.100; -556.000; -512.000
339.940;  -57.200; -261.000; -235.000
340.074; -207.300; -685.000; -510.000
340.209;  -96.500; -351.000; -230.000
340.343; -135.200; -517.000; -573.000
340.477;  259.400;  998.000; 1036.000
340.612; -283.000;-1033.000; -900.000
340.746; -116.200; -199.000; -243.000
340.880; -260.100; -924.000; -785.000
341.014;   -0.600;  -45.000; -154.000
341.149; -233.100; -756.000; -718.000
341.283; -216.000; -839.000; -754.000
341.417; -286.400;-1124.000; -938.000
341.551; -212.000; -768.000; -708.000
341.685; -175.700; -633.000; -611.000
341.820; -175.900; -562.000; -493.000
341.954; -128.300; -218.000; -349.000
342.088; -269.500;-1102.000;-1019.000
342.222;   93.400;  565.000;  618.000
342.356; -130.900; -395.000; -335.000
342.490; -254.400; -880.000; -841.000
342.624; -112.400; -339.000; -242.000
342.758;  -98.300; -364.000; -312.000
342.892; -220.500; -710.000; -585.000
343.026;  -44.400;  -58.000; -116.000
343.160; -108.700; -426.000; -376.000
343.294; -140.400; -474.000; -337.000
343.428; -145.000; -488.000; -448.000
343.562;  -78.100; -172.000;  -23.000
343.696;  -88.700; -385.000; -314.000
343.830; -106.900; -362.000; -356.000
343.964;  -55.300; -231.000; -168.000
344.098;   -2.500;  199.000;   70.000
344.232;  -41.800; -266.000; -127.000
344.366; -165.600; -567.000; -453.000
344.500; -206.200; -665.000; -744.000
344.634; -119.100; -324.000; -164.000
344.768; -160.800; -531.000; -341.000
344.902;   32.100;  278.000;  256.000
345.035; -153.700; -556.000; -496.000
345.169; -266.100; -933.000; -656.000
345.303; -133.700; -308.000; -482.000
345.437; -251.100; -826.000; -717.000
345.571; -169.700; -675.000; -594.000
345.704; -118.200; -309.000; -532.000
345.838;  -84.400; -331.000; -284.000
345.972; -168.400; -543.000; -495.000
346.106;  -17.300; -179.000; -190.000
346.239; -122.900; -312.000; -243.000
346.373; -131.100; -343.000; -302.000
346.507; -305.000; -950.000; -962.000
346.640;  -55.400;  -30.000;   13.000
346.774; -229.500; -650.000; -797.000
346.908;  -31.300; -138.000;  -11.000
347.041; -205.200; -646.000; -593.000
347.175;   16.600;  259.000;   27.000
347.309; -191.500; -698.000; -628.000
347.442; -263.800; -883.000; -732.000
347.576;  171.900;  670.000;  668.000
347.709;  -43.700; -123.000;  -52.000
347.843; -282.900; -933.000; -825.000
347.976;   77.700;  235.000;  294.000
348.110; -347.500;-1268.000;-1186.000
348.243; -241.300; -679.000; -772.000
348.377;    0.400;  -26.000;   60.000
348.510;   94.100;  403.000;  540.000
348.644;  -65.500;  -37.000; -159.000
348.777;   25.200;  180.000;  191.000
348.911;  -63.900; -142.000; -112.000
349.044;   88.600;  471.000;  448.000
349.178; -312.500;-1069.000;-1006.000
349.311;   37.400;  141.000;  255.000
349.444; -291.500; -927.000; -813.000
349.578; -110.000; -347.000; -200.000
349.711; -261.000; -959.000; -862.000
349.845; -195.600; -661.000; -591.000
349.978; -343.600;-1224.000;-1137.000
350.111; -169.600; -546.000; -612.000
350.244; -225.800; -596.000; -700.000
350.378; -128.900; -392.000; -393.000
350.511; -138.900; -393.000; -426.000
350.644; -227.500; -808.000; -806.000
350.778;    1.500;  168.000;  104.000
350.911;   13.100;  134.000;  140.000
351.044; -228.000; -685.000; -615.000
351.177;  -80.700; -321.000; -281.000
351.310;  -66.700;    3.000; -131.000
351.444; -251.700; -888.000; -788.000
351.577;   -8.000;  140.000;   90.000
351.710;  196.500;  593.000;  417.000
351.843;  -87.600; -165.000;  -77.000
351.976;  -16.200;  149.000;  -79.000
352.109; -215.300; -621.000; -612.000
352.242; -134.600; -464.000; -419.000
352.376; -191.500; -580.000; -636.000
352.509; -149.800; -437.000; -356.000
352.642; -308.200; -654.000; -604.000
352.775;  -35.800; -141.000;  -98.000
352.908; -280.800; -933.000; -904.000
353.041; -229.900; -814.000; -824.000
353.174; -150.000; -551.000; -424.000
353.307; -247.200; -753.000; -764.000
353.440;   91.100;  541.000;  453.000
353.573; -256.000; -957.000;-1008.000
353.706; -232.600; -384.000; -558.000
353.839;  -64.300; -264.000; -220.000
353.971; -190.900; -657.000; -512.000
354.104; -251.100; -896.000; -835.000
354.237; -211.400; -627.000; -662.000
354.370; -216.800; -846.000; -879.000
354.503; -387.100;-1231.000;-1308.000
354.636; -115.300; -529.000; -348.000
354.769; -302.900; -937.000; -860.000
354.902; -110.900; -230.000; -139.000
355.034;  -94.000; -164.000; -220.000
355.167;  -93.900; -262.000; -162.000
355.300; -283.900;-1061.000; -880.000
355.433;    8.200;  -71.000;  -14.000
355.565; -121.000; -402.000; -384.000
355.698; -122.200; -356.000; -296.000
355.831; -274.600; -882.000; -801.000
355.964;  -86.600; -285.000; -170.000
356.096; -278.000; -856.000; -843.000
356.229; -161.900; -523.000; -530.000
356.362; -122.800; -373.000; -266.000
356.494;  -63.700; -229.000; -162.000
356.627;   43.600;  269.000;  377.000
356.760;   10.900;  120.000;   53.000
356.892; -193.900; -286.000; -601.000
357.025;   89.400;  403.000;  389.000
357.157;  -78.100; -167.000; -179.000
357.290; -255.600; -856.000; -713.000
357.423; -201.800; -667.000; -556.000
357.555;  -60.000; -217.000; -228.000
357.688; -159.300; -483.000; -364.000
357.820; -271.300; -870.000; -877.000
357.953; -166.700; -563.000; -589.000
358.085; -203.100; -632.000; -612.000
358.218; -315.200;-1131.000; -932.000
358.350;  -49.100;  -58.000;  312.000
358.483; -338.100;-1300.000;-1187.000
358.615; -326.600;-1182.000;-1078.000
358.747; -352.200;-1187.000;-1058.000
358.880; -225.700; -810.000; -744.000
359.012; -121.200; -376.000; -202.000
359.145; -147.400; -480.000; -511.000
359.277; -294.600; -962.000; -913.000
359.409;  103.800;  536.000;  231.000
359.542; -254.700; -738.000; -688.000
359.674;  -21.200;   46.000;   13.000
359.806; -190.800; -565.000; -438.000
359.939; -141.500; -617.000; -516.000
360.071; -220.600; -583.000; -579.000
360.203; -114.400; -411.000; -364.000
360.335;   -1.200;  164.000;  -16.000
360.468;  -70.000; -249.000; -307.000
360.600; -169.700; -547.000; -454.000
360.732; -184.200; -546.000; -423.000
360.864; -335.100;-1216.000;-1044.000
360.996; -176.500; -516.000; -554.000
361.129; -155.100; -389.000; -598.000
361.261;  -13.100;  110.000; -113.000
361.393;  -82.800; -252.000; -214.000
361.525;   14.100;   94.000;  244.000
361.657; -250.100; -821.000; -703.000
361.789;  -40.300; -139.000; -155.000
361.921; -176.400; -642.000; -593.000
362.053;  105.700;  524.000;  541.000
362.185;   11.100;  288.000;   72.000
362.318; -240.300; -709.000; -705.000
362.450;   77.900;  294.000;  444.000
362.582; -262.300; -913.000; -870.000
362.714; -111.000; -353.000; -332.000
362.846; -141.900; -606.000; -490.000
362.978; -308.000; -941.000; -811.000
363.109;  -89.300; -161.000; -260.000
363.241; -260.900; -739.000; -749.000
363.373; -181.300; -649.000; -564.000
363.505;  -75.500; -186.000;  -91.000
363.637; -203.700; -787.000; -601.000
363.769; -336.500;-1067.000;-1080.000
363.901; -167.900; -596.000; -654.000
364.033; -313.900;-1103.000;-1062.000
364.165;  -64.300; -283.000; -283.000
364.296; -122.100; -316.000; -177.000
364.428; -357.300;-1344.000;-1220.000
364.560; -207.400; -679.000; -661.000
364.692; -183.200; -738.000; -835.000
364.824; -200.300; -588.000; -456.000
364.955; -108.300; -402.000; -564.000
365.087; -321.200;-1097.000; -852.000
365.219; -219.400; -686.000; -816.000
365.351; -180.600; -526.000; -572.000
365.482;   48.700;  300.000;  240.000
365.614; -117.300; -402.000; -314.000
365.746; -208.900; -729.000; -752.000
365.877; -236.700; -706.000; -672.000
366.009;  -38.400;  -35.000;  -62.000
366.141; -349.600;-1249.000;-1134.000
366.272; -218.800; -803.000; -719.000
366.404; -283.200;-1005.000; -874.000
366.535;   -0.500; -139.000;  -12.000
366.667; -214.200; -644.000; -649.000
366.799;   73.900;  353.000;  203.000
366.930; -290.400; -862.000; -996.000
367.062; -170.700; -639.000; -613.000
367.193; -253.200; -872.000; -842.000
367.325; -157.900; -580.000; -684.000
367.456; -108.500; -246.000;   31.000
367.588; -122.600; -371.000; -318.000
367.719;  -87.200;  -44.000;  -45.000
367.851; -104.200; -222.000; -241.000
367.982; -268.600; -875.000; -732.000
368.113; -121.800; -475.000; -358.000
368.245; -285.300; -960.000; -841.000
368.376; -125.800; -254.000; -302.000
368.508; -113.100; -188.000; -263.000
368.639; -327.800;-1166.000;-1034.000
368.770; -204.000; -670.000; -589.000
368.902; -259.800; -836.000; -926.000
369.033; -281.900; -906.000; -855.000
369.164; -207.400; -720.000; -653.000
369.296; -207.200; -452.000; -601.000
369.427;  -64.400; -209.000; -144.000
369.558; -195.600; -593.000; -377.000
369.689; -205.600; -721.000; -569.000
369.821; -281.700; -951.000; -845.000
369.952;  -43.000;   42.000; -108.000
370.083; -100.300; -229.000; -108.000
370.214; -221.600; -735.000; -650.000
370.345;   -7.000;   65.000;   81.000
370.477; -244.100; -810.000; -790.000
370.608; -115.900; -328.000; -264.000
370.739; -344.400;-1233.000;-1292.000
370.870; -282.400;-1102.000; -923.000
371.001; -172.300; -378.000; -467.000
371.132; -218.500; -754.000; -735.000
371.263;  -29.500;  -42.000; -148.000
371.394; -260.500; -841.000; -748.000
371.525;   43.600;  345.000;  225.000
371.657; -250.600; -808.000; -670.000
371.788;   40.800;  103.000;  199.000
371.919; -138.900; -384.000; -304.000
372.050;  -34.100;  -91.000; -156.000
372.181;  -61.200; -188.000; -294.000
372.311;  -28.600;   42.000; -127.000
372.442; -172.200; -457.000; -451.000
372.573; -102.900; -444.000; -340.000
372.704; -318.500;-1008.000; -980.000
372.835; -107.700; -228.000; -289.000
372.966; -199.500; -646.000; -554.000
373.097; -218.600; -575.000; -711.000
373.228; -233.200; -717.000; -542.000
373.359; -253.700; -824.000; -536.000
373.490; -252.300; -881.000; -727.000
373.620; -270.300;-1001.000; -803.000
373.751; -151.100; -332.000; -396.000
373.882; -164.700; -663.000; -733.000
374.013; -111.300; -449.000; -262.000
374.143; -179.400; -581.000; -659.000
374.274; -280.400; -987.000; -908.000
374.405; -128.800; -388.000; -276.000
374.536; -127.500; -526.000; -387.000
374.666; -242.800; -759.000; -807.000
374.797; -283.900; -817.000; -868.000
374.928; -202.400; -710.000; -560.000
375.058; -188.800; -535.000; -500.000
375.189;  -49.000;  -59.000;  -93.000
375.320; -321.300; -928.000;-1034.000
375.450; -165.400; -625.000; -616.000
375.581; -173.700; -526.000; -436.000
375.712; -107.600; -574.000; -250.000
375.842; -153.000; -438.000; -415.000
375.973; -184.400; -554.000; -513.000
376.103; -218.100; -665.000; -648.000
376.234; -171.500; -531.000; -552.000
376.364; -289.900; -944.000; -867.000
376.495;  179.600;  925.000;  529.000
376.625; -172.000; -472.000; -485.000
376.756; -203.700; -709.000; -678.000
376.886; -389.800;-1178.000;-1026.000
377.017; -346.600;-1048.000;-1061.000
377.147; -219.500; -786.000; -782.000
377.278;   13.400;  174.000;  228.000
377.408; -253.100; -801.000; -815.000
377.538; -193.100; -707.000; -693.000
377.669; -214.700; -537.000; -613.000
377.799; -215.600; -645.000; -635.000
377.929; -192.400; -610.000; -428.000
378.060; -262.000; -781.000; -847.000
378.190; -211.100; -726.000; -531.000
378.320; -143.300; -401.000; -406.000
378.451;  -51.500; -131.000;  -22.000
378.581;  -19.600;  -67.000; -110.000
378.711;  178.400; 1035.000;  866.000
378.841; -187.600; -533.000; -675.000
378.972; -291.700; -871.000; -751.000
379.102; -188.800; -652.000; -579.000
379.232;  -98.700; -126.000;  -73.000
379.362; -274.000;-1001.000; -885.000
379.492; -186.700; -373.000; -424.000
379.623;   15.300;    0.000;  111.000
379.753; -305.400;-1107.000; -974.000
379.883;    6.100;   59.000;  156.000
380.013; -335.400;-1081.000;-1017.000
380.143; -308.100;-1097.000;-1056.000
380.273; -262.500; -985.000; -861.000
380.403; -134.900; -344.000; -257.000
380.533; -226.100; -651.000; -664.000
380.663;    1.600;  173.000;  128.000
380.793; -325.700;-1027.000;-1074.000
380.923;  -75.600; -103.000;  -34.000
381.053; -222.700; -613.000; -623.000
381.183;  -88.000; -106.000; -248.000
381.313; -183.900; -656.000; -470.000
381.443; -182.600; -692.000; -473.000
381.573; -170.100; -402.000; -409.000
381.703; -331.200;-1249.000;-1095.000
381.833; -421.300;-1454.000;-1336.000
381.963;   -1.300; -134.000;  -87.000
382.093; -260.500; -925.000; -909.000
382.223; -215.800; -713.000; -602.000
382.353; -241.100; -801.000; -608.000
382.482; -319.700;-1091.000; -964.000
382.612; -221.200; -872.000; -644.000
382.742; -187.700; -695.000; -622.000
382.872; -196.300; -565.000; -551.000
383.002;   18.000;  347.000; -132.000
383.131; -125.600; -226.000; -160.000
383.261; -228.600; -706.000; -768.000
383.391; -162.000; -552.000; -377.000
383.521;   80.600;  451.000;  263.000
383.650; -291.000; -947.000; -904.000
383.780; -199.800; -783.000; -656.000
383.910;  120.700;  880.000;  802.000
384.039; -258.600; -794.000; -656.000
384.169; -363.300;-1205.000;-1017.000
384.299; -211.800; -650.000; -662.000
384.428; -202.500; -764.000; -680.000
384.558;  -70.400; -308.000; -275.000
384.687; -152.500; -414.000; -334.000
384.817;   -1.500;   75.000;   -2.000
384.947; -108.300; -234.000; -141.000
385.076;  241.200;  982.000;  912.000
385.206;   79.200;  369.000;  480.000
385.335; -160.500; -549.000; -417.000
385.465; -236.400; -655.000; -663.000
385.594;  -31.300;  -53.000;  -44.000
385.724; -284.000; -868.000; -838.000
385.853; -110.300; -296.000; -270.000
385.982; -256.100; -743.000; -787.000
386.112; -275.200;-1052.000; -871.000
386.241; -136.200; -307.000; -312.000
386.371;  -70.700; -174.000;  -87.000
386.500; -245.600; -825.000; -789.000
386.629; -228.700; -874.000; -817.000
386.759;  -27.500;  -43.000;   68.000
386.888;  -21.500; -170.000; -250.000
387.017; -218.700; -648.000; -620.000
387.147; -221.400; -771.000; -798.000
387.276; -190.900; -410.000; -397.000
387.405;  -94.200; -398.000; -342.000
387.535; -158.900; -452.000; -361.000
387.664; -187.100; -692.000; -620.000
387.793;  -78.100; -198.000; -113.000
387.922;   19.200;  255.000;  200.000
388.052; -188.100; -576.000; -423.000
388.181; -131.700; -342.000; -472.000
388.310; -243.800; -889.000; -710.000
388.439; -253.000; -749.000; -742.000
388.568;    9.900;  365.000;  244.000
388.697; -204.200; -756.000; -653.000
388.826; -215.000; -768.000; -666.000
388.956;  -71.700; -285.000; -307.000
389.085; -106.500; -347.000; -287.000
389.214; -262.700; -842.000; -872.000
389.343; -220.400; -645.000; -413.000
389.472;   39.400;  126.000;  149.000
389.601;  -17.800;   91.000;    0.000
389.730; -192.000; -568.000; -687.000
389.859;   28.200;  226.000;   46.000
389.988; -138.400; -423.000; -408.000
390.117;  -85.600; -168.000; -146.000
390.246; -108.600; -331.000; -320.000
390.375; -229.300; -673.000; -626.000
390.504; -172.100; -703.000; -621.000
390.633; -245.900; -672.000; -726.000
390.761; -217.400; -732.000; -645.000
390.890;  -42.600;   -4.000; -130.000
391.019; -152.100; -421.000; -441.000
391.148; -270.200; -826.000; -855.000
391.277; -186.600; -576.000; -493.000
391.406; -239.200; -821.000; -805.000
391.534;   35.100;  574.000; -301.000
391.663; -202.200; -583.000; -645.000
391.792; -218.700; -673.000; -701.000
391.921;  -23.300;   -3.000;   15.000
392.050;  -72.600; -287.000; -228.000
392.178; -336.100;-1206.000;-1061.000
392.307; -230.600; -758.000; -712.000
392.436; -209.700; -427.000; -641.000
392.564;  -20.700;  166.000;   -6.000
392.693; -229.400; -860.000; -682.000
392.822; -191.900; -529.000; -534.000
392.950; -268.000; -880.000; -714.000
393.079; -104.900; -188.000; -328.000
393.208; -176.300; -488.000; -511.000
393.336;  -57.000; -170.000; -145.000
393.465;  -84.900; -317.000; -199.000
393.593;  -16.400;   62.000;   79.000
393.722; -311.300;-1121.000; -916.000
393.850;  -80.100; -188.000;  -61.000
393.979; -288.600; -926.000; -805.000
394.107; -166.100; -517.000; -537.000
394.236; -169.300; -570.000; -507.000
394.364;   50.200;  383.000;  206.000
394.493; -264.800; -911.000; -767.000
394.621; -278.400; -955.000; -916.000
394.750; -300.600; -873.000; -923.000
394.878; -105.100; -247.000; -149.000
395.007; -255.400; -721.000; -807.000
395.135; -234.800; -790.000; -721.000
395.263; -305.100;-1038.000;-1040.000
395.392;  -18.300;  -25.000; -107.000
395.520; -192.200; -818.000; -679.000
395.648; -280.100; -865.000; -915.000
395.777; -135.100; -366.000; -405.000
395.905; -163.200; -449.000; -564.000
396.033;  -13.800;  217.000;  172.000
396.162; -120.100; -399.000; -453.000
396.290;  -51.000;  -17.000;   -2.000
396.418; -169.000; -555.000; -514.000
396.546; -246.700; -571.000; -466.000
396.674; -277.700; -850.000; -878.000
396.803;  -43.400;  -72.000;  -23.000
396.931;  -65.300; -179.000; -199.000
397.059; -319.600;-1026.000; -989.000
397.187; -282.100;-1026.000; -975.000
397.315; -292.700; -884.000; -649.000
397.443; -175.600; -592.000; -443.000
397.572; -167.000; -578.000; -424.000
397.700; -215.000; -607.000; -614.000
397.828;  -84.800;  120.000;  -90.000
397.956; -153.500; -508.000; -478.000
398.084; -228.200; -767.000; -626.000
398.212;   12.400;  137.000;  124.000
398.340;  -58.600;  -56.000;  159.000
398.468; -115.900; -390.000; -169.000
398.596; -276.200; -993.000; -953.000
398.724; -223.300; -762.000; -767.000
398.852; -297.300;-1024.000; -976.000
398.980; -167.100; -560.000; -560.000
399.108; -228.200; -982.000; -735.000
399.236;  -27.900;   13.000;    8.000
399.363;    2.600;  222.000;  196.000
399.491; -158.200; -404.000; -398.000
399.619; -277.600; -829.000; -800.000
399.747; -246.700; -859.000; -771.000
399.875;   27.300;  220.000;  234.000
400.003; -131.200; -359.000; -284.000
400.130; -169.800; -421.000; -341.000
400.258;  -46.100;  -83.000;   38.000
400.386; -110.100; -352.000; -168.000
400.514; -169.000; -526.000; -587.000
400.641; -285.600; -928.000; -802.000
400.769; -262.600; -979.000; -888.000
400.897; -251.800; -838.000; -793.000
401.025;  -47.100; -166.000; -152.000
401.152;   26.700;  220.000;   38.000
401.280; -155.200; -430.000; -429.000
401.408; -228.000; -712.000; -576.000
401.535; -230.600; -735.000; -758.000
401.663; -379.400;-1134.000;-1054.000
401.790; -178.400; -514.000; -525.000
401.918;   68.300;  436.000;  405.000
402.046;    2.500;  134.000;  122.000
402.173;  -50.700;  -18.000;    7.000
402.301; -130.700; -519.000; -397.000
402.428;   83.500;  528.000;  383.000
402.556; -338.200;-1188.000; -913.000
402.683;  -70.100;  -20.000;   -1.000
402.811;  -42.300;  -37.000; -206.000
402.938;  -44.100;   20.000;   27.000
403.066; -193.100; -574.000; -558.000
403.193;  -21.500;  299.000;  239.000
403.321; -151.300; -396.000; -574.000
403.448;  -28.500;   83.000;   27.000
403.575;  -29.200;  -90.000;  -46.000
403.703; -232.600; -732.000; -557.000
403.830; -140.400; -531.000; -496.000
403.957; -326.900;-1117.000;-1023.000
404.085;  -71.500;  -61.000; -172.000
404.212;  -27.500;  -50.000;   63.000
404.339; -147.400; -566.000; -306.000
404.467; -152.200; -612.000; -524.000
404.594;  -95.700; -287.000; -227.000
404.721; -243.100; -869.000; -764.000
404.848;  -93.800; -113.000; -202.000
404.976; -271.300; -856.000; -783.000
405.103;  -64.900;  -14.000;  -82.000
405.230;  -36.400;  190.000;  226.000
405.357;  -65.200;  117.000;   44.000
405.484;  -51.200;  -49.000;    5.000
405.612; -181.700; -548.000; -563.000
405.739; -159.100; -488.000; -243.000
405.866;  137.100;  669.000;  385.000
405.993; -120.200; -398.000; -102.000
406.120; -261.700; -801.000; -887.000
406.247; -133.800; -323.000; -342.000
406.374;  119.400;  540.000;  629.000
406.501; -209.100; -632.000; -702.000
406.628; -187.400; -621.000; -589.000
406.755; -258.700; -803.000; -620.000
406.882;  -84.000; -228.000; -277.000
407.009; -192.500; -719.000; -628.000
407.136; -132.400; -480.000; -401.000
407.263; -299.100; -939.000; -829.000
407.390; -239.100; -692.000; -614.000
407.517; -375.700;-1139.000;-1187.000
407.644; -155.100; -332.000; -256.000
407.771; -183.400; -249.000; -287.000
407.898;   30.500;  168.000;  328.000
408.025; -134.800; -421.000; -313.000
408.151;  -19.000;   82.000;  153.000
408.278; -131.300; -267.000; -216.000
408.405; -273.000; -931.000; -899.000
408.532; -182.700; -549.000; -542.000
408.659; -218.200; -677.000; -648.000
408.785; -370.700;-1298.000;-1170.000
408.912;  -89.300; -412.000; -296.000
409.039; -193.100; -610.000; -686.000
409.166; -186.500; -591.000; -555.000
409.292; -198.400; -571.000; -534.000
409.419; -225.700; -665.000; -649.000
409.546; -140.300; -431.000; -192.000
409.672; -201.000; -713.000; -545.000
409.799;  -58.900;  -36.000;   34.000
409.926;  -89.800; -180.000; -179.000
410.052; -368.900;-1127.000;-1091.000
410.179; -170.100; -368.000; -392.000
410.305; -161.700; -375.000; -493.000
410.432;  -85.500; -220.000; -333.000
410.558; -168.700; -305.000; -380.000
410.685; -145.700; -688.000; -431.000
410.812; -192.100; -409.000; -588.000
410.938; -285.100; -964.000; -808.000
411.065; -228.000; -671.000; -645.000
411.191;  -52.100; -189.000; -174.000
411.317; -284.500; -823.000; -742.000
411.444;  -82.000; -317.000; -246.000
411.570; -143.300; -339.000; -294.000
411.697; -217.100; -758.000; -752.000
411.823; -302.100; -989.000; -999.000
411.949;  -40.100;  -56.000;   17.000
412.076; -229.100; -539.000; -519.000
412.202; -241.500; -758.000; -757.000
412.329; -239.800; -798.000; -752.000
412.455; -220.100; -821.000; -657.000
412.581;  -28.200;  -15.000;  172.000
412.707; -157.200; -540.000; -457.000
412.834;  -17.700;  156.000;  219.000
412.960; -238.900; -785.000; -784.000
413.086; -243.100; -743.000; -701.000
413.212;   90.700;  604.000;  578.000
413.339; -267.600; -685.000; -701.000
413.465; -151.900; -364.000; -310.000
413.591; -249.800; -757.000; -474.000
413.717; -122.300; -358.000; -366.000
413.843; -292.900; -839.000; -861.000
413.969; -131.500;  -47.000; -292.000
414.096; -200.200; -679.000; -679.000
414.222;  -39.500;  -33.000;   85.000
414.348; -208.400; -652.000; -385.000
414.474;  -32.500;   38.000;  -52.000
414.600;  -44.700; -126.000; -144.000
414.726;  -55.500;  -96.000;  -55.000
414.852; -182.600; -365.000; -342.000
414.978;   -9.900;  104.000;  -18.000
415.104;  -11.500;   38.000;   80.000
415.230; -125.300; -329.000; -330.000
415.356; -162.900; -409.000; -514.000
415.482;  -78.900;   13.000;  -35.000
415.608; -101.000; -247.000; -323.000
415.734;  -12.000;   67.000;   38.000
415.860; -265.700; -875.000; -767.000
415.986; -235.900; -685.000; -607.000
416.111; -240.900; -798.000; -652.000
416.237; -162.900; -424.000; -571.000
416.363; -249.700; -765.000; -733.000
416.489;  -99.200; -324.000; -251.000
416.615; -278.800; -707.000; -742.000
416.741; -240.200; -677.000; -784.000
416.866; -244.100; -673.000; -736.000
416.992; -256.100; -801.000; -818.000
417.118; -131.300;  -41.000;  -80.000
417.244; -225.800; -798.000; -531.000
417.369; -244.200; -801.000; -612.000
417.495; -100.000; -325.000; -254.000
417.621; -308.900;-1015.000; -803.000
417.746; -168.900; -579.000; -572.000
417.872;  -86.200; -254.000; -144.000
417.998; -162.200; -515.000; -530.000
418.123; -305.800;-1073.000; -845.000
418.249; -164.700; -512.000; -601.000
418.374; -291.300; -916.000; -824.000
418.500; -169.600; -383.000; -482.000
418.626;  -10.600;   70.000;  -59.000
418.751; -155.000; -549.000; -448.000
418.877; -252.700; -637.000; -643.000
419.002; -155.900; -688.000; -560.000
419.128; -262.800; -930.000; -721.000
419.253; -299.600; -967.000; -837.000
419.379; -190.300; -391.000; -338.000
419.504;   54.800;  325.000;  415.000
419.629; -128.700; -393.000; -212.000
419.755; -103.800; -317.000; -254.000
419.880; -116.700;  -98.000;   67.000
420.006; -116.000; -280.000; -221.000
420.131; -217.900; -662.000; -775.000
420.256; -138.800; -315.000; -316.000
420.382; -208.300; -665.000; -687.000
420.507; -240.600; -649.000; -778.000
420.632; -136.800; -337.000; -339.000
420.758; -105.000; -251.000; -425.000
420.883; -264.500; -876.000; -672.000
421.008; -221.400; -775.000; -619.000
421.133; -181.700; -509.000; -467.000
421.259; -114.500; -325.000; -259.000
421.384; -272.100; -834.000; -693.000
421.509; -263.200;-1052.000; -862.000
421.634; -296.300; -936.000; -820.000
421.759; -141.800; -359.000; -327.000
421.885; -215.200; -717.000; -656.000
422.010; -153.800; -673.000; -542.000
422.135; -241.200; -695.000; -727.000
422.260;   58.700;  340.000;  280.000
422.385;  -70.300;   12.000;  -98.000
422.510;   -7.000;  151.000;  -26.000
422.635;  -38.500;  -87.000;  -43.000
422.760; -223.000; -766.000; -791.000
422.885;  -88.700;  -57.000;  -80.000
423.010;  -80.800; -112.000; -169.000
423.135; -250.300; -481.000; -561.000
423.260;  -69.200; -150.000; -245.000
423.385;   33.800;  476.000;  222.000
423.510;   -9.800;   71.000;  -22.000
423.635;  -37.700;  133.000;   45.000
423.760;   54.100;  383.000;  328.000
423.885;   38.500;  336.000;  391.000
424.010;  -47.900;  -68.000;  -13.000
424.135;  -86.900;    5.000;  -33.000
424.259; -195.400; -654.000; -457.000
424.384; -148.000; -279.000; -272.000
424.509;  -71.000; -260.000; -186.000
424.634; -272.600; -761.000; -623.000
424.759; -183.800; -688.000; -544.000
424.883; -200.400; -506.000; -527.000
425.008; -192.800; -502.000; -410.000
425.133; -228.300; -679.000; -653.000
425.258; -203.100; -517.000; -381.000
425.382; -260.800; -867.000; -774.000
425.507; -175.200; -487.000; -543.000
425.632; -271.100; -802.000; -663.000
425.756; -103.600; -256.000; -146.000
425.881; -270.300; -831.000; -857.000
426.006; -174.400; -604.000; -355.000
426.130; -254.400; -696.000; -508.000
426.255; -204.200; -611.000; -491.000
426.379; -138.500; -189.000; -577.000
426.504;  127.000;  660.000;  544.000
426.629; -220.900; -519.000; -466.000
426.753;  -30.700;   64.000;  -46.000
426.878; -126.200; -252.000; -288.000
427.002; -258.400; -651.000; -668.000
427.127;  -93.900;  -35.000; -158.000
427.251;   54.400;  372.000;  401.000
427.375; -110.200; -191.000; -173.000
427.500; -219.900; -616.000; -610.000
427.624; -124.600; -234.000; -400.000
427.749; -123.500; -216.000; -225.000
427.873; -201.700; -499.000; -412.000
427.997;  -77.000; -222.000; -230.000
428.122;  119.400;  795.000;  703.000
428.246;  103.400;  433.000;  434.000
428.371; -288.600; -869.000; -773.000
428.495; -203.500; -624.000; -646.000
428.619;  -90.300; -186.000; -117.000
428.743;   -7.800;   65.000;  132.000
428.868; -254.800; -732.000; -643.000
428.992; -131.000; -219.000; -326.000
429.116; -153.500; -329.000; -357.000
429.240;   48.100;  419.000;  426.000
429.365; -175.300; -454.000; -574.000
429.489; -216.100; -638.000; -647.000
429.613; -100.800; -236.000; -177.000
429.737; -155.600; -563.000; -432.000
429.861; -137.200; -247.000; -133.000
429.985; -170.100; -425.000; -305.000
430.109; -291.200; -770.000; -908.000
430.234;  -24.900;   76.000;  -50.000
430.358; -140.000; -250.000; -160.000
430.482; -230.400; -672.000; -564.000
430.606; -197.400; -655.000; -375.000
430.730; -163.100; -437.000; -388.000
430.854; -288.500; -909.000; -835.000
430.978; -250.000; -795.000; -764.000
431.102; -172.800; -499.000; -422.000
431.226; -297.600; -874.000; -815.000
431.350;   39.300;  345.000;  422.000
431.474; -170.500; -661.000; -373.000
431.597; -311.500;-1060.000; -848.000
431.721; -130.000; -276.000; -267.000
431.845; -266.700; -704.000; -472.000
431.969; -124.200; -304.000; -349.000
432.093; -137.700; -395.000; -317.000
432.217;  -11.300;   32.000;   82.000
432.341; -193.100; -523.000; -518.000
432.464;  -73.000;   96.000;   40.000
432.588; -196.500; -401.000; -329.000
432.712;  -71.600;  -52.000;  -52.000
432.836;  -16.400;  213.000;  263.000
432.959; -120.800; -372.000; -311.000
433.083;  -33.700;   11.000;    2.000
433.207;   85.100;  285.000;  930.000
433.330; -100.900; -391.000; -200.000
433.454; -203.400; -654.000; -638.000
433.578;   66.500;  583.000;  278.000
433.701; -223.900; -623.000; -675.000
433.825; -184.500; -292.000; -299.000
433.949;  -78.600;   28.000;  -72.000
434.072; -168.100; -410.000; -323.000
434.196;  -98.600; -309.000; -117.000
434.319; 7441.500;25482.000;25124.000
434.443; -185.200; -656.000; -603.000
434.566;    5.600;  281.000;   62.000
434.690; -168.800; -637.000; -383.000
434.813; -115.900; -251.000; -173.000
434.937; -212.900; -569.000; -696.000
435.060; -133.700; -423.000; -332.000
435.184; -143.600; -492.000; -217.000
435.307;  -39.600;  159.000;  102.000
435.431;  -44.600;  -40.000;   24.000
435.554; -141.800; -399.000; -240.000
435.677; -135.000; -350.000; -258.000
435.801;  -54.100;  -25.000;   49.000
435.924;  -76.800;    1.000;  -67.000
436.048; -298.700;-1019.000; -732.000
436.171; -116.400; -240.000;  -66.000
436.294; -122.600; -248.000; -229.000
436.417; -272.100; -963.000; -849.000
436.541; -280.900; -814.000; -840.000
436.664;  -86.200; -242.000; -316.000
436.787;  -39.400;   13.000;  113.000
436.910; -220.600; -792.000; -422.000
437.034;  -14.700;  142.000;  143.000
437.157;  -30.000;  -11.000;    0.000
437.280; -166.800; -392.000; -292.000
437.403; -292.200; -982.000; -869.000
437.526; -274.700; -903.000; -865.000
437.649; -140.000; -505.000; -332.000
437.772; -235.700; -692.000; -540.000
437.896;   95.400;  700.000;  544.000
438.019; -244.100; -758.000; -503.000
438.142; -204.600; -596.000; -506.000
438.265; -256.200; -639.000; -670.000
438.388; -160.300; -520.000; -410.000
438.511; -207.700; -597.000; -394.000
438.634; -124.100; -247.000; -125.000
438.757; -250.300; -693.000; -619.000
438.880;  -74.000;  -34.000;  -57.000
439.003; -152.800; -417.000; -437.000
439.126;  -95.500; -287.000; -167.000
439.248; -112.700;  -98.000; -139.000
439.371;  -49.700;    9.000;  -53.000
439.494;  101.700;  510.000;  439.000
439.617;  -50.000;   65.000;  -88.000
439.740; -274.100; -968.000; -816.000
439.863; -249.300; -755.000; -595.000
439.986; -222.600; -476.000; -431.000
440.108;  -80.400; -161.000; -112.000
440.231; -309.300; -950.000; -836.000
440.354;  -78.300;  -64.000; -150.000
440.477; -227.100; -566.000; -542.000
440.599; -140.400; -200.000; -225.000
440.722; -226.500; -709.000; -586.000
440.845;  166.000;  751.000;  928.000
440.968; -170.400; -415.000; -311.000
441.090;  -65.700; -199.000;  -33.000
441.213; -308.500;-1021.000; -825.000
441.336;  -84.400; -159.000;   -5.000
441.458; -146.200; -549.000; -396.000
441.581; -236.000; -628.000; -629.000
441.703; -109.100; -152.000;   13.000
441.826; -160.500; -557.000; -400.000
441.948;  -46.500;   56.000;   51.000
442.071;  124.400;  555.000;  424.000
442.193; -187.600; -531.000; -485.000
442.316;  -51.000;  152.000;   97.000
442.438; -121.800; -233.000;  -10.000
442.561;   12.100;  272.000;  262.000
442.683; -237.600; -809.000; -522.000
442.806;  -75.600;   -8.000;   74.000
442.928; -286.000; -859.000; -604.000
443.051; -183.400; -577.000; -373.000
443.173; -163.900; -341.000; -339.000
443.295; -158.600; -263.000; -371.000
443.418; -121.400; -321.000;  -29.000
443.540;  -42.200; -106.000;   -4.000
443.662; -224.600; -563.000; -465.000
443.785;   32.100;  335.000;  199.000
443.907; -201.300; -362.000; -208.000
444.029; -251.500; -767.000; -494.000
444.152; -267.700; -644.000; -554.000
444.274;  -15.800;  -18.000;  -24.000
444.396; -197.500; -461.000; -221.000
444.518; -231.200; -691.000; -454.000
444.640; -183.100; -268.000; -111.000
444.763;   11.400;  388.000;  249.000
444.885; -214.300; -432.000; -392.000
445.007;  -36.400;   35.000;   86.000
445.129; -202.200; -610.000; -515.000
445.251; -209.200; -372.000; -439.000
445.373; -239.600; -537.000; -386.000
445.495;   17.100;  242.000;  350.000
445.617;  172.500;  853.000;  753.000
445.739;  -96.300; -215.000;  -97.000
445.861;  -91.100; -245.000; -112.000
445.984; -118.900; -267.000; -101.000
446.105; -174.200; -418.000; -251.000
446.227;  -75.800; -176.000;  -19.000
446.349; -197.400; -358.000; -249.000
446.471; -187.600; -615.000; -448.000
446.593; -118.500; -316.000;   19.000
446.715;  -68.800;  -67.000;   41.000
446.837;  122.000;  697.000;  832.000
446.959; -173.800; -457.000; -478.000
447.081; -236.400; -628.000; -518.000
447.203;  164.600;  862.000;  834.000
447.325; -118.900; -270.000;   42.000
447.446;    4.600;  286.000;  530.000
447.568; -305.100; -921.000; -803.000
447.690; -165.800; -236.000; -245.000
447.812; -285.000; -798.000; -519.000
447.933;  -25.200;  155.000;  127.000
448.055; -117.200; -306.000; -261.000
448.177;  -25.600;   31.000;   79.000
448.299; -338.100; -935.000; -727.000
448.420;  -18.400;  -25.000;  159.000
448.542;  -89.400;   -3.000;   33.000
448.664;    3.100;  109.000;  322.000
448.785;  -56.700;  265.000;   83.000
448.907; -194.800; -614.000; -353.000
449.028; -229.500; -771.000; -471.000
449.150;   78.900;  492.000;  589.000
449.272; -320.900;-1044.000; -913.000
449.393;   96.700;  612.000;  694.000
449.515; -279.400; -634.000; -581.000
449.636; -124.800; -264.000; -155.000
449.758;  122.200;  763.000;  622.000
449.879; -168.700; -498.000; -396.000
450.001; -136.500; -149.000;  -49.000
450.122;  -66.500;  -95.000;  162.000
450.244;   -8.100;   37.000;  364.000
450.365; -187.200; -495.000; -301.000
450.486;  -57.200;   80.000;  268.000
450.608;    7.000;  393.000;  326.000
450.729;   92.200;  578.000;  645.000
450.850; -218.700; -574.000; -466.000
450.972; -273.500; -552.000; -389.000
451.093;   60.300;  190.000;  588.000
451.214; -197.000; -516.000; -337.000
451.336;  173.300;  773.000;  579.000
451.457;   18.700;  264.000;  393.000
451.578;  -75.500; -118.000;  -74.000
451.699; -206.000; -546.000; -540.000
451.821; -123.700; -284.000;  -50.000
451.942;   -2.900;  278.000;  285.000
452.063;   31.900;  228.000;  419.000
452.184; -126.900;  -54.000;  -49.000
452.305;  -11.200;  103.000;  170.000
452.427; -199.100; -549.000; -301.000
452.548;  -77.600;   23.000;   79.000
452.669; -117.900; -257.000;  -89.000
452.790; -101.200;    3.000;  -18.000
452.911;  -41.400;  195.000;  259.000
453.032; -143.000; -289.000;  -60.000
453.153;  -62.300;  -29.000;   81.000
453.274;  159.000;  737.000;  868.000
453.395;  -85.600;  -51.000;  175.000
453.516;  258.800; 1317.000; 1388.000
453.637; -129.500; -205.000; -150.000
453.758;  -69.800;   15.000;   69.000
453.879; -206.100; -462.000; -250.000
454.000;  193.300; 1086.000;  948.000
454.121; -240.200; -554.000; -326.000
454.242; -215.800; -599.000; -383.000
454.362;  -83.500;  -99.000;  114.000
454.483; -132.700; -309.000; -229.000
454.604;   26.400;  512.000;  580.000
454.725; -229.200; -627.000; -555.000
454.846; -205.400; -474.000; -406.000
454.967;    3.000;  230.000;  539.000
455.087;  -13.400;  179.000;  153.000
455.208;   74.200;  554.000;  856.000
455.329; -104.300;  -22.000;   82.000
455.450;   46.600;  473.000;  633.000
455.570; -160.600; -234.000; -211.000
455.691;  -27.000;  201.000;  407.000
455.812; -144.900; -270.000;  -92.000
455.932;  -83.700;  107.000;  -97.000
456.053;  -93.000;   36.000;   24.000
456.173; -165.400; -433.000; -355.000
456.294; -183.100; -476.000; -303.000
456.415;  -68.300;  -73.000;   70.000
456.535;  -16.500;  297.000;  273.000
456.656;  -44.300;  132.000;  240.000
456.776;  -93.800;    3.000;  298.000
456.897;   37.200;  308.000;  513.000
457.017; -108.200; -153.000;   -3.000
457.138; -204.600; -402.000; -249.000
457.258;   -9.000;  263.000;  224.000
457.379;   10.600;  509.000;  521.000
457.499;    2.900;  443.000;  432.000
457.620; -226.700; -407.000; -231.000
457.740; -134.000; -132.000;  -11.000
457.860;  -78.500;   87.000;   44.000
457.981; -112.500;  132.000;  124.000
458.101; -134.500;  -89.000;   40.000
458.221;    0.800;  336.000;  402.000
458.342;  -79.200;   -4.000;  -37.000
458.462;   37.500;  617.000;  352.000
458.582; -167.600; -302.000; -294.000
458.703;  -58.600;  303.000;  154.000
458.823;  -98.000;   22.000;  163.000
458.943;    1.000;  341.000;  467.000
459.063;  -20.200; 1124.000;  192.000
459.183;  -11.700;  328.000;  313.000
459.304;   24.700;  315.000;  517.000
459.424; -133.500; -246.000;  -89.000
459.544;   78.400;  388.000;  764.000
459.664;   34.300;  499.000;  506.000
459.784;  174.700; 1004.000; 1175.000
459.904;  126.600;  867.000;  744.000
460.024;  118.500;  867.000;  684.000
460.144;   27.900;  449.000;  554.000
460.264;   12.000;  515.000;  327.000
460.385; -151.600; -145.000; -119.000
460.505;  119.300;  905.000;  858.000
460.625; -119.600;  -17.000;  -68.000
460.745;    2.200;  396.000;  541.000
460.864;  -38.500;  153.000;  469.000
460.984;   47.200;  499.000;  573.000
461.104;  324.200; 1656.000; 1775.000
461.224;   93.900;  657.000;  650.000
461.344;   16.400;  431.000;  360.000
461.464;  -20.400;  258.000;  513.000
461.584;   15.000;  283.000;  466.000
461.704;  -98.700;   58.000;  108.000
461.824;  -55.900;  238.000;  259.000
461.943;  -41.600;  191.000;  130.000
462.063; -119.900;    2.000;  324.000
462.183;   66.200;  639.000;  717.000
462.303;  245.200; 1678.000; 1230.000
462.422;   98.500;  781.000;  840.000
462.542;  -70.400;  271.000;  391.000
462.662;    8.300;  353.000;  380.000
462.782;   52.400;  833.000;  572.000
462.901;   16.500;  545.000;  717.000
463.021;  293.100; 1702.000; 1638.000
463.141;    3.900;  337.000;  770.000
463.260;   13.000;  614.000;  474.000
463.380;   82.700;  902.000;  884.000
463.499;   24.200;  342.000;  332.000
463.619;  -22.100;  581.000;  559.000
463.738;  269.800; 1644.000;  903.000
463.858;   94.700;  657.000;  811.000
463.978;  -22.200;  542.000;  396.000
464.097;  135.100;  921.000; 1114.000
464.217;  182.300; 1196.000; 1143.000
464.336;  188.000; 1068.000; 1130.000
464.455;  -34.500;  328.000;  659.000
464.575;   38.300;  597.000;  602.000
464.694;  172.800; 1204.000; 1179.000
464.814;  134.800; 1190.000; 1138.000
464.933;  135.200; 1095.000; 1027.000
465.052;  190.100; 1412.000; 1054.000
465.172;  107.600;  922.000;  799.000
465.291;  226.400; 1376.000; 1320.000
465.410;   48.300;  462.000;  735.000
465.530;  206.800; 1355.000; 1310.000
465.649;  146.400; 1209.000; 1273.000
465.768;  316.400; 1673.000; 1508.000
465.888;  130.100;  941.000; 1174.000
466.007;  255.100; 1335.000; 1440.000
466.126;   61.300;  721.000;  641.000
466.245;  120.200; 1176.000; 1187.000
466.364;  101.700;  950.000; 1060.000
466.484;  175.200; 1024.000; 1213.000
466.603;  104.500; 1101.000; 1222.000
466.722;  237.000; 1490.000; 1769.000
466.841;  188.800; 1151.000; 1401.000
466.960;  121.500; 1069.000;  972.000
467.079;  323.200; 1971.000; 1786.000
467.198;  208.100; 1238.000; 1181.000
467.317;  229.000; 1768.000; 1162.000
467.436;  192.800; 1709.000; 1261.000
467.555;  313.100; 1796.000; 1746.000
467.674;  219.000; 1227.000; 1329.000
467.793;  167.000; 1376.000; 1374.000
467.912;  209.500; 1658.000; 1539.000
468.031;  333.600; 2038.000; 1930.000
468.150;  316.300; 1842.000; 1837.000
468.269;  484.200; 2313.000; 2090.000
468.388;  410.400; 2168.000; 2339.000
468.507;  598.500; 2884.000; 2903.000
468.626;  628.600; 2555.000; 2541.000
468.744;  357.700; 2018.000; 2174.000
468.863;  475.600; 2312.000; 2523.000
468.982;  243.000; 1503.000; 1555.000
469.101;  500.800; 2788.000; 2692.000
469.220;  352.900; 2333.000; 2176.000
469.338;  573.000; 2935.000; 3051.000
469.457;  495.000; 2719.000; 2545.000
469.576;  768.900; 3953.000; 3784.000
469.695;  576.800; 2877.000; 3066.000
469.813;  923.400; 4148.000; 4192.000
469.932;  809.300; 4255.000; 4485.000
470.051;  825.300; 4075.000; 4161.000
470.169;  922.400; 4470.000; 4338.000
470.288;  886.900; 4700.000; 4809.000
470.406;  965.000; 5059.000; 5194.000
470.525; 1174.100; 6101.000; 5787.000
470.644; 1316.800; 6847.000; 6794.000
470.762; 1670.600; 8397.000; 7873.000
470.881; 1722.300; 8651.000; 8464.000
470.999; 1949.700; 9685.000; 9151.000
471.118; 2262.800;11174.000;10711.000

