
Integration time [ms]: 200.000
Averaging Nr. [scans]: 10
Smoothing Nr. [pixels]: 0
Data measured with spectrometer [name]: 2101012U2
Wave   ;Sample   ;Dark     ;Reference
[nm]   ;[counts] ;[counts] ;[counts] 

197.733;  126.000;  516.000;  404.000
197.879; -211.200; -610.000; -634.000
198.025; -101.100; -475.000; -420.000
198.171; -147.900; -602.000; -612.000
198.317;  -66.500; -401.000; -316.000
198.463; -130.300; -655.000; -404.000
198.609;   82.400;  181.000; -137.000
198.755; -163.000; -644.000; -410.000
198.901; -144.100; -505.000; -424.000
199.047; -160.600; -615.000; -488.000
199.193; -104.300; -230.000; -468.000
199.339;  -90.900; -222.000; -369.000
199.485;   98.800;  330.000;  271.000
199.631;   24.800;  227.000;  310.000
199.777; -119.200; -466.000; -398.000
199.923; -124.600; -610.000; -424.000
200.069;  -14.800; -141.000;  -58.000
200.215;   78.900;  128.000;  453.000
200.361;   97.400;  243.000;  477.000
200.507; -173.500; -600.000; -373.000
200.653;  -45.400; -371.000; -194.000
200.798;  -80.200; -215.000; -125.000
200.944;   10.100; -146.000;  -41.000
201.090;   71.800;   61.000;  222.000
201.236;  -26.600; -116.000; -158.000
201.382;  269.300;  874.000;  903.000
201.528;   20.100;  -58.000;  -48.000
201.674; -101.200; -386.000; -293.000
201.819; -129.500; -540.000; -439.000
201.965; -180.300; -699.000; -447.000
202.111;  -46.400; -273.000; -226.000
202.257;  -68.400; -250.000; -238.000
202.402;   19.100;   13.000;  -36.000
202.548;  -58.800; -169.000; -116.000
202.694;  207.000;  410.000; -183.000
202.840; -161.100; -603.000; -531.000
202.985; -136.300; -681.000; -639.000
203.131; -232.200; -832.000; -666.000
203.277;  -35.600; -199.000; -262.000
203.423;  -95.500; -434.000; -520.000
203.568;  -67.000; -462.000; -237.000
203.714; -135.300; -535.000; -542.000
203.860; -153.100; -682.000; -641.000
204.005;   24.600;  112.000;  167.000
204.151;  173.000;  561.000;  556.000
204.296;  -96.000; -354.000; -221.000
204.442; -155.600; -600.000; -547.000
204.588; -147.800; -592.000; -579.000
204.733;   21.300;  178.000;  168.000
204.879; -258.000;-1018.000; -822.000
205.025;   31.600;  -99.000;  126.000
205.170;  -18.400;  -17.000;   94.000
205.316;  184.000;  438.000;  661.000
205.461; -186.900; -698.000; -554.000
205.607;  206.400;  609.000;  665.000
205.752; -173.600; -626.000; -551.000
205.898; -118.800; -501.000; -391.000
206.043; -133.400; -578.000; -506.000
206.189; -107.500; -243.000; -285.000
206.334;  165.800;  554.000;  606.000
206.480;  161.300;  409.000;  239.000
206.625; -169.400; -529.000; -552.000
206.771;  -84.200; -451.000; -373.000
206.916;  -58.700; -210.000; -537.000
207.062; -163.800; -545.000; -591.000
207.207; -123.000; -546.000; -443.000
207.353;  122.900;  185.000;  460.000
207.498;   32.700;  196.000;   85.000
207.643;  -90.800; -501.000; -370.000
207.789; -278.200;-1069.000; -910.000
207.934; -168.500; -665.000; -713.000
208.080;  -63.800; -154.000;   66.000
208.225;   24.200;  -22.000;  -57.000
208.370; -150.500; -727.000; -619.000
208.516; -134.200; -741.000; -487.000
208.661;  -54.900; -127.000;  -69.000
208.806;  -50.600; -165.000; -171.000
208.952; -256.400;-1044.000; -731.000
209.097;  153.100;  378.000;  349.000
209.242;  -88.400; -307.000; -382.000
209.387;  122.100;  392.000;  350.000
209.533; -133.600; -321.000; -350.000
209.678;  165.500;  472.000;  543.000
209.823; -151.100; -408.000; -310.000
209.969; -181.400; -860.000; -757.000
210.114; -233.600; -907.000; -719.000
210.259; -241.400; -939.000; -889.000
210.404;  -17.200; -171.000;  103.000
210.549;   45.200;  108.000;    3.000
210.695;   -9.900;   -3.000;  -95.000
210.840;  100.000;   94.000;   67.000
210.985; -150.500; -484.000; -303.000
211.130;  136.200;  268.000;  406.000
211.275;    8.200;  207.000;  199.000
211.420; -109.800; -300.000; -289.000
211.566; -135.400; -536.000; -489.000
211.711;   51.200;  218.000;  157.000
211.856; -133.900; -545.000; -519.000
212.001;   14.900;  151.000;   44.000
212.146;  -26.800;  153.000;   49.000
212.291;  -19.000; -210.000; -186.000
212.436;  -63.600; -280.000;   -6.000
212.581; -188.100; -685.000; -653.000
212.726; -157.500; -487.000; -538.000
212.871; -104.500; -552.000; -217.000
213.016; -312.200;-1172.000;-1029.000
213.161;  140.400;  406.000;  291.000
213.306; -156.900; -435.000; -577.000
213.451; -185.300; -778.000; -689.000
213.596;  -84.600; -455.000; -347.000
213.741;  -90.200; -448.000; -538.000
213.886; -135.900; -498.000; -517.000
214.031;  -46.200; -294.000; -124.000
214.176; -128.900; -408.000; -341.000
214.321;  -22.100; -296.000; -157.000
214.466;  -56.600; -163.000;  -43.000
214.611;    2.100;  -61.000;  -10.000
214.756; -243.000; -948.000; -858.000
214.901;  -21.200; -388.000; -226.000
215.046; -234.700; -797.000; -825.000
215.191;   45.300;  128.000;   35.000
215.336;  -17.200; -157.000;  -19.000
215.480; -127.300; -684.000; -505.000
215.625;  -30.500; -175.000;  -19.000
215.770; -158.700; -757.000; -662.000
215.915;   28.700;   -5.000;  -97.000
216.060;   13.100; -113.000;  -21.000
216.205; -240.700; -731.000; -779.000
216.349; -152.500; -470.000; -533.000
216.494; -278.000; -939.000; -867.000
216.639; -249.900; -823.000; -888.000
216.784; -202.800; -577.000; -525.000
216.929;   89.100;  392.000;  281.000
217.073;  -14.600; -244.000;  -31.000
217.218;   29.000;   78.000;  -47.000
217.363; -194.300; -656.000; -618.000
217.507; -168.800; -623.000; -588.000
217.652; -268.000; -845.000; -874.000
217.797; -163.200; -708.000; -659.000
217.942; -215.500; -856.000; -720.000
218.086;  157.400;  608.000;  539.000
218.231;  -24.600; -174.000;  -26.000
218.376;  -67.900; -337.000; -229.000
218.520;   17.400;  -41.000;   96.000
218.665;  -53.400; -338.000; -204.000
218.810;  -91.200; -275.000; -233.000
218.954;   38.500;  201.000;   35.000
219.099; -225.800; -713.000; -963.000
219.243; -139.400; -589.000; -554.000
219.388;  -52.400; -264.000; -136.000
219.532;  -40.000; -116.000; -116.000
219.677; -187.900; -564.000; -521.000
219.822;    9.000;   33.000;   89.000
219.966;   35.500;   17.000;  -99.000
220.111;  -52.700; -328.000;  -40.000
220.255; -196.700; -797.000; -750.000
220.400;  -30.800; -180.000; -146.000
220.544; -151.200; -516.000; -450.000
220.689; -109.400; -422.000; -451.000
220.833;  -44.000; -123.000;  -58.000
220.978;  -62.900; -393.000; -563.000
221.122;   56.300;  319.000;  307.000
221.267; -208.000; -906.000; -837.000
221.411; -142.200; -478.000; -394.000
221.555;   12.800; -104.000;  -23.000
221.700; -107.800; -329.000; -222.000
221.844;   86.400;  255.000;  272.000
221.989; -114.900; -328.000; -311.000
222.133;  -45.300; -289.000; -307.000
222.277;  -23.000;    5.000;   78.000
222.422;   50.800;  227.000;  113.000
222.566;  -73.100; -381.000; -214.000
222.711; -104.400; -414.000; -479.000
222.855; -175.100; -643.000; -586.000
222.999; -164.600; -642.000; -717.000
223.144;  -48.300; -195.000; -194.000
223.288;  122.000;  423.000;  251.000
223.432;   47.900;  184.000;  230.000
223.576;   40.100;  152.000;  -21.000
223.721;  108.900;  364.000;  273.000
223.865;  -98.100; -472.000; -475.000
224.009;  561.200; 1673.000; 1631.000
224.153; -165.700; -660.000; -671.000
224.298; -130.700; -531.000; -489.000
224.442;  -18.200;  -74.000;  -33.000
224.586;  -32.900; -169.000; -106.000
224.730; -170.300; -858.000; -670.000
224.875; -248.600; -739.000; -688.000
225.019;   28.400;  102.000;  188.000
225.163;  130.500;  208.000;  341.000
225.307;   33.300;   97.000;  -91.000
225.451;  125.200;  360.000;  481.000
225.595;   83.100;  264.000;  176.000
225.739;  -39.000; -170.000;  -94.000
225.884;   25.200;   86.000;    5.000
226.028; -201.700; -760.000; -626.000
226.172;  -56.900; -260.000; -273.000
226.316; -243.300; -941.000; -902.000
226.460; -121.700; -645.000; -493.000
226.604; -114.300; -406.000; -400.000
226.748; -172.800; -836.000; -733.000
226.892;  -54.500; -227.000; -181.000
227.036;  -90.400; -537.000; -447.000
227.180;  -91.100; -551.000; -375.000
227.324; -133.600; -561.000; -580.000
227.468; -240.200; -819.000; -717.000
227.612;   50.600;  242.000;  -28.000
227.756; -212.000; -845.000; -698.000
227.900;  132.600;  342.000;  441.000
228.044; -113.800; -509.000; -290.000
228.188;  121.900;  448.000;  568.000
228.332; -178.200; -546.000; -472.000
228.476;  -30.900; -223.000; -149.000
228.620;  -29.000; -210.000; -150.000
228.764;  153.800;  431.000;  349.000
228.908;   -8.700; -155.000;   30.000
229.052; -119.200; -615.000; -528.000
229.195;   12.000; -172.000;   13.000
229.339;   -7.700; -235.000; -305.000
229.483;  -70.500;    5.000; -162.000
229.627;   -5.200; -156.000;  139.000
229.771;  -76.200; -218.000; -294.000
229.915;   35.300;  230.000;   79.000
230.059; -191.000; -648.000; -663.000
230.202;  -98.700; -370.000; -317.000
230.346;  -34.100; -107.000;  107.000
230.490; -131.300; -489.000; -521.000
230.634; -193.600; -736.000; -553.000
230.777;  172.100;  478.000;  509.000
230.921;  -93.600; -450.000; -359.000
231.065;  -71.200; -246.000; -286.000
231.209;   65.000;  261.000;  265.000
231.352;   57.700;   54.000;   40.000
231.496;   29.800;  568.000;  188.000
231.640; -164.700; -693.000; -621.000
231.783;  115.100;  546.000;  525.000
231.927; -120.800; -294.000; -365.000
232.071; -237.000; -962.000; -736.000
232.214; -218.200; -980.000; -764.000
232.358; -178.400; -683.000; -599.000
232.502;   34.800;  -19.000;    7.000
232.645; -273.900;-1090.000; -927.000
232.789;  -54.400; -257.000; -218.000
232.933;  -75.100; -407.000; -224.000
233.076; -254.400;-1038.000; -897.000
233.220; -224.800; -752.000; -777.000
233.363; -130.900; -669.000; -477.000
233.507;  151.200;  371.000;  129.000
233.650; -177.700; -764.000; -834.000
233.794;  113.900;  438.000;  461.000
233.938; -111.400; -530.000; -362.000
234.081;   -9.300;  -93.000;   31.000
234.225; -121.800; -631.000; -539.000
234.368; -227.100; -773.000; -723.000
234.512;  -78.700; -385.000; -299.000
234.655; -158.800; -582.000; -555.000
234.798; -126.900; -493.000; -466.000
234.942; -237.600; -884.000;-1002.000
235.085; -122.800; -651.000; -443.000
235.229; -146.900; -405.000; -410.000
235.372; -100.500; -247.000; -191.000
235.516; -106.200; -397.000; -321.000
235.659;   36.800;   92.000;  121.000
235.802;  -32.500;  -38.000;  -22.000
235.946;   77.600;  335.000;  215.000
236.089;   53.900;  126.000;  250.000
236.233;  114.500;  275.000;  298.000
236.376;  -77.000; -235.000; -378.000
236.519;  -66.400; -297.000; -319.000
236.663;  -64.000; -215.000; -117.000
236.806; -265.100;-1029.000; -999.000
236.949;  136.800;  543.000;  431.000
237.092;  130.600;  412.000;  391.000
237.236; -181.200; -589.000; -502.000
237.379;  145.500;  352.000;  428.000
237.522; -218.100; -879.000; -768.000
237.666;  -22.400; -271.000;   18.000
237.809; -261.000; -851.000; -823.000
237.952;  105.400;  469.000;  271.000
238.095; -148.100; -447.000; -442.000
238.238;  195.200;  688.000;  700.000
238.382;    6.200;  166.000;  103.000
238.525; -106.300; -598.000; -511.000
238.668; -267.400;-1060.000; -985.000
238.811; -172.300; -638.000; -643.000
238.954;  -93.800; -483.000; -334.000
239.097;  202.000;  617.000;  664.000
239.241;   83.700;  394.000;  326.000
239.384;  -41.600; -254.000; -214.000
239.527; -103.400; -424.000; -224.000
239.670; -297.500; -994.000;-1091.000
239.813; -213.300; -696.000; -658.000
239.956;  191.700;  579.000;  473.000
240.099; -252.800; -778.000; -725.000
240.242;  133.600;  428.000;  432.000
240.385;   96.900;  466.000;  450.000
240.528; -126.300; -706.000; -473.000
240.671;   55.500;  189.000;  134.000
240.814;  -60.600; -441.000; -158.000
240.957; -235.900; -767.000; -578.000
241.100; -176.300; -779.000; -755.000
241.243; -271.700;-1234.000; -893.000
241.386; -109.000; -508.000; -379.000
241.529; -218.600; -735.000; -547.000
241.672; -108.000; -566.000; -495.000
241.815; -216.400; -832.000; -808.000
241.958;  -24.500; -125.000; -182.000
242.101; -168.500; -545.000; -390.000
242.244;  -68.200; -270.000; -325.000
242.387;  -48.800; -304.000; -246.000
242.530;  131.600;  470.000;  134.000
242.673;  -93.200; -381.000; -309.000
242.815; -240.000; -925.000; -899.000
242.958; -142.900; -482.000; -381.000
243.101;   10.100;  132.000;  187.000
243.244; -169.700; -564.000; -521.000
243.387;  -85.500; -313.000; -316.000
243.530; -207.800; -657.000; -674.000
243.672;   40.900;   43.000;  -92.000
243.815; -115.300; -355.000; -283.000
243.958;    3.500;   98.000;  -26.000
244.101;    6.800;   59.000;  -16.000
244.243;  -16.000;  -47.000;  101.000
244.386; -233.100; -761.000; -630.000
244.529;  -49.100; -132.000; -139.000
244.672; -301.700;-1154.000; -951.000
244.814; -209.500; -621.000; -794.000
244.957;  -49.800; -380.000; -304.000
245.100; -125.300; -489.000; -489.000
245.242; -100.900; -387.000; -374.000
245.385;   23.600;  -59.000;  -39.000
245.528; -222.500; -871.000; -705.000
245.670;  216.500;  612.000;  634.000
245.813; -161.400; -599.000; -547.000
245.956;  -61.400; -324.000; -275.000
246.098; -110.900; -508.000; -650.000
246.241;   42.300;  194.000;   48.000
246.383;   -3.500; -119.000;  -73.000
246.526; -171.200; -454.000; -525.000
246.669; -239.700; -889.000; -780.000
246.811;   46.400;  172.000;   -1.000
246.954; -114.400; -512.000; -426.000
247.096;  -20.100;  -84.000;   -6.000
247.239; -133.100; -482.000; -445.000
247.381; -130.300; -647.000; -488.000
247.524;  191.000;  645.000;  679.000
247.666;    9.900;   58.000;   11.000
247.809; -262.300; -887.000; -691.000
247.951;  -13.200;  -75.000;  138.000
248.094;   49.300;  432.000;  308.000
248.236; -305.400;-1262.000;-1238.000
248.378;  -35.800; -356.000;  -81.000
248.521;  -44.000; -334.000; -337.000
248.663;  -96.000; -236.000; -267.000
248.806;  -36.400; -300.000; -266.000
248.948; -214.400; -886.000; -763.000
249.090; -102.100; -428.000; -398.000
249.233; -129.600; -344.000; -381.000
249.375; -105.700; -474.000; -451.000
249.518;  -45.700;  -83.000; -133.000
249.660;    0.700; -103.000;    3.000
249.802; -352.400;-1303.000;-1189.000
249.945; -137.500; -612.000; -540.000
250.087; -235.800; -834.000; -768.000
250.229;  -88.800; -362.000; -480.000
250.371; -163.100; -494.000; -439.000
250.514; -113.300; -310.000; -244.000
250.656; -113.700;   69.000;  102.000
250.798; -224.400; -849.000; -800.000
250.940; -102.800; -322.000; -322.000
251.083;  -50.400; -335.000; -111.000
251.225;  130.400;  338.000;  310.000
251.367;  -80.700; -274.000; -373.000
251.509;  -68.200; -265.000; -210.000
251.651; -183.500; -731.000; -671.000
251.794;  110.000;  538.000;  632.000
251.936; -195.800; -821.000; -747.000
252.078; -172.200; -540.000; -461.000
252.220; -128.300; -645.000; -477.000
252.362;  104.800;  344.000;  462.000
252.504; -138.100; -677.000; -584.000
252.646; -220.800; -875.000; -722.000
252.788;  -11.100;   14.000; -128.000
252.931;  -88.300; -257.000; -253.000
253.073;  -63.400; -376.000; -317.000
253.215;  -18.500;  141.000;  122.000
253.357;   15.000;   82.000; -153.000
253.499; -107.600; -374.000; -234.000
253.641; -193.900; -749.000; -594.000
253.783; -198.300; -609.000; -527.000
253.925; -191.500; -586.000; -591.000
254.067; -208.500; -744.000; -667.000
254.209;  -41.100; -391.000; -259.000
254.351; -278.200; -865.000; -883.000
254.493; -115.700; -441.000; -417.000
254.635; -248.600; -936.000; -818.000
254.777; -167.100; -752.000; -687.000
254.918; -171.700; -512.000; -430.000
255.060; -108.000; -551.000; -395.000
255.202; -118.900; -473.000; -261.000
255.344; -145.900; -658.000; -455.000
255.486; -126.800; -471.000; -406.000
255.628; -177.700; -780.000; -781.000
255.770; -189.500; -676.000; -536.000
255.912; -133.300; -559.000; -468.000
256.053; -193.400; -730.000; -508.000
256.195;  331.800; 1008.000;  903.000
256.337; -202.600; -861.000; -595.000
256.479;  144.500;  532.000;  416.000
256.621;  -79.200; -394.000; -212.000
256.762; -222.600; -789.000; -742.000
256.904;  132.700;  485.000;  487.000
257.046;  -69.900; -381.000; -271.000
257.188; -101.000; -351.000; -264.000
257.329; -113.000; -525.000; -464.000
257.471; -233.500; -939.000; -807.000
257.613;  -95.800; -584.000; -498.000
257.755; -308.100;-1073.000; -982.000
257.896;   88.900;  286.000;  392.000
258.038; -165.000; -403.000; -352.000
258.180;  -61.200; -354.000; -279.000
258.321; -150.200; -581.000; -457.000
258.463;    5.400;  -71.000;  133.000
258.605; -204.600; -562.000; -570.000
258.746; -201.000; -886.000; -772.000
258.888; -291.400;-1026.000;-1020.000
259.029;   88.700;  121.000;   -8.000
259.171; -160.900; -614.000; -550.000
259.313;   16.500;  -49.000;  -47.000
259.454; -133.300; -536.000; -414.000
259.596; -109.100; -483.000; -390.000
259.737; -150.800; -590.000; -474.000
259.879;   88.400;  217.000;  311.000
260.020;  200.600;  901.000;  636.000
260.162;  -47.300; -146.000; -253.000
260.303; -235.600; -768.000; -687.000
260.445; -176.900; -609.000; -613.000
260.586;   55.200;  392.000;  157.000
260.728;  -71.400; -360.000; -248.000
260.869; -151.900; -350.000; -343.000
261.011;  179.600;  706.000;  537.000
261.152; -135.200; -479.000; -319.000
261.293; -164.900; -576.000; -595.000
261.435;  -68.900; -219.000; -184.000
261.576;  -82.200; -455.000; -325.000
261.718;  114.000;  420.000;  470.000
261.859; -236.400; -940.000; -949.000
262.000; -270.800; -951.000;-1016.000
262.142;  -15.700;  -52.000;  -60.000
262.283; -242.100; -808.000; -691.000
262.424; -174.700; -666.000; -625.000
262.566; -337.600;-1161.000; -983.000
262.707; -221.200; -840.000; -830.000
262.848; -226.900; -769.000; -726.000
262.990;  -90.300; -362.000; -345.000
263.131;  181.300;  650.000;  681.000
263.272;    0.100;  -61.000;  -41.000
263.413; -186.400; -589.000; -561.000
263.555; -124.100; -669.000; -143.000
263.696; -188.100; -550.000; -641.000
263.837; -102.200; -449.000; -551.000
263.978;   12.400;   -5.000;  -77.000
264.119;  -48.200; -283.000; -264.000
264.261; -221.800; -847.000; -630.000
264.402;   33.000;   33.000;   40.000
264.543; -159.900; -509.000; -524.000
264.684;  -35.200;   61.000;  -50.000
264.825; -150.700; -816.000; -538.000
264.966;    7.500;  -84.000;  -67.000
265.107; -202.400; -646.000; -670.000
265.248; -202.500; -825.000; -812.000
265.390;   10.100;  152.000;   -9.000
265.531;  -14.500; -238.000; -107.000
265.672; -184.700; -557.000; -630.000
265.813;  104.300;  563.000;  439.000
265.954; -297.000; -959.000; -940.000
266.095;  -41.100; -372.000; -322.000
266.236; -174.700; -686.000; -548.000
266.377;  -67.600; -243.000; -297.000
266.518; -125.300; -619.000; -547.000
266.659;   33.200;  170.000;  268.000
266.800;   26.000;   83.000;   85.000
266.941; -150.600; -487.000; -478.000
267.082;   33.900;  354.000;   99.000
267.223;  -80.700; -344.000; -273.000
267.364; -228.800; -892.000; -686.000
267.504;  -24.200;    3.000;  135.000
267.645;   38.900;  160.000;   67.000
267.786;  -59.000; -147.000;  -86.000
267.927; -160.500; -473.000; -379.000
268.068;  -15.800; -186.000;  -61.000
268.209; -104.400; -175.000; -413.000
268.350; -109.200; -388.000; -532.000
268.490; -159.400; -648.000; -521.000
268.631;   97.500;  127.000;  225.000
268.772; -214.800; -874.000; -647.000
268.913;  -84.000; -328.000; -476.000
269.054;  -13.100; -117.000;   12.000
269.194;  -89.400; -418.000; -402.000
269.335; -311.400;-1137.000;-1074.000
269.476;  -21.800;   33.000;  -35.000
269.617; -109.200; -347.000; -392.000
269.757; -180.500; -713.000; -646.000
269.898; -204.600; -856.000; -613.000
270.039; -122.900; -415.000; -405.000
270.180; -257.900; -952.000; -816.000
270.320;  -31.700; -190.000; -250.000
270.461;  -57.600; -277.000; -249.000
270.602;  -22.300; -186.000; -156.000
270.742; -218.200; -868.000; -943.000
270.883; -125.800; -442.000; -390.000
271.023;  -89.300; -358.000; -357.000
271.164; -129.700; -607.000; -528.000
271.305; -192.000; -666.000; -654.000
271.445; -164.100; -722.000; -683.000
271.586; -128.600; -462.000; -283.000
271.726; -103.100; -397.000; -322.000
271.867; -143.200; -594.000; -534.000
272.008;  267.400; -473.000; -285.000
272.148;  191.400;  462.000;  468.000
272.289;   29.200; -113.000; -181.000
272.429;   28.400;   19.000;  185.000
272.570; -177.900; -633.000; -737.000
272.710; -198.400; -825.000; -775.000
272.851;   -8.300;  113.000; -130.000
272.991; -312.600;-1173.000;-1077.000
273.131; -132.900; -419.000; -459.000
273.272; -199.200; -683.000; -723.000
273.412;   36.100; -143.000;  -31.000
273.553; -141.700; -488.000; -507.000
273.693;  288.600;  913.000;  858.000
273.834; -205.300; -894.000; -692.000
273.974; -153.000; -664.000; -615.000
274.114; -225.000; -772.000; -560.000
274.255;  104.700;  414.000;  373.000
274.395;   -5.600; -180.000; -125.000
274.535;  101.800;  199.000;  350.000
274.676;   69.100;  225.000;   94.000
274.816;   56.900;  110.000;   34.000
274.956; -162.300; -624.000; -690.000
275.097; -152.600;-1014.000; -922.000
275.237; -211.700; -913.000; -803.000
275.377; -176.600; -778.000; -689.000
275.517; -308.600; -878.000; -937.000
275.658; -109.500; -590.000; -555.000
275.798; -130.000; -606.000; -413.000
275.938;   68.300;  215.000;  323.000
276.078; -194.900; -626.000; -395.000
276.218;   82.700;   99.000;  104.000
276.359; -272.100;-1026.000;-1024.000
276.499; -147.700; -605.000; -446.000
276.639;  -51.400; -305.000; -151.000
276.779; -105.000; -475.000; -357.000
276.919; -216.400; -783.000; -624.000
277.059;  -14.500; -261.000; -212.000
277.199;  -61.000; -357.000; -259.000
277.340;  110.200;  287.000;  175.000
277.480; -226.200; -840.000; -693.000
277.620;   89.400;  192.000;   16.000
277.760; -371.800;-1533.000;-1294.000
277.900;   36.300;  113.000;   33.000
278.040;   60.300;  137.000;  159.000
278.180;  110.900;  270.000;  170.000
278.320;   13.600;   21.000;   56.000
278.460; -132.500; -443.000; -469.000
278.600; -158.800; -708.000; -598.000
278.740;  103.400;  448.000;  224.000
278.880; -164.000; -768.000; -791.000
279.020;   34.100; -194.000; -144.000
279.160; -153.400; -672.000; -595.000
279.300; -234.900; -926.000; -873.000
279.440; -213.000; -709.000; -622.000
279.579;  -96.200;-1014.000; -929.000
279.719;  -91.100; -410.000; -394.000
279.859;  104.100;   -4.000;   41.000
279.999;   29.700; -208.000;  101.000
280.139;  -31.500; -435.000; -387.000
280.279; -145.200; -708.000; -745.000
280.419;  -36.200; -229.000; -147.000
280.559;  -89.500; -259.000; -180.000
280.698; -160.600; -790.000; -639.000
280.838; -183.200; -778.000; -800.000
280.978; -179.700; -846.000; -790.000
281.118; -175.900; -811.000; -704.000
281.257;   33.700;   24.000;    6.000
281.397; -240.300;-1094.000; -960.000
281.537; -190.000; -599.000; -712.000
281.677;  -14.300; -150.000; -101.000
281.816; -146.200; -700.000; -630.000
281.956;  -64.100; -193.000; -257.000
282.096;  -92.100; -539.000; -396.000
282.235; -197.600; -672.000; -638.000
282.375;  -39.500; -243.000;  -98.000
282.515; -174.500; -715.000; -707.000
282.654;  106.800;   29.000;  106.000
282.794;   46.600;  388.000;  244.000
282.934; -119.500; -530.000; -491.000
283.073; -262.300;-1030.000; -857.000
283.213;  -97.200; -460.000; -467.000
283.353;  -71.300; -408.000; -349.000
283.492;  -54.100; -264.000; -296.000
283.632;  -81.800; -254.000; -168.000
283.771; -181.600; -859.000; -730.000
283.911;  -95.600; -369.000; -260.000
284.050; -224.600; -794.000; -748.000
284.190; -301.900;-1229.000;-1096.000
284.329; -264.500;-1055.000; -964.000
284.469; -130.800; -516.000; -591.000
284.608;  -94.300; -559.000; -598.000
284.748; -136.600; -614.000; -570.000
284.887;   29.500;  -87.000;  -20.000
285.027; -238.900; -844.000; -892.000
285.166;  -25.800; -192.000; -249.000
285.306;   19.400; -116.000;  -33.000
285.445;  -60.600; -229.000; -343.000
285.584; -173.000; -630.000; -494.000
285.724;  -57.000; -282.000; -322.000
285.863; -211.500; -857.000; -507.000
286.002;  -68.800; -366.000; -276.000
286.142; -218.900; -715.000; -622.000
286.281; -145.400; -525.000; -493.000
286.420; -142.800; -554.000; -417.000
286.560;  237.400;  653.000;  623.000
286.699; -255.600; -958.000; -912.000
286.838; -166.100; -590.000; -591.000
286.978; -173.700; -533.000; -537.000
287.117; -262.400;-1085.000; -950.000
287.256;  -38.100; -228.000; -211.000
287.395;  -63.900; -197.000; -378.000
287.535; -117.800; -370.000; -298.000
287.674; -157.000; -509.000; -484.000
287.813;  154.500;  661.000;  533.000
287.952; -252.500;-1010.000; -871.000
288.091; -288.200;-1049.000; -915.000
288.231;   51.800;   13.000;   15.000
288.370; -339.300;-1217.000;-1200.000
288.509; -165.300; -728.000; -645.000
288.648; -162.000; -770.000; -548.000
288.787;  -43.000; -243.000;  -87.000
288.926; -145.700; -454.000; -475.000
289.065;  279.800;  859.000;  672.000
289.204; -103.300; -377.000; -217.000
289.344; -212.300; -791.000; -690.000
289.483;   93.600;  416.000;  304.000
289.622;  -17.700; -291.000; -149.000
289.761;  -28.200; -309.000; -166.000
289.900; -204.500; -785.000; -626.000
290.039;   -0.500;  -12.000;  -95.000
290.178;  -26.200; -274.000; -180.000
290.317; -167.600; -618.000; -479.000
290.456; -115.400; -463.000; -451.000
290.595; -255.600; -961.000; -833.000
290.734; -259.100; -904.000; -891.000
290.873; -138.000; -456.000; -420.000
291.011; -216.500; -833.000; -843.000
291.150; -186.000; -770.000; -682.000
291.289;  -23.700; -343.000; -110.000
291.428; -174.000; -599.000; -480.000
291.567;  -72.900; -370.000; -442.000
291.706;  -15.600;  109.000;  154.000
291.845; -167.100; -597.000; -505.000
291.984; -317.800;-1234.000;-1061.000
292.122;  177.600;  602.000;  582.000
292.261;   83.100;  620.000;  463.000
292.400;   45.600; -144.000;  211.000
292.539; -256.400; -959.000; -813.000
292.678;  -39.400; -325.000; -300.000
292.816; -306.500;-1136.000; -965.000
292.955; -156.500; -844.000; -684.000
293.094;  -23.600; -173.000; -337.000
293.233;  -68.400; -556.000; -400.000
293.371;  -70.500; -225.000;  -84.000
293.510; -202.700; -866.000; -780.000
293.649; -279.200; -959.000; -924.000
293.787; -179.100;-1083.000;-1012.000
293.926;  -17.800; -113.000;  -32.000
294.065;  -62.700; -379.000; -290.000
294.203;  104.500;  298.000;  406.000
294.342;   73.700;   74.000;  156.000
294.481;11667.900;51180.000; -836.000
294.619;  -33.700; -425.000; -582.000
294.758; -285.500;-1230.000;-1137.000
294.896;  124.300; -125.000;    5.000
295.035; -239.700;-1040.000;-1006.000
295.174; -259.600;-1082.000; -954.000
295.312;  -46.400; -323.000; -203.000
295.451;  -41.000; -307.000; -428.000
295.589;  -91.000; -389.000; -518.000
295.728;   78.300; -292.000; -165.000
295.866;   -2.900;  -36.000;  -51.000
296.005; -137.300; -584.000; -341.000
296.143; -157.800; -558.000; -596.000
296.282; -185.900; -957.000; -881.000
296.420; -160.000; -657.000; -557.000
296.559; -170.900; -892.000; -633.000
296.697;  -40.800; -847.000; -665.000
296.835;   41.000;-1141.000;-1002.000
296.974;   66.500;  -23.000;   39.000
297.112;   -6.300; -443.000; -504.000
297.251; -159.200; -815.000; -755.000
297.389;  117.300; -576.000; -438.000
297.527;   90.400; -145.000;  -83.000
297.666; -107.000; -486.000; -438.000
297.804; -108.800; -404.000; -264.000
297.942;   15.600; -136.000; -161.000
298.081;   -7.600; -183.000;   63.000
298.219;  117.500;  -17.000;  -19.000
298.357;   28.500; -144.000;  -71.000
298.495;   -8.900; -810.000; -812.000
298.634;  143.800;  245.000;  219.000
298.772;  102.100; -220.000; -338.000
298.910;  -68.500; -309.000; -182.000
299.048;   11.900; -130.000; -153.000
299.187;  -48.700; -350.000; -250.000
299.325;   63.400;   52.000;  122.000
299.463;   41.500; -389.000; -299.000
299.601;  150.300; -327.000; -271.000
299.739; -203.900; -908.000; -883.000
299.877; -127.000; -791.000; -703.000
300.016; -154.800;-1095.000; -935.000
300.154;  255.700;  -19.000; -161.000
300.292;   30.000; -428.000; -348.000
300.430;   69.000; -408.000; -291.000
300.568; -199.700; -940.000; -874.000
300.706;  -79.600; -366.000; -469.000
300.844; -202.100;-1108.000; -979.000
300.982;  247.200;  246.000;  282.000
301.120; -232.600; -965.000; -866.000
301.258; -142.100; -812.000; -705.000
301.396;   51.900;  104.000;  -41.000
301.534;   76.900; -218.000; -293.000
301.672;  -20.500; -664.000; -521.000
301.810;    3.200; -613.000; -545.000
301.948;  201.200;   53.000;  149.000
302.086;  832.900; -250.000;  -32.000
302.224; 1288.400; -610.000; -585.000
302.362;   16.500; -558.000; -622.000
302.500;  -93.400; -923.000; -893.000
302.638;  194.600;  128.000;  245.000
302.776;   -9.300; -352.000; -408.000
302.913;   92.100;  447.000;  236.000
303.051;   -8.300;  -86.000;  -23.000
303.189;  130.600;   90.000;  118.000
303.327;  -81.600; -341.000; -256.000
303.465; -140.400; -832.000; -588.000
303.603; -196.600; -805.000; -604.000
303.740;  181.200;  417.000;  241.000
303.878;  -16.100; -800.000; -759.000
304.016; -169.500; -915.000; -790.000
304.154; -293.400;-1123.000;-1152.000
304.291;  -39.800; -505.000; -554.000
304.429;   39.900;  102.000;   74.000
304.567; -239.100; -908.000; -893.000
304.705; -104.200; -408.000; -515.000
304.842;  103.300; -616.000; -540.000
304.980;  126.900;  215.000;   35.000
305.118;   58.800; -367.000; -365.000
305.255; -180.000; -945.000; -927.000
305.393;  126.100;  178.000;  239.000
305.531; -217.100;-1173.000; -956.000
305.668; -120.800; -663.000; -582.000
305.806;  126.200; -358.000; -439.000
305.943;  145.700; -629.000; -637.000
306.081;   88.100; -378.000; -267.000
306.219; -182.300; -863.000; -748.000
306.356;   29.300;  158.000;   27.000
306.494;  271.300;  981.000;  761.000
306.631;   46.800;  -11.000;  -55.000
306.769;   16.400; -613.000; -485.000
306.906;  -37.500; -284.000; -258.000
307.044; -109.900; -473.000; -488.000
307.181;  -95.000; -410.000; -332.000
307.319;   28.100;  112.000;   87.000
307.456; -316.200;-1191.000;-1153.000
307.594; -166.300; -980.000; -727.000
307.731;  -11.200; -371.000; -164.000
307.868;   25.400;  -15.000;   20.000
308.006; -253.800; -961.000; -847.000
308.143; -122.400; -618.000; -330.000
308.281;  335.300;  -37.000; -254.000
308.418;   -4.400; -748.000; -640.000
308.555;  -90.100; -400.000; -250.000
308.693;  -93.000; -577.000; -573.000
308.830; -179.500; -712.000; -657.000
308.967;    6.400; -215.000;  -95.000
309.105;  -60.100; -507.000; -396.000
309.242;   88.100; -468.000; -367.000
309.379;  662.600; -577.000; -655.000
309.517;  -89.400; -936.000; -948.000
309.654; -176.500; -910.000; -734.000
309.791; -105.700; -662.000; -580.000
309.928; -228.000; -977.000; -914.000
310.065;  388.100;  819.000;  697.000
310.203;  -58.600; -825.000; -850.000
310.340;    8.200; -465.000; -321.000
310.477; -136.700; -412.000; -516.000
310.614;  -97.700; -383.000; -473.000
310.751; -134.700; -427.000; -518.000
310.889;  -18.200;    1.000;   11.000
311.026; -268.300;-1161.000; -939.000
311.163;  -85.200; -386.000; -380.000
311.300; -136.500; -512.000; -479.000
311.437; -110.200; -658.000; -619.000
311.574; -301.300;-1226.000; -985.000
311.711;  -75.900; -595.000; -433.000
311.848;  -75.500; -380.000; -388.000
311.985;   32.700;  270.000;   93.000
312.122; -225.300; -932.000; -762.000
312.259; -219.600; -941.000; -994.000
312.396; -145.400; -508.000; -551.000
312.533; -154.100; -812.000; -790.000
312.670; -260.400;-1070.000; -898.000
312.807;  -24.300; -352.000; -367.000
312.944; -156.200; -513.000; -611.000
313.081;  -17.800; -150.000; -415.000
313.218; -206.900;-1111.000; -867.000
313.355;   11.600; -531.000; -449.000
313.492;  -19.800; -455.000; -292.000
313.629;  271.500;  815.000;  735.000
313.766; -275.100;-1176.000;-1008.000
313.902;   16.700; -186.000;   21.000
314.039;  -88.200; -372.000; -289.000
314.176;  118.900;  286.000;  192.000
314.313; -135.300; -569.000; -473.000
314.450; -144.700; -788.000; -684.000
314.587; -119.900; -468.000; -480.000
314.723;   52.000;  -78.000;  130.000
314.860;   97.700;  318.000;  332.000
314.997;   76.200;  223.000;  142.000
315.134;  -57.400; -385.000; -368.000
315.270;  -65.100; -480.000; -496.000
315.407; -251.500;-1094.000; -967.000
315.544; -105.800; -657.000; -538.000
315.681; -128.400; -681.000; -565.000
315.817;   45.100; -133.000; -176.000
315.954;  -55.900; -613.000; -392.000
316.091; -257.800;-1045.000;-1023.000
316.227;  -18.600;  -71.000; -179.000
316.364;   56.000;   23.000;    6.000
316.500;  -64.000; -113.000; -300.000
316.637;  -61.400; -181.000; -302.000
316.774; -143.300; -625.000; -358.000
316.910; -138.700; -598.000; -629.000
317.047; -122.100; -487.000; -351.000
317.183;  -88.000; -435.000; -566.000
317.320;  -68.600; -367.000; -321.000
317.456; -143.100; -733.000; -805.000
317.593; -167.400; -598.000; -641.000
317.729;   38.300;  168.000;  -67.000
317.866; -386.600;-1434.000;-1285.000
318.002; -162.100; -708.000; -948.000
318.139; -179.600; -883.000; -867.000
318.275; -190.400;-1003.000; -738.000
318.412;  -92.500; -517.000; -336.000
318.548;  -56.800; -751.000; -720.000
318.685; -205.100; -985.000; -888.000
318.821; -174.200; -762.000; -735.000
318.957;  -20.300;   34.000;  -23.000
319.094;  138.600;  297.000;  154.000
319.230; -141.100; -756.000; -742.000
319.367;  166.900; -471.000; -520.000
319.503;   77.600; -538.000; -436.000
319.639; -169.600; -877.000; -793.000
319.775; -146.900; -750.000; -685.000
319.912; -103.700; -424.000; -519.000
320.048; -233.900;-1184.000;-1184.000
320.184;  158.900;   59.000;   70.000
320.321; -107.700; -497.000; -467.000
320.457;  149.000;  475.000;  662.000
320.593; -100.800; -375.000; -382.000
320.729; -191.500; -732.000; -734.000
320.866; -135.300; -577.000; -635.000
321.002; -141.500; -759.000; -809.000
321.138;  -38.700; -135.000; -211.000
321.274;  122.600; -148.000; -115.000
321.410;  -45.400; -585.000; -353.000
321.546; -109.800;-1011.000; -911.000
321.683;  124.100;  400.000;  185.000
321.819;   41.900;  -48.000; -117.000
321.955; -195.500; -743.000; -722.000
322.091;  -74.300; -585.000; -540.000
322.227;  -17.100; -382.000; -202.000
322.363;  -45.800; -320.000; -215.000
322.499;  -92.600; -343.000; -331.000
322.635;  281.500;  636.000;  443.000
322.771;   90.200; -139.000;   12.000
322.907;  192.900;  129.000;  327.000
323.043;  -31.300; -115.000; -206.000
323.179;  -72.800; -394.000; -363.000
323.315;    9.000; -401.000; -371.000
323.451;  150.900; -328.000; -236.000
323.587;   74.700;  -60.000;  -77.000
323.723;   15.800; -682.000; -601.000
323.859;  -35.100; -258.000;  -76.000
323.995;  -25.500; -467.000; -409.000
324.131; -262.600; -967.000; -892.000
324.267;  -35.900; -254.000; -276.000
324.402; -246.900; -960.000; -983.000
324.538;    0.500; -279.000; -104.000
324.674;   50.300;  164.000;   77.000
324.810;  264.100;  226.000;  308.000
324.946;  -12.700; -810.000; -658.000
325.082; -147.800; -568.000; -475.000
325.217;  -21.800;  -62.000;   16.000
325.353; -146.700; -764.000; -659.000
325.489; -134.900; -540.000; -506.000
325.625; -130.600; -579.000; -525.000
325.760;  107.200;  517.000;  376.000
325.896;  -55.300; -515.000; -702.000
326.032;  -73.600; -403.000; -352.000
326.168;  -87.200; -462.000; -369.000
326.303;  -88.300; -352.000; -461.000
326.439;  -16.800; -336.000; -276.000
326.575;   -9.900; -190.000;  -29.000
326.710;   27.400; -156.000;  -30.000
326.846;   -6.000;  146.000;  103.000
326.982; -145.800; -530.000; -548.000
327.117; -107.600; -481.000; -442.000
327.253; -142.600; -745.000; -742.000
327.388; -249.800;-1137.000;-1153.000
327.524;  -82.700; -811.000; -578.000
327.659;  -14.800;  -58.000;  -22.000
327.795;    1.200;   69.000;   45.000
327.931; -168.800; -723.000; -499.000
328.066;  -32.100; -417.000; -276.000
328.202;  -47.700;   12.000; -129.000
328.337;  259.000;  957.000;  713.000
328.473;    3.900;  -12.000;  -74.000
328.608;  -17.800; -256.000; -267.000
328.743; -174.300; -799.000; -664.000
328.879;   79.400;  214.000;  114.000
329.014; -113.000; -102.000; -122.000
329.150; -134.600; -358.000; -483.000
329.285; -121.000; -465.000; -466.000
329.421;  -71.000; -548.000; -246.000
329.556;  -39.300;  -36.000;   85.000
329.691; -128.300; -633.000; -615.000
329.827; -136.600; -626.000; -480.000
329.962;  -52.300;  131.000; -301.000
330.097; -149.600; -673.000; -585.000
330.233;  -45.000; -410.000; -223.000
330.368; -211.000; -839.000; -628.000
330.503;   31.500;    3.000;   98.000
330.638;   35.600;  -93.000; -125.000
330.774; -120.600; -609.000; -530.000
330.909;  -83.300; -434.000; -244.000
331.044; -163.700; -714.000; -708.000
331.179; -333.300;-1217.000;-1109.000
331.315;   37.600;   77.000;   20.000
331.450;   64.600;  157.000;  285.000
331.585; -145.700; -805.000; -706.000
331.720; -132.100; -510.000; -460.000
331.855;    4.500;  -35.000; -102.000
331.990;  332.000;   62.000;  138.000
332.126;  180.100; -110.000;   71.000
332.261;  -16.200; -379.000; -265.000
332.396;   10.000; -135.000; -242.000
332.531; -235.300;-1074.000;-1031.000
332.666;    5.700; -519.000; -363.000
332.801; -196.400; -726.000; -807.000
332.936;   -3.200; -192.000; -122.000
333.071; -294.300; -870.000; -817.000
333.206;   61.800;  307.000;  379.000
333.341;   92.700;  344.000;  418.000
333.476; -152.900; -627.000; -623.000
333.611;  -52.000; -251.000; -173.000
333.746;  -73.000; -381.000; -464.000
333.881; -238.000; -973.000; -935.000
334.016; -226.500; -936.000; -917.000
334.151; -213.100; -746.000; -702.000
334.286;   68.900;  152.000;  186.000
334.421;  -17.700; -125.000; -178.000
334.556; -166.000; -611.000; -567.000
334.690; -143.700; -631.000; -577.000
334.825;  141.900;  381.000;   83.000
334.960; -119.100; -285.000; -413.000
335.095;   56.200;  135.000;  -91.000
335.230; -223.900; -722.000; -738.000
335.365; -256.400;-1084.000; -990.000
335.499; -261.800;-1108.000;-1037.000
335.634;   81.500;    9.000;  534.000
335.769; -174.800; -755.000; -720.000
335.904; -118.100; -603.000; -561.000
336.038; -153.600; -735.000; -657.000
336.173; -230.800;-1206.000;-1194.000
336.308;   -4.300; -116.000; -189.000
336.443;   18.600; -544.000; -634.000
336.577; -183.400; -936.000; -787.000
336.712;  120.900;   -4.000;  -12.000
336.847; -146.900; -724.000; -607.000
336.981;   61.700; -272.000; -208.000
337.116;  395.100;  615.000;  501.000
337.250;  175.700; -434.000; -421.000
337.385;  271.400; -297.000; -208.000
337.520;   74.500; -632.000; -603.000
337.654; -103.600; -215.000; -126.000
337.789; -237.600; -989.000; -933.000
337.923;  -59.500; -104.000; -205.000
338.058; -165.700; -673.000; -738.000
338.192;  -61.400; -611.000; -488.000
338.327;    4.700;  -18.000; -155.000
338.461; -125.200; -299.000; -469.000
338.596; -150.800; -780.000; -638.000
338.730; -202.200; -767.000; -803.000
338.865;  103.500;  -46.000; -140.000
338.999; -144.300; -846.000; -702.000
339.134;  -83.400; -634.000; -536.000
339.268;  -30.200; -741.000; -603.000
339.403;  368.600; -740.000; -775.000
339.537;   63.800; -894.000; -820.000
339.671; -208.600; -829.000; -813.000
339.806; -145.900; -556.000; -512.000
339.940;   18.900; -261.000; -235.000
340.074; -171.600; -685.000; -510.000
340.209;  -50.600; -351.000; -230.000
340.343; -183.900; -517.000; -573.000
340.477;  344.200;  998.000; 1036.000
340.612; -134.700;-1033.000; -900.000
340.746;  178.000; -199.000; -243.000
340.880; -151.600; -924.000; -785.000
341.014;  -11.500;  -45.000; -154.000
341.149; -217.600; -756.000; -718.000
341.283; -207.200; -839.000; -754.000
341.417; -221.900;-1124.000; -938.000
341.551;  138.400; -768.000; -708.000
341.685; -114.100; -633.000; -611.000
341.820;  -97.700; -562.000; -493.000
341.954;  -76.100; -218.000; -349.000
342.088; -289.200;-1102.000;-1019.000
342.222;  131.700;  565.000;  618.000
342.356; -102.900; -395.000; -335.000
342.490; -214.600; -880.000; -841.000
342.624;  -50.000; -339.000; -242.000
342.758;  -25.700; -364.000; -312.000
342.892; -129.500; -710.000; -585.000
343.026;  -33.400;  -58.000; -116.000
343.160;  -86.900; -426.000; -376.000
343.294; -133.200; -474.000; -337.000
343.428;  -59.600; -488.000; -448.000
343.562;   -5.100; -172.000;  -23.000
343.696;  -24.100; -385.000; -314.000
343.830;  -59.800; -362.000; -356.000
343.964;   72.800; -231.000; -168.000
344.098; 1366.600;  199.000;   70.000
344.232; 1167.000; -266.000; -127.000
344.366;   56.800; -567.000; -453.000
344.500;   80.200; -665.000; -744.000
344.634;   41.100; -324.000; -164.000
344.768;  -19.200; -531.000; -341.000
344.902;   80.900;  278.000;  256.000
345.035; -150.700; -556.000; -496.000
345.169; -274.000; -933.000; -656.000
345.303;  -53.200; -308.000; -482.000
345.437; -144.800; -826.000; -717.000
345.571; -149.900; -675.000; -594.000
345.704; -109.000; -309.000; -532.000
345.838;  -32.300; -331.000; -284.000
345.972;  -85.600; -543.000; -495.000
346.106;  225.800; -179.000; -190.000
346.239;  528.900; -312.000; -243.000
346.373;   15.000; -343.000; -302.000
346.507; -297.600; -950.000; -962.000
346.640;  263.700;  -30.000;   13.000
346.774; -111.200; -650.000; -797.000
346.908;   -4.100; -138.000;  -11.000
347.041; -163.100; -646.000; -593.000
347.175;   41.000;  259.000;   27.000
347.309; -142.600; -698.000; -628.000
347.442; -192.000; -883.000; -732.000
347.576;  466.100;  670.000;  668.000
347.709;  330.800; -123.000;  -52.000
347.843; -200.700; -933.000; -825.000
347.976;  117.600;  235.000;  294.000
348.110; -339.400;-1268.000;-1186.000
348.243; -158.900; -679.000; -772.000
348.377;   33.900;  -26.000;   60.000
348.510;  165.500;  403.000;  540.000
348.644;  -56.200;  -37.000; -159.000
348.777;   22.100;  180.000;  191.000
348.911;  -39.900; -142.000; -112.000
349.044;  290.400;  471.000;  448.000
349.178;  180.400;-1069.000;-1006.000
349.311;  192.800;  141.000;  255.000
349.444; -104.800; -927.000; -813.000
349.578;   21.400; -347.000; -200.000
349.711; -200.600; -959.000; -862.000
349.845;  -10.100; -661.000; -591.000
349.978; -304.400;-1224.000;-1137.000
350.111; -136.800; -546.000; -612.000
350.244; -140.300; -596.000; -700.000
350.378;   21.500; -392.000; -393.000
350.511; -115.500; -393.000; -426.000
350.644; -195.800; -808.000; -806.000
350.778;   32.900;  168.000;  104.000
350.911;   37.300;  134.000;  140.000
351.044; -158.400; -685.000; -615.000
351.177;  -16.600; -321.000; -281.000
351.310;    0.300;    3.000; -131.000
351.444; -164.900; -888.000; -788.000
351.577;  165.900;  140.000;   90.000
351.710;  236.600;  593.000;  417.000
351.843;  -71.600; -165.000;  -77.000
351.976;   27.800;  149.000;  -79.000
352.109; -181.700; -621.000; -612.000
352.242;  -60.900; -464.000; -419.000
352.376;  -98.000; -580.000; -636.000
352.509;  220.000; -437.000; -356.000
352.642;  -53.200; -654.000; -604.000
352.775;   86.900; -141.000;  -98.000
352.908; -225.000; -933.000; -904.000
353.041; -174.600; -814.000; -824.000
353.174; -115.800; -551.000; -424.000
353.307; -168.100; -753.000; -764.000
353.440;  185.700;  541.000;  453.000
353.573; -240.900; -957.000;-1008.000
353.706;  -88.600; -384.000; -558.000
353.839;  -27.600; -264.000; -220.000
353.971; -163.800; -657.000; -512.000
354.104; -172.100; -896.000; -835.000
354.237; -108.600; -627.000; -662.000
354.370; -177.700; -846.000; -879.000
354.503; -365.900;-1231.000;-1308.000
354.636;  -47.300; -529.000; -348.000
354.769; -226.100; -937.000; -860.000
354.902;    2.300; -230.000; -139.000
355.034;  -42.100; -164.000; -220.000
355.167;  -24.300; -262.000; -162.000
355.300; -226.800;-1061.000; -880.000
355.433; 1243.300;  -71.000;  -14.000
355.565; 1829.900; -402.000; -384.000
355.698;  475.900; -356.000; -296.000
355.831;  -64.600; -882.000; -801.000
355.964;  126.600; -285.000; -170.000
356.096; -193.100; -856.000; -843.000
356.229;  -28.100; -523.000; -530.000
356.362;  355.700; -373.000; -266.000
356.494;  759.900; -229.000; -162.000
356.627;  667.700;  269.000;  377.000
356.760;  900.300;  120.000;   53.000
356.892; 1189.300; -286.000; -601.000
357.025;  982.700;  403.000;  389.000
357.157;  879.600; -167.000; -179.000
357.290;  821.300; -856.000; -713.000
357.423;  188.400; -667.000; -556.000
357.555;  201.100; -217.000; -228.000
357.688;   83.000; -483.000; -364.000
357.820;  547.800; -870.000; -877.000
357.953; 5207.000; -563.000; -589.000
358.085; 1084.000; -632.000; -612.000
358.218; 1438.500;-1131.000; -932.000
358.350;  318.400;  -58.000;  312.000
358.483; -242.200;-1300.000;-1187.000
358.615;  -92.900;-1182.000;-1078.000
358.747; -178.100;-1187.000;-1058.000
358.880;    6.500; -810.000; -744.000
359.012;   -8.600; -376.000; -202.000
359.145;  -54.100; -480.000; -511.000
359.277;   19.500; -962.000; -913.000
359.409; 4316.200;  536.000;  231.000
359.542; 1063.200; -738.000; -688.000
359.674;  138.400;   46.000;   13.000
359.806; -128.000; -565.000; -438.000
359.939;  -67.000; -617.000; -516.000
360.071;  -55.500; -583.000; -579.000
360.203;   -4.000; -411.000; -364.000
360.335;   80.300;  164.000;  -16.000
360.468;  258.700; -249.000; -307.000
360.600; 3379.100; -547.000; -454.000
360.732; 3496.800; -546.000; -423.000
360.864;  370.500;-1216.000;-1044.000
360.996;  371.000; -516.000; -554.000
361.129;   26.100; -389.000; -598.000
361.261;   53.800;  110.000; -113.000
361.393;  -81.000; -252.000; -214.000
361.525;   67.400;   94.000;  244.000
361.657;  -73.500; -821.000; -703.000
361.789;   30.700; -139.000; -155.000
361.921;  292.900; -642.000; -593.000
362.053;  413.600;  524.000;  541.000
362.185;   90.800;  288.000;   72.000
362.318; -163.000; -709.000; -705.000
362.450;  199.500;  294.000;  444.000
362.582;   74.300; -913.000; -870.000
362.714;  -62.400; -353.000; -332.000
362.846; -159.600; -606.000; -490.000
362.978; -254.700; -941.000; -811.000
363.109;  101.000; -161.000; -260.000
363.241;  524.300; -739.000; -749.000
363.373;  530.000; -649.000; -564.000
363.505;  799.700; -186.000;  -91.000
363.637;  162.500; -787.000; -601.000
363.769; -241.600;-1067.000;-1080.000
363.901; -105.500; -596.000; -654.000
364.033; -266.700;-1103.000;-1062.000
364.165;   -1.900; -283.000; -283.000
364.296;  101.600; -316.000; -177.000
364.428;  -21.700;-1344.000;-1220.000
364.560; -113.700; -679.000; -661.000
364.692;  -95.500; -738.000; -835.000
364.824;  347.300; -588.000; -456.000
364.955;  528.300; -402.000; -564.000
365.087; 1043.100;-1097.000; -852.000
365.219;   13.900; -686.000; -816.000
365.351; -112.900; -526.000; -572.000
365.482;  146.700;  300.000;  240.000
365.614;  -51.200; -402.000; -314.000
365.746; -192.100; -729.000; -752.000
365.877; -200.400; -706.000; -672.000
366.009;  322.400;  -35.000;  -62.000
366.141; -243.500;-1249.000;-1134.000
366.272; -189.100; -803.000; -719.000
366.404; -212.500;-1005.000; -874.000
366.535;   13.600; -139.000;  -12.000
366.667; -201.000; -644.000; -649.000
366.799;   94.000;  353.000;  203.000
366.930; -214.800; -862.000; -996.000
367.062;  125.700; -639.000; -613.000
367.193;   91.900; -872.000; -842.000
367.325;  -90.600; -580.000; -684.000
367.456;   76.000; -246.000;   31.000
367.588;  176.300; -371.000; -318.000
367.719;    3.400;  -44.000;  -45.000
367.851;  -19.400; -222.000; -241.000
367.982; -116.600; -875.000; -732.000
368.113;  144.000; -475.000; -358.000
368.245; -242.600; -960.000; -841.000
368.376;  -11.800; -254.000; -302.000
368.508;  -54.700; -188.000; -263.000
368.639; -261.200;-1166.000;-1034.000
368.770;  -72.900; -670.000; -589.000
368.902; -156.800; -836.000; -926.000
369.033; -209.400; -906.000; -855.000
369.164;  -95.100; -720.000; -653.000
369.296; -190.500; -452.000; -601.000
369.427;   28.900; -209.000; -144.000
369.558;  -78.700; -593.000; -377.000
369.689; -112.100; -721.000; -569.000
369.821; -249.000; -951.000; -845.000
369.952;    3.700;   42.000; -108.000
370.083;  -64.700; -229.000; -108.000
370.214; -158.400; -735.000; -650.000
370.345;   17.300;   65.000;   81.000
370.477; -163.400; -810.000; -790.000
370.608;  304.000; -328.000; -264.000
370.739; -127.600;-1233.000;-1292.000
370.870;  -81.900;-1102.000; -923.000
371.001;  138.800; -378.000; -467.000
371.132; -170.600; -754.000; -735.000
371.263;   16.000;  -42.000; -148.000
371.394; -224.700; -841.000; -748.000
371.525;  116.400;  345.000;  225.000
371.657; -164.100; -808.000; -670.000
371.788;  147.100;  103.000;  199.000
371.919;  267.800; -384.000; -304.000
372.050; 5373.200;  -91.000; -156.000
372.181; 1509.900; -188.000; -294.000
372.311;  544.100;   42.000; -127.000
372.442;   11.000; -457.000; -451.000
372.573;  -48.600; -444.000; -340.000
372.704; -251.700;-1008.000; -980.000
372.835;  107.600; -228.000; -289.000
372.966; -116.800; -646.000; -554.000
373.097; -106.200; -575.000; -711.000
373.228;  -57.000; -717.000; -542.000
373.359;  173.300; -824.000; -536.000
373.490; 1277.200; -881.000; -727.000
373.620; 1527.900;-1001.000; -803.000
373.751; 2539.700; -332.000; -396.000
373.882; 1106.800; -663.000; -733.000
374.013;   75.400; -449.000; -262.000
374.143;  -70.700; -581.000; -659.000
374.274; -221.100; -987.000; -908.000
374.405;  265.000; -388.000; -276.000
374.536;  632.300; -526.000; -387.000
374.666; 1599.800; -759.000; -807.000
374.797;  253.400; -817.000; -868.000
374.928; 1194.700; -710.000; -560.000
375.058; 1199.600; -535.000; -500.000
375.189;  162.100;  -59.000;  -93.000
375.320; -207.000; -928.000;-1034.000
375.450;  -88.300; -625.000; -616.000
375.581;  -90.800; -526.000; -436.000
375.712;  -37.600; -574.000; -250.000
375.842;  403.400; -438.000; -415.000
375.973;  255.900; -554.000; -513.000
376.103; -115.200; -665.000; -648.000
376.234; -135.900; -531.000; -552.000
376.364; -106.000; -944.000; -867.000
376.495;  561.100;  925.000;  529.000
376.625;  -34.400; -472.000; -485.000
376.756;   45.200; -709.000; -678.000
376.886; -199.100;-1178.000;-1026.000
377.017;  -16.400;-1048.000;-1061.000
377.147;  364.700; -786.000; -782.000
377.278;  150.800;  174.000;  228.000
377.408; -207.000; -801.000; -815.000
377.538; -165.100; -707.000; -693.000
377.669; -155.800; -537.000; -613.000
377.799; -161.800; -645.000; -635.000
377.929;  -83.400; -610.000; -428.000
378.060; -227.900; -781.000; -847.000
378.190; -127.300; -726.000; -531.000
378.320;  -58.500; -401.000; -406.000
378.451;   31.300; -131.000;  -22.000
378.581;   24.200;  -67.000; -110.000
378.711;  296.900; 1035.000;  866.000
378.841;  -51.500; -533.000; -675.000
378.972; -184.600; -871.000; -751.000
379.102;    4.900; -652.000; -579.000
379.232;  -38.100; -126.000;  -73.000
379.362; -207.500;-1001.000; -885.000
379.492;  -57.100; -373.000; -424.000
379.623;  180.200;    0.000;  111.000
379.753; -218.200;-1107.000; -974.000
379.883;  368.600;   59.000;  156.000
380.013;  -79.300;-1081.000;-1017.000
380.143; -221.900;-1097.000;-1056.000
380.273; -215.600; -985.000; -861.000
380.403;  -22.600; -344.000; -257.000
380.533;  -65.200; -651.000; -664.000
380.663;  161.600;  173.000;  128.000
380.793; -221.300;-1027.000;-1074.000
380.923;   10.900; -103.000;  -34.000
381.053; -179.500; -613.000; -623.000
381.183;   17.300; -106.000; -248.000
381.313;   40.400; -656.000; -470.000
381.443;   19.100; -692.000; -473.000
381.573;  331.600; -402.000; -409.000
381.703;  296.800;-1249.000;-1095.000
381.833; -276.200;-1454.000;-1336.000
381.963;  182.600; -134.000;  -87.000
382.093; 1917.400; -925.000; -909.000
382.223;  560.100; -713.000; -602.000
382.353;  -75.400; -801.000; -608.000
382.482;  479.700;-1091.000; -964.000
382.612; 1064.300; -872.000; -644.000
382.742;  559.500; -695.000; -622.000
382.872;  350.900; -565.000; -551.000
383.002;  123.500;  347.000; -132.000
383.131;  -25.400; -226.000; -160.000
383.261;  -83.500; -706.000; -768.000
383.391;  386.700; -552.000; -377.000
383.521; 4093.800;  451.000;  263.000
383.650;  778.100; -947.000; -904.000
383.780;  -82.500; -783.000; -656.000
383.910;  209.900;  880.000;  802.000
384.039;  -28.800; -794.000; -656.000
384.169;  208.500;-1205.000;-1017.000
384.299;  -46.200; -650.000; -662.000
384.428; -158.300; -764.000; -680.000
384.558;  -34.200; -308.000; -275.000
384.687;  -69.500; -414.000; -334.000
384.817;   86.400;   75.000;   -2.000
384.947;    8.400; -234.000; -141.000
385.076;  541.900;  982.000;  912.000
385.206;  215.400;  369.000;  480.000
385.335;  -46.900; -549.000; -417.000
385.465; -155.000; -655.000; -663.000
385.594;  217.300;  -53.000;  -44.000
385.724;  546.800; -868.000; -838.000
385.853;  176.800; -296.000; -270.000
385.982; 1988.900; -743.000; -787.000
386.112; 3064.400;-1052.000; -871.000
386.241;  182.600; -307.000; -312.000
386.371;   68.000; -174.000;  -87.000
386.500;   -9.200; -825.000; -789.000
386.629;  -27.400; -874.000; -817.000
386.759;   94.100;  -43.000;   68.000
386.888;   -1.100; -170.000; -250.000
387.017; -156.400; -648.000; -620.000
387.147; -143.700; -771.000; -798.000
387.276;  -33.700; -410.000; -397.000
387.405;   22.500; -398.000; -342.000
387.535;  -45.100; -452.000; -361.000
387.664;  -94.900; -692.000; -620.000
387.793;   58.800; -198.000; -113.000
387.922;  798.800;  255.000;  200.000
388.052;  -29.400; -576.000; -423.000
388.181;   28.700; -342.000; -472.000
388.310;  -60.300; -889.000; -710.000
388.439; -104.900; -749.000; -742.000
388.568;  326.100;  365.000;  244.000
388.697; 1540.400; -756.000; -653.000
388.826;  281.200; -768.000; -666.000
388.956;   94.600; -285.000; -307.000
389.085;  -34.200; -347.000; -287.000
389.214; -182.100; -842.000; -872.000
389.343; -126.600; -645.000; -413.000
389.472;  565.200;  126.000;  149.000
389.601;  723.700;   91.000;    0.000
389.730;   36.300; -568.000; -687.000
389.859;  143.800;  226.000;   46.000
389.988;  290.800; -423.000; -408.000
390.117;  191.400; -168.000; -146.000
390.246;   25.300; -331.000; -320.000
390.375;  129.600; -673.000; -626.000
390.504;  -82.600; -703.000; -621.000
390.633; -158.300; -672.000; -726.000
390.761; -101.900; -732.000; -645.000
390.890;   48.300;   -4.000; -130.000
391.019;  -50.300; -421.000; -441.000
391.148; -241.300; -826.000; -855.000
391.277;  -82.100; -576.000; -493.000
391.406; -165.000; -821.000; -805.000
391.534;   86.900;  574.000; -301.000
391.663; -122.100; -583.000; -645.000
391.792; -126.900; -673.000; -701.000
391.921;  183.400;   -3.000;   15.000
392.050;  280.900; -287.000; -228.000
392.178; -160.600;-1206.000;-1061.000
392.307;  179.800; -758.000; -712.000
392.436;   49.400; -427.000; -641.000
392.564;   94.500;  166.000;   -6.000
392.693; -188.000; -860.000; -682.000
392.822;  320.500; -529.000; -534.000
392.950;   94.500; -880.000; -714.000
393.079;  515.700; -188.000; -328.000
393.208;   -4.000; -488.000; -511.000
393.336;   36.200; -170.000; -145.000
393.465;  -58.200; -317.000; -199.000
393.593;   62.300;   62.000;   79.000
393.722; -282.500;-1121.000; -916.000
393.850;    2.600; -188.000;  -61.000
393.979; -296.600; -926.000; -805.000
394.107;  -79.600; -517.000; -537.000
394.236;  -61.700; -570.000; -507.000
394.364;  499.000;  383.000;  206.000
394.493;  668.800; -911.000; -767.000
394.621;  -37.700; -955.000; -916.000
394.750;  811.900; -873.000; -923.000
394.878; 3555.600; -247.000; -149.000
395.007; 4605.500; -721.000; -807.000
395.135;  301.800; -790.000; -721.000
395.263; -166.700;-1038.000;-1040.000
395.392;   37.700;  -25.000; -107.000
395.520; -187.200; -818.000; -679.000
395.648; -180.900; -865.000; -915.000
395.777;   -6.200; -366.000; -405.000
395.905;  -62.900; -449.000; -564.000
396.033;   84.900;  217.000;  172.000
396.162; 1240.700; -399.000; -453.000
396.290; 1012.300;  -17.000;   -2.000
396.418;  184.700; -555.000; -514.000
396.546; -166.300; -571.000; -466.000
396.674; -183.000; -850.000; -878.000
396.803;   48.700;  -72.000;  -23.000
396.931;  148.300; -179.000; -199.000
397.059;   15.900;-1026.000; -989.000
397.187; -202.800;-1026.000; -975.000
397.315; -264.200; -884.000; -649.000
397.443; -182.000; -592.000; -443.000
397.572; -124.100; -578.000; -424.000
397.700;  -22.800; -607.000; -614.000
397.828;   42.200;  120.000;  -90.000
397.956;  -78.700; -508.000; -478.000
398.084; -153.900; -767.000; -626.000
398.212;   90.000;  137.000;  124.000
398.340;   38.800;  -56.000;  159.000
398.468;   34.200; -390.000; -169.000
398.596; -256.300; -993.000; -953.000
398.724; -197.900; -762.000; -767.000
398.852; -288.800;-1024.000; -976.000
398.980;  -83.900; -560.000; -560.000
399.108; -107.800; -982.000; -735.000
399.236;   84.200;   13.000;    8.000
399.363;   48.200;  222.000;  196.000
399.491;  -96.700; -404.000; -398.000
399.619; -232.000; -829.000; -800.000
399.747; -188.800; -859.000; -771.000
399.875;  175.700;  220.000;  234.000
400.003;  -43.700; -359.000; -284.000
400.130; -134.100; -421.000; -341.000
400.258;    4.900;  -83.000;   38.000
400.386;  -73.900; -352.000; -168.000
400.514;  -48.400; -526.000; -587.000
400.641; -166.400; -928.000; -802.000
400.769; -254.600; -979.000; -888.000
400.897; -207.100; -838.000; -793.000
401.025;   15.600; -166.000; -152.000
401.152;   50.300;  220.000;   38.000
401.280;  -97.700; -430.000; -429.000
401.408; -229.100; -712.000; -576.000
401.535; -162.300; -735.000; -758.000
401.663; -348.200;-1134.000;-1054.000
401.790; -126.200; -514.000; -525.000
401.918;  144.900;  436.000;  405.000
402.046;   34.000;  134.000;  122.000
402.173;  -28.700;  -18.000;    7.000
402.301;  -82.500; -519.000; -397.000
402.428;  113.800;  528.000;  383.000
402.556; -250.400;-1188.000; -913.000
402.683;  -33.800;  -20.000;   -1.000
402.811;  -13.100;  -37.000; -206.000
402.938;  -12.100;   20.000;   27.000
403.066;  274.600; -574.000; -558.000
403.193;  469.800;  299.000;  239.000
403.321;  339.100; -396.000; -574.000
403.448;  466.900;   83.000;   27.000
403.575;  191.700;  -90.000;  -46.000
403.703; -177.900; -732.000; -557.000
403.830;  -67.600; -531.000; -496.000
403.957; -270.300;-1117.000;-1023.000
404.085;   23.600;  -61.000; -172.000
404.212;  154.900;  -50.000;   63.000
404.339;  320.400; -566.000; -306.000
404.467; 7052.300; -612.000; -524.000
404.594; 4589.700; -287.000; -227.000
404.721; 1009.200; -869.000; -764.000
404.848;   96.400; -113.000; -202.000
404.976; -220.300; -856.000; -783.000
405.103;   20.000;  -14.000;  -82.000
405.230;    3.600;  190.000;  226.000
405.357;   74.700;  117.000;   44.000
405.484;  323.300;  -49.000;    5.000
405.612;   50.500; -548.000; -563.000
405.739;  -95.100; -488.000; -243.000
405.866;  210.600;  669.000;  385.000
405.993;  -58.100; -398.000; -102.000
406.120; -197.600; -801.000; -887.000
406.247; -117.900; -323.000; -342.000
406.374;  718.700;  540.000;  629.000
406.501;   91.600; -632.000; -702.000
406.628;  -94.900; -621.000; -589.000
406.755; -174.400; -803.000; -620.000
406.882;  -36.500; -228.000; -277.000
407.009; -158.100; -719.000; -628.000
407.136;   78.100; -480.000; -401.000
407.263;  124.300; -939.000; -829.000
407.390; -156.800; -692.000; -614.000
407.517; -295.800;-1139.000;-1187.000
407.644;  -65.100; -332.000; -256.000
407.771; -129.800; -249.000; -287.000
407.898;   85.400;  168.000;  328.000
408.025;  -94.200; -421.000; -313.000
408.151;   31.600;   82.000;  153.000
408.278;  -82.300; -267.000; -216.000
408.405; -188.100; -931.000; -899.000
408.532; -136.400; -549.000; -542.000
408.659; -179.100; -677.000; -648.000
408.785; -367.200;-1298.000;-1170.000
408.912;  -78.500; -412.000; -296.000
409.039; -191.900; -610.000; -686.000
409.166; -181.800; -591.000; -555.000
409.292; -183.800; -571.000; -534.000
409.419; -151.600; -665.000; -649.000
409.546; -124.100; -431.000; -192.000
409.672; -164.500; -713.000; -545.000
409.799;  -27.400;  -36.000;   34.000
409.926;  -43.500; -180.000; -179.000
410.052; -291.200;-1127.000;-1091.000
410.179;  -71.500; -368.000; -392.000
410.305; -124.500; -375.000; -493.000
410.432;  -39.800; -220.000; -333.000
410.558; -143.400; -305.000; -380.000
410.685; -153.200; -688.000; -431.000
410.812; -159.500; -409.000; -588.000
410.938; -240.000; -964.000; -808.000
411.065; -159.500; -671.000; -645.000
411.191;   16.700; -189.000; -174.000
411.317; -236.400; -823.000; -742.000
411.444;  -91.800; -317.000; -246.000
411.570; -110.500; -339.000; -294.000
411.697; -212.300; -758.000; -752.000
411.823; -288.200; -989.000; -999.000
411.949;   -0.200;  -56.000;   17.000
412.076; -171.300; -539.000; -519.000
412.202; -188.500; -758.000; -757.000
412.329; -242.700; -798.000; -752.000
412.455; -180.500; -821.000; -657.000
412.581;  -12.800;  -15.000;  172.000
412.707; -106.800; -540.000; -457.000
412.834;   66.500;  156.000;  219.000
412.960; -164.300; -785.000; -784.000
413.086; -176.200; -743.000; -701.000
413.212;  261.200;  604.000;  578.000
413.339; -149.900; -685.000; -701.000
413.465;   31.700; -364.000; -310.000
413.591; -197.300; -757.000; -474.000
413.717;  -89.000; -358.000; -366.000
413.843; -245.100; -839.000; -861.000
413.969;  -75.600;  -47.000; -292.000
414.096; -154.000; -679.000; -679.000
414.222;   24.700;  -33.000;   85.000
414.348;  -64.200; -652.000; -385.000
414.474;  153.100;   38.000;  -52.000
414.600;  -20.200; -126.000; -144.000
414.726;   16.900;  -96.000;  -55.000
414.852;  -66.200; -365.000; -342.000
414.978;   55.100;  104.000;  -18.000
415.104;  110.300;   38.000;   80.000
415.230;   45.000; -329.000; -330.000
415.356;   14.900; -409.000; -514.000
415.482;  243.900;   13.000;  -35.000
415.608;  320.200; -247.000; -323.000
415.734; 1269.500;   67.000;   38.000
415.860;25750.000; -875.000; -767.000
415.986;16924.900; -685.000; -607.000
416.111; 1314.200; -798.000; -652.000
416.237;  299.700; -424.000; -571.000
416.363; 1451.500; -765.000; -733.000
416.489; 5063.500; -324.000; -251.000
416.615;  479.200; -707.000; -742.000
416.741;  -76.500; -677.000; -784.000
416.866; -159.800; -673.000; -736.000
416.992; -203.600; -801.000; -818.000
417.118;  -31.200;  -41.000;  -80.000
417.244; -121.100; -798.000; -531.000
417.369; -183.300; -801.000; -612.000
417.495;   -2.300; -325.000; -254.000
417.621; -186.700;-1015.000; -803.000
417.746;   -7.300; -579.000; -572.000
417.872;   62.800; -254.000; -144.000
417.998;   47.400; -515.000; -530.000
418.123; 1279.600;-1073.000; -845.000
418.249; 6475.200; -512.000; -601.000
418.374;  741.800; -916.000; -824.000
418.500;  125.600; -383.000; -482.000
418.626;  172.700;   70.000;  -59.000
418.751;  116.300; -549.000; -448.000
418.877;  201.700; -637.000; -643.000
419.002; 2407.300; -688.000; -560.000
419.128;15369.600; -930.000; -721.000
419.253; 3300.300; -967.000; -837.000
419.379;  438.700; -391.000; -338.000
419.504;  553.800;  325.000;  415.000
419.629;  637.500; -393.000; -212.000
419.755; 4620.800; -317.000; -254.000
419.880;25457.700;  -98.000;   67.000
420.006;14377.100; -280.000; -221.000
420.131;35686.700; -662.000; -775.000
420.256; 4722.100; -315.000; -316.000
420.382;  607.200; -665.000; -687.000
420.507;    5.600; -649.000; -778.000
420.632;  191.500; -337.000; -339.000
420.758;  388.900; -251.000; -425.000
420.883; -137.100; -876.000; -672.000
421.008; -175.800; -775.000; -619.000
421.133; -110.000; -509.000; -467.000
421.259;  -62.800; -325.000; -259.000
421.384; -199.500; -834.000; -693.000
421.509;  -76.300;-1052.000; -862.000
421.634; 1711.700; -936.000; -820.000
421.759;  735.200; -359.000; -327.000
421.885; -141.900; -717.000; -656.000
422.010; -118.200; -673.000; -542.000
422.135; -278.400; -695.000; -727.000
422.260;  110.400;  340.000;  280.000
422.385;  -65.200;   12.000;  -98.000
422.510;   53.500;  151.000;  -26.000
422.635;   75.700;  -87.000;  -43.000
422.760;  148.200; -766.000; -791.000
422.885;  130.100;  -57.000;  -80.000
423.010;  -10.000; -112.000; -169.000
423.135; -146.500; -481.000; -561.000
423.260;    1.100; -150.000; -245.000
423.385;  144.400;  476.000;  222.000
423.510;   72.300;   71.000;  -22.000
423.635;  140.500;  133.000;   45.000
423.760;  182.900;  383.000;  328.000
423.885;   91.300;  336.000;  391.000
424.010;   43.500;  -68.000;  -13.000
424.135;   -9.300;    5.000;  -33.000
424.259; -125.300; -654.000; -457.000
424.384;  -71.900; -279.000; -272.000
424.509;  -10.900; -260.000; -186.000
424.634; -192.000; -761.000; -623.000
424.759;  -66.700; -688.000; -544.000
424.883;   -8.200; -506.000; -527.000
425.008;  226.300; -502.000; -410.000
425.133; 2422.600; -679.000; -653.000
425.258; 1015.500; -517.000; -381.000
425.382; 1530.700; -867.000; -774.000
425.507; 3711.000; -487.000; -543.000
425.632;  505.600; -802.000; -663.000
425.756;  597.700; -256.000; -146.000
425.881; 8417.500; -831.000; -857.000
426.006;20437.400; -604.000; -355.000
426.130; 2885.800; -696.000; -508.000
426.255;  334.600; -611.000; -491.000
426.379;  185.600; -189.000; -577.000
426.504;  581.700;  660.000;  544.000
426.629; 5219.800; -519.000; -466.000
426.753; 3209.400;   64.000;  -46.000
426.878;  391.400; -252.000; -288.000
427.002;  149.800; -651.000; -668.000
427.127; 2158.600;  -35.000; -158.000
427.251;14483.400;  372.000;  401.000
427.375; 3648.900; -191.000; -173.000
427.500; 3274.200; -616.000; -610.000
427.624;  995.900; -234.000; -400.000
427.749;  136.500; -216.000; -225.000
427.873;  -89.700; -499.000; -412.000
427.997;  -23.700; -222.000; -230.000
428.122;  220.200;  795.000;  703.000
428.246;  165.000;  433.000;  434.000
428.371; -210.500; -869.000; -773.000
428.495; -155.600; -624.000; -646.000
428.619;  -27.300; -186.000; -117.000
428.743;   82.200;   65.000;  132.000
428.868;   35.100; -732.000; -643.000
428.992; 2068.900; -219.000; -326.000
429.116;  802.400; -329.000; -357.000
429.240;  439.700;  419.000;  426.000
429.365;  -46.000; -454.000; -574.000
429.489;  -87.800; -638.000; -647.000
429.613;   66.900; -236.000; -177.000
429.737;   44.800; -563.000; -432.000
429.861;  354.800; -247.000; -133.000
429.985; 7336.000; -425.000; -305.000
430.109; 7140.500; -770.000; -908.000
430.234;  841.000;   76.000;  -50.000
430.358;   50.700; -250.000; -160.000
430.482; -110.000; -672.000; -564.000
430.606; -100.500; -655.000; -375.000
430.730;   62.400; -437.000; -388.000
430.854;  142.700; -909.000; -835.000
430.978; -120.100; -795.000; -764.000
431.102; -138.200; -499.000; -422.000
431.226; -170.800; -874.000; -815.000
431.350;  102.300;  345.000;  422.000
431.474; -106.900; -661.000; -373.000
431.597; -263.300;-1060.000; -848.000
431.721; -101.000; -276.000; -267.000
431.845; -213.400; -704.000; -472.000
431.969;  -86.200; -304.000; -349.000
432.093; -125.100; -395.000; -317.000
432.217;   38.600;   32.000;   82.000
432.341; -148.400; -523.000; -518.000
432.464;   49.000;   96.000;   40.000
432.588;  267.600; -401.000; -329.000
432.712;  131.900;  -52.000;  -52.000
432.836;  131.500;  213.000;  263.000
432.959;  -23.000; -372.000; -311.000
433.083;  119.300;   11.000;    2.000
433.207;  544.100;  285.000;  930.000
433.330; 6503.900; -391.000; -200.000
433.454; 7310.300; -654.000; -638.000
433.578; 4372.700;  583.000;  278.000
433.701;  666.000; -623.000; -675.000
433.825;  167.200; -292.000; -299.000
433.949;  256.900;   28.000;  -72.000
434.072;   69.200; -410.000; -323.000
434.196;   -8.700; -309.000; -117.000
434.319; 7688.100;25482.000;25124.000
434.443;  979.100; -656.000; -603.000
434.566; 3222.900;  281.000;   62.000
434.690;  450.100; -637.000; -383.000
434.813;   32.300; -251.000; -173.000
434.937; -121.200; -569.000; -696.000
435.060;  -75.800; -423.000; -332.000
435.184;  493.900; -492.000; -217.000
435.307;  242.800;  159.000;  102.000
435.431;   32.500;  -40.000;   24.000
435.554;  -96.700; -399.000; -240.000
435.677; -134.000; -350.000; -258.000
435.801;  -24.400;  -25.000;   49.000
435.924;   49.000;    1.000;  -67.000
436.048; -234.500;-1019.000; -732.000
436.171;  -28.800; -240.000;  -66.000
436.294;  -32.000; -248.000; -229.000
436.417;   50.700; -963.000; -849.000
436.541; -171.500; -814.000; -840.000
436.664;  -75.000; -242.000; -316.000
436.787;   18.000;   13.000;  113.000
436.910; -172.100; -792.000; -422.000
437.034;   43.200;  142.000;  143.000
437.157;  113.300;  -11.000;    0.000
437.280;  -97.000; -392.000; -292.000
437.403; -163.600; -982.000; -869.000
437.526; 1008.200; -903.000; -865.000
437.649; 3342.700; -505.000; -332.000
437.772;  393.700; -692.000; -540.000
437.896;  268.600;  700.000;  544.000
438.019; -151.000; -758.000; -503.000
438.142; -131.700; -596.000; -506.000
438.265;  -25.200; -639.000; -670.000
438.388;  824.400; -520.000; -410.000
438.511;  104.500; -597.000; -394.000
438.634;  -80.100; -247.000; -125.000
438.757; -210.100; -693.000; -619.000
438.880;  -37.200;  -34.000;  -57.000
439.003;  -93.200; -417.000; -437.000
439.126;  -75.600; -287.000; -167.000
439.248;  -89.300;  -98.000; -139.000
439.371;  -20.600;    9.000;  -53.000
439.494;  105.300;  510.000;  439.000
439.617;  -34.600;   65.000;  -88.000
439.740; -304.000; -968.000; -816.000
439.863; -206.900; -755.000; -595.000
439.986; -198.100; -476.000; -431.000
440.108;  -35.800; -161.000; -112.000
440.231; -269.500; -950.000; -836.000
440.354;  -30.500;  -64.000; -150.000
440.477;   13.900; -566.000; -542.000
440.599;   41.600; -200.000; -225.000
440.722; -212.500; -709.000; -586.000
440.845;  174.200;  751.000;  928.000
440.968; -167.800; -415.000; -311.000
441.090;  -70.800; -199.000;  -33.000
441.213; -308.600;-1021.000; -825.000
441.336;  -51.700; -159.000;   -5.000
441.458; -109.900; -549.000; -396.000
441.581; -136.700; -628.000; -629.000
441.703;  -69.700; -152.000;   13.000
441.826; -139.700; -557.000; -400.000
441.948;  -44.300;   56.000;   51.000
442.071;  110.800;  555.000;  424.000
442.193; -188.500; -531.000; -485.000
442.316;   64.300;  152.000;   97.000
442.438;   74.400; -233.000;  -10.000
442.561;  139.000;  272.000;  262.000
442.683;  893.700; -809.000; -522.000
442.806; 1743.200;   -8.000;   74.000
442.928;  -31.800; -859.000; -604.000
443.051;  -89.200; -577.000; -373.000
443.173; -121.900; -341.000; -339.000
443.295; -139.300; -263.000; -371.000
443.418; -122.200; -321.000;  -29.000
443.540;   43.500; -106.000;   -4.000
443.662; -203.400; -563.000; -465.000
443.785;   28.900;  335.000;  199.000
443.907; -181.400; -362.000; -208.000
444.029; -162.300; -767.000; -494.000
444.152; -235.500; -644.000; -554.000
444.274;    1.900;  -18.000;  -24.000
444.396; -163.800; -461.000; -221.000
444.518; -179.600; -691.000; -454.000
444.640; -148.200; -268.000; -111.000
444.763;   32.300;  388.000;  249.000
444.885; -193.800; -432.000; -392.000
445.007;    0.200;   35.000;   86.000
445.129; -190.200; -610.000; -515.000
445.251; -140.900; -372.000; -439.000
445.373; -202.000; -537.000; -386.000
445.495;   65.200;  242.000;  350.000
445.617;  137.600;  853.000;  753.000
445.739;  -59.900; -215.000;  -97.000
445.861;  -24.300; -245.000; -112.000
445.984;  -37.700; -267.000; -101.000
446.105;  309.600; -418.000; -251.000
446.227;  885.600; -176.000;  -19.000
446.349;  -21.100; -358.000; -249.000
446.471; -167.700; -615.000; -448.000
446.593;  -66.100; -316.000;   19.000
446.715;   36.300;  -67.000;   41.000
446.837;  193.000;  697.000;  832.000
446.959; -118.100; -457.000; -478.000
447.081; -219.300; -628.000; -518.000
447.203;  181.100;  862.000;  834.000
447.325; -110.100; -270.000;   42.000
447.446;   64.900;  286.000;  530.000
447.568; -253.400; -921.000; -803.000
447.690; -108.600; -236.000; -245.000
447.812; -221.500; -798.000; -519.000
447.933;   12.700;  155.000;  127.000
448.055;  -69.200; -306.000; -261.000
448.177;  300.400;   31.000;   79.000
448.299;   59.900; -935.000; -727.000
448.420;   79.300;  -25.000;  159.000
448.542;  -31.300;   -3.000;   33.000
448.664;    4.700;  109.000;  322.000
448.785;   17.700;  265.000;   83.000
448.907;  -86.300; -614.000; -353.000
449.028;  -63.400; -771.000; -471.000
449.150;  173.300;  492.000;  589.000
449.272; -325.900;-1044.000; -913.000
449.393;  124.400;  612.000;  694.000
449.515; -241.100; -634.000; -581.000
449.636;  -75.000; -264.000; -155.000
449.758;  203.000;  763.000;  622.000
449.879; -110.900; -498.000; -396.000
450.001; -107.200; -149.000;  -49.000
450.122;   -8.400;  -95.000;  162.000
450.244;  -37.700;   37.000;  364.000
450.365; -108.700; -495.000; -301.000
450.486;  -19.400;   80.000;  268.000
450.608;   94.500;  393.000;  326.000
450.729;  186.600;  578.000;  645.000
450.850;   -7.700; -574.000; -466.000
450.972;  946.600; -552.000; -389.000
451.093; 6210.500;  190.000;  588.000
451.214; 2267.300; -516.000; -337.000
451.336;  551.000;  773.000;  579.000
451.457;  127.600;  264.000;  393.000
451.578;  -37.600; -118.000;  -74.000
451.699; -210.100; -546.000; -540.000
451.821;  -72.600; -284.000;  -50.000
451.942;   15.200;  278.000;  285.000
452.063;  104.200;  228.000;  419.000
452.184;  729.000;  -54.000;  -49.000
452.305; 1388.500;  103.000;  170.000
452.427;   67.000; -549.000; -301.000
452.548;   13.800;   23.000;   79.000
452.669;  -64.400; -257.000;  -89.000
452.790;  -17.400;    3.000;  -18.000
452.911;   35.200;  195.000;  259.000
453.032;  -96.500; -289.000;  -60.000
453.153;  -35.600;  -29.000;   81.000
453.274;  228.800;  737.000;  868.000
453.395;  -50.100;  -51.000;  175.000
453.516;  310.700; 1317.000; 1388.000
453.637;  -94.700; -205.000; -150.000
453.758;  -27.900;   15.000;   69.000
453.879; -190.800; -462.000; -250.000
454.000;  230.600; 1086.000;  948.000
454.121; -195.500; -554.000; -326.000
454.242; -174.100; -599.000; -383.000
454.362;  -26.900;  -99.000;  114.000
454.483;   -7.000; -309.000; -229.000
454.604;  136.600;  512.000;  580.000
454.725; -190.700; -627.000; -555.000
454.846; -210.000; -474.000; -406.000
454.967;   28.700;  230.000;  539.000
455.087;  -26.800;  179.000;  153.000
455.208;   91.200;  554.000;  856.000
455.329;  -47.700;  -22.000;   82.000
455.450;  148.600;  473.000;  633.000
455.570; -136.600; -234.000; -211.000
455.691;  -10.700;  201.000;  407.000
455.812; -131.200; -270.000;  -92.000
455.932;  -49.400;  107.000;  -97.000
456.053; -116.000;   36.000;   24.000
456.173; -162.900; -433.000; -355.000
456.294; -222.700; -476.000; -303.000
456.415;  -47.800;  -73.000;   70.000
456.535;  -31.100;  297.000;  273.000
456.656;  -23.700;  132.000;  240.000
456.776;  -79.800;    3.000;  298.000
456.897;   56.500;  308.000;  513.000
457.017; -105.900; -153.000;   -3.000
457.138; -155.100; -402.000; -249.000
457.258;   41.500;  263.000;  224.000
457.379;   51.400;  509.000;  521.000
457.499;   34.000;  443.000;  432.000
457.620; -168.900; -407.000; -231.000
457.740; -112.300; -132.000;  -11.000
457.860;  -57.200;   87.000;   44.000
457.981;  -49.200;  132.000;  124.000
458.101;  -62.600;  -89.000;   40.000
458.221;   25.000;  336.000;  402.000
458.342;  -59.600;   -4.000;  -37.000
458.462;   78.400;  617.000;  352.000
458.582;  -54.200; -302.000; -294.000
458.703;   39.300;  303.000;  154.000
458.823;   -6.500;   22.000;  163.000
458.943;   76.700;  341.000;  467.000
459.063;   14.200; 1124.000;  192.000
459.183;   -9.200;  328.000;  313.000
459.304;   66.000;  315.000;  517.000
459.424;  -95.600; -246.000;  -89.000
459.544;  534.600;  388.000;  764.000
459.664; 1103.200;  499.000;  506.000
459.784;  478.700; 1004.000; 1175.000
459.904;  158.400;  867.000;  744.000
460.024;  198.900;  867.000;  684.000
460.144;   60.900;  449.000;  554.000
460.264;   57.000;  515.000;  327.000
460.385; -133.100; -145.000; -119.000
460.505;  179.400;  905.000;  858.000
460.625; -123.500;  -17.000;  -68.000
460.745;   13.900;  396.000;  541.000
460.864;  -41.000;  153.000;  469.000
460.984;  102.800;  499.000;  573.000
461.104;  321.800; 1656.000; 1775.000
461.224;  113.400;  657.000;  650.000
461.344;   25.700;  431.000;  360.000
461.464;   21.900;  258.000;  513.000
461.584;    1.300;  283.000;  466.000
461.704;  -13.900;   58.000;  108.000
461.824;  -42.900;  238.000;  259.000
461.943;   -3.500;  191.000;  130.000
462.063;  -85.000;    2.000;  324.000
462.183;  135.600;  639.000;  717.000
462.303;  256.400; 1678.000; 1230.000
462.422;  143.900;  781.000;  840.000
462.542;  -14.200;  271.000;  391.000
462.662;  138.900;  353.000;  380.000
462.782;  381.600;  833.000;  572.000
462.901;  690.200;  545.000;  717.000
463.021;  525.600; 1702.000; 1638.000
463.141;   48.700;  337.000;  770.000
463.260;    8.700;  614.000;  474.000
463.380;   85.800;  902.000;  884.000
463.499;   -8.800;  342.000;  332.000
463.619;   -5.500;  581.000;  559.000
463.738;  268.100; 1644.000;  903.000
463.858;  131.800;  657.000;  811.000
463.978;   11.900;  542.000;  396.000
464.097;  152.700;  921.000; 1114.000
464.217;  276.500; 1196.000; 1143.000
464.336;  260.200; 1068.000; 1130.000
464.455;  -16.000;  328.000;  659.000
464.575;  128.000;  597.000;  602.000
464.694;  328.500; 1204.000; 1179.000
464.814;  286.700; 1190.000; 1138.000
464.933;  209.300; 1095.000; 1027.000
465.052;  259.500; 1412.000; 1054.000
465.172;  200.400;  922.000;  799.000
465.291;  356.500; 1376.000; 1320.000
465.410;   79.700;  462.000;  735.000
465.530;  242.800; 1355.000; 1310.000
465.649;  181.100; 1209.000; 1273.000
465.768;  363.900; 1673.000; 1508.000
465.888;  164.300;  941.000; 1174.000
466.007;  229.600; 1335.000; 1440.000
466.126;   52.500;  721.000;  641.000
466.245;  177.400; 1176.000; 1187.000
466.364;   96.100;  950.000; 1060.000
466.484;  198.400; 1024.000; 1213.000
466.603;  166.400; 1101.000; 1222.000
466.722;  318.600; 1490.000; 1769.000
466.841;  248.300; 1151.000; 1401.000
466.960;  170.100; 1069.000;  972.000
467.079;  353.900; 1971.000; 1786.000
467.198;  167.500; 1238.000; 1181.000
467.317;  239.100; 1768.000; 1162.000
467.436;  201.300; 1709.000; 1261.000
467.555;  318.300; 1796.000; 1746.000
467.674;  215.600; 1227.000; 1329.000
467.793;  143.100; 1376.000; 1374.000
467.912;  233.000; 1658.000; 1539.000
468.031;  324.400; 2038.000; 1930.000
468.150;  339.200; 1842.000; 1837.000
468.269;  425.000; 2313.000; 2090.000
468.388;  494.400; 2168.000; 2339.000
468.507;  608.900; 2884.000; 2903.000
468.626;  603.900; 2555.000; 2541.000
468.744;  371.000; 2018.000; 2174.000
468.863;  458.100; 2312.000; 2523.000
468.982;  283.900; 1503.000; 1555.000
469.101;  539.100; 2788.000; 2692.000
469.220;  347.800; 2333.000; 2176.000
469.338;  569.500; 2935.000; 3051.000
469.457;  456.500; 2719.000; 2545.000
469.576;  735.700; 3953.000; 3784.000
469.695;  566.100; 2877.000; 3066.000
469.813;  939.800; 4148.000; 4192.000
469.932;  873.200; 4255.000; 4485.000
470.051;  902.800; 4075.000; 4161.000
470.169; 1463.000; 4470.000; 4338.000
470.288; 2265.500; 4700.000; 4809.000
470.406; 1465.400; 5059.000; 5194.000
470.525; 1338.900; 6101.000; 5787.000
470.644; 1346.200; 6847.000; 6794.000
470.762; 1723.700; 8397.000; 7873.000
470.881; 1892.800; 8651.000; 8464.000
470.999; 2142.800; 9685.000; 9151.000
471.118; 2267.300;11174.000;10711.000

