
Integration time [ms]: 100.000
Averaging Nr. [scans]: 40
Smoothing Nr. [pixels]: 0
Data measured with spectrometer [name]: 2101012U2
Wave   ;Sample   ;Dark     ;Reference
[nm]   ;[counts] ;[counts] ;[counts] 

197.733;   69.725;  516.000;  404.000
197.879;  -90.675; -610.000; -634.000
198.025;  -51.750; -475.000; -420.000
198.171;  -77.450; -602.000; -612.000
198.317;  -25.050; -401.000; -316.000
198.463;  -76.125; -655.000; -404.000
198.609;   35.300;  181.000; -137.000
198.755;  -79.450; -644.000; -410.000
198.901;  -56.325; -505.000; -424.000
199.047;  -77.025; -615.000; -488.000
199.193;  -31.025; -230.000; -468.000
199.339;  -44.875; -222.000; -369.000
199.485;   45.525;  330.000;  271.000
199.631;   10.125;  227.000;  310.000
199.777;  -40.750; -466.000; -398.000
199.923;  -62.600; -610.000; -424.000
200.069;    2.600; -141.000;  -58.000
200.215;   55.650;  128.000;  453.000
200.361;   44.450;  243.000;  477.000
200.507;  -62.275; -600.000; -373.000
200.653;  -18.200; -371.000; -194.000
200.798;  -45.125; -215.000; -125.000
200.944;   13.875; -146.000;  -41.000
201.090;   20.750;   61.000;  222.000
201.236;   -8.425; -116.000; -158.000
201.382;  116.075;  874.000;  903.000
201.528;    6.250;  -58.000;  -48.000
201.674;  -57.475; -386.000; -293.000
201.819;  -65.125; -540.000; -439.000
201.965;  -86.950; -699.000; -447.000
202.111;  -31.275; -273.000; -226.000
202.257;  -43.375; -250.000; -238.000
202.402;   16.000;   13.000;  -36.000
202.548;  -25.200; -169.000; -116.000
202.694;   94.875;  410.000; -183.000
202.840;  -65.700; -603.000; -531.000
202.985;  -62.950; -681.000; -639.000
203.131; -102.775; -832.000; -666.000
203.277;  -16.950; -199.000; -262.000
203.423;  -46.950; -434.000; -520.000
203.568;  -37.075; -462.000; -237.000
203.714;  -69.125; -535.000; -542.000
203.860;  -82.575; -682.000; -641.000
204.005;   17.475;  112.000;  167.000
204.151;   82.825;  561.000;  556.000
204.296;  -38.850; -354.000; -221.000
204.442;  -55.075; -600.000; -547.000
204.588;  -92.050; -592.000; -579.000
204.733;   32.025;  178.000;  168.000
204.879; -127.250;-1018.000; -822.000
205.025;    5.925;  -99.000;  126.000
205.170;    1.550;  -17.000;   94.000
205.316;   82.425;  438.000;  661.000
205.461;  -87.750; -698.000; -554.000
205.607;   92.075;  609.000;  665.000
205.752;  -85.575; -626.000; -551.000
205.898;  -42.975; -501.000; -391.000
206.043;  -61.150; -578.000; -506.000
206.189;  -26.525; -243.000; -285.000
206.334;   79.150;  554.000;  606.000
206.480;   83.575;  409.000;  239.000
206.625;  -76.900; -529.000; -552.000
206.771;  -40.575; -451.000; -373.000
206.916;  -42.125; -210.000; -537.000
207.062;  -61.350; -545.000; -591.000
207.207;  -60.800; -546.000; -443.000
207.353;   56.975;  185.000;  460.000
207.498;    3.375;  196.000;   85.000
207.643;  -46.675; -501.000; -370.000
207.789; -126.675;-1069.000; -910.000
207.934;  -74.050; -665.000; -713.000
208.080;  -27.525; -154.000;   66.000
208.225;   -9.850;  -22.000;  -57.000
208.370;  -88.525; -727.000; -619.000
208.516;  -71.500; -741.000; -487.000
208.661;  -26.475; -127.000;  -69.000
208.806;  -13.150; -165.000; -171.000
208.952; -123.250;-1044.000; -731.000
209.097;   71.200;  378.000;  349.000
209.242;  -46.525; -307.000; -382.000
209.387;   73.475;  392.000;  350.000
209.533;  -43.625; -321.000; -350.000
209.678;   83.950;  472.000;  543.000
209.823;  -59.725; -408.000; -310.000
209.969;  -89.900; -860.000; -757.000
210.114; -106.900; -907.000; -719.000
210.259;  -98.725; -939.000; -889.000
210.404;  -13.625; -171.000;  103.000
210.549;    1.225;  108.000;    3.000
210.695;  -21.075;   -3.000;  -95.000
210.840;   36.500;   94.000;   67.000
210.985;  -63.000; -484.000; -303.000
211.130;   69.400;  268.000;  406.000
211.275;   16.900;  207.000;  199.000
211.420;  -39.500; -300.000; -289.000
211.566;  -72.425; -536.000; -489.000
211.711;   34.250;  218.000;  157.000
211.856;  -77.575; -545.000; -519.000
212.001;   23.850;  151.000;   44.000
212.146;    9.700;  153.000;   49.000
212.291;  -17.000; -210.000; -186.000
212.436;  -31.375; -280.000;   -6.000
212.581;  -75.050; -685.000; -653.000
212.726;  -74.725; -487.000; -538.000
212.871;  -49.150; -552.000; -217.000
213.016; -148.150;-1172.000;-1029.000
213.161;   64.550;  406.000;  291.000
213.306;  -79.100; -435.000; -577.000
213.451;  -82.375; -778.000; -689.000
213.596;  -41.575; -455.000; -347.000
213.741;  -48.250; -448.000; -538.000
213.886;  -87.300; -498.000; -517.000
214.031;  -31.750; -294.000; -124.000
214.176;  -57.725; -408.000; -341.000
214.321;  -18.850; -296.000; -157.000
214.466;  -27.100; -163.000;  -43.000
214.611;   11.075;  -61.000;  -10.000
214.756; -137.225; -948.000; -858.000
214.901;  -21.275; -388.000; -226.000
215.046; -129.725; -797.000; -825.000
215.191;   12.050;  128.000;   35.000
215.336;  -12.450; -157.000;  -19.000
215.480;  -65.400; -684.000; -505.000
215.625;  -26.975; -175.000;  -19.000
215.770;  -80.125; -757.000; -662.000
215.915;  -11.025;   -5.000;  -97.000
216.060;  -18.500; -113.000;  -21.000
216.205; -100.450; -731.000; -779.000
216.349;  -68.650; -470.000; -533.000
216.494; -138.150; -939.000; -867.000
216.639; -115.450; -823.000; -888.000
216.784;  -91.675; -577.000; -525.000
216.929;   46.275;  392.000;  281.000
217.073;  -24.225; -244.000;  -31.000
217.218;   16.450;   78.000;  -47.000
217.363;  -85.075; -656.000; -618.000
217.507;  -73.225; -623.000; -588.000
217.652; -118.600; -845.000; -874.000
217.797;  -87.725; -708.000; -659.000
217.942; -114.775; -856.000; -720.000
218.086;   70.450;  608.000;  539.000
218.231;  -23.900; -174.000;  -26.000
218.376;  -31.200; -337.000; -229.000
218.520;   -2.625;  -41.000;   96.000
218.665;  -23.900; -338.000; -204.000
218.810;  -51.975; -275.000; -233.000
218.954;   19.050;  201.000;   35.000
219.099; -114.725; -713.000; -963.000
219.243;  -59.850; -589.000; -554.000
219.388;  -33.925; -264.000; -136.000
219.532;  -11.300; -116.000; -116.000
219.677;  -84.600; -564.000; -521.000
219.822;   16.275;   33.000;   89.000
219.966;   -3.525;   17.000;  -99.000
220.111;  -32.250; -328.000;  -40.000
220.255;  -93.175; -797.000; -750.000
220.400;  -16.350; -180.000; -146.000
220.544;  -69.350; -516.000; -450.000
220.689;  -51.175; -422.000; -451.000
220.833;   -7.550; -123.000;  -58.000
220.978;  -46.975; -393.000; -563.000
221.122;   19.400;  319.000;  307.000
221.267;  -97.325; -906.000; -837.000
221.411;  -58.575; -478.000; -394.000
221.555;  -12.550; -104.000;  -23.000
221.700;  -49.225; -329.000; -222.000
221.844;   44.875;  255.000;  272.000
221.989;  -42.825; -328.000; -311.000
222.133;  -30.900; -289.000; -307.000
222.277;  -18.175;    5.000;   78.000
222.422;   18.650;  227.000;  113.000
222.566;  -35.875; -381.000; -214.000
222.711;  -55.800; -414.000; -479.000
222.855;  -83.200; -643.000; -586.000
222.999;  -85.575; -642.000; -717.000
223.144;  -32.925; -195.000; -194.000
223.288;   63.825;  423.000;  251.000
223.432;   36.050;  184.000;  230.000
223.576;    9.000;  152.000;  -21.000
223.721;   48.800;  364.000;  273.000
223.865;  -45.525; -472.000; -475.000
224.009;  233.350; 1673.000; 1631.000
224.153;  -69.250; -660.000; -671.000
224.298;  -80.075; -531.000; -489.000
224.442;  -21.550;  -74.000;  -33.000
224.586;  -22.550; -169.000; -106.000
224.730;  -92.225; -858.000; -670.000
224.875; -115.300; -739.000; -688.000
225.019;   24.325;  102.000;  188.000
225.163;   50.625;  208.000;  341.000
225.307;   10.800;   97.000;  -91.000
225.451;   49.800;  360.000;  481.000
225.595;   36.450;  264.000;  176.000
225.739;  -19.475; -170.000;  -94.000
225.884;    4.650;   86.000;    5.000
226.028;  -98.350; -760.000; -626.000
226.172;  -26.025; -260.000; -273.000
226.316; -118.475; -941.000; -902.000
226.460;  -52.750; -645.000; -493.000
226.604;  -52.575; -406.000; -400.000
226.748;  -97.700; -836.000; -733.000
226.892;  -34.775; -227.000; -181.000
227.036;  -37.250; -537.000; -447.000
227.180;  -53.950; -551.000; -375.000
227.324;  -57.275; -561.000; -580.000
227.468; -119.400; -819.000; -717.000
227.612;    2.625;  242.000;  -28.000
227.756; -100.000; -845.000; -698.000
227.900;   41.725;  342.000;  441.000
228.044;  -61.400; -509.000; -290.000
228.188;   51.350;  448.000;  568.000
228.332;  -82.450; -546.000; -472.000
228.476;  -26.525; -223.000; -149.000
228.620;  -44.875; -210.000; -150.000
228.764;   65.400;  431.000;  349.000
228.908;  -19.325; -155.000;   30.000
229.052;  -64.725; -615.000; -528.000
229.195;  -18.300; -172.000;   13.000
229.339;   -6.875; -235.000; -305.000
229.483;  -31.275;    5.000; -162.000
229.627;    5.675; -156.000;  139.000
229.771;  -58.000; -218.000; -294.000
229.915;   18.050;  230.000;   79.000
230.059;  -85.375; -648.000; -663.000
230.202;  -39.750; -370.000; -317.000
230.346;  -24.250; -107.000;  107.000
230.490;  -59.975; -489.000; -521.000
230.634; -109.950; -736.000; -553.000
230.777;   73.200;  478.000;  509.000
230.921;  -53.575; -450.000; -359.000
231.065;  -39.950; -246.000; -286.000
231.209;   19.775;  261.000;  265.000
231.352;   27.875;   54.000;   40.000
231.496;   19.975;  568.000;  188.000
231.640;  -71.500; -693.000; -621.000
231.783;   67.175;  546.000;  525.000
231.927;  -34.375; -294.000; -365.000
232.071; -127.900; -962.000; -736.000
232.214;  -96.625; -980.000; -764.000
232.358;  -98.100; -683.000; -599.000
232.502;   11.225;  -19.000;    7.000
232.645; -149.050;-1090.000; -927.000
232.789;   -9.650; -257.000; -218.000
232.933;  -53.075; -407.000; -224.000
233.076; -105.200;-1038.000; -897.000
233.220; -120.250; -752.000; -777.000
233.363;  -80.575; -669.000; -477.000
233.507;   52.450;  371.000;  129.000
233.650;  -83.225; -764.000; -834.000
233.794;   27.900;  438.000;  461.000
233.938;  -62.925; -530.000; -362.000
234.081;  -27.900;  -93.000;   31.000
234.225;  -59.225; -631.000; -539.000
234.368; -116.375; -773.000; -723.000
234.512;  -41.625; -385.000; -299.000
234.655;  -96.375; -582.000; -555.000
234.798;  -66.050; -493.000; -466.000
234.942; -124.600; -884.000;-1002.000
235.085;  -70.875; -651.000; -443.000
235.229;  -78.450; -405.000; -410.000
235.372;  -39.675; -247.000; -191.000
235.516;  -74.175; -397.000; -321.000
235.659;   21.450;   92.000;  121.000
235.802;  -22.925;  -38.000;  -22.000
235.946;   19.125;  335.000;  215.000
236.089;   11.450;  126.000;  250.000
236.233;   40.675;  275.000;  298.000
236.376;  -49.700; -235.000; -378.000
236.519;  -39.425; -297.000; -319.000
236.663;  -30.300; -215.000; -117.000
236.806; -113.350;-1029.000; -999.000
236.949;   49.725;  543.000;  431.000
237.092;   65.100;  412.000;  391.000
237.236;  -87.275; -589.000; -502.000
237.379;   71.950;  352.000;  428.000
237.522; -111.100; -879.000; -768.000
237.666;   -8.200; -271.000;   18.000
237.809; -134.450; -851.000; -823.000
237.952;   50.650;  469.000;  271.000
238.095;  -80.375; -447.000; -442.000
238.238;   81.525;  688.000;  700.000
238.382;   -8.900;  166.000;  103.000
238.525;  -74.050; -598.000; -511.000
238.668; -144.100;-1060.000; -985.000
238.811;  -81.025; -638.000; -643.000
238.954;  -63.600; -483.000; -334.000
239.097;   89.375;  617.000;  664.000
239.241;   17.150;  394.000;  326.000
239.384;  -33.925; -254.000; -214.000
239.527;  -65.725; -424.000; -224.000
239.670; -135.950; -994.000;-1091.000
239.813; -108.225; -696.000; -658.000
239.956;   85.525;  579.000;  473.000
240.099; -115.450; -778.000; -725.000
240.242;   67.625;  428.000;  432.000
240.385;   30.025;  466.000;  450.000
240.528;  -56.900; -706.000; -473.000
240.671;   12.800;  189.000;  134.000
240.814;  -50.250; -441.000; -158.000
240.957; -115.250; -767.000; -578.000
241.100;  -85.525; -779.000; -755.000
241.243; -130.125;-1234.000; -893.000
241.386;  -62.550; -508.000; -379.000
241.529;  -85.100; -735.000; -547.000
241.672;  -59.500; -566.000; -495.000
241.815; -123.125; -832.000; -808.000
241.958;  -23.950; -125.000; -182.000
242.101;  -88.050; -545.000; -390.000
242.244;  -41.000; -270.000; -325.000
242.387;  -48.475; -304.000; -246.000
242.530;   75.500;  470.000;  134.000
242.673;  -49.450; -381.000; -309.000
242.815; -119.175; -925.000; -899.000
242.958;  -71.300; -482.000; -381.000
243.101;   12.775;  132.000;  187.000
243.244;  -89.350; -564.000; -521.000
243.387;  -46.475; -313.000; -316.000
243.530;  -95.000; -657.000; -674.000
243.672;    9.475;   43.000;  -92.000
243.815;  -59.475; -355.000; -283.000
243.958;    4.400;   98.000;  -26.000
244.101;  -21.600;   59.000;  -16.000
244.243;  -13.650;  -47.000;  101.000
244.386; -114.075; -761.000; -630.000
244.529;  -23.025; -132.000; -139.000
244.672; -158.625;-1154.000; -951.000
244.814;  -90.850; -621.000; -794.000
244.957;  -75.125; -380.000; -304.000
245.100;  -65.225; -489.000; -489.000
245.242;  -71.550; -387.000; -374.000
245.385;    2.600;  -59.000;  -39.000
245.528; -123.775; -871.000; -705.000
245.670;   93.425;  612.000;  634.000
245.813;  -90.050; -599.000; -547.000
245.956;  -22.325; -324.000; -275.000
246.098;  -83.950; -508.000; -650.000
246.241;   13.500;  194.000;   48.000
246.383;  -21.875; -119.000;  -73.000
246.526;  -65.950; -454.000; -525.000
246.669; -119.375; -889.000; -780.000
246.811;   16.000;  172.000;   -1.000
246.954;  -76.400; -512.000; -426.000
247.096;  -23.525;  -84.000;   -6.000
247.239;  -67.075; -482.000; -445.000
247.381;  -64.650; -647.000; -488.000
247.524;   65.075;  645.000;  679.000
247.666;   -7.100;   58.000;   11.000
247.809; -115.925; -887.000; -691.000
247.951;  -10.200;  -75.000;  138.000
248.094;   24.500;  432.000;  308.000
248.236; -146.625;-1262.000;-1238.000
248.378;   11.200; -356.000;  -81.000
248.521;  -12.300; -334.000; -337.000
248.663;  -55.850; -236.000; -267.000
248.806;  -20.600; -300.000; -266.000
248.948;  -88.150; -886.000; -763.000
249.090;  -34.225; -428.000; -398.000
249.233;  -50.525; -344.000; -381.000
249.375;  -56.625; -474.000; -451.000
249.518;  -22.900;  -83.000; -133.000
249.660;   -4.375; -103.000;    3.000
249.802; -165.525;-1303.000;-1189.000
249.945;  -76.850; -612.000; -540.000
250.087; -112.500; -834.000; -768.000
250.229;  -48.025; -362.000; -480.000
250.371;  -74.325; -494.000; -439.000
250.514;  -49.975; -310.000; -244.000
250.656;   -9.750;   69.000;  102.000
250.798; -116.150; -849.000; -800.000
250.940;  -59.925; -322.000; -322.000
251.083;  -30.700; -335.000; -111.000
251.225;   48.650;  338.000;  310.000
251.367;  -32.875; -274.000; -373.000
251.509;  -54.200; -265.000; -210.000
251.651;  -84.475; -731.000; -671.000
251.794;   54.675;  538.000;  632.000
251.936;  -99.625; -821.000; -747.000
252.078;  -81.100; -540.000; -461.000
252.220;  -58.600; -645.000; -477.000
252.362;   89.875;  344.000;  462.000
252.504;  -66.850; -677.000; -584.000
252.646; -111.125; -875.000; -722.000
252.788;   -9.825;   14.000; -128.000
252.931;  -45.600; -257.000; -253.000
253.073;  -47.275; -376.000; -317.000
253.215;  -23.925;  141.000;  122.000
253.357;  -19.225;   82.000; -153.000
253.499;  -58.975; -374.000; -234.000
253.641;  -74.900; -749.000; -594.000
253.783;  -88.125; -609.000; -527.000
253.925;  -85.450; -586.000; -591.000
254.067; -117.450; -744.000; -667.000
254.209;  -16.925; -391.000; -259.000
254.351; -128.250; -865.000; -883.000
254.493;  -64.125; -441.000; -417.000
254.635; -121.900; -936.000; -818.000
254.777;  -89.150; -752.000; -687.000
254.918;  -69.350; -512.000; -430.000
255.060;  -59.050; -551.000; -395.000
255.202;  -54.725; -473.000; -261.000
255.344;  -62.650; -658.000; -455.000
255.486;  -66.000; -471.000; -406.000
255.628; -105.275; -780.000; -781.000
255.770; -111.125; -676.000; -536.000
255.912;  -57.475; -559.000; -468.000
256.053;  -92.500; -730.000; -508.000
256.195;  142.175; 1008.000;  903.000
256.337; -103.400; -861.000; -595.000
256.479;   57.650;  532.000;  416.000
256.621;  -47.450; -394.000; -212.000
256.762;  -82.300; -789.000; -742.000
256.904;   40.800;  485.000;  487.000
257.046;  -32.900; -381.000; -271.000
257.188;  -51.500; -351.000; -264.000
257.329;  -75.075; -525.000; -464.000
257.471; -116.800; -939.000; -807.000
257.613;  -61.550; -584.000; -498.000
257.755; -148.875;-1073.000; -982.000
257.896;   26.275;  286.000;  392.000
258.038;  -67.375; -403.000; -352.000
258.180;  -39.925; -354.000; -279.000
258.321;  -93.875; -581.000; -457.000
258.463;   -0.975;  -71.000;  133.000
258.605; -100.500; -562.000; -570.000
258.746; -107.825; -886.000; -772.000
258.888; -157.475;-1026.000;-1020.000
259.029;   28.050;  121.000;   -8.000
259.171; -100.575; -614.000; -550.000
259.313;   -3.425;  -49.000;  -47.000
259.454;  -80.875; -536.000; -414.000
259.596;  -47.725; -483.000; -390.000
259.737;  -73.925; -590.000; -474.000
259.879;   39.975;  217.000;  311.000
260.020;   76.350;  901.000;  636.000
260.162;  -37.075; -146.000; -253.000
260.303; -125.350; -768.000; -687.000
260.445;  -83.650; -609.000; -613.000
260.586;   20.450;  392.000;  157.000
260.728;  -40.175; -360.000; -248.000
260.869; -110.500; -350.000; -343.000
261.011;   76.250;  706.000;  537.000
261.152;  -66.525; -479.000; -319.000
261.293;  -64.875; -576.000; -595.000
261.435;  -42.900; -219.000; -184.000
261.576;  -40.875; -455.000; -325.000
261.718;   47.825;  420.000;  470.000
261.859; -129.225; -940.000; -949.000
262.000; -133.450; -951.000;-1016.000
262.142;  -14.625;  -52.000;  -60.000
262.283; -132.750; -808.000; -691.000
262.424;  -82.325; -666.000; -625.000
262.566; -159.375;-1161.000; -983.000
262.707; -107.675; -840.000; -830.000
262.848; -125.400; -769.000; -726.000
262.990;  -48.175; -362.000; -345.000
263.131;   69.625;  650.000;  681.000
263.272;    1.525;  -61.000;  -41.000
263.413;  -89.025; -589.000; -561.000
263.555;  -62.075; -669.000; -143.000
263.696;  -85.525; -550.000; -641.000
263.837;  -57.950; -449.000; -551.000
263.978;  -18.350;   -5.000;  -77.000
264.119;  -39.525; -283.000; -264.000
264.261; -118.650; -847.000; -630.000
264.402;   11.900;   33.000;   40.000
264.543;  -80.600; -509.000; -524.000
264.684;   -7.675;   61.000;  -50.000
264.825;  -72.800; -816.000; -538.000
264.966;   -7.900;  -84.000;  -67.000
265.107; -111.725; -646.000; -670.000
265.248; -118.725; -825.000; -812.000
265.390;  -19.675;  152.000;   -9.000
265.531;  -22.600; -238.000; -107.000
265.672;  -95.700; -557.000; -630.000
265.813;   61.050;  563.000;  439.000
265.954; -145.525; -959.000; -940.000
266.095;   -9.875; -372.000; -322.000
266.236; -102.300; -686.000; -548.000
266.377;  -34.350; -243.000; -297.000
266.518;  -84.350; -619.000; -547.000
266.659;   23.725;  170.000;  268.000
266.800;    0.500;   83.000;   85.000
266.941;  -69.650; -487.000; -478.000
267.082;   -5.225;  354.000;   99.000
267.223;  -35.675; -344.000; -273.000
267.364; -121.950; -892.000; -686.000
267.504;  -10.175;    3.000;  135.000
267.645;  -20.625;  160.000;   67.000
267.786;  -14.950; -147.000;  -86.000
267.927;  -70.550; -473.000; -379.000
268.068;  -17.225; -186.000;  -61.000
268.209;  -55.200; -175.000; -413.000
268.350;  -65.800; -388.000; -532.000
268.490;  -94.525; -648.000; -521.000
268.631;   40.250;  127.000;  225.000
268.772; -101.425; -874.000; -647.000
268.913;  -39.800; -328.000; -476.000
269.054;  -18.425; -117.000;   12.000
269.194;  -38.150; -418.000; -402.000
269.335; -154.650;-1137.000;-1074.000
269.476;   -0.750;   33.000;  -35.000
269.617;  -52.775; -347.000; -392.000
269.757;  -77.950; -713.000; -646.000
269.898; -108.700; -856.000; -613.000
270.039;  -47.975; -415.000; -405.000
270.180; -130.650; -952.000; -816.000
270.320;  -20.600; -190.000; -250.000
270.461;  -38.750; -277.000; -249.000
270.602;   -5.175; -186.000; -156.000
270.742; -132.300; -868.000; -943.000
270.883;  -40.775; -442.000; -390.000
271.023;  -53.925; -358.000; -357.000
271.164;  -70.525; -607.000; -528.000
271.305;  -99.600; -666.000; -654.000
271.445;  -77.675; -722.000; -683.000
271.586;  -73.450; -462.000; -283.000
271.726;  -36.375; -397.000; -322.000
271.867;  -62.925; -594.000; -534.000
272.008;  197.900; -473.000; -285.000
272.148;  136.725;  462.000;  468.000
272.289;   23.500; -113.000; -181.000
272.429;    6.950;   19.000;  185.000
272.570;  -70.550; -633.000; -737.000
272.710;  -92.875; -825.000; -775.000
272.851;   -9.075;  113.000; -130.000
272.991; -154.550;-1173.000;-1077.000
273.131;  -53.975; -419.000; -459.000
273.272;  -95.450; -683.000; -723.000
273.412;   10.825; -143.000;  -31.000
273.553;  -61.975; -488.000; -507.000
273.693;  132.550;  913.000;  858.000
273.834;  -86.450; -894.000; -692.000
273.974;  -53.400; -664.000; -615.000
274.114; -104.850; -772.000; -560.000
274.255;   83.100;  414.000;  373.000
274.395;    0.575; -180.000; -125.000
274.535;   46.625;  199.000;  350.000
274.676;    2.725;  225.000;   94.000
274.816;    6.500;  110.000;   34.000
274.956;  -84.150; -624.000; -690.000
275.097;  -46.475;-1014.000; -922.000
275.237; -113.950; -913.000; -803.000
275.377;  -83.300; -778.000; -689.000
275.517; -143.900; -878.000; -937.000
275.658;  -58.850; -590.000; -555.000
275.798;  -64.025; -606.000; -413.000
275.938;   22.600;  215.000;  323.000
276.078;  -99.500; -626.000; -395.000
276.218;   17.825;   99.000;  104.000
276.359; -126.025;-1026.000;-1024.000
276.499;  -67.450; -605.000; -446.000
276.639;  -41.900; -305.000; -151.000
276.779;  -47.475; -475.000; -357.000
276.919;  -89.125; -783.000; -624.000
277.059;  -14.450; -261.000; -212.000
277.199;  -38.450; -357.000; -259.000
277.340;   52.125;  287.000;  175.000
277.480; -105.225; -840.000; -693.000
277.620;   36.550;  192.000;   16.000
277.760; -193.525;-1533.000;-1294.000
277.900;    8.000;  113.000;   33.000
278.040;   16.825;  137.000;  159.000
278.180;   45.475;  270.000;  170.000
278.320;    0.950;   21.000;   56.000
278.460;  -66.725; -443.000; -469.000
278.600;  -92.525; -708.000; -598.000
278.740;   54.925;  448.000;  224.000
278.880;  -44.825; -768.000; -791.000
279.020;   14.325; -194.000; -144.000
279.160;  -97.450; -672.000; -595.000
279.300; -117.975; -926.000; -873.000
279.440;  -88.425; -709.000; -622.000
279.579;   -3.225;-1014.000; -929.000
279.719;  -50.575; -410.000; -394.000
279.859;   69.025;   -4.000;   41.000
279.999;   18.725; -208.000;  101.000
280.139;   -3.475; -435.000; -387.000
280.279;  -74.575; -708.000; -745.000
280.419;  -11.075; -229.000; -147.000
280.559;  -22.475; -259.000; -180.000
280.698;  -87.925; -790.000; -639.000
280.838;  -85.500; -778.000; -800.000
280.978; -103.200; -846.000; -790.000
281.118; -117.025; -811.000; -704.000
281.257;   17.675;   24.000;    6.000
281.397; -115.150;-1094.000; -960.000
281.537;  -88.175; -599.000; -712.000
281.677;  -34.600; -150.000; -101.000
281.816;  -89.050; -700.000; -630.000
281.956;  -38.800; -193.000; -257.000
282.096;  -65.325; -539.000; -396.000
282.235; -105.775; -672.000; -638.000
282.375;  -25.275; -243.000;  -98.000
282.515; -106.650; -715.000; -707.000
282.654;   34.800;   29.000;  106.000
282.794;    8.200;  388.000;  244.000
282.934;  -53.075; -530.000; -491.000
283.073; -130.150;-1030.000; -857.000
283.213;  -52.225; -460.000; -467.000
283.353;  -41.700; -408.000; -349.000
283.492;  -25.275; -264.000; -296.000
283.632;  -52.800; -254.000; -168.000
283.771;  -92.775; -859.000; -730.000
283.911;  -61.225; -369.000; -260.000
284.050; -104.150; -794.000; -748.000
284.190; -163.050;-1229.000;-1096.000
284.329; -149.450;-1055.000; -964.000
284.469;  -70.100; -516.000; -591.000
284.608;  -60.275; -559.000; -598.000
284.748;  -91.975; -614.000; -570.000
284.887;   -0.325;  -87.000;  -20.000
285.027; -126.275; -844.000; -892.000
285.166;  -28.450; -192.000; -249.000
285.306;   13.275; -116.000;  -33.000
285.445;  -35.700; -229.000; -343.000
285.584;  -89.125; -630.000; -494.000
285.724;  -35.500; -282.000; -322.000
285.863; -101.375; -857.000; -507.000
286.002;  -49.700; -366.000; -276.000
286.142; -111.950; -715.000; -622.000
286.281;  -62.400; -525.000; -493.000
286.420;  -65.825; -554.000; -417.000
286.560;   96.250;  653.000;  623.000
286.699; -139.675; -958.000; -912.000
286.838;  -74.350; -590.000; -591.000
286.978;  -91.800; -533.000; -537.000
287.117; -124.725;-1085.000; -950.000
287.256;  -39.625; -228.000; -211.000
287.395;  -46.350; -197.000; -378.000
287.535;  -58.400; -370.000; -298.000
287.674;  -73.950; -509.000; -484.000
287.813;   35.625;  661.000;  533.000
287.952; -126.250;-1010.000; -871.000
288.091; -149.000;-1049.000; -915.000
288.231;   14.150;   13.000;   15.000
288.370; -172.250;-1217.000;-1200.000
288.509;  -87.200; -728.000; -645.000
288.648;  -98.625; -770.000; -548.000
288.787;  -33.100; -243.000;  -87.000
288.926;  -66.225; -454.000; -475.000
289.065;  112.400;  859.000;  672.000
289.204;  -61.050; -377.000; -217.000
289.344;  -97.250; -791.000; -690.000
289.483;   12.975;  416.000;  304.000
289.622;  -35.125; -291.000; -149.000
289.761;  -32.275; -309.000; -166.000
289.900; -103.450; -785.000; -626.000
290.039;  -40.150;  -12.000;  -95.000
290.178;  -36.275; -274.000; -180.000
290.317;  -95.425; -618.000; -479.000
290.456;  -54.525; -463.000; -451.000
290.595; -115.475; -961.000; -833.000
290.734; -122.900; -904.000; -891.000
290.873;  -54.025; -456.000; -420.000
291.011; -104.225; -833.000; -843.000
291.150;  -91.650; -770.000; -682.000
291.289;  -23.550; -343.000; -110.000
291.428;  -80.800; -599.000; -480.000
291.567;  -53.325; -370.000; -442.000
291.706;  -20.525;  109.000;  154.000
291.845;  -80.025; -597.000; -505.000
291.984; -166.875;-1234.000;-1061.000
292.122;   70.800;  602.000;  582.000
292.261;   44.250;  620.000;  463.000
292.400;    1.550; -144.000;  211.000
292.539; -130.625; -959.000; -813.000
292.678;  -36.400; -325.000; -300.000
292.816; -159.975;-1136.000; -965.000
292.955;  -76.200; -844.000; -684.000
293.094;  -25.925; -173.000; -337.000
293.233;  -49.475; -556.000; -400.000
293.371;  -32.875; -225.000;  -84.000
293.510; -109.650; -866.000; -780.000
293.649; -129.900; -959.000; -924.000
293.787;  -56.100;-1083.000;-1012.000
293.926;   -9.650; -113.000;  -32.000
294.065;  -51.125; -379.000; -290.000
294.203;   32.150;  298.000;  406.000
294.342;   24.450;   74.000;  156.000
294.481; 6177.225;51180.000; -836.000
294.619;  -25.950; -425.000; -582.000
294.758; -137.225;-1230.000;-1137.000
294.896;   99.100; -125.000;    5.000
295.035; -128.100;-1040.000;-1006.000
295.174; -115.550;-1082.000; -954.000
295.312;  -33.875; -323.000; -203.000
295.451;    8.300; -307.000; -428.000
295.589;  -44.725; -389.000; -518.000
295.728;   31.175; -292.000; -165.000
295.866;   -2.175;  -36.000;  -51.000
296.005;  -54.800; -584.000; -341.000
296.143;  -56.225; -558.000; -596.000
296.282; -103.575; -957.000; -881.000
296.420; -102.525; -657.000; -557.000
296.559;  -71.200; -892.000; -633.000
296.697;   29.675; -847.000; -665.000
296.835;   92.800;-1141.000;-1002.000
296.974;   33.700;  -23.000;   39.000
297.112;   30.600; -443.000; -504.000
297.251;  -72.700; -815.000; -755.000
297.389;  109.875; -576.000; -438.000
297.527;   42.550; -145.000;  -83.000
297.666;  -43.475; -486.000; -438.000
297.804;  -51.125; -404.000; -264.000
297.942;  -15.950; -136.000; -161.000
298.081;   -9.350; -183.000;   63.000
298.219;   94.350;  -17.000;  -19.000
298.357;   61.975; -144.000;  -71.000
298.495;   52.275; -810.000; -812.000
298.634;   79.925;  245.000;  219.000
298.772;   73.725; -220.000; -338.000
298.910;  -41.575; -309.000; -182.000
299.048;   -1.650; -130.000; -153.000
299.187;  -37.800; -350.000; -250.000
299.325;   32.225;   52.000;  122.000
299.463;   70.825; -389.000; -299.000
299.601;  124.350; -327.000; -271.000
299.739; -107.100; -908.000; -883.000
299.877;  -68.550; -791.000; -703.000
300.016;  -28.900;-1095.000; -935.000
300.154;  191.550;  -19.000; -161.000
300.292;   68.600; -428.000; -348.000
300.430;   36.200; -408.000; -291.000
300.568; -114.800; -940.000; -874.000
300.706;  -48.000; -366.000; -469.000
300.844;  -62.900;-1108.000; -979.000
300.982;  110.325;  246.000;  282.000
301.120;  -99.525; -965.000; -866.000
301.258;  -49.500; -812.000; -705.000
301.396;   33.625;  104.000;  -41.000
301.534;  107.700; -218.000; -293.000
301.672;    1.325; -664.000; -521.000
301.810;   59.425; -613.000; -545.000
301.948;  121.350;   53.000;  149.000
302.086;  743.750; -250.000;  -32.000
302.224; 1050.025; -610.000; -585.000
302.362;   56.525; -558.000; -622.000
302.500;  -16.375; -923.000; -893.000
302.638;  135.575;  128.000;  245.000
302.776;   -1.375; -352.000; -408.000
302.913;   44.150;  447.000;  236.000
303.051;    5.350;  -86.000;  -23.000
303.189;   46.175;   90.000;  118.000
303.327;  -53.000; -341.000; -256.000
303.465;  -72.375; -832.000; -588.000
303.603;  -93.950; -805.000; -604.000
303.740;   98.725;  417.000;  241.000
303.878;   35.000; -800.000; -759.000
304.016;  -86.650; -915.000; -790.000
304.154; -122.775;-1123.000;-1152.000
304.291;  -22.525; -505.000; -554.000
304.429;    2.500;  102.000;   74.000
304.567; -113.300; -908.000; -893.000
304.705;  -50.025; -408.000; -515.000
304.842;  127.525; -616.000; -540.000
304.980;   57.750;  215.000;   35.000
305.118;   59.900; -367.000; -365.000
305.255;  -54.200; -945.000; -927.000
305.393;   58.350;  178.000;  239.000
305.531;  -85.925;-1173.000; -956.000
305.668;  -54.325; -663.000; -582.000
305.806;  137.750; -358.000; -439.000
305.943;  133.400; -629.000; -637.000
306.081;   55.475; -378.000; -267.000
306.219;  -82.975; -863.000; -748.000
306.356;    2.800;  158.000;   27.000
306.494;  115.700;  981.000;  761.000
306.631;  -19.575;  -11.000;  -55.000
306.769;   21.850; -613.000; -485.000
306.906;  -20.825; -284.000; -258.000
307.044;  -61.075; -473.000; -488.000
307.181;  -57.300; -410.000; -332.000
307.319;   11.650;  112.000;   87.000
307.456; -158.050;-1191.000;-1153.000
307.594;  -94.500; -980.000; -727.000
307.731;  -18.050; -371.000; -164.000
307.868;   -0.850;  -15.000;   20.000
308.006; -123.350; -961.000; -847.000
308.143;  -45.250; -618.000; -330.000
308.281;  211.975;  -37.000; -254.000
308.418;   14.625; -748.000; -640.000
308.555;  -63.575; -400.000; -250.000
308.693;  -73.350; -577.000; -573.000
308.830; -103.500; -712.000; -657.000
308.967;  -19.150; -215.000;  -95.000
309.105;  -47.200; -507.000; -396.000
309.242;   68.300; -468.000; -367.000
309.379;  389.450; -577.000; -655.000
309.517;  -41.000; -936.000; -948.000
309.654;  -95.900; -910.000; -734.000
309.791;  -69.475; -662.000; -580.000
309.928; -110.475; -977.000; -914.000
310.065;  169.575;  819.000;  697.000
310.203;    1.800; -825.000; -850.000
310.340;    9.400; -465.000; -321.000
310.477;  -83.675; -412.000; -516.000
310.614;  -67.975; -383.000; -473.000
310.751;  -69.150; -427.000; -518.000
310.889;   -6.675;    1.000;   11.000
311.026; -154.800;-1161.000; -939.000
311.163;  -32.425; -386.000; -380.000
311.300;  -77.075; -512.000; -479.000
311.437;  -76.600; -658.000; -619.000
311.574; -156.025;-1226.000; -985.000
311.711;  -49.450; -595.000; -433.000
311.848;  -46.325; -380.000; -388.000
311.985;    1.800;  270.000;   93.000
312.122; -120.350; -932.000; -762.000
312.259; -118.625; -941.000; -994.000
312.396;  -79.450; -508.000; -551.000
312.533;  -69.675; -812.000; -790.000
312.670; -131.100;-1070.000; -898.000
312.807;  -43.550; -352.000; -367.000
312.944;  -80.825; -513.000; -611.000
313.081;  -24.200; -150.000; -415.000
313.218;  -91.825;-1111.000; -867.000
313.355;    0.850; -531.000; -449.000
313.492;   -0.500; -455.000; -292.000
313.629;  131.400;  815.000;  735.000
313.766; -151.300;-1176.000;-1008.000
313.902;  -24.175; -186.000;   21.000
314.039;  -70.225; -372.000; -289.000
314.176;   13.550;  286.000;  192.000
314.313;  -81.200; -569.000; -473.000
314.450;  -76.975; -788.000; -684.000
314.587;  -65.850; -468.000; -480.000
314.723;   15.700;  -78.000;  130.000
314.860;   30.475;  318.000;  332.000
314.997;   47.950;  223.000;  142.000
315.134;  -40.900; -385.000; -368.000
315.270;  -23.475; -480.000; -496.000
315.407; -126.300;-1094.000; -967.000
315.544;  -49.350; -657.000; -538.000
315.681;  -53.075; -681.000; -565.000
315.817;   25.575; -133.000; -176.000
315.954;   12.200; -613.000; -392.000
316.091; -123.175;-1045.000;-1023.000
316.227;  -28.975;  -71.000; -179.000
316.364;   -0.350;   23.000;    6.000
316.500;  -38.600; -113.000; -300.000
316.637;  -36.750; -181.000; -302.000
316.774;  -94.750; -625.000; -358.000
316.910;  -82.350; -598.000; -629.000
317.047;  -63.675; -487.000; -351.000
317.183;  -40.825; -435.000; -566.000
317.320;  -25.325; -367.000; -321.000
317.456;  -63.025; -733.000; -805.000
317.593;  -93.850; -598.000; -641.000
317.729;   14.275;  168.000;  -67.000
317.866; -201.100;-1434.000;-1285.000
318.002;  -92.925; -708.000; -948.000
318.139;  -93.200; -883.000; -867.000
318.275;  -80.725;-1003.000; -738.000
318.412;  -62.800; -517.000; -336.000
318.548;  -11.975; -751.000; -720.000
318.685;  -82.850; -985.000; -888.000
318.821;  -95.100; -762.000; -735.000
318.957;  -12.200;   34.000;  -23.000
319.094;   34.625;  297.000;  154.000
319.230;  -58.550; -756.000; -742.000
319.367;  150.375; -471.000; -520.000
319.503;   52.125; -538.000; -436.000
319.639;  -77.450; -877.000; -793.000
319.775;  -57.450; -750.000; -685.000
319.912;  -45.175; -424.000; -519.000
320.048;  -84.475;-1184.000;-1184.000
320.184;   92.050;   59.000;   70.000
320.321;  -61.075; -497.000; -467.000
320.457;   66.425;  475.000;  662.000
320.593;  -66.525; -375.000; -382.000
320.729;  -96.925; -732.000; -734.000
320.866;  -73.925; -577.000; -635.000
321.002;  -70.200; -759.000; -809.000
321.138;  -17.225; -135.000; -211.000
321.274;   85.750; -148.000; -115.000
321.410;  -29.075; -585.000; -353.000
321.546;   -8.500;-1011.000; -911.000
321.683;   59.325;  400.000;  185.000
321.819;    9.075;  -48.000; -117.000
321.955; -112.075; -743.000; -722.000
322.091;  -34.850; -585.000; -540.000
322.227;  -10.350; -382.000; -202.000
322.363;  -13.700; -320.000; -215.000
322.499;  -40.650; -343.000; -331.000
322.635;  183.925;  636.000;  443.000
322.771;   14.875; -139.000;   12.000
322.907;   93.525;  129.000;  327.000
323.043;  -19.125; -115.000; -206.000
323.179;  -32.025; -394.000; -363.000
323.315;   32.500; -401.000; -371.000
323.451;  118.175; -328.000; -236.000
323.587;   76.975;  -60.000;  -77.000
323.723;   24.325; -682.000; -601.000
323.859;  -11.000; -258.000;  -76.000
323.995;  -12.950; -467.000; -409.000
324.131; -129.150; -967.000; -892.000
324.267;  -41.450; -254.000; -276.000
324.402; -123.725; -960.000; -983.000
324.538;   -4.000; -279.000; -104.000
324.674;   21.625;  164.000;   77.000
324.810;  148.375;  226.000;  308.000
324.946;    3.425; -810.000; -658.000
325.082;  -76.800; -568.000; -475.000
325.217;   -2.925;  -62.000;   16.000
325.353;  -91.850; -764.000; -659.000
325.489;  -84.950; -540.000; -506.000
325.625;  -67.750; -579.000; -525.000
325.760;   57.325;  517.000;  376.000
325.896;  -33.500; -515.000; -702.000
326.032;  -50.050; -403.000; -352.000
326.168;  -54.425; -462.000; -369.000
326.303;  -49.225; -352.000; -461.000
326.439;  -14.775; -336.000; -276.000
326.575;    1.200; -190.000;  -29.000
326.710;   -2.700; -156.000;  -30.000
326.846;  -21.325;  146.000;  103.000
326.982;  -84.800; -530.000; -548.000
327.117;  -73.275; -481.000; -442.000
327.253;  -77.825; -745.000; -742.000
327.388; -123.525;-1137.000;-1153.000
327.524;  -37.975; -811.000; -578.000
327.659;  -45.025;  -58.000;  -22.000
327.795;   -5.525;   69.000;   45.000
327.931;  -87.175; -723.000; -499.000
328.066;  -15.150; -417.000; -276.000
328.202;  -15.700;   12.000; -129.000
328.337;  106.700;  957.000;  713.000
328.473;   19.600;  -12.000;  -74.000
328.608;  -22.450; -256.000; -267.000
328.743;  -92.875; -799.000; -664.000
328.879;   26.375;  214.000;  114.000
329.014;  -52.000; -102.000; -122.000
329.150;  -74.825; -358.000; -483.000
329.285;  -96.675; -465.000; -466.000
329.421;  -46.050; -548.000; -246.000
329.556;  -28.725;  -36.000;   85.000
329.691;  -93.700; -633.000; -615.000
329.827;  -93.200; -626.000; -480.000
329.962;  -38.275;  131.000; -301.000
330.097; -109.475; -673.000; -585.000
330.233;  -52.125; -410.000; -223.000
330.368; -121.975; -839.000; -628.000
330.503;  -17.575;    3.000;   98.000
330.638;   -8.600;  -93.000; -125.000
330.774;  -55.825; -609.000; -530.000
330.909;  -41.100; -434.000; -244.000
331.044;  -94.150; -714.000; -708.000
331.179; -178.575;-1217.000;-1109.000
331.315;    4.150;   77.000;   20.000
331.450;  -11.950;  157.000;  285.000
331.585;  -88.975; -805.000; -706.000
331.720;  -82.175; -510.000; -460.000
331.855;   -6.100;  -35.000; -102.000
331.990;  250.950;   62.000;  138.000
332.126;  130.425; -110.000;   71.000
332.261;  -33.000; -379.000; -265.000
332.396;   21.525; -135.000; -242.000
332.531; -101.200;-1074.000;-1031.000
332.666;   30.850; -519.000; -363.000
332.801; -100.050; -726.000; -807.000
332.936;  -20.025; -192.000; -122.000
333.071; -139.975; -870.000; -817.000
333.206;   25.500;  307.000;  379.000
333.341;   31.400;  344.000;  418.000
333.476;  -78.375; -627.000; -623.000
333.611;  -50.025; -251.000; -173.000
333.746;  -42.425; -381.000; -464.000
333.881; -115.125; -973.000; -935.000
334.016; -128.125; -936.000; -917.000
334.151; -123.200; -746.000; -702.000
334.286;   25.325;  152.000;  186.000
334.421;  -27.500; -125.000; -178.000
334.556;  -54.975; -611.000; -567.000
334.690;  -95.275; -631.000; -577.000
334.825;   54.175;  381.000;   83.000
334.960;  -60.775; -285.000; -413.000
335.095;   18.175;  135.000;  -91.000
335.230; -104.300; -722.000; -738.000
335.365; -133.650;-1084.000; -990.000
335.499; -124.675;-1108.000;-1037.000
335.634;   36.225;    9.000;  534.000
335.769; -101.525; -755.000; -720.000
335.904;  -57.800; -603.000; -561.000
336.038;  -77.875; -735.000; -657.000
336.173;  -96.275;-1206.000;-1194.000
336.308;    1.775; -116.000; -189.000
336.443;   31.275; -544.000; -634.000
336.577;  -67.875; -936.000; -787.000
336.712;   59.000;   -4.000;  -12.000
336.847;  -33.450; -724.000; -607.000
336.981;   74.125; -272.000; -208.000
337.116;  293.575;  615.000;  501.000
337.250;  177.825; -434.000; -421.000
337.385;  238.875; -297.000; -208.000
337.520;   73.500; -632.000; -603.000
337.654;  -43.250; -215.000; -126.000
337.789; -124.850; -989.000; -933.000
337.923;  -38.550; -104.000; -205.000
338.058;  -74.925; -673.000; -738.000
338.192;  -23.075; -611.000; -488.000
338.327;    5.200;  -18.000; -155.000
338.461;  -58.450; -299.000; -469.000
338.596;  -86.000; -780.000; -638.000
338.730; -114.125; -767.000; -803.000
338.865;   92.500;  -46.000; -140.000
338.999;  -58.850; -846.000; -702.000
339.134;  -18.975; -634.000; -536.000
339.268;   11.275; -741.000; -603.000
339.403;  357.025; -740.000; -775.000
339.537;  110.000; -894.000; -820.000
339.671; -111.450; -829.000; -813.000
339.806;  -74.175; -556.000; -512.000
339.940;   13.275; -261.000; -235.000
340.074; -106.675; -685.000; -510.000
340.209;  -50.800; -351.000; -230.000
340.343;  -86.350; -517.000; -573.000
340.477;  129.450;  998.000; 1036.000
340.612;  -60.175;-1033.000; -900.000
340.746;  135.900; -199.000; -243.000
340.880;  -62.550; -924.000; -785.000
341.014;  -19.100;  -45.000; -154.000
341.149; -108.225; -756.000; -718.000
341.283; -108.425; -839.000; -754.000
341.417;  -94.575;-1124.000; -938.000
341.551;  186.950; -768.000; -708.000
341.685;  -27.825; -633.000; -611.000
341.820;  -50.175; -562.000; -493.000
341.954;  -44.950; -218.000; -349.000
342.088; -148.475;-1102.000;-1019.000
342.222;   36.525;  565.000;  618.000
342.356;  -65.800; -395.000; -335.000
342.490;  -87.425; -880.000; -841.000
342.624;  -42.750; -339.000; -242.000
342.758;    7.350; -364.000; -312.000
342.892;  -59.750; -710.000; -585.000
343.026;  -53.225;  -58.000; -116.000
343.160;  -61.050; -426.000; -376.000
343.294;  -87.425; -474.000; -337.000
343.428;  -11.600; -488.000; -448.000
343.562;   -1.525; -172.000;  -23.000
343.696;  -19.475; -385.000; -314.000
343.830;  -16.700; -362.000; -356.000
343.964;   24.350; -231.000; -168.000
344.098; 1005.125;  199.000;   70.000
344.232;  853.950; -266.000; -127.000
344.366;   81.975; -567.000; -453.000
344.500;   82.750; -665.000; -744.000
344.634;   43.850; -324.000; -164.000
344.768;   -6.375; -531.000; -341.000
344.902;   13.700;  278.000;  256.000
345.035;  -54.475; -556.000; -496.000
345.169; -135.400; -933.000; -656.000
345.303;  -11.925; -308.000; -482.000
345.437;  -54.700; -826.000; -717.000
345.571;  -69.700; -675.000; -594.000
345.704;  -65.550; -309.000; -532.000
345.838;  -18.800; -331.000; -284.000
345.972;  -29.525; -543.000; -495.000
346.106;  152.275; -179.000; -190.000
346.239;  440.775; -312.000; -243.000
346.373;    5.750; -343.000; -302.000
346.507; -148.475; -950.000; -962.000
346.640;  159.925;  -30.000;   13.000
346.774;  -43.200; -650.000; -797.000
346.908;  -22.250; -138.000;  -11.000
347.041;  -93.250; -646.000; -593.000
347.175;    5.025;  259.000;   27.000
347.309;  -71.125; -698.000; -628.000
347.442;  -84.700; -883.000; -732.000
347.576;  298.050;  670.000;  668.000
347.709;  224.475; -123.000;  -52.000
347.843;  -97.100; -933.000; -825.000
347.976;   30.950;  235.000;  294.000
348.110; -184.225;-1268.000;-1186.000
348.243; -112.850; -679.000; -772.000
348.377;    9.075;  -26.000;   60.000
348.510;   41.375;  403.000;  540.000
348.644;  -48.125;  -37.000; -159.000
348.777;   -2.075;  180.000;  191.000
348.911;  -52.625; -142.000; -112.000
349.044;  185.350;  471.000;  448.000
349.178;  202.475;-1069.000;-1006.000
349.311;  118.350;  141.000;  255.000
349.444;  -10.050; -927.000; -813.000
349.578;  -19.025; -347.000; -200.000
349.711;  -90.450; -959.000; -862.000
349.845;   29.900; -661.000; -591.000
349.978; -161.575;-1224.000;-1137.000
350.111;  -88.950; -546.000; -612.000
350.244;  -74.325; -596.000; -700.000
350.378;   19.375; -392.000; -393.000
350.511;  -75.025; -393.000; -426.000
350.644; -110.225; -808.000; -806.000
350.778;    2.250;  168.000;  104.000
350.911;    2.975;  134.000;  140.000
351.044;  -78.850; -685.000; -615.000
351.177;  -22.025; -321.000; -281.000
351.310;  -18.325;    3.000; -131.000
351.444;  -63.225; -888.000; -788.000
351.577;  116.825;  140.000;   90.000
351.710;   94.925;  593.000;  417.000
351.843;  -40.450; -165.000;  -77.000
351.976;   -7.100;  149.000;  -79.000
352.109;  -89.350; -621.000; -612.000
352.242;  -15.850; -464.000; -419.000
352.376;  -54.650; -580.000; -636.000
352.509;  217.575; -437.000; -356.000
352.642;   21.050; -654.000; -604.000
352.775;   76.475; -141.000;  -98.000
352.908; -106.750; -933.000; -904.000
353.041; -101.025; -814.000; -824.000
353.174;  -59.325; -551.000; -424.000
353.307;  -79.375; -753.000; -764.000
353.440;   68.725;  541.000;  453.000
353.573; -100.225; -957.000;-1008.000
353.706;  -61.825; -384.000; -558.000
353.839;  -16.925; -264.000; -220.000
353.971;  -85.575; -657.000; -512.000
354.104;  -72.600; -896.000; -835.000
354.237;  -43.750; -627.000; -662.000
354.370;  -71.600; -846.000; -879.000
354.503; -167.950;-1231.000;-1308.000
354.636;  -35.875; -529.000; -348.000
354.769; -128.125; -937.000; -860.000
354.902;   -0.250; -230.000; -139.000
355.034;  -32.425; -164.000; -220.000
355.167;  -14.375; -262.000; -162.000
355.300; -103.050;-1061.000; -880.000
355.433;  946.350;  -71.000;  -14.000
355.565; 1487.900; -402.000; -384.000
355.698;  368.200; -356.000; -296.000
355.831;    6.325; -882.000; -801.000
355.964;   87.100; -285.000; -170.000
356.096;  -77.300; -856.000; -843.000
356.229;   27.950; -523.000; -530.000
356.362;  316.800; -373.000; -266.000
356.494;  597.275; -229.000; -162.000
356.627;  514.750;  269.000;  377.000
356.760;  683.125;  120.000;   53.000
356.892;  935.900; -286.000; -601.000
357.025;  723.500;  403.000;  389.000
357.157;  674.025; -167.000; -179.000
357.290;  643.700; -856.000; -713.000
357.423;  197.250; -667.000; -556.000
357.555;  133.950; -217.000; -228.000
357.688;  143.975; -483.000; -364.000
357.820;  502.375; -870.000; -877.000
357.953; 4033.500; -563.000; -589.000
358.085;  931.125; -632.000; -612.000
358.218; 1321.500;-1131.000; -932.000
358.350;  247.250;  -58.000;  312.000
358.483; -110.225;-1300.000;-1187.000
358.615;    8.475;-1182.000;-1078.000
358.747;  -45.975;-1187.000;-1058.000
358.880;   50.975; -810.000; -744.000
359.012;    1.950; -376.000; -202.000
359.145;  -15.900; -480.000; -511.000
359.277;   88.300; -962.000; -913.000
359.409; 3327.600;  536.000;  231.000
359.542;  907.450; -738.000; -688.000
359.674;   77.700;   46.000;   13.000
359.806;  -66.525; -565.000; -438.000
359.939;  -56.675; -617.000; -516.000
360.071;  -27.400; -583.000; -579.000
360.203;  -14.875; -411.000; -364.000
360.335;   37.050;  164.000;  -16.000
360.468;  214.400; -249.000; -307.000
360.600; 2651.225; -547.000; -454.000
360.732; 2775.200; -546.000; -423.000
360.864;  400.950;-1216.000;-1044.000
360.996;  340.425; -516.000; -554.000
361.129;   62.775; -389.000; -598.000
361.261;   31.475;  110.000; -113.000
361.393;  -43.000; -252.000; -214.000
361.525;   33.050;   94.000;  244.000
361.657;  -32.625; -821.000; -703.000
361.789;   13.775; -139.000; -155.000
361.921;  279.425; -642.000; -593.000
362.053;  299.200;  524.000;  541.000
362.185;   45.375;  288.000;   72.000
362.318;  -62.825; -709.000; -705.000
362.450;  134.250;  294.000;  444.000
362.582;  152.775; -913.000; -870.000
362.714;  -18.775; -353.000; -332.000
362.846;  -75.200; -606.000; -490.000
362.978; -148.900; -941.000; -811.000
363.109;   54.475; -161.000; -260.000
363.241;  495.575; -739.000; -749.000
363.373;  442.625; -649.000; -564.000
363.505;  631.950; -186.000;  -91.000
363.637;  164.275; -787.000; -601.000
363.769; -122.200;-1067.000;-1080.000
363.901;  -63.475; -596.000; -654.000
364.033; -119.375;-1103.000;-1062.000
364.165;   10.250; -283.000; -283.000
364.296;   70.275; -316.000; -177.000
364.428;   72.900;-1344.000;-1220.000
364.560;  -78.050; -679.000; -661.000
364.692;  -54.700; -738.000; -835.000
364.824;  304.575; -588.000; -456.000
364.955;  451.100; -402.000; -564.000
365.087;  855.900;-1097.000; -852.000
365.219;   32.475; -686.000; -816.000
365.351;  -75.350; -526.000; -572.000
365.482;   52.175;  300.000;  240.000
365.614;  -51.100; -402.000; -314.000
365.746;  -89.875; -729.000; -752.000
365.877; -108.725; -706.000; -672.000
366.009;  252.325;  -35.000;  -62.000
366.141;  -96.075;-1249.000;-1134.000
366.272; -105.100; -803.000; -719.000
366.404; -116.125;-1005.000; -874.000
366.535;   -0.125; -139.000;  -12.000
366.667;  -99.225; -644.000; -649.000
366.799;   31.250;  353.000;  203.000
366.930; -125.050; -862.000; -996.000
367.062;  117.575; -639.000; -613.000
367.193;  140.550; -872.000; -842.000
367.325;  -53.100; -580.000; -684.000
367.456;   44.650; -246.000;   31.000
367.588;  147.150; -371.000; -318.000
367.719;   16.625;  -44.000;  -45.000
367.851;  -14.375; -222.000; -241.000
367.982;  -36.050; -875.000; -732.000
368.113;  128.525; -475.000; -358.000
368.245; -119.450; -960.000; -841.000
368.376;  -13.600; -254.000; -302.000
368.508;  -25.375; -188.000; -263.000
368.639; -133.500;-1166.000;-1034.000
368.770;   -1.650; -670.000; -589.000
368.902;  -45.650; -836.000; -926.000
369.033;  -99.900; -906.000; -855.000
369.164;  -38.300; -720.000; -653.000
369.296; -104.350; -452.000; -601.000
369.427;   -1.925; -209.000; -144.000
369.558;  -62.725; -593.000; -377.000
369.689;  -92.150; -721.000; -569.000
369.821; -125.475; -951.000; -845.000
369.952;    3.325;   42.000; -108.000
370.083;  -55.850; -229.000; -108.000
370.214;  -75.425; -735.000; -650.000
370.345;  -16.825;   65.000;   81.000
370.477;  -81.925; -810.000; -790.000
370.608;  258.025; -328.000; -264.000
370.739;  -19.000;-1233.000;-1292.000
370.870;  -34.800;-1102.000; -923.000
371.001;  117.175; -378.000; -467.000
371.132;  -68.925; -754.000; -735.000
371.263;  -26.225;  -42.000; -148.000
371.394; -138.350; -841.000; -748.000
371.525;   21.625;  345.000;  225.000
371.657;  -86.550; -808.000; -670.000
371.788;   86.850;  103.000;  199.000
371.919;  194.900; -384.000; -304.000
372.050; 3980.725;  -91.000; -156.000
372.181; 1242.500; -188.000; -294.000
372.311;  413.950;   42.000; -127.000
372.442;   48.325; -457.000; -451.000
372.573;  -15.975; -444.000; -340.000
372.704; -115.000;-1008.000; -980.000
372.835;   92.675; -228.000; -289.000
372.966;  -47.350; -646.000; -554.000
373.097;  -42.225; -575.000; -711.000
373.228;  -33.000; -717.000; -542.000
373.359;  163.300; -824.000; -536.000
373.490; 1033.950; -881.000; -727.000
373.620; 1380.500;-1001.000; -803.000
373.751; 2008.975; -332.000; -396.000
373.882;  941.325; -663.000; -733.000
374.013;   83.175; -449.000; -262.000
374.143;  -30.250; -581.000; -659.000
374.274; -100.875; -987.000; -908.000
374.405;  200.175; -388.000; -276.000
374.536;  494.225; -526.000; -387.000
374.666; 1329.175; -759.000; -807.000
374.797;  265.325; -817.000; -868.000
374.928;  992.300; -710.000; -560.000
375.058; 1006.150; -535.000; -500.000
375.189;   97.675;  -59.000;  -93.000
375.320;  -91.450; -928.000;-1034.000
375.450;  -34.150; -625.000; -616.000
375.581;  -51.800; -526.000; -436.000
375.712;  -25.875; -574.000; -250.000
375.842;  357.975; -438.000; -415.000
375.973;  286.600; -554.000; -513.000
376.103;  -40.525; -665.000; -648.000
376.234;  -76.725; -531.000; -552.000
376.364;  -22.375; -944.000; -867.000
376.495;  338.875;  925.000;  529.000
376.625;    7.275; -472.000; -485.000
376.756;   86.400; -709.000; -678.000
376.886;  -56.125;-1178.000;-1026.000
377.017;   42.350;-1048.000;-1061.000
377.147;  311.000; -786.000; -782.000
377.278;   62.675;  174.000;  228.000
377.408; -133.375; -801.000; -815.000
377.538; -113.125; -707.000; -693.000
377.669;  -92.100; -537.000; -613.000
377.799;  -73.550; -645.000; -635.000
377.929;  -55.725; -610.000; -428.000
378.060; -127.225; -781.000; -847.000
378.190;  -70.150; -726.000; -531.000
378.320;  -42.175; -401.000; -406.000
378.451;  -28.075; -131.000;  -22.000
378.581;   -6.050;  -67.000; -110.000
378.711;  156.975; 1035.000;  866.000
378.841;   -2.825; -533.000; -675.000
378.972;  -64.950; -871.000; -751.000
379.102;    4.025; -652.000; -579.000
379.232;  -14.975; -126.000;  -73.000
379.362;  -83.425;-1001.000; -885.000
379.492;   24.100; -373.000; -424.000
379.623;  125.700;    0.000;  111.000
379.753;  -96.500;-1107.000; -974.000
379.883;  223.900;   59.000;  156.000
380.013;   22.200;-1081.000;-1017.000
380.143;  -99.775;-1097.000;-1056.000
380.273;  -99.425; -985.000; -861.000
380.403;   -3.250; -344.000; -257.000
380.533;  -23.475; -651.000; -664.000
380.663;   76.400;  173.000;  128.000
380.793;  -75.900;-1027.000;-1074.000
380.923;  -22.500; -103.000;  -34.000
381.053; -101.800; -613.000; -623.000
381.183;  -19.275; -106.000; -248.000
381.313;   45.600; -656.000; -470.000
381.443;   58.275; -692.000; -473.000
381.573;  224.500; -402.000; -409.000
381.703;  359.775;-1249.000;-1095.000
381.833; -121.350;-1454.000;-1336.000
381.963;  112.175; -134.000;  -87.000
382.093; 1527.100; -925.000; -909.000
382.223;  529.200; -713.000; -602.000
382.353;   -8.325; -801.000; -608.000
382.482;  436.950;-1091.000; -964.000
382.612;  878.325; -872.000; -644.000
382.742;  507.225; -695.000; -622.000
382.872;  336.900; -565.000; -551.000
383.002;   78.800;  347.000; -132.000
383.131;  -20.875; -226.000; -160.000
383.261;  -25.725; -706.000; -768.000
383.391;  285.000; -552.000; -377.000
383.521; 3089.400;  451.000;  263.000
383.650;  767.650; -947.000; -904.000
383.780;  -10.600; -783.000; -656.000
383.910;  103.750;  880.000;  802.000
384.039;   33.300; -794.000; -656.000
384.169;  278.050;-1205.000;-1017.000
384.299;   -7.550; -650.000; -662.000
384.428;  -83.425; -764.000; -680.000
384.558;  -35.000; -308.000; -275.000
384.687;  -37.075; -414.000; -334.000
384.817;   39.850;   75.000;   -2.000
384.947;   26.775; -234.000; -141.000
385.076;  311.675;  982.000;  912.000
385.206;  104.250;  369.000;  480.000
385.335;  -28.875; -549.000; -417.000
385.465;  -69.775; -655.000; -663.000
385.594;  162.275;  -53.000;  -44.000
385.724;  494.350; -868.000; -838.000
385.853;  151.450; -296.000; -270.000
385.982; 1519.900; -743.000; -787.000
386.112; 2442.700;-1052.000; -871.000
386.241;  187.950; -307.000; -312.000
386.371;   35.050; -174.000;  -87.000
386.500;    7.725; -825.000; -789.000
386.629;   51.125; -874.000; -817.000
386.759;   61.300;  -43.000;   68.000
386.888;    4.475; -170.000; -250.000
387.017;  -64.150; -648.000; -620.000
387.147;  -79.625; -771.000; -798.000
387.276;    0.725; -410.000; -397.000
387.405;   27.075; -398.000; -342.000
387.535;  -43.375; -452.000; -361.000
387.664;  -56.900; -692.000; -620.000
387.793;   54.475; -198.000; -113.000
387.922;  587.375;  255.000;  200.000
388.052;   42.300; -576.000; -423.000
388.181;   46.625; -342.000; -472.000
388.310;   45.250; -889.000; -710.000
388.439;  -20.400; -749.000; -742.000
388.568;  190.775;  365.000;  244.000
388.697; 1210.500; -756.000; -653.000
388.826;  256.825; -768.000; -666.000
388.956;   64.475; -285.000; -307.000
389.085;  -16.550; -347.000; -287.000
389.214; -100.775; -842.000; -872.000
389.343;  -78.975; -645.000; -413.000
389.472;  390.400;  126.000;  149.000
389.601;  540.600;   91.000;    0.000
389.730;   45.225; -568.000; -687.000
389.859;   64.375;  226.000;   46.000
389.988;  224.800; -423.000; -408.000
390.117;  164.550; -168.000; -146.000
390.246;    3.000; -331.000; -320.000
390.375;  112.250; -673.000; -626.000
390.504;  -52.400; -703.000; -621.000
390.633;  -93.700; -672.000; -726.000
390.761;  -65.575; -732.000; -645.000
390.890;   21.100;   -4.000; -130.000
391.019;  -21.525; -421.000; -441.000
391.148; -136.525; -826.000; -855.000
391.277;  -63.975; -576.000; -493.000
391.406;  -76.300; -821.000; -805.000
391.534;   18.825;  574.000; -301.000
391.663;  -63.525; -583.000; -645.000
391.792;  -78.525; -673.000; -701.000
391.921;   98.400;   -3.000;   15.000
392.050;  229.375; -287.000; -228.000
392.178;  -26.550;-1206.000;-1061.000
392.307;  171.325; -758.000; -712.000
392.436;   90.725; -427.000; -641.000
392.564;   14.575;  166.000;   -6.000
392.693;  -78.525; -860.000; -682.000
392.822;  236.075; -529.000; -534.000
392.950;  125.725; -880.000; -714.000
393.079;  372.550; -188.000; -328.000
393.208;   47.050; -488.000; -511.000
393.336;  -11.425; -170.000; -145.000
393.465;  -62.050; -317.000; -199.000
393.593;    3.300;   62.000;   79.000
393.722; -142.600;-1121.000; -916.000
393.850;  -28.650; -188.000;  -61.000
393.979; -150.350; -926.000; -805.000
394.107;  -57.900; -517.000; -537.000
394.236;  -19.475; -570.000; -507.000
394.364;  245.875;  383.000;  206.000
394.493;  456.250; -911.000; -767.000
394.621;    6.200; -955.000; -916.000
394.750;  669.825; -873.000; -923.000
394.878; 2830.775; -247.000; -149.000
395.007; 4013.625; -721.000; -807.000
395.135;  331.250; -790.000; -721.000
395.263;  -86.000;-1038.000;-1040.000
395.392;   26.400;  -25.000; -107.000
395.520; -135.900; -818.000; -679.000
395.648;  -71.875; -865.000; -915.000
395.777;   -3.300; -366.000; -405.000
395.905;  -43.150; -449.000; -564.000
396.033;   15.875;  217.000;  172.000
396.162;  672.975; -399.000; -453.000
396.290;  602.950;  -17.000;   -2.000
396.418;  152.275; -555.000; -514.000
396.546;  -69.975; -571.000; -466.000
396.674;  -90.525; -850.000; -878.000
396.803;   11.800;  -72.000;  -23.000
396.931;  103.775; -179.000; -199.000
397.059;   71.925;-1026.000; -989.000
397.187;  -98.850;-1026.000; -975.000
397.315; -131.550; -884.000; -649.000
397.443;  -98.250; -592.000; -443.000
397.572; -101.900; -578.000; -424.000
397.700;    4.150; -607.000; -614.000
397.828;    4.475;  120.000;  -90.000
397.956;  -43.100; -508.000; -478.000
398.084;  -68.725; -767.000; -626.000
398.212;   40.700;  137.000;  124.000
398.340;    1.350;  -56.000;  159.000
398.468;   46.500; -390.000; -169.000
398.596; -138.300; -993.000; -953.000
398.724; -114.375; -762.000; -767.000
398.852; -169.750;-1024.000; -976.000
398.980;  -46.700; -560.000; -560.000
399.108;  -51.150; -982.000; -735.000
399.236;   51.825;   13.000;    8.000
399.363;   -2.650;  222.000;  196.000
399.491;  -63.200; -404.000; -398.000
399.619; -131.775; -829.000; -800.000
399.747;  -98.275; -859.000; -771.000
399.875;   65.150;  220.000;  234.000
400.003;  -39.475; -359.000; -284.000
400.130; -102.975; -421.000; -341.000
400.258;  -25.650;  -83.000;   38.000
400.386;  -81.100; -352.000; -168.000
400.514;  -38.875; -526.000; -587.000
400.641;  -74.125; -928.000; -802.000
400.769; -142.075; -979.000; -888.000
400.897; -121.225; -838.000; -793.000
401.025;   -6.750; -166.000; -152.000
401.152;  -17.400;  220.000;   38.000
401.280;  -82.750; -430.000; -429.000
401.408; -119.900; -712.000; -576.000
401.535;  -96.700; -735.000; -758.000
401.663; -186.550;-1134.000;-1054.000
401.790;  -92.025; -514.000; -525.000
401.918;   34.275;  436.000;  405.000
402.046;  -19.400;  134.000;  122.000
402.173;  -48.650;  -18.000;    7.000
402.301;  -68.075; -519.000; -397.000
402.428;   21.050;  528.000;  383.000
402.556; -134.800;-1188.000; -913.000
402.683;  -26.450;  -20.000;   -1.000
402.811;  -27.525;  -37.000; -206.000
402.938;  -12.650;   20.000;   27.000
403.066;  230.625; -574.000; -558.000
403.193;  367.725;  299.000;  239.000
403.321;  291.975; -396.000; -574.000
403.448;  367.125;   83.000;   27.000
403.575;  164.000;  -90.000;  -46.000
403.703;  -96.550; -732.000; -557.000
403.830;  -55.000; -531.000; -496.000
403.957; -135.875;-1117.000;-1023.000
404.085;    5.000;  -61.000; -172.000
404.212;   96.050;  -50.000;   63.000
404.339;  243.725; -566.000; -306.000
404.467; 5602.900; -612.000; -524.000
404.594; 4020.050; -287.000; -227.000
404.721; 1022.925; -869.000; -764.000
404.848;  101.775; -113.000; -202.000
404.976; -101.875; -856.000; -783.000
405.103;   -5.625;  -14.000;  -82.000
405.230;  -24.000;  190.000;  226.000
405.357;   26.425;  117.000;   44.000
405.484;  259.625;  -49.000;    5.000
405.612;   59.400; -548.000; -563.000
405.739;  -73.400; -488.000; -243.000
405.866;   82.450;  669.000;  385.000
405.993;  -62.000; -398.000; -102.000
406.120; -136.700; -801.000; -887.000
406.247;  -44.000; -323.000; -342.000
406.374;  487.950;  540.000;  629.000
406.501;  158.175; -632.000; -702.000
406.628;  -65.300; -621.000; -589.000
406.755;  -99.875; -803.000; -620.000
406.882;  -26.375; -228.000; -277.000
407.009;  -99.950; -719.000; -628.000
407.136;   52.925; -480.000; -401.000
407.263;  168.950; -939.000; -829.000
407.390;  -61.375; -692.000; -614.000
407.517; -166.250;-1139.000;-1187.000
407.644;  -62.300; -332.000; -256.000
407.771;  -71.425; -249.000; -287.000
407.898;    0.925;  168.000;  328.000
408.025;  -71.175; -421.000; -313.000
408.151;  -16.275;   82.000;  153.000
408.278;  -75.650; -267.000; -216.000
408.405; -109.925; -931.000; -899.000
408.532;  -76.475; -549.000; -542.000
408.659; -112.950; -677.000; -648.000
408.785; -200.850;-1298.000;-1170.000
408.912;  -68.175; -412.000; -296.000
409.039; -131.000; -610.000; -686.000
409.166;  -95.625; -591.000; -555.000
409.292; -105.725; -571.000; -534.000
409.419; -112.675; -665.000; -649.000
409.546;  -93.425; -431.000; -192.000
409.672; -125.275; -713.000; -545.000
409.799;  -15.400;  -36.000;   34.000
409.926;  -40.475; -180.000; -179.000
410.052; -176.375;-1127.000;-1091.000
410.179;  -43.700; -368.000; -392.000
410.305;  -96.125; -375.000; -493.000
410.432;  -57.475; -220.000; -333.000
410.558; -101.650; -305.000; -380.000
410.685; -101.250; -688.000; -431.000
410.812; -104.525; -409.000; -588.000
410.938; -144.325; -964.000; -808.000
411.065;  -95.575; -671.000; -645.000
411.191;  -14.675; -189.000; -174.000
411.317; -125.200; -823.000; -742.000
411.444;  -70.825; -317.000; -246.000
411.570;  -93.375; -339.000; -294.000
411.697; -112.275; -758.000; -752.000
411.823; -177.250; -989.000; -999.000
411.949;  -25.100;  -56.000;   17.000
412.076; -112.700; -539.000; -519.000
412.202; -108.750; -758.000; -757.000
412.329; -139.150; -798.000; -752.000
412.455; -116.425; -821.000; -657.000
412.581;  -32.225;  -15.000;  172.000
412.707;  -63.675; -540.000; -457.000
412.834;   -0.350;  156.000;  219.000
412.960;  -72.175; -785.000; -784.000
413.086; -110.300; -743.000; -701.000
413.212;  162.375;  604.000;  578.000
413.339;  -59.200; -685.000; -701.000
413.465;   17.650; -364.000; -310.000
413.591;  -91.300; -757.000; -474.000
413.717;  -55.700; -358.000; -366.000
413.843; -146.425; -839.000; -861.000
413.969;  -43.375;  -47.000; -292.000
414.096; -107.125; -679.000; -679.000
414.222;    2.275;  -33.000;   85.000
414.348;  -19.050; -652.000; -385.000
414.474;  120.200;   38.000;  -52.000
414.600;  -29.275; -126.000; -144.000
414.726;  -16.650;  -96.000;  -55.000
414.852;  -71.775; -365.000; -342.000
414.978;   35.025;  104.000;  -18.000
415.104;   36.500;   38.000;   80.000
415.230;   21.850; -329.000; -330.000
415.356;   39.675; -409.000; -514.000
415.482;  191.750;   13.000;  -35.000
415.608;  270.725; -247.000; -323.000
415.734;  967.675;   67.000;   38.000
415.860;19404.825; -875.000; -767.000
415.986;15255.450; -685.000; -607.000
416.111; 1358.175; -798.000; -652.000
416.237;  286.725; -424.000; -571.000
416.363; 1042.825; -765.000; -733.000
416.489; 4186.075; -324.000; -251.000
416.615;  471.325; -707.000; -742.000
416.741;   -7.700; -677.000; -784.000
416.866;  -99.625; -673.000; -736.000
416.992; -114.475; -801.000; -818.000
417.118;  -25.575;  -41.000;  -80.000
417.244;  -62.000; -798.000; -531.000
417.369;  -87.450; -801.000; -612.000
417.495;    3.025; -325.000; -254.000
417.621;  -78.275;-1015.000; -803.000
417.746;   19.225; -579.000; -572.000
417.872;   38.000; -254.000; -144.000
417.998;   37.950; -515.000; -530.000
418.123;  985.900;-1073.000; -845.000
418.249; 5360.825; -512.000; -601.000
418.374;  809.975; -916.000; -824.000
418.500;  113.725; -383.000; -482.000
418.626;  108.975;   70.000;  -59.000
418.751;  130.650; -549.000; -448.000
418.877;  194.100; -637.000; -643.000
419.002; 1692.075; -688.000; -560.000
419.128;12393.675; -930.000; -721.000
419.253; 3322.175; -967.000; -837.000
419.379;  422.100; -391.000; -338.000
419.504;  377.250;  325.000;  415.000
419.629;  500.750; -393.000; -212.000
419.755; 3268.625; -317.000; -254.000
419.880;20551.375;  -98.000;   67.000
420.006;11248.950; -280.000; -221.000
420.131;29708.425; -662.000; -775.000
420.256; 4654.675; -315.000; -316.000
420.382;  626.875; -665.000; -687.000
420.507;  101.700; -649.000; -778.000
420.632;  146.675; -337.000; -339.000
420.758;  301.150; -251.000; -425.000
420.883;  -73.825; -876.000; -672.000
421.008;  -97.050; -775.000; -619.000
421.133;  -89.075; -509.000; -467.000
421.259;  -45.950; -325.000; -259.000
421.384; -111.750; -834.000; -693.000
421.509;  -29.650;-1052.000; -862.000
421.634; 1287.875; -936.000; -820.000
421.759;  625.175; -359.000; -327.000
421.885;  -46.325; -717.000; -656.000
422.010;  -61.800; -673.000; -542.000
422.135; -154.975; -695.000; -727.000
422.260;   35.550;  340.000;  280.000
422.385;  -42.025;   12.000;  -98.000
422.510;   18.450;  151.000;  -26.000
422.635;   11.325;  -87.000;  -43.000
422.760;  115.275; -766.000; -791.000
422.885;   57.600;  -57.000;  -80.000
423.010;  -36.425; -112.000; -169.000
423.135; -101.075; -481.000; -561.000
423.260;  -10.550; -150.000; -245.000
423.385;   64.600;  476.000;  222.000
423.510;   28.600;   71.000;  -22.000
423.635;   79.925;  133.000;   45.000
423.760;   56.050;  383.000;  328.000
423.885;   40.275;  336.000;  391.000
424.010;   27.550;  -68.000;  -13.000
424.135;  -25.100;    5.000;  -33.000
424.259;  -86.450; -654.000; -457.000
424.384;  -73.325; -279.000; -272.000
424.509;  -25.550; -260.000; -186.000
424.634; -106.125; -761.000; -623.000
424.759;   -9.300; -688.000; -544.000
424.883;  -36.100; -506.000; -527.000
425.008;  168.400; -502.000; -410.000
425.133; 1978.475; -679.000; -653.000
425.258; 1015.200; -517.000; -381.000
425.382; 1070.975; -867.000; -774.000
425.507; 2955.675; -487.000; -543.000
425.632;  503.600; -802.000; -663.000
425.756;  488.375; -256.000; -146.000
425.881; 6010.750; -831.000; -857.000
426.006;17398.025; -604.000; -355.000
426.130; 2971.375; -696.000; -508.000
426.255;  389.050; -611.000; -491.000
426.379;  153.675; -189.000; -577.000
426.504;  364.075;  660.000;  544.000
426.629; 3956.225; -519.000; -466.000
426.753; 2964.300;   64.000;  -46.000
426.878;  333.350; -252.000; -288.000
427.002;  158.650; -651.000; -668.000
427.127; 1508.675;  -35.000; -158.000
427.251;11188.825;  372.000;  401.000
427.375; 3492.425; -191.000; -173.000
427.500; 2493.950; -616.000; -610.000
427.624;  920.350; -234.000; -400.000
427.749;  114.150; -216.000; -225.000
427.873;  -33.575; -499.000; -412.000
427.997;  -39.275; -222.000; -230.000
428.122;   73.175;  795.000;  703.000
428.246;   70.175;  433.000;  434.000
428.371; -117.850; -869.000; -773.000
428.495; -110.725; -624.000; -646.000
428.619;  -50.025; -186.000; -117.000
428.743;   25.800;   65.000;  132.000
428.868;   16.450; -732.000; -643.000
428.992; 1525.225; -219.000; -326.000
429.116;  667.700; -329.000; -357.000
429.240;  306.825;  419.000;  426.000
429.365;   -9.225; -454.000; -574.000
429.489;  -38.500; -638.000; -647.000
429.613;   18.875; -236.000; -177.000
429.737;   40.400; -563.000; -432.000
429.861;  262.275; -247.000; -133.000
429.985; 5327.100; -425.000; -305.000
430.109; 6338.625; -770.000; -908.000
430.234;  742.700;   76.000;  -50.000
430.358;   51.875; -250.000; -160.000
430.482;  -66.650; -672.000; -564.000
430.606;  -76.675; -655.000; -375.000
430.730;   23.100; -437.000; -388.000
430.854;  156.975; -909.000; -835.000
430.978;  -51.775; -795.000; -764.000
431.102;  -83.025; -499.000; -422.000
431.226; -119.175; -874.000; -815.000
431.350;   15.100;  345.000;  422.000
431.474;  -75.925; -661.000; -373.000
431.597; -151.975;-1060.000; -848.000
431.721;  -81.675; -276.000; -267.000
431.845; -141.850; -704.000; -472.000
431.969;  -89.800; -304.000; -349.000
432.093; -104.350; -395.000; -317.000
432.217;  -18.375;   32.000;   82.000
432.341;  -99.450; -523.000; -518.000
432.464;    0.150;   96.000;   40.000
432.588;  237.075; -401.000; -329.000
432.712;  141.450;  -52.000;  -52.000
432.836;   40.575;  213.000;  263.000
432.959;  -23.000; -372.000; -311.000
433.083;   67.675;   11.000;    2.000
433.207;  369.950;  285.000;  930.000
433.330; 4807.325; -391.000; -200.000
433.454; 6322.050; -654.000; -638.000
433.578; 3629.625;  583.000;  278.000
433.701;  744.375; -623.000; -675.000
433.825;  172.825; -292.000; -299.000
433.949;  184.525;   28.000;  -72.000
434.072;   79.875; -410.000; -323.000
434.196;   -9.175; -309.000; -117.000
434.319; 3573.500;25482.000;25124.000
434.443;  709.350; -656.000; -603.000
434.566; 2660.025;  281.000;   62.000
434.690;  498.050; -637.000; -383.000
434.813;   48.925; -251.000; -173.000
434.937;  -73.900; -569.000; -696.000
435.060;  -34.450; -423.000; -332.000
435.184;  356.775; -492.000; -217.000
435.307;  199.100;  159.000;  102.000
435.431;   -6.375;  -40.000;   24.000
435.554;  -64.875; -399.000; -240.000
435.677;  -81.600; -350.000; -258.000
435.801;  -68.625;  -25.000;   49.000
435.924;   -6.600;    1.000;  -67.000
436.048;  -93.675;-1019.000; -732.000
436.171;  -51.050; -240.000;  -66.000
436.294;  -24.425; -248.000; -229.000
436.417;   92.475; -963.000; -849.000
436.541;  -77.425; -814.000; -840.000
436.664;  -41.025; -242.000; -316.000
436.787;  -45.600;   13.000;  113.000
436.910; -106.425; -792.000; -422.000
437.034;    4.875;  142.000;  143.000
437.157;   52.900;  -11.000;    0.000
437.280;  -63.850; -392.000; -292.000
437.403;  -75.025; -982.000; -869.000
437.526;  647.725; -903.000; -865.000
437.649; 2559.650; -505.000; -332.000
437.772;  457.600; -692.000; -540.000
437.896;  139.075;  700.000;  544.000
438.019;  -98.150; -758.000; -503.000
438.142;  -75.950; -596.000; -506.000
438.265;   -6.500; -639.000; -670.000
438.388;  647.625; -520.000; -410.000
438.511;  135.700; -597.000; -394.000
438.634;  -29.750; -247.000; -125.000
438.757; -140.475; -693.000; -619.000
438.880;  -20.700;  -34.000;  -57.000
439.003;  -73.575; -417.000; -437.000
439.126;  -69.275; -287.000; -167.000
439.248;  -72.325;  -98.000; -139.000
439.371;  -42.975;    9.000;  -53.000
439.494;   21.175;  510.000;  439.000
439.617;  -59.575;   65.000;  -88.000
439.740; -175.300; -968.000; -816.000
439.863; -140.775; -755.000; -595.000
439.986; -143.625; -476.000; -431.000
440.108;  -60.675; -161.000; -112.000
440.231; -174.625; -950.000; -836.000
440.354;  -32.725;  -64.000; -150.000
440.477;   27.775; -566.000; -542.000
440.599;   24.775; -200.000; -225.000
440.722; -118.500; -709.000; -586.000
440.845;   67.075;  751.000;  928.000
440.968; -122.975; -415.000; -311.000
441.090;  -66.900; -199.000;  -33.000
441.213; -161.950;-1021.000; -825.000
441.336;  -55.575; -159.000;   -5.000
441.458;  -93.800; -549.000; -396.000
441.581;  -80.225; -628.000; -629.000
441.703;  -61.625; -152.000;   13.000
441.826; -112.525; -557.000; -400.000
441.948;  -60.075;   56.000;   51.000
442.071;   16.325;  555.000;  424.000
442.193; -103.500; -531.000; -485.000
442.316;   22.725;  152.000;   97.000
442.438;   40.175; -233.000;  -10.000
442.561;   75.675;  272.000;  262.000
442.683;  593.400; -809.000; -522.000
442.806; 1325.300;   -8.000;   74.000
442.928;   70.000; -859.000; -604.000
443.051;  -56.875; -577.000; -373.000
443.173;  -95.050; -341.000; -339.000
443.295;  -83.025; -263.000; -371.000
443.418;  -82.325; -321.000;  -29.000
443.540;   -5.875; -106.000;   -4.000
443.662; -114.450; -563.000; -465.000
443.785;  -23.325;  335.000;  199.000
443.907; -119.325; -362.000; -208.000
444.029; -127.475; -767.000; -494.000
444.152; -152.100; -644.000; -554.000
444.274;  -37.350;  -18.000;  -24.000
444.396; -116.850; -461.000; -221.000
444.518; -130.100; -691.000; -454.000
444.640; -118.100; -268.000; -111.000
444.763;  -23.625;  388.000;  249.000
444.885; -119.725; -432.000; -392.000
445.007;  -30.925;   35.000;   86.000
445.129; -132.150; -610.000; -515.000
445.251;  -82.850; -372.000; -439.000
445.373; -134.675; -537.000; -386.000
445.495;   10.300;  242.000;  350.000
445.617;   39.675;  853.000;  753.000
445.739;  -58.500; -215.000;  -97.000
445.861;  -33.000; -245.000; -112.000
445.984;  -27.700; -267.000; -101.000
446.105;  219.400; -418.000; -251.000
446.227;  699.100; -176.000;  -19.000
446.349;   28.025; -358.000; -249.000
446.471;  -93.925; -615.000; -448.000
446.593;  -71.250; -316.000;   19.000
446.715;    1.350;  -67.000;   41.000
446.837;   41.175;  697.000;  832.000
446.959; -101.800; -457.000; -478.000
447.081; -143.075; -628.000; -518.000
447.203;   54.975;  862.000;  834.000
447.325; -104.350; -270.000;   42.000
447.446;  -10.250;  286.000;  530.000
447.568; -152.625; -921.000; -803.000
447.690;  -74.550; -236.000; -245.000
447.812; -165.025; -798.000; -519.000
447.933;  -34.050;  155.000;  127.000
448.055;  -74.750; -306.000; -261.000
448.177;  135.825;   31.000;   79.000
448.299;  108.225; -935.000; -727.000
448.420;   35.450;  -25.000;  159.000
448.542;  -56.450;   -3.000;   33.000
448.664;  -33.100;  109.000;  322.000
448.785;  -34.550;  265.000;   83.000
448.907;  -68.325; -614.000; -353.000
449.028;  -22.425; -771.000; -471.000
449.150;   44.050;  492.000;  589.000
449.272; -184.850;-1044.000; -913.000
449.393;   22.250;  612.000;  694.000
449.515; -151.550; -634.000; -581.000
449.636;  -66.625; -264.000; -155.000
449.758;   57.575;  763.000;  622.000
449.879;  -94.875; -498.000; -396.000
450.001;  -78.350; -149.000;  -49.000
450.122;  -31.100;  -95.000;  162.000
450.244;  -28.900;   37.000;  364.000
450.365;  -93.525; -495.000; -301.000
450.486;  -48.025;   80.000;  268.000
450.608;   20.400;  393.000;  326.000
450.729;   63.200;  578.000;  645.000
450.850;    1.725; -574.000; -466.000
450.972;  658.075; -552.000; -389.000
451.093; 4691.425;  190.000;  588.000
451.214; 2246.975; -516.000; -337.000
451.336;  416.200;  773.000;  579.000
451.457;   64.100;  264.000;  393.000
451.578;  -46.550; -118.000;  -74.000
451.699; -140.625; -546.000; -540.000
451.821;  -55.825; -284.000;  -50.000
451.942;  -20.575;  278.000;  285.000
452.063;   28.000;  228.000;  419.000
452.184;  519.550;  -54.000;  -49.000
452.305; 1098.250;  103.000;  170.000
452.427;  148.075; -549.000; -301.000
452.548;   -2.550;   23.000;   79.000
452.669;  -54.875; -257.000;  -89.000
452.790;  -35.900;    3.000;  -18.000
452.911;  -17.225;  195.000;  259.000
453.032;  -58.300; -289.000;  -60.000
453.153;  -49.125;  -29.000;   81.000
453.274;   52.675;  737.000;  868.000
453.395;  -48.525;  -51.000;  175.000
453.516;  124.475; 1317.000; 1388.000
453.637;  -59.925; -205.000; -150.000
453.758;  -55.450;   15.000;   69.000
453.879; -119.650; -462.000; -250.000
454.000;   76.000; 1086.000;  948.000
454.121; -107.825; -554.000; -326.000
454.242; -110.300; -599.000; -383.000
454.362;  -67.725;  -99.000;  114.000
454.483;  -33.900; -309.000; -229.000
454.604;   58.325;  512.000;  580.000
454.725; -117.850; -627.000; -555.000
454.846; -136.675; -474.000; -406.000
454.967;  -29.100;  230.000;  539.000
455.087;  -54.525;  179.000;  153.000
455.208;   27.325;  554.000;  856.000
455.329;  -69.375;  -22.000;   82.000
455.450;   49.900;  473.000;  633.000
455.570;  -90.475; -234.000; -211.000
455.691;  -38.550;  201.000;  407.000
455.812; -107.125; -270.000;  -92.000
455.932;  -62.525;  107.000;  -97.000
456.053;  -90.125;   36.000;   24.000
456.173; -106.825; -433.000; -355.000
456.294; -139.400; -476.000; -303.000
456.415;  -59.050;  -73.000;   70.000
456.535;  -46.625;  297.000;  273.000
456.656;  -33.300;  132.000;  240.000
456.776;  -70.025;    3.000;  298.000
456.897;   -4.375;  308.000;  513.000
457.017;  -83.325; -153.000;   -3.000
457.138;  -87.600; -402.000; -249.000
457.258;  -20.525;  263.000;  224.000
457.379;  -19.450;  509.000;  521.000
457.499;  -40.625;  443.000;  432.000
457.620; -113.950; -407.000; -231.000
457.740; -103.225; -132.000;  -11.000
457.860;  -46.925;   87.000;   44.000
457.981;  -55.525;  132.000;  124.000
458.101;  -68.250;  -89.000;   40.000
458.221;  -35.850;  336.000;  402.000
458.342;  -61.300;   -4.000;  -37.000
458.462;    8.175;  617.000;  352.000
458.582;  -47.775; -302.000; -294.000
458.703;   -7.175;  303.000;  154.000
458.823;  -35.825;   22.000;  163.000
458.943;    4.275;  341.000;  467.000
459.063;   -9.100; 1124.000;  192.000
459.183;  -20.900;  328.000;  313.000
459.304;    8.675;  315.000;  517.000
459.424;  -64.425; -246.000;  -89.000
459.544;  309.675;  388.000;  764.000
459.664;  806.925;  499.000;  506.000
459.784;  323.500; 1004.000; 1175.000
459.904;   60.650;  867.000;  744.000
460.024;   53.500;  867.000;  684.000
460.144;   -7.525;  449.000;  554.000
460.264;    8.050;  515.000;  327.000
460.385; -104.275; -145.000; -119.000
460.505;   38.575;  905.000;  858.000
460.625; -105.025;  -17.000;  -68.000
460.745;  -28.400;  396.000;  541.000
460.864;  -63.875;  153.000;  469.000
460.984;    4.400;  499.000;  573.000
461.104;  126.925; 1656.000; 1775.000
461.224;   20.900;  657.000;  650.000
461.344;  -25.925;  431.000;  360.000
461.464;  -36.625;  258.000;  513.000
461.584;  -10.300;  283.000;  466.000
461.704;  -24.250;   58.000;  108.000
461.824;  -62.175;  238.000;  259.000
461.943;  -36.375;  191.000;  130.000
462.063;  -73.475;    2.000;  324.000
462.183;   26.550;  639.000;  717.000
462.303;   96.350; 1678.000; 1230.000
462.422;   43.250;  781.000;  840.000
462.542;  -39.125;  271.000;  391.000
462.662;   46.750;  353.000;  380.000
462.782;  219.525;  833.000;  572.000
462.901;  480.875;  545.000;  717.000
463.021;  283.475; 1702.000; 1638.000
463.141;   -3.725;  337.000;  770.000
463.260;  -29.225;  614.000;  474.000
463.380;   11.550;  902.000;  884.000
463.499;  -56.550;  342.000;  332.000
463.619;  -24.450;  581.000;  559.000
463.738;  103.625; 1644.000;  903.000
463.858;   15.600;  657.000;  811.000
463.978;  -40.875;  542.000;  396.000
464.097;   40.025;  921.000; 1114.000
464.217;   97.450; 1196.000; 1143.000
464.336;  110.850; 1068.000; 1130.000
464.455;  -37.250;  328.000;  659.000
464.575;   41.000;  597.000;  602.000
464.694;  156.225; 1204.000; 1179.000
464.814;  139.100; 1190.000; 1138.000
464.933;   82.575; 1095.000; 1027.000
465.052;  102.050; 1412.000; 1054.000
465.172;   62.425;  922.000;  799.000
465.291;  147.875; 1376.000; 1320.000
465.410;   11.075;  462.000;  735.000
465.530;   85.875; 1355.000; 1310.000
465.649;   68.675; 1209.000; 1273.000
465.768;  154.975; 1673.000; 1508.000
465.888;   43.000;  941.000; 1174.000
466.007;  102.600; 1335.000; 1440.000
466.126;   -7.625;  721.000;  641.000
466.245;   34.550; 1176.000; 1187.000
466.364;   15.425;  950.000; 1060.000
466.484;   55.475; 1024.000; 1213.000
466.603;   19.625; 1101.000; 1222.000
466.722;  128.675; 1490.000; 1769.000
466.841;   71.950; 1151.000; 1401.000
466.960;   53.450; 1069.000;  972.000
467.079;  111.325; 1971.000; 1786.000
467.198;   49.825; 1238.000; 1181.000
467.317;   80.225; 1768.000; 1162.000
467.436;   61.475; 1709.000; 1261.000
467.555;  105.275; 1796.000; 1746.000
467.674;   79.300; 1227.000; 1329.000
467.793;   39.625; 1376.000; 1374.000
467.912;   90.725; 1658.000; 1539.000
468.031;  130.225; 2038.000; 1930.000
468.150;  138.275; 1842.000; 1837.000
468.269;  198.350; 2313.000; 2090.000
468.388;  205.925; 2168.000; 2339.000
468.507;  248.525; 2884.000; 2903.000
468.626;  278.450; 2555.000; 2541.000
468.744;  127.350; 2018.000; 2174.000
468.863;  185.425; 2312.000; 2523.000
468.982;   72.625; 1503.000; 1555.000
469.101;  228.725; 2788.000; 2692.000
469.220;  140.825; 2333.000; 2176.000
469.338;  251.875; 2935.000; 3051.000
469.457;  189.675; 2719.000; 2545.000
469.576;  349.250; 3953.000; 3784.000
469.695;  225.250; 2877.000; 3066.000
469.813;  425.000; 4148.000; 4192.000
469.932;  410.075; 4255.000; 4485.000
470.051;  417.375; 4075.000; 4161.000
470.169;  813.650; 4470.000; 4338.000
470.288; 1475.750; 4700.000; 4809.000
470.406;  905.050; 5059.000; 5194.000
470.525;  647.575; 6101.000; 5787.000
470.644;  637.675; 6847.000; 6794.000
470.762;  818.775; 8397.000; 7873.000
470.881;  884.625; 8651.000; 8464.000
470.999; 1040.875; 9685.000; 9151.000
471.118; 1109.500;11174.000;10711.000

