
Integration time [ms]: 100.000
Averaging Nr. [scans]: 40
Smoothing Nr. [pixels]: 0
Data measured with spectrometer [name]: 2101012U2
Wave   ;Sample   ;Dark     ;Reference
[nm]   ;[counts] ;[counts] ;[counts] 

197.733;   48.700;  516.000;  404.000
197.879;  -79.600; -610.000; -634.000
198.025;  -45.425; -475.000; -420.000
198.171;  -59.800; -602.000; -612.000
198.317;  -33.225; -401.000; -316.000
198.463;  -57.675; -655.000; -404.000
198.609;   42.975;  181.000; -137.000
198.755;  -87.825; -644.000; -410.000
198.901;  -63.000; -505.000; -424.000
199.047;  -58.300; -615.000; -488.000
199.193;  -24.625; -230.000; -468.000
199.339;  -41.450; -222.000; -369.000
199.485;   33.925;  330.000;  271.000
199.631;   13.950;  227.000;  310.000
199.777;  -34.800; -466.000; -398.000
199.923;  -58.825; -610.000; -424.000
200.069;   -4.000; -141.000;  -58.000
200.215;   46.400;  128.000;  453.000
200.361;   48.950;  243.000;  477.000
200.507;  -62.900; -600.000; -373.000
200.653;   -7.875; -371.000; -194.000
200.798;  -41.800; -215.000; -125.000
200.944;    4.875; -146.000;  -41.000
201.090;   41.150;   61.000;  222.000
201.236;    1.550; -116.000; -158.000
201.382;  136.225;  874.000;  903.000
201.528;    7.500;  -58.000;  -48.000
201.674;  -53.275; -386.000; -293.000
201.819;  -54.350; -540.000; -439.000
201.965;  -75.325; -699.000; -447.000
202.111;  -24.650; -273.000; -226.000
202.257;  -41.300; -250.000; -238.000
202.402;   20.825;   13.000;  -36.000
202.548;  -15.675; -169.000; -116.000
202.694;   86.100;  410.000; -183.000
202.840;  -85.300; -603.000; -531.000
202.985;  -62.275; -681.000; -639.000
203.131; -110.975; -832.000; -666.000
203.277;  -12.925; -199.000; -262.000
203.423;  -51.075; -434.000; -520.000
203.568;  -28.450; -462.000; -237.000
203.714;  -56.425; -535.000; -542.000
203.860;  -76.100; -682.000; -641.000
204.005;   22.425;  112.000;  167.000
204.151;   82.300;  561.000;  556.000
204.296;  -48.050; -354.000; -221.000
204.442;  -59.625; -600.000; -547.000
204.588;  -73.575; -592.000; -579.000
204.733;   23.275;  178.000;  168.000
204.879; -140.400;-1018.000; -822.000
205.025;   18.200;  -99.000;  126.000
205.170;    2.000;  -17.000;   94.000
205.316;   75.950;  438.000;  661.000
205.461;  -79.175; -698.000; -554.000
205.607;   88.675;  609.000;  665.000
205.752;  -84.700; -626.000; -551.000
205.898;  -45.725; -501.000; -391.000
206.043;  -63.900; -578.000; -506.000
206.189;  -42.375; -243.000; -285.000
206.334;   81.800;  554.000;  606.000
206.480;   85.850;  409.000;  239.000
206.625;  -78.025; -529.000; -552.000
206.771;  -53.450; -451.000; -373.000
206.916;  -26.625; -210.000; -537.000
207.062;  -77.800; -545.000; -591.000
207.207;  -67.450; -546.000; -443.000
207.353;   58.100;  185.000;  460.000
207.498;   23.725;  196.000;   85.000
207.643;  -48.875; -501.000; -370.000
207.789; -126.650;-1069.000; -910.000
207.934;  -89.000; -665.000; -713.000
208.080;  -16.300; -154.000;   66.000
208.225;    8.300;  -22.000;  -57.000
208.370;  -68.000; -727.000; -619.000
208.516;  -62.775; -741.000; -487.000
208.661;  -38.250; -127.000;  -69.000
208.806;  -24.500; -165.000; -171.000
208.952; -125.725;-1044.000; -731.000
209.097;   92.825;  378.000;  349.000
209.242;  -41.800; -307.000; -382.000
209.387;   75.600;  392.000;  350.000
209.533;  -48.700; -321.000; -350.000
209.678;   82.525;  472.000;  543.000
209.823;  -48.625; -408.000; -310.000
209.969; -102.575; -860.000; -757.000
210.114; -110.500; -907.000; -719.000
210.259; -117.700; -939.000; -889.000
210.404;  -13.625; -171.000;  103.000
210.549;   19.600;  108.000;    3.000
210.695;  -14.700;   -3.000;  -95.000
210.840;   34.350;   94.000;   67.000
210.985;  -61.575; -484.000; -303.000
211.130;   72.550;  268.000;  406.000
211.275;   21.050;  207.000;  199.000
211.420;  -53.625; -300.000; -289.000
211.566;  -75.125; -536.000; -489.000
211.711;   28.600;  218.000;  157.000
211.856;  -79.225; -545.000; -519.000
212.001;   29.975;  151.000;   44.000
212.146;   19.525;  153.000;   49.000
212.291;  -22.250; -210.000; -186.000
212.436;  -22.525; -280.000;   -6.000
212.581;  -89.100; -685.000; -653.000
212.726;  -74.400; -487.000; -538.000
212.871;  -52.750; -552.000; -217.000
213.016; -152.000;-1172.000;-1029.000
213.161;   65.500;  406.000;  291.000
213.306;  -75.550; -435.000; -577.000
213.451;  -94.800; -778.000; -689.000
213.596;  -55.775; -455.000; -347.000
213.741;  -51.425; -448.000; -538.000
213.886;  -71.575; -498.000; -517.000
214.031;  -18.950; -294.000; -124.000
214.176;  -46.550; -408.000; -341.000
214.321;   -5.625; -296.000; -157.000
214.466;  -34.825; -163.000;  -43.000
214.611;   -3.025;  -61.000;  -10.000
214.756; -117.950; -948.000; -858.000
214.901;   -8.725; -388.000; -226.000
215.046; -111.575; -797.000; -825.000
215.191;   29.575;  128.000;   35.000
215.336;  -14.650; -157.000;  -19.000
215.480;  -66.700; -684.000; -505.000
215.625;  -11.775; -175.000;  -19.000
215.770;  -82.250; -757.000; -662.000
215.915;    1.875;   -5.000;  -97.000
216.060;    1.500; -113.000;  -21.000
216.205; -109.625; -731.000; -779.000
216.349;  -62.925; -470.000; -533.000
216.494; -133.425; -939.000; -867.000
216.639; -107.975; -823.000; -888.000
216.784;  -88.400; -577.000; -525.000
216.929;   59.050;  392.000;  281.000
217.073;   -8.700; -244.000;  -31.000
217.218;   22.550;   78.000;  -47.000
217.363;  -76.250; -656.000; -618.000
217.507;  -82.825; -623.000; -588.000
217.652; -125.200; -845.000; -874.000
217.797;  -67.450; -708.000; -659.000
217.942; -112.400; -856.000; -720.000
218.086;   81.325;  608.000;  539.000
218.231;  -28.975; -174.000;  -26.000
218.376;  -10.850; -337.000; -229.000
218.520;   -8.100;  -41.000;   96.000
218.665;  -17.700; -338.000; -204.000
218.810;  -47.425; -275.000; -233.000
218.954;   49.875;  201.000;   35.000
219.099; -109.500; -713.000; -963.000
219.243;  -77.800; -589.000; -554.000
219.388;  -31.550; -264.000; -136.000
219.532;   -2.975; -116.000; -116.000
219.677;  -78.550; -564.000; -521.000
219.822;   10.825;   33.000;   89.000
219.966;   12.950;   17.000;  -99.000
220.111;  -25.750; -328.000;  -40.000
220.255;  -96.000; -797.000; -750.000
220.400;  -15.375; -180.000; -146.000
220.544;  -67.475; -516.000; -450.000
220.689;  -47.250; -422.000; -451.000
220.833;  -17.075; -123.000;  -58.000
220.978;  -45.925; -393.000; -563.000
221.122;   28.300;  319.000;  307.000
221.267; -111.200; -906.000; -837.000
221.411;  -67.650; -478.000; -394.000
221.555;    7.725; -104.000;  -23.000
221.700;  -43.550; -329.000; -222.000
221.844;   32.850;  255.000;  272.000
221.989;  -52.750; -328.000; -311.000
222.133;  -33.750; -289.000; -307.000
222.277;   -9.325;    5.000;   78.000
222.422;    2.150;  227.000;  113.000
222.566;  -46.750; -381.000; -214.000
222.711;  -44.550; -414.000; -479.000
222.855;  -93.475; -643.000; -586.000
222.999;  -70.950; -642.000; -717.000
223.144;  -21.750; -195.000; -194.000
223.288;   57.725;  423.000;  251.000
223.432;   36.250;  184.000;  230.000
223.576;   15.250;  152.000;  -21.000
223.721;   51.550;  364.000;  273.000
223.865;  -46.875; -472.000; -475.000
224.009;  251.525; 1673.000; 1631.000
224.153;  -70.875; -660.000; -671.000
224.298;  -72.025; -531.000; -489.000
224.442;   -7.100;  -74.000;  -33.000
224.586;  -22.300; -169.000; -106.000
224.730;  -87.500; -858.000; -670.000
224.875; -124.575; -739.000; -688.000
225.019;   17.175;  102.000;  188.000
225.163;   48.200;  208.000;  341.000
225.307;   15.875;   97.000;  -91.000
225.451;   45.200;  360.000;  481.000
225.595;   35.475;  264.000;  176.000
225.739;  -28.675; -170.000;  -94.000
225.884;    2.850;   86.000;    5.000
226.028; -104.400; -760.000; -626.000
226.172;  -27.925; -260.000; -273.000
226.316; -116.075; -941.000; -902.000
226.460;  -67.925; -645.000; -493.000
226.604;  -54.775; -406.000; -400.000
226.748; -104.175; -836.000; -733.000
226.892;  -44.150; -227.000; -181.000
227.036;  -46.450; -537.000; -447.000
227.180;  -62.950; -551.000; -375.000
227.324;  -64.800; -561.000; -580.000
227.468; -115.625; -819.000; -717.000
227.612;   20.500;  242.000;  -28.000
227.756;  -96.650; -845.000; -698.000
227.900;   72.150;  342.000;  441.000
228.044;  -53.750; -509.000; -290.000
228.188;   58.800;  448.000;  568.000
228.332;  -88.075; -546.000; -472.000
228.476;  -24.975; -223.000; -149.000
228.620;  -27.400; -210.000; -150.000
228.764;   72.300;  431.000;  349.000
228.908;  -17.525; -155.000;   30.000
229.052;  -68.225; -615.000; -528.000
229.195;  -16.350; -172.000;   13.000
229.339;  -22.925; -235.000; -305.000
229.483;  -19.000;    5.000; -162.000
229.627;   -2.450; -156.000;  139.000
229.771;  -39.775; -218.000; -294.000
229.915;   14.725;  230.000;   79.000
230.059;  -88.250; -648.000; -663.000
230.202;  -34.200; -370.000; -317.000
230.346;  -11.750; -107.000;  107.000
230.490;  -70.475; -489.000; -521.000
230.634; -120.350; -736.000; -553.000
230.777;   90.625;  478.000;  509.000
230.921;  -46.875; -450.000; -359.000
231.065;  -41.850; -246.000; -286.000
231.209;   14.975;  261.000;  265.000
231.352;   28.475;   54.000;   40.000
231.496;   20.750;  568.000;  188.000
231.640;  -71.200; -693.000; -621.000
231.783;   67.625;  546.000;  525.000
231.927;  -55.850; -294.000; -365.000
232.071; -122.975; -962.000; -736.000
232.214; -101.950; -980.000; -764.000
232.358; -108.775; -683.000; -599.000
232.502;   19.525;  -19.000;    7.000
232.645; -118.900;-1090.000; -927.000
232.789;  -17.675; -257.000; -218.000
232.933;  -45.475; -407.000; -224.000
233.076; -127.350;-1038.000; -897.000
233.220; -100.475; -752.000; -777.000
233.363;  -70.150; -669.000; -477.000
233.507;   55.350;  371.000;  129.000
233.650;  -99.350; -764.000; -834.000
233.794;   42.775;  438.000;  461.000
233.938;  -54.750; -530.000; -362.000
234.081;  -16.475;  -93.000;   31.000
234.225;  -53.625; -631.000; -539.000
234.368; -121.225; -773.000; -723.000
234.512;  -25.025; -385.000; -299.000
234.655;  -89.625; -582.000; -555.000
234.798;  -63.250; -493.000; -466.000
234.942; -126.575; -884.000;-1002.000
235.085;  -77.275; -651.000; -443.000
235.229;  -79.000; -405.000; -410.000
235.372;  -43.950; -247.000; -191.000
235.516;  -52.850; -397.000; -321.000
235.659;   23.875;   92.000;  121.000
235.802;   -2.725;  -38.000;  -22.000
235.946;   34.975;  335.000;  215.000
236.089;   30.775;  126.000;  250.000
236.233;   61.775;  275.000;  298.000
236.376;  -43.875; -235.000; -378.000
236.519;  -44.750; -297.000; -319.000
236.663;  -22.225; -215.000; -117.000
236.806; -121.050;-1029.000; -999.000
236.949;   75.950;  543.000;  431.000
237.092;   67.975;  412.000;  391.000
237.236;  -86.700; -589.000; -502.000
237.379;   76.125;  352.000;  428.000
237.522; -117.950; -879.000; -768.000
237.666;  -13.825; -271.000;   18.000
237.809; -128.925; -851.000; -823.000
237.952;   55.000;  469.000;  271.000
238.095;  -78.425; -447.000; -442.000
238.238;  100.525;  688.000;  700.000
238.382;   -3.625;  166.000;  103.000
238.525;  -80.400; -598.000; -511.000
238.668; -152.500;-1060.000; -985.000
238.811;  -84.350; -638.000; -643.000
238.954;  -64.550; -483.000; -334.000
239.097;  102.750;  617.000;  664.000
239.241;   33.025;  394.000;  326.000
239.384;  -35.625; -254.000; -214.000
239.527;  -54.925; -424.000; -224.000
239.670; -133.700; -994.000;-1091.000
239.813; -107.575; -696.000; -658.000
239.956;   85.000;  579.000;  473.000
240.099; -118.375; -778.000; -725.000
240.242;   64.725;  428.000;  432.000
240.385;   47.525;  466.000;  450.000
240.528;  -70.350; -706.000; -473.000
240.671;   24.650;  189.000;  134.000
240.814;  -36.450; -441.000; -158.000
240.957;  -94.775; -767.000; -578.000
241.100;  -96.275; -779.000; -755.000
241.243; -150.325;-1234.000; -893.000
241.386;  -68.425; -508.000; -379.000
241.529;  -88.750; -735.000; -547.000
241.672;  -63.700; -566.000; -495.000
241.815; -105.400; -832.000; -808.000
241.958;  -25.300; -125.000; -182.000
242.101;  -71.175; -545.000; -390.000
242.244;  -25.375; -270.000; -325.000
242.387;  -46.600; -304.000; -246.000
242.530;   51.700;  470.000;  134.000
242.673;  -57.350; -381.000; -309.000
242.815; -119.100; -925.000; -899.000
242.958;  -68.575; -482.000; -381.000
243.101;   11.900;  132.000;  187.000
243.244;  -84.050; -564.000; -521.000
243.387;  -54.675; -313.000; -316.000
243.530;  -93.500; -657.000; -674.000
243.672;    1.250;   43.000;  -92.000
243.815;  -56.900; -355.000; -283.000
243.958;    3.600;   98.000;  -26.000
244.101;   -5.100;   59.000;  -16.000
244.243;    3.000;  -47.000;  101.000
244.386; -115.550; -761.000; -630.000
244.529;  -23.725; -132.000; -139.000
244.672; -156.100;-1154.000; -951.000
244.814; -105.800; -621.000; -794.000
244.957;  -54.250; -380.000; -304.000
245.100;  -71.975; -489.000; -489.000
245.242;  -52.150; -387.000; -374.000
245.385;   -3.350;  -59.000;  -39.000
245.528; -121.625; -871.000; -705.000
245.670;  103.300;  612.000;  634.000
245.813;  -91.000; -599.000; -547.000
245.956;  -28.225; -324.000; -275.000
246.098;  -66.950; -508.000; -650.000
246.241;   16.675;  194.000;   48.000
246.383;  -13.525; -119.000;  -73.000
246.526;  -71.975; -454.000; -525.000
246.669; -121.175; -889.000; -780.000
246.811;   15.525;  172.000;   -1.000
246.954;  -59.150; -512.000; -426.000
247.096;   -6.775;  -84.000;   -6.000
247.239;  -68.425; -482.000; -445.000
247.381;  -64.475; -647.000; -488.000
247.524;   82.525;  645.000;  679.000
247.666;    0.800;   58.000;   11.000
247.809;  -94.775; -887.000; -691.000
247.951;    5.075;  -75.000;  138.000
248.094;   38.250;  432.000;  308.000
248.236; -155.150;-1262.000;-1238.000
248.378;    3.475; -356.000;  -81.000
248.521;   -6.475; -334.000; -337.000
248.663;  -45.575; -236.000; -267.000
248.806;  -10.075; -300.000; -266.000
248.948;  -83.925; -886.000; -763.000
249.090;  -49.825; -428.000; -398.000
249.233;  -61.375; -344.000; -381.000
249.375;  -66.950; -474.000; -451.000
249.518;  -13.375;  -83.000; -133.000
249.660;  -12.350; -103.000;    3.000
249.802; -164.625;-1303.000;-1189.000
249.945;  -72.625; -612.000; -540.000
250.087; -107.850; -834.000; -768.000
250.229;  -40.925; -362.000; -480.000
250.371;  -64.725; -494.000; -439.000
250.514;  -41.300; -310.000; -244.000
250.656;   -6.525;   69.000;  102.000
250.798; -113.250; -849.000; -800.000
250.940;  -62.025; -322.000; -322.000
251.083;  -16.925; -335.000; -111.000
251.225;   69.725;  338.000;  310.000
251.367;  -40.250; -274.000; -373.000
251.509;  -31.725; -265.000; -210.000
251.651;  -93.000; -731.000; -671.000
251.794;   62.600;  538.000;  632.000
251.936; -107.775; -821.000; -747.000
252.078;  -77.075; -540.000; -461.000
252.220;  -61.375; -645.000; -477.000
252.362;   79.875;  344.000;  462.000
252.504;  -68.250; -677.000; -584.000
252.646; -119.125; -875.000; -722.000
252.788;   13.800;   14.000; -128.000
252.931;  -26.450; -257.000; -253.000
253.073;  -40.625; -376.000; -317.000
253.215;  -20.025;  141.000;  122.000
253.357;   -0.275;   82.000; -153.000
253.499;  -59.125; -374.000; -234.000
253.641;  -72.325; -749.000; -594.000
253.783;  -92.725; -609.000; -527.000
253.925;  -89.050; -586.000; -591.000
254.067; -111.050; -744.000; -667.000
254.209;  -25.875; -391.000; -259.000
254.351; -133.800; -865.000; -883.000
254.493;  -49.100; -441.000; -417.000
254.635; -109.325; -936.000; -818.000
254.777;  -94.550; -752.000; -687.000
254.918;  -60.875; -512.000; -430.000
255.060;  -50.775; -551.000; -395.000
255.202;  -52.300; -473.000; -261.000
255.344;  -69.800; -658.000; -455.000
255.486;  -74.075; -471.000; -406.000
255.628;  -97.700; -780.000; -781.000
255.770;  -95.225; -676.000; -536.000
255.912;  -55.350; -559.000; -468.000
256.053;  -93.075; -730.000; -508.000
256.195;  137.325; 1008.000;  903.000
256.337; -117.300; -861.000; -595.000
256.479;   57.250;  532.000;  416.000
256.621;  -50.875; -394.000; -212.000
256.762;  -93.325; -789.000; -742.000
256.904;   53.225;  485.000;  487.000
257.046;  -31.000; -381.000; -271.000
257.188;  -48.500; -351.000; -264.000
257.329;  -57.925; -525.000; -464.000
257.471; -118.475; -939.000; -807.000
257.613;  -71.325; -584.000; -498.000
257.755; -143.575;-1073.000; -982.000
257.896;   26.675;  286.000;  392.000
258.038;  -66.100; -403.000; -352.000
258.180;  -42.525; -354.000; -279.000
258.321;  -80.475; -581.000; -457.000
258.463;    2.100;  -71.000;  133.000
258.605;  -96.475; -562.000; -570.000
258.746;  -99.625; -886.000; -772.000
258.888; -150.550;-1026.000;-1020.000
259.029;   20.850;  121.000;   -8.000
259.171;  -97.650; -614.000; -550.000
259.313;  -14.875;  -49.000;  -47.000
259.454;  -86.825; -536.000; -414.000
259.596;  -59.600; -483.000; -390.000
259.737;  -83.925; -590.000; -474.000
259.879;   37.600;  217.000;  311.000
260.020;   73.450;  901.000;  636.000
260.162;  -18.400; -146.000; -253.000
260.303; -124.450; -768.000; -687.000
260.445;  -79.675; -609.000; -613.000
260.586;   22.550;  392.000;  157.000
260.728;  -33.500; -360.000; -248.000
260.869;  -73.225; -350.000; -343.000
261.011;   93.275;  706.000;  537.000
261.152;  -72.250; -479.000; -319.000
261.293;  -73.225; -576.000; -595.000
261.435;  -41.275; -219.000; -184.000
261.576;  -47.575; -455.000; -325.000
261.718;   41.575;  420.000;  470.000
261.859; -114.325; -940.000; -949.000
262.000; -142.825; -951.000;-1016.000
262.142;  -17.800;  -52.000;  -60.000
262.283; -119.000; -808.000; -691.000
262.424;  -90.300; -666.000; -625.000
262.566; -150.050;-1161.000; -983.000
262.707; -103.775; -840.000; -830.000
262.848; -113.025; -769.000; -726.000
262.990;  -45.300; -362.000; -345.000
263.131;   66.675;  650.000;  681.000
263.272;   -0.450;  -61.000;  -41.000
263.413;  -95.275; -589.000; -561.000
263.555;  -49.900; -669.000; -143.000
263.696; -100.025; -550.000; -641.000
263.837;  -55.775; -449.000; -551.000
263.978;   -6.175;   -5.000;  -77.000
264.119;  -30.800; -283.000; -264.000
264.261; -111.275; -847.000; -630.000
264.402;    1.775;   33.000;   40.000
264.543;  -84.925; -509.000; -524.000
264.684;  -12.600;   61.000;  -50.000
264.825;  -82.075; -816.000; -538.000
264.966;   -7.875;  -84.000;  -67.000
265.107; -116.075; -646.000; -670.000
265.248; -115.850; -825.000; -812.000
265.390;   -5.600;  152.000;   -9.000
265.531;  -21.500; -238.000; -107.000
265.672;  -87.775; -557.000; -630.000
265.813;   71.300;  563.000;  439.000
265.954; -146.200; -959.000; -940.000
266.095;   -5.925; -372.000; -322.000
266.236;  -91.775; -686.000; -548.000
266.377;  -40.300; -243.000; -297.000
266.518;  -75.150; -619.000; -547.000
266.659;   26.550;  170.000;  268.000
266.800;    3.350;   83.000;   85.000
266.941;  -79.675; -487.000; -478.000
267.082;   24.850;  354.000;   99.000
267.223;  -40.400; -344.000; -273.000
267.364; -117.175; -892.000; -686.000
267.504;  -15.525;    3.000;  135.000
267.645;   -6.250;  160.000;   67.000
267.786;  -40.150; -147.000;  -86.000
267.927;  -86.125; -473.000; -379.000
268.068;   -6.275; -186.000;  -61.000
268.209;  -47.550; -175.000; -413.000
268.350;  -53.750; -388.000; -532.000
268.490;  -81.000; -648.000; -521.000
268.631;   37.450;  127.000;  225.000
268.772; -114.800; -874.000; -647.000
268.913;  -43.175; -328.000; -476.000
269.054;  -11.675; -117.000;   12.000
269.194;  -45.425; -418.000; -402.000
269.335; -161.350;-1137.000;-1074.000
269.476;   -9.225;   33.000;  -35.000
269.617;  -47.850; -347.000; -392.000
269.757;  -84.050; -713.000; -646.000
269.898; -111.425; -856.000; -613.000
270.039;  -65.500; -415.000; -405.000
270.180; -135.975; -952.000; -816.000
270.320;  -32.425; -190.000; -250.000
270.461;  -47.325; -277.000; -249.000
270.602;  -16.300; -186.000; -156.000
270.742; -114.775; -868.000; -943.000
270.883;  -56.400; -442.000; -390.000
271.023;  -67.225; -358.000; -357.000
271.164;  -67.800; -607.000; -528.000
271.305;  -98.625; -666.000; -654.000
271.445;  -97.100; -722.000; -683.000
271.586;  -58.400; -462.000; -283.000
271.726;  -54.475; -397.000; -322.000
271.867;  -65.525; -594.000; -534.000
272.008;  175.350; -473.000; -285.000
272.148;  134.800;  462.000;  468.000
272.289;   20.300; -113.000; -181.000
272.429;   11.750;   19.000;  185.000
272.570;  -85.475; -633.000; -737.000
272.710;  -88.300; -825.000; -775.000
272.851;  -20.575;  113.000; -130.000
272.991; -168.125;-1173.000;-1077.000
273.131;  -61.425; -419.000; -459.000
273.272; -103.650; -683.000; -723.000
273.412;   12.825; -143.000;  -31.000
273.553;  -53.400; -488.000; -507.000
273.693;  144.450;  913.000;  858.000
273.834;  -92.075; -894.000; -692.000
273.974;  -74.400; -664.000; -615.000
274.114;  -86.800; -772.000; -560.000
274.255;   80.000;  414.000;  373.000
274.395;   -2.400; -180.000; -125.000
274.535;   38.800;  199.000;  350.000
274.676;   23.975;  225.000;   94.000
274.816;   17.875;  110.000;   34.000
274.956;  -97.600; -624.000; -690.000
275.097;  -51.725;-1014.000; -922.000
275.237; -115.350; -913.000; -803.000
275.377; -100.300; -778.000; -689.000
275.517; -142.175; -878.000; -937.000
275.658;  -65.450; -590.000; -555.000
275.798;  -71.375; -606.000; -413.000
275.938;   23.300;  215.000;  323.000
276.078;  -98.925; -626.000; -395.000
276.218;   24.250;   99.000;  104.000
276.359; -135.300;-1026.000;-1024.000
276.499;  -57.875; -605.000; -446.000
276.639;  -42.250; -305.000; -151.000
276.779;  -36.825; -475.000; -357.000
276.919; -104.425; -783.000; -624.000
277.059;  -16.975; -261.000; -212.000
277.199;  -42.225; -357.000; -259.000
277.340;   56.400;  287.000;  175.000
277.480; -116.725; -840.000; -693.000
277.620;   36.175;  192.000;   16.000
277.760; -195.900;-1533.000;-1294.000
277.900;   16.700;  113.000;   33.000
278.040;   17.825;  137.000;  159.000
278.180;   37.575;  270.000;  170.000
278.320;    0.950;   21.000;   56.000
278.460;  -71.775; -443.000; -469.000
278.600;  -90.025; -708.000; -598.000
278.740;   58.775;  448.000;  224.000
278.880;  -66.950; -768.000; -791.000
279.020;    6.100; -194.000; -144.000
279.160;  -96.550; -672.000; -595.000
279.300; -116.400; -926.000; -873.000
279.440;  -90.275; -709.000; -622.000
279.579;  -18.575;-1014.000; -929.000
279.719;  -47.275; -410.000; -394.000
279.859;   75.250;   -4.000;   41.000
279.999;   35.775; -208.000;  101.000
280.139;  -10.600; -435.000; -387.000
280.279;  -68.875; -708.000; -745.000
280.419;  -12.600; -229.000; -147.000
280.559;  -26.825; -259.000; -180.000
280.698;  -72.375; -790.000; -639.000
280.838; -102.975; -778.000; -800.000
280.978; -102.000; -846.000; -790.000
281.118; -113.325; -811.000; -704.000
281.257;    5.150;   24.000;    6.000
281.397; -126.725;-1094.000; -960.000
281.537;  -91.525; -599.000; -712.000
281.677;  -25.775; -150.000; -101.000
281.816;  -84.700; -700.000; -630.000
281.956;  -32.050; -193.000; -257.000
282.096;  -54.000; -539.000; -396.000
282.235; -111.850; -672.000; -638.000
282.375;  -19.725; -243.000;  -98.000
282.515; -116.100; -715.000; -707.000
282.654;   31.400;   29.000;  106.000
282.794;   14.300;  388.000;  244.000
282.934;  -46.800; -530.000; -491.000
283.073; -125.375;-1030.000; -857.000
283.213;  -41.700; -460.000; -467.000
283.353;  -31.550; -408.000; -349.000
283.492;  -35.750; -264.000; -296.000
283.632;  -48.150; -254.000; -168.000
283.771;  -97.325; -859.000; -730.000
283.911;  -42.550; -369.000; -260.000
284.050; -115.350; -794.000; -748.000
284.190; -163.225;-1229.000;-1096.000
284.329; -125.250;-1055.000; -964.000
284.469;  -62.600; -516.000; -591.000
284.608;  -60.825; -559.000; -598.000
284.748;  -79.950; -614.000; -570.000
284.887;    3.950;  -87.000;  -20.000
285.027; -127.150; -844.000; -892.000
285.166;  -37.300; -192.000; -249.000
285.306;    6.875; -116.000;  -33.000
285.445;  -36.450; -229.000; -343.000
285.584;  -95.425; -630.000; -494.000
285.724;  -25.325; -282.000; -322.000
285.863; -120.500; -857.000; -507.000
286.002;  -40.725; -366.000; -276.000
286.142; -116.150; -715.000; -622.000
286.281;  -71.675; -525.000; -493.000
286.420;  -75.175; -554.000; -417.000
286.560;   95.200;  653.000;  623.000
286.699; -142.075; -958.000; -912.000
286.838;  -85.100; -590.000; -591.000
286.978; -100.825; -533.000; -537.000
287.117; -133.625;-1085.000; -950.000
287.256;  -37.675; -228.000; -211.000
287.395;  -41.075; -197.000; -378.000
287.535;  -51.875; -370.000; -298.000
287.674;  -81.675; -509.000; -484.000
287.813;   62.575;  661.000;  533.000
287.952; -129.275;-1010.000; -871.000
288.091; -155.250;-1049.000; -915.000
288.231;   20.475;   13.000;   15.000
288.370; -174.800;-1217.000;-1200.000
288.509;  -84.625; -728.000; -645.000
288.648;  -97.200; -770.000; -548.000
288.787;  -37.275; -243.000;  -87.000
288.926;  -59.275; -454.000; -475.000
289.065;  123.325;  859.000;  672.000
289.204;  -52.650; -377.000; -217.000
289.344;  -89.450; -791.000; -690.000
289.483;   37.575;  416.000;  304.000
289.622;  -27.025; -291.000; -149.000
289.761;  -23.325; -309.000; -166.000
289.900; -113.350; -785.000; -626.000
290.039;  -23.150;  -12.000;  -95.000
290.178;  -29.075; -274.000; -180.000
290.317;  -88.150; -618.000; -479.000
290.456;  -62.475; -463.000; -451.000
290.595; -144.125; -961.000; -833.000
290.734; -125.075; -904.000; -891.000
290.873;  -73.325; -456.000; -420.000
291.011; -106.125; -833.000; -843.000
291.150; -111.250; -770.000; -682.000
291.289;  -24.975; -343.000; -110.000
291.428;  -94.650; -599.000; -480.000
291.567;  -62.550; -370.000; -442.000
291.706;   -8.350;  109.000;  154.000
291.845;  -79.900; -597.000; -505.000
291.984; -174.825;-1234.000;-1061.000
292.122;   68.700;  602.000;  582.000
292.261;   44.650;  620.000;  463.000
292.400;    4.700; -144.000;  211.000
292.539; -122.375; -959.000; -813.000
292.678;  -23.100; -325.000; -300.000
292.816; -156.000;-1136.000; -965.000
292.955;  -91.350; -844.000; -684.000
293.094;  -32.650; -173.000; -337.000
293.233;  -55.825; -556.000; -400.000
293.371;  -38.175; -225.000;  -84.000
293.510; -109.550; -866.000; -780.000
293.649; -135.175; -959.000; -924.000
293.787;  -65.900;-1083.000;-1012.000
293.926;   -1.175; -113.000;  -32.000
294.065;  -49.425; -379.000; -290.000
294.203;   40.300;  298.000;  406.000
294.342;   34.025;   74.000;  156.000
294.481; 5483.450;51180.000; -836.000
294.619;  -29.175; -425.000; -582.000
294.758; -141.950;-1230.000;-1137.000
294.896;   77.875; -125.000;    5.000
295.035; -141.750;-1040.000;-1006.000
295.174; -109.225;-1082.000; -954.000
295.312;  -56.375; -323.000; -203.000
295.451;  -10.500; -307.000; -428.000
295.589;  -58.650; -389.000; -518.000
295.728;   28.475; -292.000; -165.000
295.866;    2.175;  -36.000;  -51.000
296.005;  -45.750; -584.000; -341.000
296.143;  -80.325; -558.000; -596.000
296.282;  -97.650; -957.000; -881.000
296.420;  -82.000; -657.000; -557.000
296.559;  -83.675; -892.000; -633.000
296.697;   12.025; -847.000; -665.000
296.835;   45.050;-1141.000;-1002.000
296.974;   38.750;  -23.000;   39.000
297.112;   10.925; -443.000; -504.000
297.251;  -83.575; -815.000; -755.000
297.389;   86.875; -576.000; -438.000
297.527;   25.500; -145.000;  -83.000
297.666;  -64.300; -486.000; -438.000
297.804;  -40.900; -404.000; -264.000
297.942;    3.200; -136.000; -161.000
298.081;   -5.750; -183.000;   63.000
298.219;   63.350;  -17.000;  -19.000
298.357;   59.875; -144.000;  -71.000
298.495;   37.225; -810.000; -812.000
298.634;   77.750;  245.000;  219.000
298.772;   70.575; -220.000; -338.000
298.910;  -42.350; -309.000; -182.000
299.048;   -2.075; -130.000; -153.000
299.187;  -22.425; -350.000; -250.000
299.325;   26.300;   52.000;  122.000
299.463;   45.825; -389.000; -299.000
299.601;  122.475; -327.000; -271.000
299.739; -115.200; -908.000; -883.000
299.877;  -80.775; -791.000; -703.000
300.016;  -39.550;-1095.000; -935.000
300.154;  164.325;  -19.000; -161.000
300.292;   54.650; -428.000; -348.000
300.430;   26.100; -408.000; -291.000
300.568; -108.750; -940.000; -874.000
300.706;  -46.850; -366.000; -469.000
300.844;  -79.150;-1108.000; -979.000
300.982;  124.675;  246.000;  282.000
301.120; -107.525; -965.000; -866.000
301.258;  -71.575; -812.000; -705.000
301.396;   37.400;  104.000;  -41.000
301.534;   80.800; -218.000; -293.000
301.672;  -14.375; -664.000; -521.000
301.810;   30.675; -613.000; -545.000
301.948;  117.300;   53.000;  149.000
302.086;  614.900; -250.000;  -32.000
302.224;  934.825; -610.000; -585.000
302.362;   43.275; -558.000; -622.000
302.500;   -8.475; -923.000; -893.000
302.638;  114.125;  128.000;  245.000
302.776;   -4.675; -352.000; -408.000
302.913;   54.275;  447.000;  236.000
303.051;  -15.700;  -86.000;  -23.000
303.189;   55.000;   90.000;  118.000
303.327;  -21.550; -341.000; -256.000
303.465;  -71.825; -832.000; -588.000
303.603; -106.350; -805.000; -604.000
303.740;   97.875;  417.000;  241.000
303.878;   12.875; -800.000; -759.000
304.016;  -92.750; -915.000; -790.000
304.154; -128.950;-1123.000;-1152.000
304.291;  -32.600; -505.000; -554.000
304.429;    5.500;  102.000;   74.000
304.567; -108.150; -908.000; -893.000
304.705;  -52.425; -408.000; -515.000
304.842;  105.000; -616.000; -540.000
304.980;   53.775;  215.000;   35.000
305.118;   45.200; -367.000; -365.000
305.255;  -81.125; -945.000; -927.000
305.393;   59.800;  178.000;  239.000
305.531; -108.750;-1173.000; -956.000
305.668;  -63.175; -663.000; -582.000
305.806;   96.975; -358.000; -439.000
305.943;   92.875; -629.000; -637.000
306.081;   49.950; -378.000; -267.000
306.219; -103.900; -863.000; -748.000
306.356;    7.900;  158.000;   27.000
306.494;  116.100;  981.000;  761.000
306.631;   -2.125;  -11.000;  -55.000
306.769;   13.850; -613.000; -485.000
306.906;  -11.275; -284.000; -258.000
307.044;  -67.475; -473.000; -488.000
307.181;  -60.650; -410.000; -332.000
307.319;   13.650;  112.000;   87.000
307.456; -187.625;-1191.000;-1153.000
307.594; -102.575; -980.000; -727.000
307.731;  -15.100; -371.000; -164.000
307.868;    2.375;  -15.000;   20.000
308.006; -138.950; -961.000; -847.000
308.143;  -71.000; -618.000; -330.000
308.281;  126.700;  -37.000; -254.000
308.418;  -25.500; -748.000; -640.000
308.555;  -67.025; -400.000; -250.000
308.693;  -72.125; -577.000; -573.000
308.830; -106.550; -712.000; -657.000
308.967;  -13.700; -215.000;  -95.000
309.105;  -30.400; -507.000; -396.000
309.242;   22.500; -468.000; -367.000
309.379;  256.850; -577.000; -655.000
309.517;  -65.025; -936.000; -948.000
309.654;  -98.300; -910.000; -734.000
309.791;  -82.425; -662.000; -580.000
309.928; -115.200; -977.000; -914.000
310.065;  198.525;  819.000;  697.000
310.203;  -13.375; -825.000; -850.000
310.340;    3.550; -465.000; -321.000
310.477;  -85.025; -412.000; -516.000
310.614;  -73.550; -383.000; -473.000
310.751;  -86.525; -427.000; -518.000
310.889;  -16.225;    1.000;   11.000
311.026; -159.150;-1161.000; -939.000
311.163;  -49.525; -386.000; -380.000
311.300;  -78.000; -512.000; -479.000
311.437;  -66.375; -658.000; -619.000
311.574; -150.900;-1226.000; -985.000
311.711;  -48.950; -595.000; -433.000
311.848;  -46.025; -380.000; -388.000
311.985;   -1.000;  270.000;   93.000
312.122; -110.850; -932.000; -762.000
312.259; -112.525; -941.000; -994.000
312.396;  -72.375; -508.000; -551.000
312.533;  -76.600; -812.000; -790.000
312.670; -141.275;-1070.000; -898.000
312.807;  -31.350; -352.000; -367.000
312.944;  -79.800; -513.000; -611.000
313.081;  -29.500; -150.000; -415.000
313.218; -102.475;-1111.000; -867.000
313.355;    7.125; -531.000; -449.000
313.492;    6.325; -455.000; -292.000
313.629;  124.650;  815.000;  735.000
313.766; -172.500;-1176.000;-1008.000
313.902;  -13.675; -186.000;   21.000
314.039;  -41.275; -372.000; -289.000
314.176;   43.625;  286.000;  192.000
314.313;  -96.400; -569.000; -473.000
314.450;  -67.950; -788.000; -684.000
314.587;  -49.900; -468.000; -480.000
314.723;    7.825;  -78.000;  130.000
314.860;   21.825;  318.000;  332.000
314.997;   34.225;  223.000;  142.000
315.134;  -46.725; -385.000; -368.000
315.270;  -20.575; -480.000; -496.000
315.407; -120.850;-1094.000; -967.000
315.544;  -51.525; -657.000; -538.000
315.681;  -55.525; -681.000; -565.000
315.817;   29.800; -133.000; -176.000
315.954;    9.225; -613.000; -392.000
316.091; -122.250;-1045.000;-1023.000
316.227;  -31.350;  -71.000; -179.000
316.364;   -0.300;   23.000;    6.000
316.500;  -59.900; -113.000; -300.000
316.637;  -34.150; -181.000; -302.000
316.774;  -94.350; -625.000; -358.000
316.910;  -90.725; -598.000; -629.000
317.047;  -77.250; -487.000; -351.000
317.183;  -45.800; -435.000; -566.000
317.320;  -30.150; -367.000; -321.000
317.456;  -47.200; -733.000; -805.000
317.593;  -92.800; -598.000; -641.000
317.729;    5.750;  168.000;  -67.000
317.866; -202.250;-1434.000;-1285.000
318.002;  -88.850; -708.000; -948.000
318.139; -103.175; -883.000; -867.000
318.275;  -99.525;-1003.000; -738.000
318.412;  -65.850; -517.000; -336.000
318.548;  -25.675; -751.000; -720.000
318.685;  -82.225; -985.000; -888.000
318.821;  -89.775; -762.000; -735.000
318.957;  -16.875;   34.000;  -23.000
319.094;   41.000;  297.000;  154.000
319.230;  -76.225; -756.000; -742.000
319.367;  131.950; -471.000; -520.000
319.503;   44.425; -538.000; -436.000
319.639;  -96.075; -877.000; -793.000
319.775;  -70.075; -750.000; -685.000
319.912;  -47.450; -424.000; -519.000
320.048;  -91.325;-1184.000;-1184.000
320.184;   87.325;   59.000;   70.000
320.321;  -60.250; -497.000; -467.000
320.457;   75.675;  475.000;  662.000
320.593;  -73.175; -375.000; -382.000
320.729; -100.175; -732.000; -734.000
320.866;  -90.575; -577.000; -635.000
321.002;  -77.775; -759.000; -809.000
321.138;  -16.050; -135.000; -211.000
321.274;   76.700; -148.000; -115.000
321.410;  -32.075; -585.000; -353.000
321.546;  -37.725;-1011.000; -911.000
321.683;   51.275;  400.000;  185.000
321.819;    9.400;  -48.000; -117.000
321.955; -103.425; -743.000; -722.000
322.091;  -32.500; -585.000; -540.000
322.227;  -13.775; -382.000; -202.000
322.363;  -13.200; -320.000; -215.000
322.499;  -41.650; -343.000; -331.000
322.635;  159.275;  636.000;  443.000
322.771;   12.350; -139.000;   12.000
322.907;   90.650;  129.000;  327.000
323.043;  -34.675; -115.000; -206.000
323.179;  -34.625; -394.000; -363.000
323.315;   22.025; -401.000; -371.000
323.451;   85.125; -328.000; -236.000
323.587;   51.925;  -60.000;  -77.000
323.723;    7.000; -682.000; -601.000
323.859;  -11.425; -258.000;  -76.000
323.995;  -34.275; -467.000; -409.000
324.131; -114.800; -967.000; -892.000
324.267;  -34.700; -254.000; -276.000
324.402; -137.725; -960.000; -983.000
324.538;  -16.400; -279.000; -104.000
324.674;   12.750;  164.000;   77.000
324.810;  113.550;  226.000;  308.000
324.946;  -17.225; -810.000; -658.000
325.082;  -56.000; -568.000; -475.000
325.217;  -11.100;  -62.000;   16.000
325.353;  -97.200; -764.000; -659.000
325.489;  -93.225; -540.000; -506.000
325.625;  -76.825; -579.000; -525.000
325.760;   60.475;  517.000;  376.000
325.896;  -17.275; -515.000; -702.000
326.032;  -52.475; -403.000; -352.000
326.168;  -56.750; -462.000; -369.000
326.303;  -69.050; -352.000; -461.000
326.439;  -21.475; -336.000; -276.000
326.575;    5.525; -190.000;  -29.000
326.710;    6.700; -156.000;  -30.000
326.846;   -7.025;  146.000;  103.000
326.982;  -90.975; -530.000; -548.000
327.117;  -79.175; -481.000; -442.000
327.253;  -85.400; -745.000; -742.000
327.388; -159.875;-1137.000;-1153.000
327.524;  -57.425; -811.000; -578.000
327.659;  -10.075;  -58.000;  -22.000
327.795;  -13.550;   69.000;   45.000
327.931;  -85.450; -723.000; -499.000
328.066;  -33.275; -417.000; -276.000
328.202;  -14.125;   12.000; -129.000
328.337;  107.000;  957.000;  713.000
328.473;   44.950;  -12.000;  -74.000
328.608;  -15.100; -256.000; -267.000
328.743;  -88.350; -799.000; -664.000
328.879;   28.625;  214.000;  114.000
329.014;  -38.875; -102.000; -122.000
329.150;  -75.050; -358.000; -483.000
329.285;  -69.050; -465.000; -466.000
329.421;  -49.975; -548.000; -246.000
329.556;  -24.850;  -36.000;   85.000
329.691;  -92.875; -633.000; -615.000
329.827;  -89.025; -626.000; -480.000
329.962;  -25.025;  131.000; -301.000
330.097;  -90.800; -673.000; -585.000
330.233;  -51.100; -410.000; -223.000
330.368; -134.925; -839.000; -628.000
330.503;   -8.875;    3.000;   98.000
330.638;   11.350;  -93.000; -125.000
330.774;  -55.650; -609.000; -530.000
330.909;  -29.950; -434.000; -244.000
331.044;  -92.425; -714.000; -708.000
331.179; -171.900;-1217.000;-1109.000
331.315;   -0.775;   77.000;   20.000
331.450;   19.250;  157.000;  285.000
331.585;  -79.600; -805.000; -706.000
331.720;  -98.825; -510.000; -460.000
331.855;   -9.050;  -35.000; -102.000
331.990;  239.700;   62.000;  138.000
332.126;  120.275; -110.000;   71.000
332.261;  -23.700; -379.000; -265.000
332.396;   -5.675; -135.000; -242.000
332.531;  -95.475;-1074.000;-1031.000
332.666;   36.200; -519.000; -363.000
332.801;  -96.825; -726.000; -807.000
332.936;  -23.300; -192.000; -122.000
333.071; -127.200; -870.000; -817.000
333.206;   14.850;  307.000;  379.000
333.341;   30.275;  344.000;  418.000
333.476;  -96.450; -627.000; -623.000
333.611;  -43.875; -251.000; -173.000
333.746;  -29.700; -381.000; -464.000
333.881; -121.650; -973.000; -935.000
334.016; -123.500; -936.000; -917.000
334.151; -126.875; -746.000; -702.000
334.286;   33.700;  152.000;  186.000
334.421;  -15.350; -125.000; -178.000
334.556;  -79.375; -611.000; -567.000
334.690;  -90.575; -631.000; -577.000
334.825;   63.875;  381.000;   83.000
334.960;  -52.525; -285.000; -413.000
335.095;   13.775;  135.000;  -91.000
335.230;  -92.775; -722.000; -738.000
335.365; -142.700;-1084.000; -990.000
335.499; -144.575;-1108.000;-1037.000
335.634;   19.925;    9.000;  534.000
335.769;  -93.275; -755.000; -720.000
335.904;  -54.050; -603.000; -561.000
336.038;  -70.425; -735.000; -657.000
336.173; -116.300;-1206.000;-1194.000
336.308;   10.850; -116.000; -189.000
336.443;   15.075; -544.000; -634.000
336.577;  -71.200; -936.000; -787.000
336.712;   64.350;   -4.000;  -12.000
336.847;  -34.825; -724.000; -607.000
336.981;   67.300; -272.000; -208.000
337.116;  269.850;  615.000;  501.000
337.250;  144.525; -434.000; -421.000
337.385;  241.075; -297.000; -208.000
337.520;   83.275; -632.000; -603.000
337.654;  -44.150; -215.000; -126.000
337.789; -122.150; -989.000; -933.000
337.923;  -36.275; -104.000; -205.000
338.058;  -79.325; -673.000; -738.000
338.192;  -41.825; -611.000; -488.000
338.327;    3.600;  -18.000; -155.000
338.461;  -71.775; -299.000; -469.000
338.596; -100.875; -780.000; -638.000
338.730; -110.800; -767.000; -803.000
338.865;  101.250;  -46.000; -140.000
338.999;  -52.725; -846.000; -702.000
339.134;  -35.200; -634.000; -536.000
339.268;   24.625; -741.000; -603.000
339.403;  363.975; -740.000; -775.000
339.537;  122.275; -894.000; -820.000
339.671; -111.875; -829.000; -813.000
339.806;  -59.675; -556.000; -512.000
339.940;   10.025; -261.000; -235.000
340.074; -106.875; -685.000; -510.000
340.209;  -39.375; -351.000; -230.000
340.343;  -96.050; -517.000; -573.000
340.477;  160.650;  998.000; 1036.000
340.612;  -67.650;-1033.000; -900.000
340.746;  133.450; -199.000; -243.000
340.880;  -65.025; -924.000; -785.000
341.014;  -12.000;  -45.000; -154.000
341.149; -118.450; -756.000; -718.000
341.283; -109.400; -839.000; -754.000
341.417;  -99.925;-1124.000; -938.000
341.551;  119.825; -768.000; -708.000
341.685;  -38.825; -633.000; -611.000
341.820;  -52.450; -562.000; -493.000
341.954;  -48.675; -218.000; -349.000
342.088; -158.425;-1102.000;-1019.000
342.222;   51.800;  565.000;  618.000
342.356;  -62.225; -395.000; -335.000
342.490;  -94.800; -880.000; -841.000
342.624;  -33.075; -339.000; -242.000
342.758;  -15.325; -364.000; -312.000
342.892;  -48.775; -710.000; -585.000
343.026;  -37.625;  -58.000; -116.000
343.160;  -67.725; -426.000; -376.000
343.294;  -96.750; -474.000; -337.000
343.428;  -16.200; -488.000; -448.000
343.562;  -19.250; -172.000;  -23.000
343.696;  -32.725; -385.000; -314.000
343.830;  -12.750; -362.000; -356.000
343.964;   21.325; -231.000; -168.000
344.098;  900.175;  199.000;   70.000
344.232;  739.800; -266.000; -127.000
344.366;   80.750; -567.000; -453.000
344.500;   38.400; -665.000; -744.000
344.634;   19.100; -324.000; -164.000
344.768;  -19.400; -531.000; -341.000
344.902;   26.125;  278.000;  256.000
345.035;  -81.975; -556.000; -496.000
345.169; -142.025; -933.000; -656.000
345.303;  -62.325; -308.000; -482.000
345.437;  -75.550; -826.000; -717.000
345.571;  -61.100; -675.000; -594.000
345.704;  -71.275; -309.000; -532.000
345.838;  -13.950; -331.000; -284.000
345.972;  -49.625; -543.000; -495.000
346.106;  165.375; -179.000; -190.000
346.239;  413.500; -312.000; -243.000
346.373;    6.300; -343.000; -302.000
346.507; -137.750; -950.000; -962.000
346.640;  144.300;  -30.000;   13.000
346.774;  -53.225; -650.000; -797.000
346.908;   -9.450; -138.000;  -11.000
347.041;  -90.925; -646.000; -593.000
347.175;   12.075;  259.000;   27.000
347.309;  -79.650; -698.000; -628.000
347.442; -102.800; -883.000; -732.000
347.576;  268.675;  670.000;  668.000
347.709;  202.525; -123.000;  -52.000
347.843;  -82.500; -933.000; -825.000
347.976;   36.950;  235.000;  294.000
348.110; -173.500;-1268.000;-1186.000
348.243; -101.425; -679.000; -772.000
348.377;   -2.700;  -26.000;   60.000
348.510;   50.450;  403.000;  540.000
348.644;  -46.975;  -37.000; -159.000
348.777;    5.775;  180.000;  191.000
348.911;  -35.500; -142.000; -112.000
349.044;  174.225;  471.000;  448.000
349.178;  139.375;-1069.000;-1006.000
349.311;  117.250;  141.000;  255.000
349.444;   -9.700; -927.000; -813.000
349.578;   -4.925; -347.000; -200.000
349.711; -103.900; -959.000; -862.000
349.845;    6.275; -661.000; -591.000
349.978; -148.300;-1224.000;-1137.000
350.111;  -80.675; -546.000; -612.000
350.244;  -90.825; -596.000; -700.000
350.378;    2.850; -392.000; -393.000
350.511;  -62.625; -393.000; -426.000
350.644;  -98.950; -808.000; -806.000
350.778;   -2.475;  168.000;  104.000
350.911;    6.050;  134.000;  140.000
351.044;  -97.150; -685.000; -615.000
351.177;  -27.500; -321.000; -281.000
351.310;  -24.925;    3.000; -131.000
351.444;  -78.825; -888.000; -788.000
351.577;  107.325;  140.000;   90.000
351.710;   99.000;  593.000;  417.000
351.843;  -35.875; -165.000;  -77.000
351.976;   14.325;  149.000;  -79.000
352.109;  -91.325; -621.000; -612.000
352.242;  -37.025; -464.000; -419.000
352.376;  -67.850; -580.000; -636.000
352.509;  162.525; -437.000; -356.000
352.642;    0.425; -654.000; -604.000
352.775;   58.900; -141.000;  -98.000
352.908; -129.500; -933.000; -904.000
353.041;  -94.050; -814.000; -824.000
353.174;  -63.075; -551.000; -424.000
353.307;  -79.175; -753.000; -764.000
353.440;   75.725;  541.000;  453.000
353.573; -103.400; -957.000;-1008.000
353.706;  -18.150; -384.000; -558.000
353.839;  -18.650; -264.000; -220.000
353.971;  -88.225; -657.000; -512.000
354.104;  -74.050; -896.000; -835.000
354.237;  -22.450; -627.000; -662.000
354.370;  -82.800; -846.000; -879.000
354.503; -182.450;-1231.000;-1308.000
354.636;  -36.050; -529.000; -348.000
354.769; -119.475; -937.000; -860.000
354.902;    1.225; -230.000; -139.000
355.034;  -20.850; -164.000; -220.000
355.167;  -13.075; -262.000; -162.000
355.300; -101.300;-1061.000; -880.000
355.433;  956.475;  -71.000;  -14.000
355.565; 1496.375; -402.000; -384.000
355.698;  380.025; -356.000; -296.000
355.831;   -3.200; -882.000; -801.000
355.964;   74.300; -285.000; -170.000
356.096;  -83.800; -856.000; -843.000
356.229;   16.700; -523.000; -530.000
356.362;  319.900; -373.000; -266.000
356.494;  594.150; -229.000; -162.000
356.627;  463.150;  269.000;  377.000
356.760;  656.800;  120.000;   53.000
356.892;  938.950; -286.000; -601.000
357.025;  631.575;  403.000;  389.000
357.157;  582.125; -167.000; -179.000
357.290;  666.800; -856.000; -713.000
357.423;  198.375; -667.000; -556.000
357.555;  114.575; -217.000; -228.000
357.688;  103.650; -483.000; -364.000
357.820;  447.700; -870.000; -877.000
357.953; 3650.325; -563.000; -589.000
358.085;  781.175; -632.000; -612.000
358.218; 1090.500;-1131.000; -932.000
358.350;  216.850;  -58.000;  312.000
358.483; -118.875;-1300.000;-1187.000
358.615;  -17.500;-1182.000;-1078.000
358.747;  -62.050;-1187.000;-1058.000
358.880;   23.150; -810.000; -744.000
359.012;  -13.600; -376.000; -202.000
359.145;  -41.925; -480.000; -511.000
359.277;   49.775; -962.000; -913.000
359.409; 3009.725;  536.000;  231.000
359.542;  764.125; -738.000; -688.000
359.674;   73.475;   46.000;   13.000
359.806;  -60.975; -565.000; -438.000
359.939;  -53.750; -617.000; -516.000
360.071;   -6.350; -583.000; -579.000
360.203;  -16.375; -411.000; -364.000
360.335;   48.975;  164.000;  -16.000
360.468;  192.325; -249.000; -307.000
360.600; 2438.675; -547.000; -454.000
360.732; 2809.750; -546.000; -423.000
360.864;  383.025;-1216.000;-1044.000
360.996;  278.050; -516.000; -554.000
361.129;   40.725; -389.000; -598.000
361.261;   30.250;  110.000; -113.000
361.393;  -28.575; -252.000; -214.000
361.525;   25.825;   94.000;  244.000
361.657;  -45.475; -821.000; -703.000
361.789;   -3.100; -139.000; -155.000
361.921;  215.625; -642.000; -593.000
362.053;  255.350;  524.000;  541.000
362.185;   43.400;  288.000;   72.000
362.318;  -84.050; -709.000; -705.000
362.450;  110.575;  294.000;  444.000
362.582;   91.775; -913.000; -870.000
362.714;  -38.875; -353.000; -332.000
362.846;  -85.550; -606.000; -490.000
362.978; -132.600; -941.000; -811.000
363.109;   50.175; -161.000; -260.000
363.241;  403.300; -739.000; -749.000
363.373;  436.450; -649.000; -564.000
363.505;  656.175; -186.000;  -91.000
363.637;  161.450; -787.000; -601.000
363.769; -136.075;-1067.000;-1080.000
363.901;  -67.300; -596.000; -654.000
364.033; -111.250;-1103.000;-1062.000
364.165;   16.050; -283.000; -283.000
364.296;   78.050; -316.000; -177.000
364.428;   52.825;-1344.000;-1220.000
364.560;  -77.900; -679.000; -661.000
364.692;  -62.500; -738.000; -835.000
364.824;  230.425; -588.000; -456.000
364.955;  439.200; -402.000; -564.000
365.087;  916.275;-1097.000; -852.000
365.219;   36.300; -686.000; -816.000
365.351;  -66.650; -526.000; -572.000
365.482;   43.200;  300.000;  240.000
365.614;  -44.800; -402.000; -314.000
365.746;  -94.350; -729.000; -752.000
365.877; -103.900; -706.000; -672.000
366.009;  267.975;  -35.000;  -62.000
366.141;  -95.125;-1249.000;-1134.000
366.272; -112.675; -803.000; -719.000
366.404; -114.975;-1005.000; -874.000
366.535;   -5.475; -139.000;  -12.000
366.667;  -99.100; -644.000; -649.000
366.799;   43.650;  353.000;  203.000
366.930; -120.975; -862.000; -996.000
367.062;  117.650; -639.000; -613.000
367.193;  152.475; -872.000; -842.000
367.325;  -74.800; -580.000; -684.000
367.456;   45.425; -246.000;   31.000
367.588;  176.075; -371.000; -318.000
367.719;   21.525;  -44.000;  -45.000
367.851;   -7.075; -222.000; -241.000
367.982;  -63.350; -875.000; -732.000
368.113;   95.100; -475.000; -358.000
368.245; -108.075; -960.000; -841.000
368.376;  -16.450; -254.000; -302.000
368.508;  -23.125; -188.000; -263.000
368.639; -133.575;-1166.000;-1034.000
368.770;  -18.875; -670.000; -589.000
368.902;  -55.550; -836.000; -926.000
369.033;  -97.900; -906.000; -855.000
369.164;  -37.400; -720.000; -653.000
369.296; -110.375; -452.000; -601.000
369.427;    4.225; -209.000; -144.000
369.558;  -59.700; -593.000; -377.000
369.689;  -78.250; -721.000; -569.000
369.821; -127.925; -951.000; -845.000
369.952;  -20.825;   42.000; -108.000
370.083;  -53.200; -229.000; -108.000
370.214;  -74.850; -735.000; -650.000
370.345;  -11.850;   65.000;   81.000
370.477;  -85.325; -810.000; -790.000
370.608;  233.750; -328.000; -264.000
370.739;  -56.775;-1233.000;-1292.000
370.870;  -58.150;-1102.000; -923.000
371.001;   85.250; -378.000; -467.000
371.132;  -79.575; -754.000; -735.000
371.263;  -28.125;  -42.000; -148.000
371.394; -142.500; -841.000; -748.000
371.525;   39.075;  345.000;  225.000
371.657;  -90.100; -808.000; -670.000
371.788;   73.200;  103.000;  199.000
371.919;  152.900; -384.000; -304.000
372.050; 3539.050;  -91.000; -156.000
372.181; 1025.300; -188.000; -294.000
372.311;  364.400;   42.000; -127.000
372.442;   30.425; -457.000; -451.000
372.573;  -19.350; -444.000; -340.000
372.704; -125.675;-1008.000; -980.000
372.835;   81.850; -228.000; -289.000
372.966;  -62.025; -646.000; -554.000
373.097;  -63.400; -575.000; -711.000
373.228;  -43.150; -717.000; -542.000
373.359;  127.600; -824.000; -536.000
373.490;  896.325; -881.000; -727.000
373.620; 1141.850;-1001.000; -803.000
373.751; 1716.250; -332.000; -396.000
373.882;  781.475; -663.000; -733.000
374.013;   47.075; -449.000; -262.000
374.143;  -45.700; -581.000; -659.000
374.274; -106.225; -987.000; -908.000
374.405;  173.725; -388.000; -276.000
374.536;  433.900; -526.000; -387.000
374.666; 1089.775; -759.000; -807.000
374.797;  203.400; -817.000; -868.000
374.928;  862.625; -710.000; -560.000
375.058;  853.625; -535.000; -500.000
375.189;   87.075;  -59.000;  -93.000
375.320;  -99.350; -928.000;-1034.000
375.450;  -41.125; -625.000; -616.000
375.581;  -44.400; -526.000; -436.000
375.712;  -40.450; -574.000; -250.000
375.842;  304.750; -438.000; -415.000
375.973;  228.550; -554.000; -513.000
376.103;  -46.775; -665.000; -648.000
376.234;  -87.900; -531.000; -552.000
376.364;  -48.500; -944.000; -867.000
376.495;  323.475;  925.000;  529.000
376.625;  -13.325; -472.000; -485.000
376.756;   49.575; -709.000; -678.000
376.886;  -77.200;-1178.000;-1026.000
377.017;   46.925;-1048.000;-1061.000
377.147;  345.525; -786.000; -782.000
377.278;   73.075;  174.000;  228.000
377.408; -130.175; -801.000; -815.000
377.538; -102.875; -707.000; -693.000
377.669;  -88.050; -537.000; -613.000
377.799;  -88.850; -645.000; -635.000
377.929;  -63.275; -610.000; -428.000
378.060; -127.500; -781.000; -847.000
378.190;  -62.600; -726.000; -531.000
378.320;  -49.225; -401.000; -406.000
378.451;  -18.100; -131.000;  -22.000
378.581;  -15.275;  -67.000; -110.000
378.711;  153.100; 1035.000;  866.000
378.841;  -19.475; -533.000; -675.000
378.972;  -85.450; -871.000; -751.000
379.102;   -2.875; -652.000; -579.000
379.232;  -26.275; -126.000;  -73.000
379.362; -108.175;-1001.000; -885.000
379.492;   -3.200; -373.000; -424.000
379.623;  119.300;    0.000;  111.000
379.753; -102.900;-1107.000; -974.000
379.883;  194.775;   59.000;  156.000
380.013;   13.675;-1081.000;-1017.000
380.143; -105.650;-1097.000;-1056.000
380.273; -107.375; -985.000; -861.000
380.403;    7.625; -344.000; -257.000
380.533;  -29.350; -651.000; -664.000
380.663;   74.050;  173.000;  128.000
380.793;  -92.575;-1027.000;-1074.000
380.923;  -19.375; -103.000;  -34.000
381.053;  -93.225; -613.000; -623.000
381.183;  -25.925; -106.000; -248.000
381.313;   14.075; -656.000; -470.000
381.443;   32.700; -692.000; -473.000
381.573;  188.500; -402.000; -409.000
381.703;  263.550;-1249.000;-1095.000
381.833; -130.350;-1454.000;-1336.000
381.963;  117.950; -134.000;  -87.000
382.093; 1373.825; -925.000; -909.000
382.223;  431.300; -713.000; -602.000
382.353;  -11.100; -801.000; -608.000
382.482;  356.900;-1091.000; -964.000
382.612;  734.300; -872.000; -644.000
382.742;  417.650; -695.000; -622.000
382.872;  249.800; -565.000; -551.000
383.002;   69.725;  347.000; -132.000
383.131;  -20.575; -226.000; -160.000
383.261;  -36.125; -706.000; -768.000
383.391;  293.025; -552.000; -377.000
383.521; 3254.700;  451.000;  263.000
383.650;  769.475; -947.000; -904.000
383.780;  -18.200; -783.000; -656.000
383.910;  106.400;  880.000;  802.000
384.039;   17.375; -794.000; -656.000
384.169;  184.425;-1205.000;-1017.000
384.299;  -20.450; -650.000; -662.000
384.428;  -82.000; -764.000; -680.000
384.558;  -41.500; -308.000; -275.000
384.687;  -46.725; -414.000; -334.000
384.817;   30.975;   75.000;   -2.000
384.947;   23.300; -234.000; -141.000
385.076;  288.975;  982.000;  912.000
385.206;   81.625;  369.000;  480.000
385.335;  -32.300; -549.000; -417.000
385.465;  -89.225; -655.000; -663.000
385.594;  124.575;  -53.000;  -44.000
385.724;  396.475; -868.000; -838.000
385.853;  111.400; -296.000; -270.000
385.982; 1337.050; -743.000; -787.000
386.112; 2126.350;-1052.000; -871.000
386.241;  126.275; -307.000; -312.000
386.371;   18.850; -174.000;  -87.000
386.500;    4.375; -825.000; -789.000
386.629;   30.350; -874.000; -817.000
386.759;   59.775;  -43.000;   68.000
386.888;  -17.225; -170.000; -250.000
387.017;  -98.400; -648.000; -620.000
387.147;  -82.775; -771.000; -798.000
387.276;   -6.800; -410.000; -397.000
387.405;   17.450; -398.000; -342.000
387.535;  -41.950; -452.000; -361.000
387.664;  -80.200; -692.000; -620.000
387.793;   59.375; -198.000; -113.000
387.922;  496.325;  255.000;  200.000
388.052;   20.475; -576.000; -423.000
388.181;    5.125; -342.000; -472.000
388.310;  -19.925; -889.000; -710.000
388.439;  -57.975; -749.000; -742.000
388.568;  177.550;  365.000;  244.000
388.697; 1033.950; -756.000; -653.000
388.826;  196.150; -768.000; -666.000
388.956;   56.150; -285.000; -307.000
389.085;  -37.850; -347.000; -287.000
389.214; -113.275; -842.000; -872.000
389.343;  -66.150; -645.000; -413.000
389.472;  398.700;  126.000;  149.000
389.601;  492.000;   91.000;    0.000
389.730;   11.075; -568.000; -687.000
389.859;   59.475;  226.000;   46.000
389.988;  195.425; -423.000; -408.000
390.117;  129.350; -168.000; -146.000
390.246;   -7.475; -331.000; -320.000
390.375;   89.550; -673.000; -626.000
390.504;  -52.575; -703.000; -621.000
390.633;  -99.100; -672.000; -726.000
390.761;  -55.750; -732.000; -645.000
390.890;    8.450;   -4.000; -130.000
391.019;  -32.925; -421.000; -441.000
391.148; -135.775; -826.000; -855.000
391.277;  -68.775; -576.000; -493.000
391.406;  -86.050; -821.000; -805.000
391.534;   17.050;  574.000; -301.000
391.663;  -72.950; -583.000; -645.000
391.792;  -85.975; -673.000; -701.000
391.921;   88.725;   -3.000;   15.000
392.050;  172.500; -287.000; -228.000
392.178;  -55.425;-1206.000;-1061.000
392.307;  129.975; -758.000; -712.000
392.436;   78.550; -427.000; -641.000
392.564;   15.600;  166.000;   -6.000
392.693;  -97.000; -860.000; -682.000
392.822;  196.200; -529.000; -534.000
392.950;   70.700; -880.000; -714.000
393.079;  301.025; -188.000; -328.000
393.208;   19.850; -488.000; -511.000
393.336;   -0.400; -170.000; -145.000
393.465;  -40.650; -317.000; -199.000
393.593;   -0.875;   62.000;   79.000
393.722; -169.100;-1121.000; -916.000
393.850;  -26.400; -188.000;  -61.000
393.979; -167.400; -926.000; -805.000
394.107;  -80.400; -517.000; -537.000
394.236;  -36.300; -570.000; -507.000
394.364;  206.850;  383.000;  206.000
394.493;  280.800; -911.000; -767.000
394.621;  -23.700; -955.000; -916.000
394.750;  714.500; -873.000; -923.000
394.878; 2967.475; -247.000; -149.000
395.007; 3958.225; -721.000; -807.000
395.135;  297.575; -790.000; -721.000
395.263; -108.625;-1038.000;-1040.000
395.392;   -0.800;  -25.000; -107.000
395.520; -142.400; -818.000; -679.000
395.648;  -76.275; -865.000; -915.000
395.777;  -22.025; -366.000; -405.000
395.905;  -55.050; -449.000; -564.000
396.033;   -9.775;  217.000;  172.000
396.162;  472.375; -399.000; -453.000
396.290;  419.900;  -17.000;   -2.000
396.418;   96.850; -555.000; -514.000
396.546;  -88.125; -571.000; -466.000
396.674;  -94.725; -850.000; -878.000
396.803;   -4.350;  -72.000;  -23.000
396.931;   76.575; -179.000; -199.000
397.059;   44.175;-1026.000; -989.000
397.187; -114.775;-1026.000; -975.000
397.315; -154.475; -884.000; -649.000
397.443; -103.875; -592.000; -443.000
397.572; -101.075; -578.000; -424.000
397.700;  -16.700; -607.000; -614.000
397.828;   23.100;  120.000;  -90.000
397.956;  -46.950; -508.000; -478.000
398.084;  -82.675; -767.000; -626.000
398.212;   38.350;  137.000;  124.000
398.340;   11.450;  -56.000;  159.000
398.468;   23.325; -390.000; -169.000
398.596; -141.550; -993.000; -953.000
398.724; -114.325; -762.000; -767.000
398.852; -173.975;-1024.000; -976.000
398.980;  -50.025; -560.000; -560.000
399.108;  -55.975; -982.000; -735.000
399.236;   36.550;   13.000;    8.000
399.363;   22.725;  222.000;  196.000
399.491;  -46.750; -404.000; -398.000
399.619; -130.075; -829.000; -800.000
399.747;  -92.675; -859.000; -771.000
399.875;   63.025;  220.000;  234.000
400.003;  -47.300; -359.000; -284.000
400.130; -106.725; -421.000; -341.000
400.258;  -17.725;  -83.000;   38.000
400.386;  -73.425; -352.000; -168.000
400.514;  -48.450; -526.000; -587.000
400.641;  -91.450; -928.000; -802.000
400.769; -145.650; -979.000; -888.000
400.897; -115.050; -838.000; -793.000
401.025;  -21.975; -166.000; -152.000
401.152;   -9.425;  220.000;   38.000
401.280;  -87.125; -430.000; -429.000
401.408; -122.025; -712.000; -576.000
401.535;  -96.150; -735.000; -758.000
401.663; -193.325;-1134.000;-1054.000
401.790;  -61.200; -514.000; -525.000
401.918;   31.025;  436.000;  405.000
402.046;  -18.950;  134.000;  122.000
402.173;  -46.075;  -18.000;    7.000
402.301;  -69.000; -519.000; -397.000
402.428;   39.450;  528.000;  383.000
402.556; -144.925;-1188.000; -913.000
402.683;  -31.900;  -20.000;   -1.000
402.811;   -4.700;  -37.000; -206.000
402.938;  -17.775;   20.000;   27.000
403.066;  218.675; -574.000; -558.000
403.193;  325.500;  299.000;  239.000
403.321;  264.300; -396.000; -574.000
403.448;  315.200;   83.000;   27.000
403.575;  141.950;  -90.000;  -46.000
403.703; -105.475; -732.000; -557.000
403.830;  -61.650; -531.000; -496.000
403.957; -139.750;-1117.000;-1023.000
404.085;   16.300;  -61.000; -172.000
404.212;   90.475;  -50.000;   63.000
404.339;  285.900; -566.000; -306.000
404.467; 5830.325; -612.000; -524.000
404.594; 3814.850; -287.000; -227.000
404.721;  866.300; -869.000; -764.000
404.848;   79.550; -113.000; -202.000
404.976; -101.000; -856.000; -783.000
405.103;   -6.700;  -14.000;  -82.000
405.230;    6.325;  190.000;  226.000
405.357;   30.075;  117.000;   44.000
405.484;  272.925;  -49.000;    5.000
405.612;   44.475; -548.000; -563.000
405.739;  -63.125; -488.000; -243.000
405.866;   88.250;  669.000;  385.000
405.993;  -43.075; -398.000; -102.000
406.120; -129.500; -801.000; -887.000
406.247;  -75.600; -323.000; -342.000
406.374;  424.525;  540.000;  629.000
406.501;   97.850; -632.000; -702.000
406.628;  -70.025; -621.000; -589.000
406.755; -106.325; -803.000; -620.000
406.882;  -45.900; -228.000; -277.000
407.009; -106.000; -719.000; -628.000
407.136;   41.425; -480.000; -401.000
407.263;  110.250; -939.000; -829.000
407.390;  -70.550; -692.000; -614.000
407.517; -161.025;-1139.000;-1187.000
407.644;  -55.800; -332.000; -256.000
407.771;  -77.025; -249.000; -287.000
407.898;    6.775;  168.000;  328.000
408.025;  -73.250; -421.000; -313.000
408.151;   -2.750;   82.000;  153.000
408.278;  -55.150; -267.000; -216.000
408.405; -123.275; -931.000; -899.000
408.532;  -62.775; -549.000; -542.000
408.659; -122.350; -677.000; -648.000
408.785; -204.175;-1298.000;-1170.000
408.912;  -61.050; -412.000; -296.000
409.039; -120.925; -610.000; -686.000
409.166; -101.975; -591.000; -555.000
409.292; -129.375; -571.000; -534.000
409.419; -116.950; -665.000; -649.000
409.546;  -73.375; -431.000; -192.000
409.672; -111.075; -713.000; -545.000
409.799;  -23.650;  -36.000;   34.000
409.926;  -38.625; -180.000; -179.000
410.052; -171.525;-1127.000;-1091.000
410.179;  -54.525; -368.000; -392.000
410.305;  -94.025; -375.000; -493.000
410.432;  -37.475; -220.000; -333.000
410.558;  -95.600; -305.000; -380.000
410.685; -105.875; -688.000; -431.000
410.812;  -98.575; -409.000; -588.000
410.938; -133.600; -964.000; -808.000
411.065;  -97.250; -671.000; -645.000
411.191;  -25.850; -189.000; -174.000
411.317; -121.900; -823.000; -742.000
411.444;  -65.675; -317.000; -246.000
411.570;  -88.475; -339.000; -294.000
411.697; -134.750; -758.000; -752.000
411.823; -178.800; -989.000; -999.000
411.949;  -38.825;  -56.000;   17.000
412.076; -108.850; -539.000; -519.000
412.202; -129.150; -758.000; -757.000
412.329; -127.625; -798.000; -752.000
412.455; -115.925; -821.000; -657.000
412.581;  -11.575;  -15.000;  172.000
412.707;  -81.175; -540.000; -457.000
412.834;   11.275;  156.000;  219.000
412.960;  -83.700; -785.000; -784.000
413.086; -105.075; -743.000; -701.000
413.212;  140.275;  604.000;  578.000
413.339;  -76.200; -685.000; -701.000
413.465;    8.475; -364.000; -310.000
413.591;  -92.825; -757.000; -474.000
413.717;  -52.325; -358.000; -366.000
413.843; -143.950; -839.000; -861.000
413.969;  -47.400;  -47.000; -292.000
414.096; -121.375; -679.000; -679.000
414.222;   -7.800;  -33.000;   85.000
414.348;  -18.000; -652.000; -385.000
414.474;   99.125;   38.000;  -52.000
414.600;  -21.000; -126.000; -144.000
414.726;  -11.775;  -96.000;  -55.000
414.852;  -62.125; -365.000; -342.000
414.978;   33.025;  104.000;  -18.000
415.104;   34.225;   38.000;   80.000
415.230;   15.650; -329.000; -330.000
415.356;   47.800; -409.000; -514.000
415.482;  195.125;   13.000;  -35.000
415.608;  256.175; -247.000; -323.000
415.734;  953.950;   67.000;   38.000
415.860;20069.625; -875.000; -767.000
415.986;14420.125; -685.000; -607.000
416.111; 1229.625; -798.000; -652.000
416.237;  242.425; -424.000; -571.000
416.363; 1117.575; -765.000; -733.000
416.489; 4225.250; -324.000; -251.000
416.615;  450.000; -707.000; -742.000
416.741;  -24.250; -677.000; -784.000
416.866;  -85.725; -673.000; -736.000
416.992; -119.475; -801.000; -818.000
417.118;  -38.525;  -41.000;  -80.000
417.244;  -78.325; -798.000; -531.000
417.369;  -73.875; -801.000; -612.000
417.495;  -17.150; -325.000; -254.000
417.621;  -90.625;-1015.000; -803.000
417.746;    3.100; -579.000; -572.000
417.872;   47.625; -254.000; -144.000
417.998;   55.600; -515.000; -530.000
418.123; 1055.950;-1073.000; -845.000
418.249; 5427.375; -512.000; -601.000
418.374;  734.300; -916.000; -824.000
418.500;  106.675; -383.000; -482.000
418.626;  108.375;   70.000;  -59.000
418.751;  140.875; -549.000; -448.000
418.877;  186.750; -637.000; -643.000
419.002; 1832.575; -688.000; -560.000
419.128;12674.175; -930.000; -721.000
419.253; 3083.800; -967.000; -837.000
419.379;  391.900; -391.000; -338.000
419.504;  396.550;  325.000;  415.000
419.629;  521.400; -393.000; -212.000
419.755; 3612.950; -317.000; -254.000
419.880;21345.400;  -98.000;   67.000
420.006;11483.625; -280.000; -221.000
420.131;29524.375; -662.000; -775.000
420.256; 4224.350; -315.000; -316.000
420.382;  546.675; -665.000; -687.000
420.507;   70.600; -649.000; -778.000
420.632;  123.850; -337.000; -339.000
420.758;  232.950; -251.000; -425.000
420.883;  -85.475; -876.000; -672.000
421.008; -100.275; -775.000; -619.000
421.133;  -89.925; -509.000; -467.000
421.259;  -53.500; -325.000; -259.000
421.384; -130.075; -834.000; -693.000
421.509;  -42.350;-1052.000; -862.000
421.634; 1107.550; -936.000; -820.000
421.759;  476.175; -359.000; -327.000
421.885;  -49.875; -717.000; -656.000
422.010;  -72.575; -673.000; -542.000
422.135; -145.850; -695.000; -727.000
422.260;   42.150;  340.000;  280.000
422.385;  -42.875;   12.000;  -98.000
422.510;   16.125;  151.000;  -26.000
422.635;    4.875;  -87.000;  -43.000
422.760;  107.550; -766.000; -791.000
422.885;   52.250;  -57.000;  -80.000
423.010;  -33.375; -112.000; -169.000
423.135; -106.025; -481.000; -561.000
423.260;  -14.950; -150.000; -245.000
423.385;   68.225;  476.000;  222.000
423.510;   39.500;   71.000;  -22.000
423.635;   59.250;  133.000;   45.000
423.760;   55.000;  383.000;  328.000
423.885;   58.300;  336.000;  391.000
424.010;   23.950;  -68.000;  -13.000
424.135;  -25.625;    5.000;  -33.000
424.259;  -78.250; -654.000; -457.000
424.384;  -76.725; -279.000; -272.000
424.509;  -34.475; -260.000; -186.000
424.634;  -94.050; -761.000; -623.000
424.759;  -32.150; -688.000; -544.000
424.883;  -16.450; -506.000; -527.000
425.008;  167.100; -502.000; -410.000
425.133; 1989.025; -679.000; -653.000
425.258;  941.350; -517.000; -381.000
425.382; 1000.400; -867.000; -774.000
425.507; 2559.150; -487.000; -543.000
425.632;  423.000; -802.000; -663.000
425.756;  463.975; -256.000; -146.000
425.881; 6677.350; -831.000; -857.000
426.006;17948.975; -604.000; -355.000
426.130; 2793.225; -696.000; -508.000
426.255;  347.500; -611.000; -491.000
426.379;  156.775; -189.000; -577.000
426.504;  367.200;  660.000;  544.000
426.629; 4050.825; -519.000; -466.000
426.753; 2765.675;   64.000;  -46.000
426.878;  298.100; -252.000; -288.000
427.002;  147.225; -651.000; -668.000
427.127; 1625.300;  -35.000; -158.000
427.251;11508.975;  372.000;  401.000
427.375; 3228.475; -191.000; -173.000
427.500; 2257.200; -616.000; -610.000
427.624;  740.800; -234.000; -400.000
427.749;   93.725; -216.000; -225.000
427.873;  -48.300; -499.000; -412.000
427.997;  -51.275; -222.000; -230.000
428.122;   88.875;  795.000;  703.000
428.246;   69.700;  433.000;  434.000
428.371; -131.025; -869.000; -773.000
428.495; -109.050; -624.000; -646.000
428.619;  -40.475; -186.000; -117.000
428.743;   24.850;   65.000;  132.000
428.868;    3.025; -732.000; -643.000
428.992; 1379.325; -219.000; -326.000
429.116;  564.525; -329.000; -357.000
429.240;  251.650;  419.000;  426.000
429.365;  -38.200; -454.000; -574.000
429.489;  -42.325; -638.000; -647.000
429.613;   15.225; -236.000; -177.000
429.737;   34.925; -563.000; -432.000
429.861;  275.700; -247.000; -133.000
429.985; 5636.450; -425.000; -305.000
430.109; 6181.425; -770.000; -908.000
430.234;  700.825;   76.000;  -50.000
430.358;   55.300; -250.000; -160.000
430.482;  -68.875; -672.000; -564.000
430.606;  -68.425; -655.000; -375.000
430.730;   -3.150; -437.000; -388.000
430.854;   88.625; -909.000; -835.000
430.978;  -65.025; -795.000; -764.000
431.102;  -86.725; -499.000; -422.000
431.226; -129.100; -874.000; -815.000
431.350;   23.650;  345.000;  422.000
431.474;  -82.750; -661.000; -373.000
431.597; -158.400;-1060.000; -848.000
431.721;  -81.925; -276.000; -267.000
431.845; -128.550; -704.000; -472.000
431.969;  -78.300; -304.000; -349.000
432.093;  -94.200; -395.000; -317.000
432.217;  -13.475;   32.000;   82.000
432.341;  -96.100; -523.000; -518.000
432.464;    5.500;   96.000;   40.000
432.588;  193.750; -401.000; -329.000
432.712;   97.750;  -52.000;  -52.000
432.836;   40.725;  213.000;  263.000
432.959;  -17.000; -372.000; -311.000
433.083;   84.025;   11.000;    2.000
433.207;  377.125;  285.000;  930.000
433.330; 5114.175; -391.000; -200.000
433.454; 6284.925; -654.000; -638.000
433.578; 3597.525;  583.000;  278.000
433.701;  652.525; -623.000; -675.000
433.825;  124.550; -292.000; -299.000
433.949;  162.000;   28.000;  -72.000
434.072;   37.850; -410.000; -323.000
434.196;  -13.050; -309.000; -117.000
434.319; 3734.825;25482.000;25124.000
434.443;  724.050; -656.000; -603.000
434.566; 2675.225;  281.000;   62.000
434.690;  433.125; -637.000; -383.000
434.813;   51.350; -251.000; -173.000
434.937;  -85.900; -569.000; -696.000
435.060;  -47.475; -423.000; -332.000
435.184;  262.275; -492.000; -217.000
435.307;  136.050;  159.000;  102.000
435.431;  -18.875;  -40.000;   24.000
435.554;  -89.800; -399.000; -240.000
435.677;  -80.175; -350.000; -258.000
435.801;  -57.250;  -25.000;   49.000
435.924;  -31.425;    1.000;  -67.000
436.048; -130.500;-1019.000; -732.000
436.171;  -61.425; -240.000;  -66.000
436.294;  -35.775; -248.000; -229.000
436.417;  111.875; -963.000; -849.000
436.541;  -96.550; -814.000; -840.000
436.664;  -53.450; -242.000; -316.000
436.787;  -28.200;   13.000;  113.000
436.910; -117.225; -792.000; -422.000
437.034;   -1.100;  142.000;  143.000
437.157;   49.125;  -11.000;    0.000
437.280;  -54.600; -392.000; -292.000
437.403;  -99.825; -982.000; -869.000
437.526;  586.025; -903.000; -865.000
437.649; 2159.300; -505.000; -332.000
437.772;  299.925; -692.000; -540.000
437.896;  129.600;  700.000;  544.000
438.019; -103.625; -758.000; -503.000
438.142;  -96.825; -596.000; -506.000
438.265;  -23.400; -639.000; -670.000
438.388;  533.600; -520.000; -410.000
438.511;   73.500; -597.000; -394.000
438.634;  -48.300; -247.000; -125.000
438.757; -126.100; -693.000; -619.000
438.880;  -26.700;  -34.000;  -57.000
439.003;  -91.625; -417.000; -437.000
439.126;  -61.800; -287.000; -167.000
439.248;  -77.150;  -98.000; -139.000
439.371;  -46.900;    9.000;  -53.000
439.494;   17.700;  510.000;  439.000
439.617;  -43.800;   65.000;  -88.000
439.740; -194.075; -968.000; -816.000
439.863; -146.300; -755.000; -595.000
439.986; -117.000; -476.000; -431.000
440.108;  -55.550; -161.000; -112.000
440.231; -172.375; -950.000; -836.000
440.354;  -41.075;  -64.000; -150.000
440.477;   17.225; -566.000; -542.000
440.599;  -11.800; -200.000; -225.000
440.722; -127.350; -709.000; -586.000
440.845;   68.725;  751.000;  928.000
440.968; -117.825; -415.000; -311.000
441.090;  -63.300; -199.000;  -33.000
441.213; -181.300;-1021.000; -825.000
441.336;  -46.425; -159.000;   -5.000
441.458;  -93.475; -549.000; -396.000
441.581;  -84.925; -628.000; -629.000
441.703;  -84.700; -152.000;   13.000
441.826; -116.225; -557.000; -400.000
441.948;  -49.575;   56.000;   51.000
442.071;   28.000;  555.000;  424.000
442.193; -118.775; -531.000; -485.000
442.316;   14.125;  152.000;   97.000
442.438;   40.600; -233.000;  -10.000
442.561;   72.625;  272.000;  262.000
442.683;  498.625; -809.000; -522.000
442.806; 1111.950;   -8.000;   74.000
442.928;   15.500; -859.000; -604.000
443.051;  -68.650; -577.000; -373.000
443.173; -100.800; -341.000; -339.000
443.295;  -86.850; -263.000; -371.000
443.418;  -73.950; -321.000;  -29.000
443.540;  -11.825; -106.000;   -4.000
443.662; -135.500; -563.000; -465.000
443.785;   -9.275;  335.000;  199.000
443.907; -107.450; -362.000; -208.000
444.029; -132.575; -767.000; -494.000
444.152; -144.600; -644.000; -554.000
444.274;  -19.750;  -18.000;  -24.000
444.396; -124.200; -461.000; -221.000
444.518; -135.375; -691.000; -454.000
444.640;  -98.925; -268.000; -111.000
444.763;   -5.175;  388.000;  249.000
444.885; -122.075; -432.000; -392.000
445.007;  -33.725;   35.000;   86.000
445.129; -115.225; -610.000; -515.000
445.251; -103.125; -372.000; -439.000
445.373; -119.225; -537.000; -386.000
445.495;    9.725;  242.000;  350.000
445.617;   40.300;  853.000;  753.000
445.739;  -65.200; -215.000;  -97.000
445.861;  -39.225; -245.000; -112.000
445.984;  -33.625; -267.000; -101.000
446.105;  185.725; -418.000; -251.000
446.227;  600.600; -176.000;  -19.000
446.349;   -2.575; -358.000; -249.000
446.471; -100.700; -615.000; -448.000
446.593;  -72.600; -316.000;   19.000
446.715;   -2.800;  -67.000;   41.000
446.837;   46.850;  697.000;  832.000
446.959; -100.875; -457.000; -478.000
447.081; -140.800; -628.000; -518.000
447.203;   54.450;  862.000;  834.000
447.325;  -90.150; -270.000;   42.000
447.446;   -3.850;  286.000;  530.000
447.568; -158.875; -921.000; -803.000
447.690;  -68.775; -236.000; -245.000
447.812; -155.275; -798.000; -519.000
447.933;  -24.225;  155.000;  127.000
448.055;  -67.475; -306.000; -261.000
448.177;  138.575;   31.000;   79.000
448.299;   64.200; -935.000; -727.000
448.420;   17.300;  -25.000;  159.000
448.542;  -51.225;   -3.000;   33.000
448.664;  -15.150;  109.000;  322.000
448.785;  -57.000;  265.000;   83.000
448.907;  -82.050; -614.000; -353.000
449.028;  -55.675; -771.000; -471.000
449.150;   73.200;  492.000;  589.000
449.272; -182.875;-1044.000; -913.000
449.393;   37.450;  612.000;  694.000
449.515; -142.725; -634.000; -581.000
449.636;  -52.500; -264.000; -155.000
449.758;   66.825;  763.000;  622.000
449.879;  -83.325; -498.000; -396.000
450.001;  -84.050; -149.000;  -49.000
450.122;  -39.175;  -95.000;  162.000
450.244;  -37.550;   37.000;  364.000
450.365;  -92.000; -495.000; -301.000
450.486;  -38.900;   80.000;  268.000
450.608;   24.525;  393.000;  326.000
450.729;   78.225;  578.000;  645.000
450.850;    0.025; -574.000; -466.000
450.972;  760.650; -552.000; -389.000
451.093; 4963.300;  190.000;  588.000
451.214; 2129.125; -516.000; -337.000
451.336;  380.325;  773.000;  579.000
451.457;   66.125;  264.000;  393.000
451.578;  -38.750; -118.000;  -74.000
451.699; -118.950; -546.000; -540.000
451.821;  -63.675; -284.000;  -50.000
451.942;   -6.250;  278.000;  285.000
452.063;   32.050;  228.000;  419.000
452.184;  551.000;  -54.000;  -49.000
452.305; 1089.900;  103.000;  170.000
452.427;  113.500; -549.000; -301.000
452.548;  -10.175;   23.000;   79.000
452.669;  -60.325; -257.000;  -89.000
452.790;  -47.775;    3.000;  -18.000
452.911;   -3.050;  195.000;  259.000
453.032;  -59.325; -289.000;  -60.000
453.153;  -59.050;  -29.000;   81.000
453.274;   58.800;  737.000;  868.000
453.395;  -56.750;  -51.000;  175.000
453.516;  141.500; 1317.000; 1388.000
453.637;  -59.850; -205.000; -150.000
453.758;  -56.850;   15.000;   69.000
453.879; -125.175; -462.000; -250.000
454.000;   79.400; 1086.000;  948.000
454.121; -132.450; -554.000; -326.000
454.242; -116.900; -599.000; -383.000
454.362;  -62.300;  -99.000;  114.000
454.483;  -35.525; -309.000; -229.000
454.604;   67.875;  512.000;  580.000
454.725; -121.375; -627.000; -555.000
454.846; -129.300; -474.000; -406.000
454.967;  -21.725;  230.000;  539.000
455.087;  -51.525;  179.000;  153.000
455.208;   24.100;  554.000;  856.000
455.329;  -65.250;  -22.000;   82.000
455.450;   42.950;  473.000;  633.000
455.570;  -90.800; -234.000; -211.000
455.691;  -43.825;  201.000;  407.000
455.812; -103.850; -270.000;  -92.000
455.932;  -61.375;  107.000;  -97.000
456.053;  -87.150;   36.000;   24.000
456.173; -105.725; -433.000; -355.000
456.294; -140.975; -476.000; -303.000
456.415;  -77.275;  -73.000;   70.000
456.535;  -48.250;  297.000;  273.000
456.656;  -48.725;  132.000;  240.000
456.776;  -72.075;    3.000;  298.000
456.897;   -6.550;  308.000;  513.000
457.017;  -75.375; -153.000;   -3.000
457.138; -112.450; -402.000; -249.000
457.258;  -24.700;  263.000;  224.000
457.379;  -28.300;  509.000;  521.000
457.499;  -34.450;  443.000;  432.000
457.620; -121.925; -407.000; -231.000
457.740; -109.575; -132.000;  -11.000
457.860;  -61.675;   87.000;   44.000
457.981;  -56.550;  132.000;  124.000
458.101;  -85.100;  -89.000;   40.000
458.221;  -26.775;  336.000;  402.000
458.342;  -59.650;   -4.000;  -37.000
458.462;    8.525;  617.000;  352.000
458.582;  -34.350; -302.000; -294.000
458.703;   19.500;  303.000;  154.000
458.823;  -19.500;   22.000;  163.000
458.943;   21.825;  341.000;  467.000
459.063;  -34.150; 1124.000;  192.000
459.183;  -24.150;  328.000;  313.000
459.304;   18.325;  315.000;  517.000
459.424;  -78.625; -246.000;  -89.000
459.544;  335.025;  388.000;  764.000
459.664;  839.275;  499.000;  506.000
459.784;  322.350; 1004.000; 1175.000
459.904;   55.725;  867.000;  744.000
460.024;   73.100;  867.000;  684.000
460.144;    4.925;  449.000;  554.000
460.264;   -0.950;  515.000;  327.000
460.385; -101.150; -145.000; -119.000
460.505;   42.200;  905.000;  858.000
460.625;  -95.600;  -17.000;  -68.000
460.745;  -16.600;  396.000;  541.000
460.864;  -60.775;  153.000;  469.000
460.984;    8.425;  499.000;  573.000
461.104;  130.750; 1656.000; 1775.000
461.224;   21.450;  657.000;  650.000
461.344;  -31.725;  431.000;  360.000
461.464;  -35.250;  258.000;  513.000
461.584;  -21.400;  283.000;  466.000
461.704;  -43.175;   58.000;  108.000
461.824;  -64.025;  238.000;  259.000
461.943;  -39.625;  191.000;  130.000
462.063;  -68.450;    2.000;  324.000
462.183;   35.500;  639.000;  717.000
462.303;   96.475; 1678.000; 1230.000
462.422;   24.400;  781.000;  840.000
462.542;  -39.325;  271.000;  391.000
462.662;   30.100;  353.000;  380.000
462.782;  237.550;  833.000;  572.000
462.901;  476.700;  545.000;  717.000
463.021;  274.375; 1702.000; 1638.000
463.141;  -18.200;  337.000;  770.000
463.260;  -26.075;  614.000;  474.000
463.380;   19.525;  902.000;  884.000
463.499;  -37.900;  342.000;  332.000
463.619;  -39.150;  581.000;  559.000
463.738;  124.925; 1644.000;  903.000
463.858;   22.500;  657.000;  811.000
463.978;  -51.525;  542.000;  396.000
464.097;   45.575;  921.000; 1114.000
464.217;   97.125; 1196.000; 1143.000
464.336;  116.375; 1068.000; 1130.000
464.455;  -29.300;  328.000;  659.000
464.575;   52.750;  597.000;  602.000
464.694;  164.150; 1204.000; 1179.000
464.814;  112.600; 1190.000; 1138.000
464.933;   53.875; 1095.000; 1027.000
465.052;  111.475; 1412.000; 1054.000
465.172;   67.500;  922.000;  799.000
465.291;  127.600; 1376.000; 1320.000
465.410;   20.875;  462.000;  735.000
465.530;   84.450; 1355.000; 1310.000
465.649;   66.150; 1209.000; 1273.000
465.768;  136.925; 1673.000; 1508.000
465.888;   38.900;  941.000; 1174.000
466.007;  106.325; 1335.000; 1440.000
466.126;   -3.975;  721.000;  641.000
466.245;   47.700; 1176.000; 1187.000
466.364;   25.675;  950.000; 1060.000
466.484;   63.025; 1024.000; 1213.000
466.603;   41.300; 1101.000; 1222.000
466.722;  122.375; 1490.000; 1769.000
466.841;   77.750; 1151.000; 1401.000
466.960;   32.325; 1069.000;  972.000
467.079;  120.750; 1971.000; 1786.000
467.198;   44.350; 1238.000; 1181.000
467.317;   92.750; 1768.000; 1162.000
467.436;   76.475; 1709.000; 1261.000
467.555;  114.000; 1796.000; 1746.000
467.674;   73.300; 1227.000; 1329.000
467.793;   38.675; 1376.000; 1374.000
467.912;  100.300; 1658.000; 1539.000
468.031;  129.375; 2038.000; 1930.000
468.150;  157.925; 1842.000; 1837.000
468.269;  196.675; 2313.000; 2090.000
468.388;  207.225; 2168.000; 2339.000
468.507;  263.425; 2884.000; 2903.000
468.626;  238.500; 2555.000; 2541.000
468.744;  147.425; 2018.000; 2174.000
468.863;  194.175; 2312.000; 2523.000
468.982;   78.175; 1503.000; 1555.000
469.101;  221.675; 2788.000; 2692.000
469.220;  153.175; 2333.000; 2176.000
469.338;  262.475; 2935.000; 3051.000
469.457;  187.650; 2719.000; 2545.000
469.576;  358.200; 3953.000; 3784.000
469.695;  245.150; 2877.000; 3066.000
469.813;  435.175; 4148.000; 4192.000
469.932;  414.750; 4255.000; 4485.000
470.051;  419.650; 4075.000; 4161.000
470.169;  881.025; 4470.000; 4338.000
470.288; 1508.025; 4700.000; 4809.000
470.406;  878.025; 5059.000; 5194.000
470.525;  648.175; 6101.000; 5787.000
470.644;  659.350; 6847.000; 6794.000
470.762;  824.075; 8397.000; 7873.000
470.881;  921.000; 8651.000; 8464.000
470.999; 1036.125; 9685.000; 9151.000
471.118; 1101.825;11174.000;10711.000

