
Integration time [ms]: 100.000
Averaging Nr. [scans]: 40
Smoothing Nr. [pixels]: 0
Data measured with spectrometer [name]: 2101012U2
Wave   ;Sample   ;Dark     ;Reference
[nm]   ;[counts] ;[counts] ;[counts] 

197.733;   61.000;  516.000;  404.000
197.879;  -87.375; -610.000; -634.000
198.025;  -51.225; -475.000; -420.000
198.171;  -70.375; -602.000; -612.000
198.317;  -29.275; -401.000; -316.000
198.463;  -55.975; -655.000; -404.000
198.609;   33.525;  181.000; -137.000
198.755;  -66.975; -644.000; -410.000
198.901;  -66.700; -505.000; -424.000
199.047;  -73.150; -615.000; -488.000
199.193;  -50.425; -230.000; -468.000
199.339;  -39.150; -222.000; -369.000
199.485;   33.925;  330.000;  271.000
199.631;   19.100;  227.000;  310.000
199.777;  -47.050; -466.000; -398.000
199.923;  -62.950; -610.000; -424.000
200.069;  -11.675; -141.000;  -58.000
200.215;   59.000;  128.000;  453.000
200.361;   45.400;  243.000;  477.000
200.507;  -51.975; -600.000; -373.000
200.653;  -34.850; -371.000; -194.000
200.798;  -36.150; -215.000; -125.000
200.944;   -7.625; -146.000;  -41.000
201.090;   25.925;   61.000;  222.000
201.236;  -17.075; -116.000; -158.000
201.382;  118.100;  874.000;  903.000
201.528;   -4.375;  -58.000;  -48.000
201.674;  -55.975; -386.000; -293.000
201.819;  -60.575; -540.000; -439.000
201.965;  -89.525; -699.000; -447.000
202.111;  -25.500; -273.000; -226.000
202.257;  -35.700; -250.000; -238.000
202.402;   15.025;   13.000;  -36.000
202.548;  -29.875; -169.000; -116.000
202.694;   72.300;  410.000; -183.000
202.840;  -61.950; -603.000; -531.000
202.985;  -67.325; -681.000; -639.000
203.131; -116.350; -832.000; -666.000
203.277;  -21.600; -199.000; -262.000
203.423;  -60.775; -434.000; -520.000
203.568;  -38.275; -462.000; -237.000
203.714;  -57.025; -535.000; -542.000
203.860;  -77.175; -682.000; -641.000
204.005;    4.575;  112.000;  167.000
204.151;   84.825;  561.000;  556.000
204.296;  -44.250; -354.000; -221.000
204.442;  -67.750; -600.000; -547.000
204.588;  -73.250; -592.000; -579.000
204.733;   29.875;  178.000;  168.000
204.879; -131.075;-1018.000; -822.000
205.025;    6.100;  -99.000;  126.000
205.170;    3.025;  -17.000;   94.000
205.316;   86.100;  438.000;  661.000
205.461;  -84.450; -698.000; -554.000
205.607;  100.075;  609.000;  665.000
205.752;  -81.250; -626.000; -551.000
205.898;  -41.075; -501.000; -391.000
206.043;  -68.250; -578.000; -506.000
206.189;  -43.825; -243.000; -285.000
206.334;   92.325;  554.000;  606.000
206.480;   73.575;  409.000;  239.000
206.625;  -90.575; -529.000; -552.000
206.771;  -42.200; -451.000; -373.000
206.916;  -35.150; -210.000; -537.000
207.062;  -66.825; -545.000; -591.000
207.207;  -66.825; -546.000; -443.000
207.353;   50.275;  185.000;  460.000
207.498;   13.700;  196.000;   85.000
207.643;  -53.750; -501.000; -370.000
207.789; -136.250;-1069.000; -910.000
207.934; -100.750; -665.000; -713.000
208.080;  -15.050; -154.000;   66.000
208.225;   -9.175;  -22.000;  -57.000
208.370;  -80.325; -727.000; -619.000
208.516;  -77.300; -741.000; -487.000
208.661;  -30.525; -127.000;  -69.000
208.806;  -20.025; -165.000; -171.000
208.952; -121.425;-1044.000; -731.000
209.097;   72.450;  378.000;  349.000
209.242;  -53.000; -307.000; -382.000
209.387;   65.200;  392.000;  350.000
209.533;  -54.575; -321.000; -350.000
209.678;   77.950;  472.000;  543.000
209.823;  -50.925; -408.000; -310.000
209.969; -102.850; -860.000; -757.000
210.114; -104.950; -907.000; -719.000
210.259; -107.475; -939.000; -889.000
210.404;   -0.350; -171.000;  103.000
210.549;    9.550;  108.000;    3.000
210.695;   -8.700;   -3.000;  -95.000
210.840;   35.100;   94.000;   67.000
210.985;  -64.900; -484.000; -303.000
211.130;   72.475;  268.000;  406.000
211.275;   24.575;  207.000;  199.000
211.420;  -44.100; -300.000; -289.000
211.566;  -75.650; -536.000; -489.000
211.711;   21.325;  218.000;  157.000
211.856;  -66.775; -545.000; -519.000
212.001;    4.675;  151.000;   44.000
212.146;   26.800;  153.000;   49.000
212.291;  -28.000; -210.000; -186.000
212.436;  -30.500; -280.000;   -6.000
212.581;  -79.850; -685.000; -653.000
212.726;  -65.200; -487.000; -538.000
212.871;  -39.025; -552.000; -217.000
213.016; -148.300;-1172.000;-1029.000
213.161;   62.850;  406.000;  291.000
213.306;  -76.575; -435.000; -577.000
213.451; -104.375; -778.000; -689.000
213.596;  -45.825; -455.000; -347.000
213.741;  -59.825; -448.000; -538.000
213.886;  -74.250; -498.000; -517.000
214.031;  -13.575; -294.000; -124.000
214.176;  -44.675; -408.000; -341.000
214.321;  -22.550; -296.000; -157.000
214.466;  -22.650; -163.000;  -43.000
214.611;   -6.275;  -61.000;  -10.000
214.756; -121.100; -948.000; -858.000
214.901;  -23.575; -388.000; -226.000
215.046; -126.550; -797.000; -825.000
215.191;    1.950;  128.000;   35.000
215.336;   -8.800; -157.000;  -19.000
215.480;  -70.200; -684.000; -505.000
215.625;  -21.850; -175.000;  -19.000
215.770;  -72.975; -757.000; -662.000
215.915;    3.125;   -5.000;  -97.000
216.060;  -11.100; -113.000;  -21.000
216.205; -102.625; -731.000; -779.000
216.349;  -67.325; -470.000; -533.000
216.494; -136.825; -939.000; -867.000
216.639; -120.600; -823.000; -888.000
216.784;  -88.200; -577.000; -525.000
216.929;   48.025;  392.000;  281.000
217.073;   -3.000; -244.000;  -31.000
217.218;    9.175;   78.000;  -47.000
217.363;  -96.775; -656.000; -618.000
217.507;  -81.825; -623.000; -588.000
217.652; -122.750; -845.000; -874.000
217.797;  -91.425; -708.000; -659.000
217.942; -109.125; -856.000; -720.000
218.086;   67.650;  608.000;  539.000
218.231;  -28.000; -174.000;  -26.000
218.376;  -30.575; -337.000; -229.000
218.520;   -3.800;  -41.000;   96.000
218.665;  -31.775; -338.000; -204.000
218.810;  -48.825; -275.000; -233.000
218.954;   19.150;  201.000;   35.000
219.099; -108.700; -713.000; -963.000
219.243;  -75.625; -589.000; -554.000
219.388;  -29.475; -264.000; -136.000
219.532;  -11.225; -116.000; -116.000
219.677;  -79.300; -564.000; -521.000
219.822;    5.750;   33.000;   89.000
219.966;  -16.550;   17.000;  -99.000
220.111;  -36.125; -328.000;  -40.000
220.255; -105.875; -797.000; -750.000
220.400;  -15.950; -180.000; -146.000
220.544;  -66.325; -516.000; -450.000
220.689;  -67.900; -422.000; -451.000
220.833;  -25.750; -123.000;  -58.000
220.978;  -46.225; -393.000; -563.000
221.122;   14.775;  319.000;  307.000
221.267; -106.325; -906.000; -837.000
221.411;  -55.050; -478.000; -394.000
221.555;  -16.325; -104.000;  -23.000
221.700;  -49.325; -329.000; -222.000
221.844;   34.600;  255.000;  272.000
221.989;  -33.725; -328.000; -311.000
222.133;  -40.975; -289.000; -307.000
222.277;   -8.000;    5.000;   78.000
222.422;   12.625;  227.000;  113.000
222.566;  -46.050; -381.000; -214.000
222.711;  -62.250; -414.000; -479.000
222.855;  -71.850; -643.000; -586.000
222.999;  -87.150; -642.000; -717.000
223.144;  -28.300; -195.000; -194.000
223.288;   59.800;  423.000;  251.000
223.432;   33.450;  184.000;  230.000
223.576;   18.075;  152.000;  -21.000
223.721;   33.925;  364.000;  273.000
223.865;  -60.650; -472.000; -475.000
224.009;  265.225; 1673.000; 1631.000
224.153;  -80.375; -660.000; -671.000
224.298;  -55.400; -531.000; -489.000
224.442;    3.250;  -74.000;  -33.000
224.586;  -16.350; -169.000; -106.000
224.730;  -99.225; -858.000; -670.000
224.875; -110.925; -739.000; -688.000
225.019;   23.475;  102.000;  188.000
225.163;   58.325;  208.000;  341.000
225.307;   21.375;   97.000;  -91.000
225.451;   59.575;  360.000;  481.000
225.595;   25.525;  264.000;  176.000
225.739;   -6.600; -170.000;  -94.000
225.884;    9.425;   86.000;    5.000
226.028;  -99.000; -760.000; -626.000
226.172;  -36.725; -260.000; -273.000
226.316; -115.775; -941.000; -902.000
226.460;  -57.875; -645.000; -493.000
226.604;  -47.325; -406.000; -400.000
226.748; -102.750; -836.000; -733.000
226.892;  -41.500; -227.000; -181.000
227.036;  -52.275; -537.000; -447.000
227.180;  -52.975; -551.000; -375.000
227.324;  -60.075; -561.000; -580.000
227.468; -107.775; -819.000; -717.000
227.612;    7.350;  242.000;  -28.000
227.756; -100.550; -845.000; -698.000
227.900;   63.350;  342.000;  441.000
228.044;  -64.950; -509.000; -290.000
228.188;   60.400;  448.000;  568.000
228.332;  -80.125; -546.000; -472.000
228.476;  -21.625; -223.000; -149.000
228.620;  -35.825; -210.000; -150.000
228.764;   60.925;  431.000;  349.000
228.908;  -23.000; -155.000;   30.000
229.052;  -57.675; -615.000; -528.000
229.195;  -10.300; -172.000;   13.000
229.339;  -30.600; -235.000; -305.000
229.483;  -22.725;    5.000; -162.000
229.627;  -11.600; -156.000;  139.000
229.771;  -52.975; -218.000; -294.000
229.915;    9.450;  230.000;   79.000
230.059;  -85.450; -648.000; -663.000
230.202;  -39.675; -370.000; -317.000
230.346;  -15.750; -107.000;  107.000
230.490;  -60.150; -489.000; -521.000
230.634; -105.225; -736.000; -553.000
230.777;   75.000;  478.000;  509.000
230.921;  -50.950; -450.000; -359.000
231.065;  -47.750; -246.000; -286.000
231.209;   12.775;  261.000;  265.000
231.352;   26.825;   54.000;   40.000
231.496;   23.700;  568.000;  188.000
231.640;  -87.350; -693.000; -621.000
231.783;   71.800;  546.000;  525.000
231.927;  -41.275; -294.000; -365.000
232.071; -111.550; -962.000; -736.000
232.214; -113.075; -980.000; -764.000
232.358; -101.400; -683.000; -599.000
232.502;    0.575;  -19.000;    7.000
232.645; -141.375;-1090.000; -927.000
232.789;  -17.075; -257.000; -218.000
232.933;  -35.650; -407.000; -224.000
233.076; -123.900;-1038.000; -897.000
233.220; -111.975; -752.000; -777.000
233.363;  -81.275; -669.000; -477.000
233.507;   58.725;  371.000;  129.000
233.650;  -98.325; -764.000; -834.000
233.794;   47.475;  438.000;  461.000
233.938;  -55.925; -530.000; -362.000
234.081;  -11.925;  -93.000;   31.000
234.225;  -65.850; -631.000; -539.000
234.368; -111.900; -773.000; -723.000
234.512;  -36.400; -385.000; -299.000
234.655;  -94.575; -582.000; -555.000
234.798;  -63.350; -493.000; -466.000
234.942; -137.700; -884.000;-1002.000
235.085;  -80.700; -651.000; -443.000
235.229;  -68.375; -405.000; -410.000
235.372;  -47.550; -247.000; -191.000
235.516;  -65.200; -397.000; -321.000
235.659;   27.850;   92.000;  121.000
235.802;  -14.425;  -38.000;  -22.000
235.946;   30.450;  335.000;  215.000
236.089;   30.750;  126.000;  250.000
236.233;   63.650;  275.000;  298.000
236.376;  -52.925; -235.000; -378.000
236.519;  -43.950; -297.000; -319.000
236.663;  -22.700; -215.000; -117.000
236.806; -127.475;-1029.000; -999.000
236.949;   46.675;  543.000;  431.000
237.092;   54.725;  412.000;  391.000
237.236;  -88.925; -589.000; -502.000
237.379;   62.100;  352.000;  428.000
237.522; -105.950; -879.000; -768.000
237.666;  -27.800; -271.000;   18.000
237.809; -132.850; -851.000; -823.000
237.952;   35.325;  469.000;  271.000
238.095;  -66.775; -447.000; -442.000
238.238;   89.300;  688.000;  700.000
238.382;  -14.950;  166.000;  103.000
238.525;  -74.575; -598.000; -511.000
238.668; -149.675;-1060.000; -985.000
238.811;  -82.200; -638.000; -643.000
238.954;  -58.700; -483.000; -334.000
239.097;   84.375;  617.000;  664.000
239.241;   25.575;  394.000;  326.000
239.384;  -24.650; -254.000; -214.000
239.527;  -66.600; -424.000; -224.000
239.670; -156.525; -994.000;-1091.000
239.813; -120.525; -696.000; -658.000
239.956;   70.775;  579.000;  473.000
240.099; -124.300; -778.000; -725.000
240.242;   67.300;  428.000;  432.000
240.385;   62.625;  466.000;  450.000
240.528;  -80.300; -706.000; -473.000
240.671;   28.900;  189.000;  134.000
240.814;  -38.050; -441.000; -158.000
240.957; -100.125; -767.000; -578.000
241.100;  -93.300; -779.000; -755.000
241.243; -147.050;-1234.000; -893.000
241.386;  -64.725; -508.000; -379.000
241.529;  -88.500; -735.000; -547.000
241.672;  -64.025; -566.000; -495.000
241.815; -121.250; -832.000; -808.000
241.958;  -20.925; -125.000; -182.000
242.101;  -66.700; -545.000; -390.000
242.244;  -48.475; -270.000; -325.000
242.387;  -32.000; -304.000; -246.000
242.530;   52.275;  470.000;  134.000
242.673;  -58.950; -381.000; -309.000
242.815; -115.275; -925.000; -899.000
242.958;  -70.550; -482.000; -381.000
243.101;   15.600;  132.000;  187.000
243.244;  -80.000; -564.000; -521.000
243.387;  -51.550; -313.000; -316.000
243.530; -101.325; -657.000; -674.000
243.672;   -2.725;   43.000;  -92.000
243.815;  -59.225; -355.000; -283.000
243.958;   -1.300;   98.000;  -26.000
244.101;   -2.700;   59.000;  -16.000
244.243;   -4.525;  -47.000;  101.000
244.386; -110.575; -761.000; -630.000
244.529;  -30.825; -132.000; -139.000
244.672; -157.475;-1154.000; -951.000
244.814;  -96.200; -621.000; -794.000
244.957;  -39.350; -380.000; -304.000
245.100;  -65.300; -489.000; -489.000
245.242;  -59.400; -387.000; -374.000
245.385;  -12.650;  -59.000;  -39.000
245.528; -121.800; -871.000; -705.000
245.670;   82.350;  612.000;  634.000
245.813;  -86.150; -599.000; -547.000
245.956;  -29.900; -324.000; -275.000
246.098;  -81.900; -508.000; -650.000
246.241;   15.425;  194.000;   48.000
246.383;  -27.700; -119.000;  -73.000
246.526;  -79.775; -454.000; -525.000
246.669; -114.700; -889.000; -780.000
246.811;   13.950;  172.000;   -1.000
246.954;  -63.850; -512.000; -426.000
247.096;  -22.800;  -84.000;   -6.000
247.239;  -63.100; -482.000; -445.000
247.381;  -65.875; -647.000; -488.000
247.524;   95.300;  645.000;  679.000
247.666;   -3.850;   58.000;   11.000
247.809; -115.825; -887.000; -691.000
247.951;    6.750;  -75.000;  138.000
248.094;   39.550;  432.000;  308.000
248.236; -160.100;-1262.000;-1238.000
248.378;   -3.725; -356.000;  -81.000
248.521;  -16.425; -334.000; -337.000
248.663;  -40.625; -236.000; -267.000
248.806;  -24.475; -300.000; -266.000
248.948;  -94.825; -886.000; -763.000
249.090;  -43.575; -428.000; -398.000
249.233;  -49.125; -344.000; -381.000
249.375;  -54.900; -474.000; -451.000
249.518;  -13.575;  -83.000; -133.000
249.660;    5.250; -103.000;    3.000
249.802; -163.050;-1303.000;-1189.000
249.945;  -84.075; -612.000; -540.000
250.087; -105.900; -834.000; -768.000
250.229;  -43.375; -362.000; -480.000
250.371;  -79.425; -494.000; -439.000
250.514;  -51.400; -310.000; -244.000
250.656;   -1.575;   69.000;  102.000
250.798; -121.725; -849.000; -800.000
250.940;  -64.225; -322.000; -322.000
251.083;  -20.725; -335.000; -111.000
251.225;   50.525;  338.000;  310.000
251.367;  -39.500; -274.000; -373.000
251.509;  -32.400; -265.000; -210.000
251.651;  -93.150; -731.000; -671.000
251.794;   65.400;  538.000;  632.000
251.936; -110.775; -821.000; -747.000
252.078;  -75.175; -540.000; -461.000
252.220;  -88.625; -645.000; -477.000
252.362;   84.475;  344.000;  462.000
252.504;  -64.600; -677.000; -584.000
252.646; -106.525; -875.000; -722.000
252.788;    7.200;   14.000; -128.000
252.931;  -26.775; -257.000; -253.000
253.073;  -38.125; -376.000; -317.000
253.215;  -12.125;  141.000;  122.000
253.357;   -5.750;   82.000; -153.000
253.499;  -48.075; -374.000; -234.000
253.641;  -93.775; -749.000; -594.000
253.783;  -92.575; -609.000; -527.000
253.925;  -95.725; -586.000; -591.000
254.067; -111.900; -744.000; -667.000
254.209;  -16.775; -391.000; -259.000
254.351; -143.425; -865.000; -883.000
254.493;  -50.700; -441.000; -417.000
254.635; -129.200; -936.000; -818.000
254.777;  -79.750; -752.000; -687.000
254.918;  -63.175; -512.000; -430.000
255.060;  -49.350; -551.000; -395.000
255.202;  -55.400; -473.000; -261.000
255.344;  -84.700; -658.000; -455.000
255.486;  -71.025; -471.000; -406.000
255.628; -108.050; -780.000; -781.000
255.770;  -86.975; -676.000; -536.000
255.912;  -61.750; -559.000; -468.000
256.053;  -87.700; -730.000; -508.000
256.195;  150.475; 1008.000;  903.000
256.337; -104.350; -861.000; -595.000
256.479;   71.000;  532.000;  416.000
256.621;  -55.725; -394.000; -212.000
256.762; -100.625; -789.000; -742.000
256.904;   61.100;  485.000;  487.000
257.046;  -48.675; -381.000; -271.000
257.188;  -41.200; -351.000; -264.000
257.329;  -77.575; -525.000; -464.000
257.471; -111.525; -939.000; -807.000
257.613;  -66.275; -584.000; -498.000
257.755; -146.650;-1073.000; -982.000
257.896;   36.950;  286.000;  392.000
258.038;  -67.200; -403.000; -352.000
258.180;  -38.925; -354.000; -279.000
258.321;  -91.575; -581.000; -457.000
258.463;  -18.400;  -71.000;  133.000
258.605;  -80.600; -562.000; -570.000
258.746;  -95.775; -886.000; -772.000
258.888; -149.550;-1026.000;-1020.000
259.029;   10.850;  121.000;   -8.000
259.171;  -77.925; -614.000; -550.000
259.313;   -1.175;  -49.000;  -47.000
259.454;  -72.725; -536.000; -414.000
259.596;  -68.325; -483.000; -390.000
259.737;  -74.325; -590.000; -474.000
259.879;   29.450;  217.000;  311.000
260.020;  109.425;  901.000;  636.000
260.162;  -34.925; -146.000; -253.000
260.303; -111.000; -768.000; -687.000
260.445;  -79.700; -609.000; -613.000
260.586;   21.075;  392.000;  157.000
260.728;  -28.050; -360.000; -248.000
260.869; -119.650; -350.000; -343.000
261.011;   80.500;  706.000;  537.000
261.152;  -56.050; -479.000; -319.000
261.293;  -65.400; -576.000; -595.000
261.435;  -30.350; -219.000; -184.000
261.576;  -53.225; -455.000; -325.000
261.718;   46.850;  420.000;  470.000
261.859; -129.075; -940.000; -949.000
262.000; -130.375; -951.000;-1016.000
262.142;  -18.975;  -52.000;  -60.000
262.283; -108.475; -808.000; -691.000
262.424;  -85.900; -666.000; -625.000
262.566; -150.750;-1161.000; -983.000
262.707; -113.275; -840.000; -830.000
262.848; -127.625; -769.000; -726.000
262.990;  -43.050; -362.000; -345.000
263.131;   81.725;  650.000;  681.000
263.272;   -7.125;  -61.000;  -41.000
263.413;  -91.175; -589.000; -561.000
263.555;  -68.150; -669.000; -143.000
263.696;  -70.875; -550.000; -641.000
263.837;  -61.825; -449.000; -551.000
263.978;   -7.975;   -5.000;  -77.000
264.119;  -50.500; -283.000; -264.000
264.261; -110.175; -847.000; -630.000
264.402;    5.675;   33.000;   40.000
264.543;  -69.625; -509.000; -524.000
264.684;   -5.750;   61.000;  -50.000
264.825;  -75.225; -816.000; -538.000
264.966;   -4.200;  -84.000;  -67.000
265.107; -107.375; -646.000; -670.000
265.248; -113.800; -825.000; -812.000
265.390;   -1.025;  152.000;   -9.000
265.531;  -21.300; -238.000; -107.000
265.672;  -83.000; -557.000; -630.000
265.813;   53.525;  563.000;  439.000
265.954; -140.550; -959.000; -940.000
266.095;  -20.425; -372.000; -322.000
266.236; -100.225; -686.000; -548.000
266.377;  -44.525; -243.000; -297.000
266.518;  -70.250; -619.000; -547.000
266.659;   22.650;  170.000;  268.000
266.800;    8.275;   83.000;   85.000
266.941;  -71.125; -487.000; -478.000
267.082;    4.900;  354.000;   99.000
267.223;  -52.300; -344.000; -273.000
267.364; -123.825; -892.000; -686.000
267.504;   -9.925;    3.000;  135.000
267.645;    3.350;  160.000;   67.000
267.786;  -34.100; -147.000;  -86.000
267.927;  -71.625; -473.000; -379.000
268.068;  -13.450; -186.000;  -61.000
268.209;  -49.350; -175.000; -413.000
268.350;  -66.200; -388.000; -532.000
268.490;  -68.100; -648.000; -521.000
268.631;   42.850;  127.000;  225.000
268.772; -109.575; -874.000; -647.000
268.913;  -46.775; -328.000; -476.000
269.054;   -9.625; -117.000;   12.000
269.194;  -48.000; -418.000; -402.000
269.335; -163.375;-1137.000;-1074.000
269.476;  -29.650;   33.000;  -35.000
269.617;  -51.100; -347.000; -392.000
269.757;  -83.500; -713.000; -646.000
269.898;  -97.075; -856.000; -613.000
270.039;  -57.900; -415.000; -405.000
270.180; -130.275; -952.000; -816.000
270.320;  -14.100; -190.000; -250.000
270.461;  -22.975; -277.000; -249.000
270.602;  -13.850; -186.000; -156.000
270.742; -117.625; -868.000; -943.000
270.883;  -62.600; -442.000; -390.000
271.023;  -61.275; -358.000; -357.000
271.164;  -73.625; -607.000; -528.000
271.305;  -97.125; -666.000; -654.000
271.445;  -83.750; -722.000; -683.000
271.586;  -59.675; -462.000; -283.000
271.726;  -38.525; -397.000; -322.000
271.867;  -43.900; -594.000; -534.000
272.008;  202.600; -473.000; -285.000
272.148;  122.550;  462.000;  468.000
272.289;   11.950; -113.000; -181.000
272.429;   20.425;   19.000;  185.000
272.570;  -86.500; -633.000; -737.000
272.710; -106.075; -825.000; -775.000
272.851;  -21.650;  113.000; -130.000
272.991; -151.500;-1173.000;-1077.000
273.131;  -64.675; -419.000; -459.000
273.272; -104.800; -683.000; -723.000
273.412;   23.050; -143.000;  -31.000
273.553;  -50.250; -488.000; -507.000
273.693;  135.550;  913.000;  858.000
273.834;  -72.700; -894.000; -692.000
273.974;  -68.800; -664.000; -615.000
274.114;  -89.950; -772.000; -560.000
274.255;   92.725;  414.000;  373.000
274.395;   20.200; -180.000; -125.000
274.535;   46.000;  199.000;  350.000
274.676;   30.125;  225.000;   94.000
274.816;    2.825;  110.000;   34.000
274.956;  -88.025; -624.000; -690.000
275.097;  -64.600;-1014.000; -922.000
275.237; -113.350; -913.000; -803.000
275.377;  -96.925; -778.000; -689.000
275.517; -149.950; -878.000; -937.000
275.658;  -42.775; -590.000; -555.000
275.798;  -63.650; -606.000; -413.000
275.938;   25.350;  215.000;  323.000
276.078; -104.675; -626.000; -395.000
276.218;    7.125;   99.000;  104.000
276.359; -118.325;-1026.000;-1024.000
276.499;  -62.925; -605.000; -446.000
276.639;  -20.400; -305.000; -151.000
276.779;  -47.475; -475.000; -357.000
276.919;  -99.925; -783.000; -624.000
277.059;  -18.775; -261.000; -212.000
277.199;  -40.975; -357.000; -259.000
277.340;   58.350;  287.000;  175.000
277.480;  -99.275; -840.000; -693.000
277.620;   18.175;  192.000;   16.000
277.760; -201.175;-1533.000;-1294.000
277.900;   25.050;  113.000;   33.000
278.040;   36.900;  137.000;  159.000
278.180;   44.750;  270.000;  170.000
278.320;    7.800;   21.000;   56.000
278.460;  -66.425; -443.000; -469.000
278.600;  -88.125; -708.000; -598.000
278.740;   49.500;  448.000;  224.000
278.880;  -22.250; -768.000; -791.000
279.020;    7.725; -194.000; -144.000
279.160;  -84.075; -672.000; -595.000
279.300; -116.900; -926.000; -873.000
279.440;  -99.600; -709.000; -622.000
279.579;  -15.825;-1014.000; -929.000
279.719;  -62.250; -410.000; -394.000
279.859;   88.975;   -4.000;   41.000
279.999;   40.775; -208.000;  101.000
280.139;  -14.900; -435.000; -387.000
280.279;  -62.225; -708.000; -745.000
280.419;  -19.850; -229.000; -147.000
280.559;  -21.225; -259.000; -180.000
280.698;  -73.725; -790.000; -639.000
280.838;  -80.800; -778.000; -800.000
280.978;  -92.500; -846.000; -790.000
281.118; -113.000; -811.000; -704.000
281.257;    9.200;   24.000;    6.000
281.397;  -80.675;-1094.000; -960.000
281.537;  -78.600; -599.000; -712.000
281.677;  -17.100; -150.000; -101.000
281.816;  -74.325; -700.000; -630.000
281.956;  -42.650; -193.000; -257.000
282.096;  -53.475; -539.000; -396.000
282.235; -112.350; -672.000; -638.000
282.375;   -8.725; -243.000;  -98.000
282.515;  -92.050; -715.000; -707.000
282.654;   34.725;   29.000;  106.000
282.794;   34.675;  388.000;  244.000
282.934;  -52.750; -530.000; -491.000
283.073; -134.525;-1030.000; -857.000
283.213;  -41.575; -460.000; -467.000
283.353;  -14.225; -408.000; -349.000
283.492;  -29.500; -264.000; -296.000
283.632;  -44.650; -254.000; -168.000
283.771; -103.925; -859.000; -730.000
283.911;  -46.025; -369.000; -260.000
284.050;  -99.300; -794.000; -748.000
284.190; -161.750;-1229.000;-1096.000
284.329; -136.575;-1055.000; -964.000
284.469;  -58.700; -516.000; -591.000
284.608;  -48.275; -559.000; -598.000
284.748;  -86.175; -614.000; -570.000
284.887;   -4.875;  -87.000;  -20.000
285.027; -115.925; -844.000; -892.000
285.166;  -27.400; -192.000; -249.000
285.306;   22.200; -116.000;  -33.000
285.445;  -46.300; -229.000; -343.000
285.584;  -88.100; -630.000; -494.000
285.724;  -28.300; -282.000; -322.000
285.863; -111.875; -857.000; -507.000
286.002;  -44.175; -366.000; -276.000
286.142;  -90.675; -715.000; -622.000
286.281;  -78.775; -525.000; -493.000
286.420;  -80.700; -554.000; -417.000
286.560;  101.300;  653.000;  623.000
286.699; -130.850; -958.000; -912.000
286.838;  -75.725; -590.000; -591.000
286.978;  -80.600; -533.000; -537.000
287.117; -130.425;-1085.000; -950.000
287.256;  -27.950; -228.000; -211.000
287.395;  -41.325; -197.000; -378.000
287.535;  -48.725; -370.000; -298.000
287.674;  -68.100; -509.000; -484.000
287.813;   59.275;  661.000;  533.000
287.952; -121.350;-1010.000; -871.000
288.091; -136.775;-1049.000; -915.000
288.231;   14.500;   13.000;   15.000
288.370; -158.850;-1217.000;-1200.000
288.509;  -87.350; -728.000; -645.000
288.648;  -99.875; -770.000; -548.000
288.787;  -31.325; -243.000;  -87.000
288.926;  -60.100; -454.000; -475.000
289.065;  121.300;  859.000;  672.000
289.204;  -50.650; -377.000; -217.000
289.344;  -76.075; -791.000; -690.000
289.483;   21.150;  416.000;  304.000
289.622;  -29.950; -291.000; -149.000
289.761;  -25.050; -309.000; -166.000
289.900; -115.150; -785.000; -626.000
290.039;  -26.175;  -12.000;  -95.000
290.178;  -36.950; -274.000; -180.000
290.317;  -76.600; -618.000; -479.000
290.456;  -50.050; -463.000; -451.000
290.595; -130.375; -961.000; -833.000
290.734; -140.875; -904.000; -891.000
290.873;  -59.525; -456.000; -420.000
291.011;  -93.850; -833.000; -843.000
291.150;  -95.150; -770.000; -682.000
291.289;  -22.200; -343.000; -110.000
291.428;  -80.025; -599.000; -480.000
291.567;  -56.600; -370.000; -442.000
291.706;   -6.200;  109.000;  154.000
291.845;  -82.300; -597.000; -505.000
291.984; -163.475;-1234.000;-1061.000
292.122;   73.550;  602.000;  582.000
292.261;   46.300;  620.000;  463.000
292.400;    8.000; -144.000;  211.000
292.539; -127.275; -959.000; -813.000
292.678;  -34.175; -325.000; -300.000
292.816; -138.300;-1136.000; -965.000
292.955;  -85.225; -844.000; -684.000
293.094;  -24.850; -173.000; -337.000
293.233;  -56.125; -556.000; -400.000
293.371;  -30.225; -225.000;  -84.000
293.510; -112.650; -866.000; -780.000
293.649; -118.850; -959.000; -924.000
293.787;  -35.750;-1083.000;-1012.000
293.926;    5.750; -113.000;  -32.000
294.065;  -42.050; -379.000; -290.000
294.203;   54.950;  298.000;  406.000
294.342;   35.100;   74.000;  156.000
294.481; 6376.900;51180.000; -836.000
294.619;  -27.675; -425.000; -582.000
294.758; -135.725;-1230.000;-1137.000
294.896;  104.150; -125.000;    5.000
295.035; -124.550;-1040.000;-1006.000
295.174; -112.425;-1082.000; -954.000
295.312;  -38.775; -323.000; -203.000
295.451;    8.050; -307.000; -428.000
295.589;  -52.450; -389.000; -518.000
295.728;   26.000; -292.000; -165.000
295.866;    8.325;  -36.000;  -51.000
296.005;  -67.875; -584.000; -341.000
296.143;  -58.850; -558.000; -596.000
296.282;  -94.000; -957.000; -881.000
296.420;  -93.525; -657.000; -557.000
296.559;  -82.125; -892.000; -633.000
296.697;   69.800; -847.000; -665.000
296.835;  129.500;-1141.000;-1002.000
296.974;   62.275;  -23.000;   39.000
297.112;   47.025; -443.000; -504.000
297.251;  -79.525; -815.000; -755.000
297.389;  141.075; -576.000; -438.000
297.527;   54.875; -145.000;  -83.000
297.666;  -38.100; -486.000; -438.000
297.804;  -48.050; -404.000; -264.000
297.942;   -4.375; -136.000; -161.000
298.081;   -3.700; -183.000;   63.000
298.219;  104.475;  -17.000;  -19.000
298.357;   73.100; -144.000;  -71.000
298.495;   77.275; -810.000; -812.000
298.634;  115.250;  245.000;  219.000
298.772;   91.700; -220.000; -338.000
298.910;  -19.150; -309.000; -182.000
299.048;  -12.300; -130.000; -153.000
299.187;  -21.525; -350.000; -250.000
299.325;   26.550;   52.000;  122.000
299.463;   85.325; -389.000; -299.000
299.601;  164.500; -327.000; -271.000
299.739;  -87.775; -908.000; -883.000
299.877;  -64.350; -791.000; -703.000
300.016;  -19.025;-1095.000; -935.000
300.154;  212.400;  -19.000; -161.000
300.292;   99.400; -428.000; -348.000
300.430;   61.575; -408.000; -291.000
300.568;  -84.025; -940.000; -874.000
300.706;  -30.450; -366.000; -469.000
300.844;  -44.950;-1108.000; -979.000
300.982;  130.075;  246.000;  282.000
301.120;  -96.875; -965.000; -866.000
301.258;  -41.050; -812.000; -705.000
301.396;   46.350;  104.000;  -41.000
301.534;  130.050; -218.000; -293.000
301.672;   26.800; -664.000; -521.000
301.810;   80.325; -613.000; -545.000
301.948;  170.850;   53.000;  149.000
302.086;  765.175; -250.000;  -32.000
302.224; 1191.500; -610.000; -585.000
302.362;   62.075; -558.000; -622.000
302.500;   13.450; -923.000; -893.000
302.638;  131.750;  128.000;  245.000
302.776;   13.050; -352.000; -408.000
302.913;   49.500;  447.000;  236.000
303.051;   15.150;  -86.000;  -23.000
303.189;   81.150;   90.000;  118.000
303.327;  -18.675; -341.000; -256.000
303.465;  -77.175; -832.000; -588.000
303.603;  -84.200; -805.000; -604.000
303.740;  116.525;  417.000;  241.000
303.878;   70.400; -800.000; -759.000
304.016;  -87.075; -915.000; -790.000
304.154;  -97.850;-1123.000;-1152.000
304.291;  -11.325; -505.000; -554.000
304.429;   11.600;  102.000;   74.000
304.567; -110.750; -908.000; -893.000
304.705;  -44.275; -408.000; -515.000
304.842;  150.200; -616.000; -540.000
304.980;   62.875;  215.000;   35.000
305.118;   85.400; -367.000; -365.000
305.255;  -43.200; -945.000; -927.000
305.393;   67.450;  178.000;  239.000
305.531;  -84.500;-1173.000; -956.000
305.668;  -47.175; -663.000; -582.000
305.806;  124.900; -358.000; -439.000
305.943;  153.975; -629.000; -637.000
306.081;   84.275; -378.000; -267.000
306.219; -101.225; -863.000; -748.000
306.356;    3.650;  158.000;   27.000
306.494;  118.350;  981.000;  761.000
306.631;    1.525;  -11.000;  -55.000
306.769;   20.575; -613.000; -485.000
306.906;  -10.800; -284.000; -258.000
307.044;  -49.700; -473.000; -488.000
307.181;  -62.600; -410.000; -332.000
307.319;   14.500;  112.000;   87.000
307.456; -164.000;-1191.000;-1153.000
307.594;  -87.275; -980.000; -727.000
307.731;   -6.725; -371.000; -164.000
307.868;    2.275;  -15.000;   20.000
308.006; -128.200; -961.000; -847.000
308.143;  -55.200; -618.000; -330.000
308.281;  182.725;  -37.000; -254.000
308.418;  -10.800; -748.000; -640.000
308.555;  -64.725; -400.000; -250.000
308.693;  -89.250; -577.000; -573.000
308.830; -101.475; -712.000; -657.000
308.967;   -7.500; -215.000;  -95.000
309.105;  -46.675; -507.000; -396.000
309.242;   38.050; -468.000; -367.000
309.379;  352.450; -577.000; -655.000
309.517;  -48.550; -936.000; -948.000
309.654;  -92.325; -910.000; -734.000
309.791;  -66.250; -662.000; -580.000
309.928;  -96.625; -977.000; -914.000
310.065;  209.200;  819.000;  697.000
310.203;   16.000; -825.000; -850.000
310.340;   19.275; -465.000; -321.000
310.477;  -73.975; -412.000; -516.000
310.614;  -51.000; -383.000; -473.000
310.751;  -72.800; -427.000; -518.000
310.889;  -16.350;    1.000;   11.000
311.026; -147.400;-1161.000; -939.000
311.163;  -43.650; -386.000; -380.000
311.300;  -77.325; -512.000; -479.000
311.437;  -73.775; -658.000; -619.000
311.574; -152.900;-1226.000; -985.000
311.711;  -52.550; -595.000; -433.000
311.848;  -40.400; -380.000; -388.000
311.985;   14.450;  270.000;   93.000
312.122; -109.200; -932.000; -762.000
312.259; -117.250; -941.000; -994.000
312.396;  -84.025; -508.000; -551.000
312.533;  -76.500; -812.000; -790.000
312.670; -115.000;-1070.000; -898.000
312.807;  -33.775; -352.000; -367.000
312.944;  -73.600; -513.000; -611.000
313.081;  -37.150; -150.000; -415.000
313.218; -100.575;-1111.000; -867.000
313.355;   24.925; -531.000; -449.000
313.492;   27.250; -455.000; -292.000
313.629;  132.225;  815.000;  735.000
313.766; -150.750;-1176.000;-1008.000
313.902;   -6.000; -186.000;   21.000
314.039;  -39.575; -372.000; -289.000
314.176;   24.575;  286.000;  192.000
314.313;  -55.050; -569.000; -473.000
314.450;  -81.350; -788.000; -684.000
314.587;  -60.975; -468.000; -480.000
314.723;    5.600;  -78.000;  130.000
314.860;   34.900;  318.000;  332.000
314.997;   28.925;  223.000;  142.000
315.134;  -30.525; -385.000; -368.000
315.270;  -23.425; -480.000; -496.000
315.407; -120.050;-1094.000; -967.000
315.544;  -44.175; -657.000; -538.000
315.681;  -43.325; -681.000; -565.000
315.817;   42.525; -133.000; -176.000
315.954;   43.375; -613.000; -392.000
316.091; -119.625;-1045.000;-1023.000
316.227;  -13.075;  -71.000; -179.000
316.364;    8.700;   23.000;    6.000
316.500;  -43.525; -113.000; -300.000
316.637;  -47.575; -181.000; -302.000
316.774;  -80.550; -625.000; -358.000
316.910;  -85.175; -598.000; -629.000
317.047;  -62.125; -487.000; -351.000
317.183;  -49.100; -435.000; -566.000
317.320;  -21.975; -367.000; -321.000
317.456;  -78.850; -733.000; -805.000
317.593;  -92.625; -598.000; -641.000
317.729;    0.975;  168.000;  -67.000
317.866; -191.675;-1434.000;-1285.000
318.002;  -92.425; -708.000; -948.000
318.139;  -82.650; -883.000; -867.000
318.275;  -96.950;-1003.000; -738.000
318.412;  -53.800; -517.000; -336.000
318.548;  -17.475; -751.000; -720.000
318.685;  -85.625; -985.000; -888.000
318.821;  -92.850; -762.000; -735.000
318.957;  -20.675;   34.000;  -23.000
319.094;   47.575;  297.000;  154.000
319.230;  -40.375; -756.000; -742.000
319.367;  185.950; -471.000; -520.000
319.503;   80.225; -538.000; -436.000
319.639;  -81.175; -877.000; -793.000
319.775;  -48.425; -750.000; -685.000
319.912;  -41.675; -424.000; -519.000
320.048;  -85.425;-1184.000;-1184.000
320.184;   76.675;   59.000;   70.000
320.321;  -67.175; -497.000; -467.000
320.457;   71.550;  475.000;  662.000
320.593;  -54.700; -375.000; -382.000
320.729; -109.575; -732.000; -734.000
320.866;  -69.900; -577.000; -635.000
321.002;  -60.975; -759.000; -809.000
321.138;   -5.750; -135.000; -211.000
321.274;   87.900; -148.000; -115.000
321.410;  -14.000; -585.000; -353.000
321.546;   -5.950;-1011.000; -911.000
321.683;   54.800;  400.000;  185.000
321.819;   10.875;  -48.000; -117.000
321.955; -110.175; -743.000; -722.000
322.091;  -42.775; -585.000; -540.000
322.227;   -6.550; -382.000; -202.000
322.363;  -10.050; -320.000; -215.000
322.499;  -38.275; -343.000; -331.000
322.635;  172.175;  636.000;  443.000
322.771;   42.350; -139.000;   12.000
322.907;  113.525;  129.000;  327.000
323.043;  -10.225; -115.000; -206.000
323.179;  -32.325; -394.000; -363.000
323.315;   77.225; -401.000; -371.000
323.451;  146.750; -328.000; -236.000
323.587;   85.000;  -60.000;  -77.000
323.723;   36.375; -682.000; -601.000
323.859;   -6.925; -258.000;  -76.000
323.995;  -25.650; -467.000; -409.000
324.131; -114.500; -967.000; -892.000
324.267;  -45.475; -254.000; -276.000
324.402; -125.600; -960.000; -983.000
324.538;   -7.675; -279.000; -104.000
324.674;   38.375;  164.000;   77.000
324.810;  177.700;  226.000;  308.000
324.946;   43.650; -810.000; -658.000
325.082;  -56.600; -568.000; -475.000
325.217;  -11.000;  -62.000;   16.000
325.353;  -91.100; -764.000; -659.000
325.489;  -76.925; -540.000; -506.000
325.625;  -70.300; -579.000; -525.000
325.760;   48.975;  517.000;  376.000
325.896;  -30.325; -515.000; -702.000
326.032;  -48.125; -403.000; -352.000
326.168;  -63.800; -462.000; -369.000
326.303;  -58.325; -352.000; -461.000
326.439;  -23.550; -336.000; -276.000
326.575;    4.800; -190.000;  -29.000
326.710;   -2.025; -156.000;  -30.000
326.846;   11.400;  146.000;  103.000
326.982;  -87.475; -530.000; -548.000
327.117;  -69.900; -481.000; -442.000
327.253;  -78.825; -745.000; -742.000
327.388; -156.125;-1137.000;-1153.000
327.524;  -21.350; -811.000; -578.000
327.659;  -18.625;  -58.000;  -22.000
327.795;  -11.275;   69.000;   45.000
327.931;  -83.750; -723.000; -499.000
328.066;   -6.850; -417.000; -276.000
328.202;    4.175;   12.000; -129.000
328.337;  101.625;  957.000;  713.000
328.473;   55.350;  -12.000;  -74.000
328.608;  -19.525; -256.000; -267.000
328.743;  -75.650; -799.000; -664.000
328.879;   26.325;  214.000;  114.000
329.014;  -30.250; -102.000; -122.000
329.150;  -72.100; -358.000; -483.000
329.285;  -69.425; -465.000; -466.000
329.421;  -43.700; -548.000; -246.000
329.556;  -26.025;  -36.000;   85.000
329.691; -106.425; -633.000; -615.000
329.827;  -82.875; -626.000; -480.000
329.962;  -36.800;  131.000; -301.000
330.097;  -93.950; -673.000; -585.000
330.233;  -48.500; -410.000; -223.000
330.368; -122.525; -839.000; -628.000
330.503;  -19.175;    3.000;   98.000
330.638;   12.775;  -93.000; -125.000
330.774;  -53.325; -609.000; -530.000
330.909;  -42.225; -434.000; -244.000
331.044;  -92.400; -714.000; -708.000
331.179; -174.875;-1217.000;-1109.000
331.315;    2.500;   77.000;   20.000
331.450;   29.575;  157.000;  285.000
331.585;  -97.525; -805.000; -706.000
331.720;  -76.750; -510.000; -460.000
331.855;  -20.300;  -35.000; -102.000
331.990;  179.000;   62.000;  138.000
332.126;  119.425; -110.000;   71.000
332.261;  -26.425; -379.000; -265.000
332.396;  -13.275; -135.000; -242.000
332.531;  -91.650;-1074.000;-1031.000
332.666;   15.325; -519.000; -363.000
332.801; -103.300; -726.000; -807.000
332.936;  -19.150; -192.000; -122.000
333.071; -150.400; -870.000; -817.000
333.206;   10.050;  307.000;  379.000
333.341;   34.750;  344.000;  418.000
333.476;  -84.650; -627.000; -623.000
333.611;  -41.150; -251.000; -173.000
333.746;  -31.775; -381.000; -464.000
333.881;  -92.725; -973.000; -935.000
334.016; -113.550; -936.000; -917.000
334.151; -113.425; -746.000; -702.000
334.286;   35.400;  152.000;  186.000
334.421;  -11.150; -125.000; -178.000
334.556;  -59.025; -611.000; -567.000
334.690;  -73.625; -631.000; -577.000
334.825;   68.050;  381.000;   83.000
334.960;  -43.700; -285.000; -413.000
335.095;   13.950;  135.000;  -91.000
335.230;  -82.850; -722.000; -738.000
335.365; -130.250;-1084.000; -990.000
335.499; -119.650;-1108.000;-1037.000
335.634;   35.625;    9.000;  534.000
335.769;  -89.450; -755.000; -720.000
335.904;  -36.875; -603.000; -561.000
336.038;  -31.750; -735.000; -657.000
336.173;  -83.875;-1206.000;-1194.000
336.308;   31.625; -116.000; -189.000
336.443;   33.725; -544.000; -634.000
336.577;  -57.425; -936.000; -787.000
336.712;  102.850;   -4.000;  -12.000
336.847;   -9.450; -724.000; -607.000
336.981;  113.625; -272.000; -208.000
337.116;  349.325;  615.000;  501.000
337.250;  226.500; -434.000; -421.000
337.385;  195.125; -297.000; -208.000
337.520;   49.875; -632.000; -603.000
337.654;  -28.000; -215.000; -126.000
337.789; -122.725; -989.000; -933.000
337.923;  -33.450; -104.000; -205.000
338.058;  -64.000; -673.000; -738.000
338.192;  -12.725; -611.000; -488.000
338.327;  -11.375;  -18.000; -155.000
338.461;  -36.775; -299.000; -469.000
338.596;  -82.800; -780.000; -638.000
338.730;  -92.575; -767.000; -803.000
338.865;   77.950;  -46.000; -140.000
338.999;  -70.850; -846.000; -702.000
339.134;  -26.250; -634.000; -536.000
339.268;    6.675; -741.000; -603.000
339.403;  321.750; -740.000; -775.000
339.537;   54.575; -894.000; -820.000
339.671; -119.500; -829.000; -813.000
339.806;  -68.950; -556.000; -512.000
339.940;    6.375; -261.000; -235.000
340.074;  -75.100; -685.000; -510.000
340.209;  -56.275; -351.000; -230.000
340.343;  -87.175; -517.000; -573.000
340.477;  146.075;  998.000; 1036.000
340.612;  -64.375;-1033.000; -900.000
340.746;  105.075; -199.000; -243.000
340.880;  -55.000; -924.000; -785.000
341.014;  -28.325;  -45.000; -154.000
341.149; -111.825; -756.000; -718.000
341.283;  -92.550; -839.000; -754.000
341.417;  -59.450;-1124.000; -938.000
341.551;  227.750; -768.000; -708.000
341.685;  -19.025; -633.000; -611.000
341.820;  -49.500; -562.000; -493.000
341.954;  -42.875; -218.000; -349.000
342.088; -152.850;-1102.000;-1019.000
342.222;   59.600;  565.000;  618.000
342.356;  -45.775; -395.000; -335.000
342.490;  -73.600; -880.000; -841.000
342.624;  -41.800; -339.000; -242.000
342.758;   16.975; -364.000; -312.000
342.892;  -44.125; -710.000; -585.000
343.026;  -19.625;  -58.000; -116.000
343.160;  -61.600; -426.000; -376.000
343.294;  -71.625; -474.000; -337.000
343.428;    6.800; -488.000; -448.000
343.562;   -9.625; -172.000;  -23.000
343.696;  -25.625; -385.000; -314.000
343.830;    1.250; -362.000; -356.000
343.964;   38.125; -231.000; -168.000
344.098; 1165.975;  199.000;   70.000
344.232;  999.075; -266.000; -127.000
344.366;  100.700; -567.000; -453.000
344.500;  113.600; -665.000; -744.000
344.634;   45.150; -324.000; -164.000
344.768;   11.075; -531.000; -341.000
344.902;   28.750;  278.000;  256.000
345.035;  -60.950; -556.000; -496.000
345.169; -140.875; -933.000; -656.000
345.303;  -16.425; -308.000; -482.000
345.437;  -45.625; -826.000; -717.000
345.571;  -74.275; -675.000; -594.000
345.704;  -72.125; -309.000; -532.000
345.838;   -8.150; -331.000; -284.000
345.972;  -21.950; -543.000; -495.000
346.106;  144.800; -179.000; -190.000
346.239;  439.625; -312.000; -243.000
346.373;   25.750; -343.000; -302.000
346.507; -133.500; -950.000; -962.000
346.640;  205.575;  -30.000;   13.000
346.774;   -4.125; -650.000; -797.000
346.908;  -12.525; -138.000;  -11.000
347.041;  -89.675; -646.000; -593.000
347.175;    3.350;  259.000;   27.000
347.309;  -48.850; -698.000; -628.000
347.442;  -94.300; -883.000; -732.000
347.576;  334.900;  670.000;  668.000
347.709;  289.500; -123.000;  -52.000
347.843;  -69.325; -933.000; -825.000
347.976;   44.075;  235.000;  294.000
348.110; -179.525;-1268.000;-1186.000
348.243; -102.450; -679.000; -772.000
348.377;    9.950;  -26.000;   60.000
348.510;   66.825;  403.000;  540.000
348.644;  -31.525;  -37.000; -159.000
348.777;   13.950;  180.000;  191.000
348.911;  -55.800; -142.000; -112.000
349.044;  207.100;  471.000;  448.000
349.178;  239.100;-1069.000;-1006.000
349.311;  130.925;  141.000;  255.000
349.444;   -5.875; -927.000; -813.000
349.578;   -2.925; -347.000; -200.000
349.711;  -83.750; -959.000; -862.000
349.845;   33.450; -661.000; -591.000
349.978; -133.675;-1224.000;-1137.000
350.111;  -69.600; -546.000; -612.000
350.244;  -77.200; -596.000; -700.000
350.378;   26.850; -392.000; -393.000
350.511;  -73.775; -393.000; -426.000
350.644; -102.025; -808.000; -806.000
350.778;   15.950;  168.000;  104.000
350.911;    2.500;  134.000;  140.000
351.044;  -76.900; -685.000; -615.000
351.177;  -13.700; -321.000; -281.000
351.310;  -11.300;    3.000; -131.000
351.444;  -55.875; -888.000; -788.000
351.577;  143.750;  140.000;   90.000
351.710;  109.125;  593.000;  417.000
351.843;  -19.750; -165.000;  -77.000
351.976;   -5.350;  149.000;  -79.000
352.109;  -78.975; -621.000; -612.000
352.242;   -2.100; -464.000; -419.000
352.376;  -29.250; -580.000; -636.000
352.509;  266.750; -437.000; -356.000
352.642;   61.650; -654.000; -604.000
352.775;   90.750; -141.000;  -98.000
352.908; -102.875; -933.000; -904.000
353.041;  -94.225; -814.000; -824.000
353.174;  -39.125; -551.000; -424.000
353.307;  -68.450; -753.000; -764.000
353.440;   79.950;  541.000;  453.000
353.573;  -92.150; -957.000;-1008.000
353.706;  -36.775; -384.000; -558.000
353.839;   -1.350; -264.000; -220.000
353.971;  -75.300; -657.000; -512.000
354.104;  -71.075; -896.000; -835.000
354.237;  -16.225; -627.000; -662.000
354.370;  -67.100; -846.000; -879.000
354.503; -170.625;-1231.000;-1308.000
354.636;  -36.800; -529.000; -348.000
354.769; -119.200; -937.000; -860.000
354.902;   -2.925; -230.000; -139.000
355.034;  -14.525; -164.000; -220.000
355.167;   -4.975; -262.000; -162.000
355.300;  -91.775;-1061.000; -880.000
355.433;  866.350;  -71.000;  -14.000
355.565; 1310.475; -402.000; -384.000
355.698;  326.325; -356.000; -296.000
355.831;    7.800; -882.000; -801.000
355.964;  132.850; -285.000; -170.000
356.096;  -65.950; -856.000; -843.000
356.229;   46.400; -523.000; -530.000
356.362;  270.900; -373.000; -266.000
356.494;  526.950; -229.000; -162.000
356.627;  577.600;  269.000;  377.000
356.760;  625.075;  120.000;   53.000
356.892;  804.975; -286.000; -601.000
357.025;  815.675;  403.000;  389.000
357.157;  791.950; -167.000; -179.000
357.290;  518.725; -856.000; -713.000
357.423;  189.425; -667.000; -556.000
357.555;  140.750; -217.000; -228.000
357.688;  179.025; -483.000; -364.000
357.820;  561.025; -870.000; -877.000
357.953; 4355.400; -563.000; -589.000
358.085; 1025.850; -632.000; -612.000
358.218; 1687.175;-1131.000; -932.000
358.350;  314.900;  -58.000;  312.000
358.483;  -87.675;-1300.000;-1187.000
358.615;   50.925;-1182.000;-1078.000
358.747;    0.025;-1187.000;-1058.000
358.880;   82.200; -810.000; -744.000
359.012;    3.550; -376.000; -202.000
359.145;  -29.725; -480.000; -511.000
359.277;  102.075; -962.000; -913.000
359.409; 3691.575;  536.000;  231.000
359.542;  972.825; -738.000; -688.000
359.674;   87.950;   46.000;   13.000
359.806;  -61.500; -565.000; -438.000
359.939;  -49.100; -617.000; -516.000
360.071;  -26.300; -583.000; -579.000
360.203;  -15.525; -411.000; -364.000
360.335;   62.325;  164.000;  -16.000
360.468;  213.275; -249.000; -307.000
360.600; 2828.475; -547.000; -454.000
360.732; 2421.675; -546.000; -423.000
360.864;  329.275;-1216.000;-1044.000
360.996;  421.300; -516.000; -554.000
361.129;   83.725; -389.000; -598.000
361.261;   27.125;  110.000; -113.000
361.393;  -27.850; -252.000; -214.000
361.525;   32.475;   94.000;  244.000
361.657;  -21.550; -821.000; -703.000
361.789;   27.250; -139.000; -155.000
361.921;  329.000; -642.000; -593.000
362.053;  318.675;  524.000;  541.000
362.185;   74.500;  288.000;   72.000
362.318;  -68.350; -709.000; -705.000
362.450;  183.175;  294.000;  444.000
362.582;  250.100; -913.000; -870.000
362.714;  -28.900; -353.000; -332.000
362.846;  -86.700; -606.000; -490.000
362.978; -123.575; -941.000; -811.000
363.109;  105.250; -161.000; -260.000
363.241;  587.500; -739.000; -749.000
363.373;  392.300; -649.000; -564.000
363.505;  539.525; -186.000;  -91.000
363.637;  158.175; -787.000; -601.000
363.769; -116.875;-1067.000;-1080.000
363.901;  -64.050; -596.000; -654.000
364.033; -104.875;-1103.000;-1062.000
364.165;    7.525; -283.000; -283.000
364.296;   64.825; -316.000; -177.000
364.428;   41.675;-1344.000;-1220.000
364.560;  -88.550; -679.000; -661.000
364.692;  -57.525; -738.000; -835.000
364.824;  395.900; -588.000; -456.000
364.955;  450.000; -402.000; -564.000
365.087;  654.125;-1097.000; -852.000
365.219;   22.025; -686.000; -816.000
365.351;  -52.425; -526.000; -572.000
365.482;   67.875;  300.000;  240.000
365.614;  -23.375; -402.000; -314.000
365.746;  -88.500; -729.000; -752.000
365.877;  -93.850; -706.000; -672.000
366.009;  220.275;  -35.000;  -62.000
366.141; -103.425;-1249.000;-1134.000
366.272; -101.650; -803.000; -719.000
366.404; -115.100;-1005.000; -874.000
366.535;  -14.750; -139.000;  -12.000
366.667;  -92.600; -644.000; -649.000
366.799;   46.100;  353.000;  203.000
366.930; -104.125; -862.000; -996.000
367.062;  120.825; -639.000; -613.000
367.193;  111.500; -872.000; -842.000
367.325;  -67.725; -580.000; -684.000
367.456;  123.000; -246.000;   31.000
367.588;  142.175; -371.000; -318.000
367.719;   27.800;  -44.000;  -45.000
367.851;   -9.125; -222.000; -241.000
367.982;  -12.575; -875.000; -732.000
368.113;  158.350; -475.000; -358.000
368.245;  -99.450; -960.000; -841.000
368.376;   -7.425; -254.000; -302.000
368.508;  -23.425; -188.000; -263.000
368.639; -119.400;-1166.000;-1034.000
368.770;   14.400; -670.000; -589.000
368.902;  -31.825; -836.000; -926.000
369.033;  -92.700; -906.000; -855.000
369.164;  -65.975; -720.000; -653.000
369.296; -107.000; -452.000; -601.000
369.427;   14.600; -209.000; -144.000
369.558;  -31.925; -593.000; -377.000
369.689;  -89.975; -721.000; -569.000
369.821; -137.950; -951.000; -845.000
369.952;   -9.100;   42.000; -108.000
370.083;  -42.025; -229.000; -108.000
370.214;  -73.375; -735.000; -650.000
370.345;    3.000;   65.000;   81.000
370.477;  -59.300; -810.000; -790.000
370.608;  334.050; -328.000; -264.000
370.739;  -11.350;-1233.000;-1292.000
370.870;  -16.775;-1102.000; -923.000
371.001;  147.525; -378.000; -467.000
371.132;  -50.650; -754.000; -735.000
371.263;  -19.925;  -42.000; -148.000
371.394; -120.350; -841.000; -748.000
371.525;   34.725;  345.000;  225.000
371.657;  -76.850; -808.000; -670.000
371.788;  101.675;  103.000;  199.000
371.919;  240.625; -384.000; -304.000
372.050; 4597.550;  -91.000; -156.000
372.181; 1392.400; -188.000; -294.000
372.311;  492.975;   42.000; -127.000
372.442;   66.675; -457.000; -451.000
372.573;   -0.100; -444.000; -340.000
372.704; -101.175;-1008.000; -980.000
372.835;  125.850; -228.000; -289.000
372.966;  -45.575; -646.000; -554.000
373.097;  -56.400; -575.000; -711.000
373.228;  -12.625; -717.000; -542.000
373.359;  232.050; -824.000; -536.000
373.490; 1269.750; -881.000; -727.000
373.620; 1570.775;-1001.000; -803.000
373.751; 2355.450; -332.000; -396.000
373.882; 1081.750; -663.000; -733.000
374.013;  114.775; -449.000; -262.000
374.143;  -22.725; -581.000; -659.000
374.274;  -79.150; -987.000; -908.000
374.405;  237.150; -388.000; -276.000
374.536;  575.950; -526.000; -387.000
374.666; 1557.950; -759.000; -807.000
374.797;  360.725; -817.000; -868.000
374.928; 1209.225; -710.000; -560.000
375.058; 1197.050; -535.000; -500.000
375.189;  103.125;  -59.000;  -93.000
375.320;  -79.000; -928.000;-1034.000
375.450;  -30.275; -625.000; -616.000
375.581;  -29.525; -526.000; -436.000
375.712;   -9.100; -574.000; -250.000
375.842;  420.600; -438.000; -415.000
375.973;  313.850; -554.000; -513.000
376.103;    3.450; -665.000; -648.000
376.234;  -68.950; -531.000; -552.000
376.364;    1.875; -944.000; -867.000
376.495;  378.325;  925.000;  529.000
376.625;   32.425; -472.000; -485.000
376.756;  142.375; -709.000; -678.000
376.886;  -34.125;-1178.000;-1026.000
377.017;   18.000;-1048.000;-1061.000
377.147;  266.575; -786.000; -782.000
377.278;   55.850;  174.000;  228.000
377.408; -119.250; -801.000; -815.000
377.538;  -95.375; -707.000; -693.000
377.669;  -64.750; -537.000; -613.000
377.799;  -64.700; -645.000; -635.000
377.929;  -27.875; -610.000; -428.000
378.060; -131.975; -781.000; -847.000
378.190;  -44.100; -726.000; -531.000
378.320;  -45.500; -401.000; -406.000
378.451;    1.175; -131.000;  -22.000
378.581;    1.325;  -67.000; -110.000
378.711;  187.150; 1035.000;  866.000
378.841;    5.900; -533.000; -675.000
378.972;  -30.225; -871.000; -751.000
379.102;   37.725; -652.000; -579.000
379.232;   -7.700; -126.000;  -73.000
379.362; -101.650;-1001.000; -885.000
379.492;   41.000; -373.000; -424.000
379.623;  145.825;    0.000;  111.000
379.753;  -81.625;-1107.000; -974.000
379.883;  257.150;   59.000;  156.000
380.013;   55.825;-1081.000;-1017.000
380.143;  -75.600;-1097.000;-1056.000
380.273;  -69.925; -985.000; -861.000
380.403;    9.625; -344.000; -257.000
380.533;   -1.425; -651.000; -664.000
380.663;   78.175;  173.000;  128.000
380.793;  -66.525;-1027.000;-1074.000
380.923;   -9.200; -103.000;  -34.000
381.053;  -80.725; -613.000; -623.000
381.183;  -30.600; -106.000; -248.000
381.313;   75.025; -656.000; -470.000
381.443;   85.100; -692.000; -473.000
381.573;  304.725; -402.000; -409.000
381.703;  449.350;-1249.000;-1095.000
381.833; -101.375;-1454.000;-1336.000
381.963;  148.950; -134.000;  -87.000
382.093; 1732.375; -925.000; -909.000
382.223;  567.300; -713.000; -602.000
382.353;   14.050; -801.000; -608.000
382.482;  556.250;-1091.000; -964.000
382.612; 1003.550; -872.000; -644.000
382.742;  566.825; -695.000; -622.000
382.872;  384.075; -565.000; -551.000
383.002;   89.250;  347.000; -132.000
383.131;    7.450; -226.000; -160.000
383.261;  -27.975; -706.000; -768.000
383.391;  287.250; -552.000; -377.000
383.521; 2622.525;  451.000;  263.000
383.650;  586.075; -947.000; -904.000
383.780;  -29.200; -783.000; -656.000
383.910;  108.425;  880.000;  802.000
384.039;   69.000; -794.000; -656.000
384.169;  333.400;-1205.000;-1017.000
384.299;   17.800; -650.000; -662.000
384.428;  -68.800; -764.000; -680.000
384.558;  -48.900; -308.000; -275.000
384.687;  -20.550; -414.000; -334.000
384.817;   34.100;   75.000;   -2.000
384.947;   53.300; -234.000; -141.000
385.076;  346.300;  982.000;  912.000
385.206;  119.125;  369.000;  480.000
385.335;   -9.800; -549.000; -417.000
385.465;  -48.925; -655.000; -663.000
385.594;  185.500;  -53.000;  -44.000
385.724;  603.200; -868.000; -838.000
385.853;  192.025; -296.000; -270.000
385.982; 1827.400; -743.000; -787.000
386.112; 2824.775;-1052.000; -871.000
386.241;  208.575; -307.000; -312.000
386.371;   33.700; -174.000;  -87.000
386.500;   33.075; -825.000; -789.000
386.629;   57.775; -874.000; -817.000
386.759;   71.275;  -43.000;   68.000
386.888;   14.100; -170.000; -250.000
387.017;  -52.325; -648.000; -620.000
387.147;  -64.650; -771.000; -798.000
387.276;   32.025; -410.000; -397.000
387.405;   44.975; -398.000; -342.000
387.535;  -20.525; -452.000; -361.000
387.664;  -59.775; -692.000; -620.000
387.793;   95.975; -198.000; -113.000
387.922;  715.775;  255.000;  200.000
388.052;   82.050; -576.000; -423.000
388.181;   67.825; -342.000; -472.000
388.310;   82.350; -889.000; -710.000
388.439;   10.550; -749.000; -742.000
388.568;  262.775;  365.000;  244.000
388.697; 1434.875; -756.000; -653.000
388.826;  328.775; -768.000; -666.000
388.956;  108.100; -285.000; -307.000
389.085;  -12.475; -347.000; -287.000
389.214; -103.325; -842.000; -872.000
389.343;  -51.275; -645.000; -413.000
389.472;  342.525;  126.000;  149.000
389.601;  511.900;   91.000;    0.000
389.730;   47.800; -568.000; -687.000
389.859;   79.175;  226.000;   46.000
389.988;  267.050; -423.000; -408.000
390.117;  222.850; -168.000; -146.000
390.246;   26.175; -331.000; -320.000
390.375;  170.550; -673.000; -626.000
390.504;  -35.625; -703.000; -621.000
390.633;  -86.225; -672.000; -726.000
390.761;  -44.925; -732.000; -645.000
390.890;   53.250;   -4.000; -130.000
391.019;   -7.175; -421.000; -441.000
391.148; -117.150; -826.000; -855.000
391.277;  -50.625; -576.000; -493.000
391.406;  -41.475; -821.000; -805.000
391.534;   26.250;  574.000; -301.000
391.663;  -43.000; -583.000; -645.000
391.792;  -79.400; -673.000; -701.000
391.921;  162.625;   -3.000;   15.000
392.050;  304.075; -287.000; -228.000
392.178;   22.300;-1206.000;-1061.000
392.307;  220.675; -758.000; -712.000
392.436;  134.250; -427.000; -641.000
392.564;   42.450;  166.000;   -6.000
392.693;  -81.625; -860.000; -682.000
392.822;  303.825; -529.000; -534.000
392.950;  163.375; -880.000; -714.000
393.079;  442.825; -188.000; -328.000
393.208;   61.375; -488.000; -511.000
393.336;    9.050; -170.000; -145.000
393.465;  -51.475; -317.000; -199.000
393.593;   11.450;   62.000;   79.000
393.722; -138.800;-1121.000; -916.000
393.850;  -30.225; -188.000;  -61.000
393.979; -155.300; -926.000; -805.000
394.107;  -70.950; -517.000; -537.000
394.236;   -8.175; -570.000; -507.000
394.364;  247.525;  383.000;  206.000
394.493;  413.450; -911.000; -767.000
394.621;   -1.800; -955.000; -916.000
394.750;  582.900; -873.000; -923.000
394.878; 2558.550; -247.000; -149.000
395.007; 3444.425; -721.000; -807.000
395.135;  246.475; -790.000; -721.000
395.263;  -85.300;-1038.000;-1040.000
395.392;    8.625;  -25.000; -107.000
395.520; -125.625; -818.000; -679.000
395.648;  -68.150; -865.000; -915.000
395.777;   -0.550; -366.000; -405.000
395.905;  -45.825; -449.000; -564.000
396.033;   31.775;  217.000;  172.000
396.162;  646.800; -399.000; -453.000
396.290;  586.125;  -17.000;   -2.000
396.418;  164.050; -555.000; -514.000
396.546;  -50.225; -571.000; -466.000
396.674;  -87.525; -850.000; -878.000
396.803;   15.975;  -72.000;  -23.000
396.931;  143.875; -179.000; -199.000
397.059;  132.375;-1026.000; -989.000
397.187; -104.650;-1026.000; -975.000
397.315; -126.875; -884.000; -649.000
397.443;  -96.150; -592.000; -443.000
397.572;  -91.450; -578.000; -424.000
397.700;   33.875; -607.000; -614.000
397.828;   58.750;  120.000;  -90.000
397.956;  -46.300; -508.000; -478.000
398.084;  -71.175; -767.000; -626.000
398.212;   46.375;  137.000;  124.000
398.340;   22.825;  -56.000;  159.000
398.468;   85.975; -390.000; -169.000
398.596; -127.800; -993.000; -953.000
398.724; -104.625; -762.000; -767.000
398.852; -155.600;-1024.000; -976.000
398.980;  -56.725; -560.000; -560.000
399.108;  -43.675; -982.000; -735.000
399.236;   45.650;   13.000;    8.000
399.363;   25.800;  222.000;  196.000
399.491;  -60.425; -404.000; -398.000
399.619; -119.350; -829.000; -800.000
399.747;  -77.025; -859.000; -771.000
399.875;   96.125;  220.000;  234.000
400.003;  -32.600; -359.000; -284.000
400.130;  -93.925; -421.000; -341.000
400.258;  -30.250;  -83.000;   38.000
400.386;  -71.775; -352.000; -168.000
400.514;  -18.275; -526.000; -587.000
400.641;  -69.175; -928.000; -802.000
400.769; -142.275; -979.000; -888.000
400.897;  -95.075; -838.000; -793.000
401.025;    6.500; -166.000; -152.000
401.152;   -2.100;  220.000;   38.000
401.280;  -88.375; -430.000; -429.000
401.408; -110.150; -712.000; -576.000
401.535;  -91.775; -735.000; -758.000
401.663; -184.750;-1134.000;-1054.000
401.790;  -82.300; -514.000; -525.000
401.918;   40.475;  436.000;  405.000
402.046;  -14.575;  134.000;  122.000
402.173;  -21.800;  -18.000;    7.000
402.301;  -65.525; -519.000; -397.000
402.428;   40.375;  528.000;  383.000
402.556; -139.250;-1188.000; -913.000
402.683;  -14.625;  -20.000;   -1.000
402.811;  -25.525;  -37.000; -206.000
402.938;   10.725;   20.000;   27.000
403.066;  283.150; -574.000; -558.000
403.193;  459.550;  299.000;  239.000
403.321;  363.675; -396.000; -574.000
403.448;  441.350;   83.000;   27.000
403.575;  191.175;  -90.000;  -46.000
403.703; -107.175; -732.000; -557.000
403.830;  -62.850; -531.000; -496.000
403.957; -135.000;-1117.000;-1023.000
404.085;   10.675;  -61.000; -172.000
404.212;  119.375;  -50.000;   63.000
404.339;  246.000; -566.000; -306.000
404.467; 4888.750; -612.000; -524.000
404.594; 3644.975; -287.000; -227.000
404.721; 1017.625; -869.000; -764.000
404.848;   93.250; -113.000; -202.000
404.976;  -95.525; -856.000; -783.000
405.103;  -14.225;  -14.000;  -82.000
405.230;  -17.175;  190.000;  226.000
405.357;   23.525;  117.000;   44.000
405.484;  213.275;  -49.000;    5.000
405.612;   40.975; -548.000; -563.000
405.739;  -60.000; -488.000; -243.000
405.866;   93.700;  669.000;  385.000
405.993;  -48.700; -398.000; -102.000
406.120; -125.125; -801.000; -887.000
406.247;  -52.425; -323.000; -342.000
406.374;  587.850;  540.000;  629.000
406.501;  204.575; -632.000; -702.000
406.628;  -67.075; -621.000; -589.000
406.755;  -89.000; -803.000; -620.000
406.882;  -23.925; -228.000; -277.000
407.009;  -96.300; -719.000; -628.000
407.136;  105.275; -480.000; -401.000
407.263;  240.900; -939.000; -829.000
407.390;  -60.225; -692.000; -614.000
407.517; -142.850;-1139.000;-1187.000
407.644;  -56.775; -332.000; -256.000
407.771; -139.325; -249.000; -287.000
407.898;   11.975;  168.000;  328.000
408.025;  -51.150; -421.000; -313.000
408.151;  -14.475;   82.000;  153.000
408.278;  -60.775; -267.000; -216.000
408.405; -113.125; -931.000; -899.000
408.532;  -72.200; -549.000; -542.000
408.659; -118.300; -677.000; -648.000
408.785; -201.350;-1298.000;-1170.000
408.912;  -65.000; -412.000; -296.000
409.039; -116.500; -610.000; -686.000
409.166; -103.825; -591.000; -555.000
409.292; -106.325; -571.000; -534.000
409.419; -108.975; -665.000; -649.000
409.546;  -86.225; -431.000; -192.000
409.672; -118.125; -713.000; -545.000
409.799;  -18.700;  -36.000;   34.000
409.926;  -36.150; -180.000; -179.000
410.052; -177.600;-1127.000;-1091.000
410.179;  -60.700; -368.000; -392.000
410.305;  -77.700; -375.000; -493.000
410.432;  -45.250; -220.000; -333.000
410.558;  -77.225; -305.000; -380.000
410.685; -105.450; -688.000; -431.000
410.812;  -96.600; -409.000; -588.000
410.938; -135.825; -964.000; -808.000
411.065;  -96.925; -671.000; -645.000
411.191;  -28.700; -189.000; -174.000
411.317; -121.650; -823.000; -742.000
411.444;  -67.400; -317.000; -246.000
411.570;  -80.350; -339.000; -294.000
411.697; -127.825; -758.000; -752.000
411.823; -169.275; -989.000; -999.000
411.949;  -25.800;  -56.000;   17.000
412.076; -113.850; -539.000; -519.000
412.202; -117.300; -758.000; -757.000
412.329; -120.725; -798.000; -752.000
412.455; -102.775; -821.000; -657.000
412.581;  -35.050;  -15.000;  172.000
412.707;  -50.850; -540.000; -457.000
412.834;   23.900;  156.000;  219.000
412.960;  -84.375; -785.000; -784.000
413.086;  -92.475; -743.000; -701.000
413.212;  187.475;  604.000;  578.000
413.339;  -45.300; -685.000; -701.000
413.465;   35.225; -364.000; -310.000
413.591;  -80.175; -757.000; -474.000
413.717;  -48.375; -358.000; -366.000
413.843; -133.900; -839.000; -861.000
413.969;  -59.975;  -47.000; -292.000
414.096; -101.450; -679.000; -679.000
414.222;   -8.400;  -33.000;   85.000
414.348;   -2.075; -652.000; -385.000
414.474;  123.600;   38.000;  -52.000
414.600;  -22.500; -126.000; -144.000
414.726;  -25.775;  -96.000;  -55.000
414.852;  -61.000; -365.000; -342.000
414.978;   39.000;  104.000;  -18.000
415.104;   29.450;   38.000;   80.000
415.230;   22.000; -329.000; -330.000
415.356;   46.275; -409.000; -514.000
415.482;  187.300;   13.000;  -35.000
415.608;  254.050; -247.000; -323.000
415.734;  885.150;   67.000;   38.000
415.860;18048.750; -875.000; -767.000
415.986;13319.200; -685.000; -607.000
416.111; 1126.600; -798.000; -652.000
416.237;  219.325; -424.000; -571.000
416.363;  950.575; -765.000; -733.000
416.489; 3570.550; -324.000; -251.000
416.615;  364.900; -707.000; -742.000
416.741;  -18.275; -677.000; -784.000
416.866;  -88.550; -673.000; -736.000
416.992; -124.475; -801.000; -818.000
417.118;  -18.925;  -41.000;  -80.000
417.244;  -54.175; -798.000; -531.000
417.369;  -82.275; -801.000; -612.000
417.495;    3.475; -325.000; -254.000
417.621;  -80.475;-1015.000; -803.000
417.746;   -0.075; -579.000; -572.000
417.872;   51.900; -254.000; -144.000
417.998;   22.825; -515.000; -530.000
418.123;  880.500;-1073.000; -845.000
418.249; 4667.525; -512.000; -601.000
418.374;  636.475; -916.000; -824.000
418.500;  102.600; -383.000; -482.000
418.626;   99.975;   70.000;  -59.000
418.751;  102.675; -549.000; -448.000
418.877;  189.075; -637.000; -643.000
419.002; 1537.350; -688.000; -560.000
419.128;10879.800; -930.000; -721.000
419.253; 2680.775; -967.000; -837.000
419.379;  342.750; -391.000; -338.000
419.504;  347.725;  325.000;  415.000
419.629;  415.375; -393.000; -212.000
419.755; 2906.950; -317.000; -254.000
419.880;17435.175;  -98.000;   67.000
420.006; 9836.750; -280.000; -221.000
420.131;26076.075; -662.000; -775.000
420.256; 3841.675; -315.000; -316.000
420.382;  497.725; -665.000; -687.000
420.507;   50.275; -649.000; -778.000
420.632;  191.300; -337.000; -339.000
420.758;  376.925; -251.000; -425.000
420.883;  -68.700; -876.000; -672.000
421.008; -101.400; -775.000; -619.000
421.133;  -71.775; -509.000; -467.000
421.259;  -29.325; -325.000; -259.000
421.384; -101.125; -834.000; -693.000
421.509;    5.575;-1052.000; -862.000
421.634; 1729.750; -936.000; -820.000
421.759;  787.500; -359.000; -327.000
421.885;  -28.750; -717.000; -656.000
422.010;  -70.325; -673.000; -542.000
422.135; -150.875; -695.000; -727.000
422.260;   51.550;  340.000;  280.000
422.385;  -50.225;   12.000;  -98.000
422.510;    8.075;  151.000;  -26.000
422.635;   34.525;  -87.000;  -43.000
422.760;  123.150; -766.000; -791.000
422.885;   57.750;  -57.000;  -80.000
423.010;  -34.575; -112.000; -169.000
423.135;  -75.800; -481.000; -561.000
423.260;  -12.125; -150.000; -245.000
423.385;   90.550;  476.000;  222.000
423.510;   47.975;   71.000;  -22.000
423.635;   97.650;  133.000;   45.000
423.760;   76.725;  383.000;  328.000
423.885;   60.125;  336.000;  391.000
424.010;   15.950;  -68.000;  -13.000
424.135;  -11.300;    5.000;  -33.000
424.259;  -79.925; -654.000; -457.000
424.384;  -70.050; -279.000; -272.000
424.509;  -37.050; -260.000; -186.000
424.634;  -86.250; -761.000; -623.000
424.759;  -23.850; -688.000; -544.000
424.883;   -8.750; -506.000; -527.000
425.008;  164.125; -502.000; -410.000
425.133; 1749.475; -679.000; -653.000
425.258;  821.425; -517.000; -381.000
425.382; 1270.400; -867.000; -774.000
425.507; 3285.550; -487.000; -543.000
425.632;  497.950; -802.000; -663.000
425.756;  402.125; -256.000; -146.000
425.881; 5136.775; -831.000; -857.000
426.006;14070.500; -604.000; -355.000
426.130; 2353.100; -696.000; -508.000
426.255;  274.200; -611.000; -491.000
426.379;  128.000; -189.000; -577.000
426.504;  341.150;  660.000;  544.000
426.629; 3677.925; -519.000; -466.000
426.753; 2578.875;   64.000;  -46.000
426.878;  294.750; -252.000; -288.000
427.002;  114.175; -651.000; -668.000
427.127; 1435.925;  -35.000; -158.000
427.251; 9943.675;  372.000;  401.000
427.375; 2898.050; -191.000; -173.000
427.500; 2786.025; -616.000; -610.000
427.624;  992.925; -234.000; -400.000
427.749;  133.500; -216.000; -225.000
427.873;  -33.950; -499.000; -412.000
427.997;  -29.050; -222.000; -230.000
428.122;   92.200;  795.000;  703.000
428.246;   89.750;  433.000;  434.000
428.371; -123.350; -869.000; -773.000
428.495;  -98.900; -624.000; -646.000
428.619;  -34.450; -186.000; -117.000
428.743;   30.775;   65.000;  132.000
428.868;   63.350; -732.000; -643.000
428.992; 1775.300; -219.000; -326.000
429.116;  771.575; -329.000; -357.000
429.240;  381.475;  419.000;  426.000
429.365;  -10.700; -454.000; -574.000
429.489;  -11.050; -638.000; -647.000
429.613;   40.925; -236.000; -177.000
429.737;   26.025; -563.000; -432.000
429.861;  242.875; -247.000; -133.000
429.985; 4906.400; -425.000; -305.000
430.109; 5399.900; -770.000; -908.000
430.234;  636.025;   76.000;  -50.000
430.358;   69.525; -250.000; -160.000
430.482;  -74.225; -672.000; -564.000
430.606;  -50.500; -655.000; -375.000
430.730;   57.150; -437.000; -388.000
430.854;  239.275; -909.000; -835.000
430.978;  -60.525; -795.000; -764.000
431.102;  -83.825; -499.000; -422.000
431.226; -109.775; -874.000; -815.000
431.350;   32.275;  345.000;  422.000
431.474;  -64.850; -661.000; -373.000
431.597; -135.175;-1060.000; -848.000
431.721;  -84.775; -276.000; -267.000
431.845; -122.825; -704.000; -472.000
431.969;  -94.750; -304.000; -349.000
432.093;  -82.625; -395.000; -317.000
432.217;  -22.400;   32.000;   82.000
432.341;  -90.375; -523.000; -518.000
432.464;   19.700;   96.000;   40.000
432.588;  299.950; -401.000; -329.000
432.712;  137.600;  -52.000;  -52.000
432.836;   40.800;  213.000;  263.000
432.959;  -24.425; -372.000; -311.000
433.083;   55.000;   11.000;    2.000
433.207;  311.400;  285.000;  930.000
433.330; 4234.900; -391.000; -200.000
433.454; 5330.600; -654.000; -638.000
433.578; 3127.875;  583.000;  278.000
433.701;  611.900; -623.000; -675.000
433.825;  198.600; -292.000; -299.000
433.949;  282.925;   28.000;  -72.000
434.072;  125.375; -410.000; -323.000
434.196;   -0.350; -309.000; -117.000
434.319; 3652.525;25482.000;25124.000
434.443;  720.525; -656.000; -603.000
434.566; 2369.550;  281.000;   62.000
434.690;  409.200; -637.000; -383.000
434.813;   45.975; -251.000; -173.000
434.937;  -80.300; -569.000; -696.000
435.060;  -18.350; -423.000; -332.000
435.184;  527.750; -492.000; -217.000
435.307;  296.625;  159.000;  102.000
435.431;    0.750;  -40.000;   24.000
435.554;  -76.525; -399.000; -240.000
435.677;  -79.250; -350.000; -258.000
435.801;  -44.725;  -25.000;   49.000
435.924;    9.075;    1.000;  -67.000
436.048;  -69.450;-1019.000; -732.000
436.171;  -59.175; -240.000;  -66.000
436.294;  -38.500; -248.000; -229.000
436.417;   72.525; -963.000; -849.000
436.541;  -93.175; -814.000; -840.000
436.664;  -40.475; -242.000; -316.000
436.787;  -33.450;   13.000;  113.000
436.910; -106.925; -792.000; -422.000
437.034;   23.875;  142.000;  143.000
437.157;  109.725;  -11.000;    0.000
437.280;  -11.075; -392.000; -292.000
437.403;  -38.400; -982.000; -869.000
437.526;  999.625; -903.000; -865.000
437.649; 3420.825; -505.000; -332.000
437.772;  577.975; -692.000; -540.000
437.896;  159.850;  700.000;  544.000
438.019;  -84.350; -758.000; -503.000
438.142;  -76.575; -596.000; -506.000
438.265;   32.150; -639.000; -670.000
438.388;  828.750; -520.000; -410.000
438.511;  193.650; -597.000; -394.000
438.634;  -34.675; -247.000; -125.000
438.757; -135.025; -693.000; -619.000
438.880;  -30.625;  -34.000;  -57.000
439.003;  -59.300; -417.000; -437.000
439.126;  -64.850; -287.000; -167.000
439.248;  -58.125;  -98.000; -139.000
439.371;  -40.550;    9.000;  -53.000
439.494;   24.450;  510.000;  439.000
439.617;  -47.075;   65.000;  -88.000
439.740; -174.525; -968.000; -816.000
439.863; -139.800; -755.000; -595.000
439.986; -126.625; -476.000; -431.000
440.108;  -42.400; -161.000; -112.000
440.231; -157.075; -950.000; -836.000
440.354;  -18.625;  -64.000; -150.000
440.477;  100.550; -566.000; -542.000
440.599;   40.300; -200.000; -225.000
440.722; -113.650; -709.000; -586.000
440.845;   47.925;  751.000;  928.000
440.968; -111.125; -415.000; -311.000
441.090;  -69.475; -199.000;  -33.000
441.213; -168.450;-1021.000; -825.000
441.336;  -58.600; -159.000;   -5.000
441.458;  -65.450; -549.000; -396.000
441.581;  -80.600; -628.000; -629.000
441.703;  -73.250; -152.000;   13.000
441.826; -116.750; -557.000; -400.000
441.948;  -55.475;   56.000;   51.000
442.071;   22.525;  555.000;  424.000
442.193; -131.975; -531.000; -485.000
442.316;    9.725;  152.000;   97.000
442.438;   31.200; -233.000;  -10.000
442.561;   93.075;  272.000;  262.000
442.683;  841.325; -809.000; -522.000
442.806; 1733.700;   -8.000;   74.000
442.928;  107.750; -859.000; -604.000
443.051;  -46.425; -577.000; -373.000
443.173;  -94.075; -341.000; -339.000
443.295;  -87.700; -263.000; -371.000
443.418;  -51.850; -321.000;  -29.000
443.540;   -4.150; -106.000;   -4.000
443.662; -123.000; -563.000; -465.000
443.785;  -14.850;  335.000;  199.000
443.907;  -98.900; -362.000; -208.000
444.029; -130.950; -767.000; -494.000
444.152; -142.400; -644.000; -554.000
444.274;  -42.775;  -18.000;  -24.000
444.396; -111.325; -461.000; -221.000
444.518; -132.325; -691.000; -454.000
444.640;  -99.700; -268.000; -111.000
444.763;  -13.550;  388.000;  249.000
444.885; -123.550; -432.000; -392.000
445.007;  -32.125;   35.000;   86.000
445.129; -115.600; -610.000; -515.000
445.251;  -91.125; -372.000; -439.000
445.373; -127.675; -537.000; -386.000
445.495;   14.125;  242.000;  350.000
445.617;   48.350;  853.000;  753.000
445.739;  -57.025; -215.000;  -97.000
445.861;  -22.650; -245.000; -112.000
445.984;  -32.525; -267.000; -101.000
446.105;  297.650; -418.000; -251.000
446.227;  863.400; -176.000;  -19.000
446.349;   53.725; -358.000; -249.000
446.471; -101.225; -615.000; -448.000
446.593;  -60.975; -316.000;   19.000
446.715;   17.925;  -67.000;   41.000
446.837;   60.075;  697.000;  832.000
446.959;  -97.600; -457.000; -478.000
447.081; -126.400; -628.000; -518.000
447.203;   49.300;  862.000;  834.000
447.325;  -88.450; -270.000;   42.000
447.446;  -13.400;  286.000;  530.000
447.568; -159.050; -921.000; -803.000
447.690;  -65.950; -236.000; -245.000
447.812; -152.675; -798.000; -519.000
447.933;  -30.050;  155.000;  127.000
448.055;  -51.975; -306.000; -261.000
448.177;  199.550;   31.000;   79.000
448.299;  180.500; -935.000; -727.000
448.420;   33.375;  -25.000;  159.000
448.542;  -50.300;   -3.000;   33.000
448.664;  -17.650;  109.000;  322.000
448.785;  -45.550;  265.000;   83.000
448.907;  -70.325; -614.000; -353.000
449.028;  -21.425; -771.000; -471.000
449.150;   64.350;  492.000;  589.000
449.272; -176.250;-1044.000; -913.000
449.393;   20.475;  612.000;  694.000
449.515; -131.475; -634.000; -581.000
449.636;  -62.500; -264.000; -155.000
449.758;   85.800;  763.000;  622.000
449.879;  -86.350; -498.000; -396.000
450.001;  -78.425; -149.000;  -49.000
450.122;  -41.025;  -95.000;  162.000
450.244;  -12.975;   37.000;  364.000
450.365;  -86.675; -495.000; -301.000
450.486;  -47.800;   80.000;  268.000
450.608;   13.475;  393.000;  326.000
450.729;   54.950;  578.000;  645.000
450.850;  -24.450; -574.000; -466.000
450.972;  588.425; -552.000; -389.000
451.093; 3994.375;  190.000;  588.000
451.214; 1770.625; -516.000; -337.000
451.336;  295.225;  773.000;  579.000
451.457;   51.200;  264.000;  393.000
451.578;  -28.550; -118.000;  -74.000
451.699; -140.850; -546.000; -540.000
451.821;  -85.075; -284.000;  -50.000
451.942;   -4.100;  278.000;  285.000
452.063;   25.175;  228.000;  419.000
452.184;  451.650;  -54.000;  -49.000
452.305;  958.725;  103.000;  170.000
452.427;   88.300; -549.000; -301.000
452.548;  -39.600;   23.000;   79.000
452.669;  -48.650; -257.000;  -89.000
452.790;  -25.000;    3.000;  -18.000
452.911;  -14.750;  195.000;  259.000
453.032;  -75.125; -289.000;  -60.000
453.153;  -27.050;  -29.000;   81.000
453.274;   52.475;  737.000;  868.000
453.395;  -52.050;  -51.000;  175.000
453.516;  143.575; 1317.000; 1388.000
453.637;  -61.425; -205.000; -150.000
453.758;  -52.800;   15.000;   69.000
453.879; -129.900; -462.000; -250.000
454.000;   79.825; 1086.000;  948.000
454.121;  -95.750; -554.000; -326.000
454.242; -108.050; -599.000; -383.000
454.362;  -49.750;  -99.000;  114.000
454.483;  -45.350; -309.000; -229.000
454.604;   85.275;  512.000;  580.000
454.725; -110.450; -627.000; -555.000
454.846; -118.600; -474.000; -406.000
454.967;  -32.850;  230.000;  539.000
455.087;  -44.150;  179.000;  153.000
455.208;   19.375;  554.000;  856.000
455.329;  -74.200;  -22.000;   82.000
455.450;   29.225;  473.000;  633.000
455.570;  -78.325; -234.000; -211.000
455.691;  -50.550;  201.000;  407.000
455.812; -115.775; -270.000;  -92.000
455.932;  -78.100;  107.000;  -97.000
456.053;  -83.850;   36.000;   24.000
456.173; -127.100; -433.000; -355.000
456.294; -137.375; -476.000; -303.000
456.415;  -60.775;  -73.000;   70.000
456.535;  -38.050;  297.000;  273.000
456.656;  -54.325;  132.000;  240.000
456.776;  -76.025;    3.000;  298.000
456.897;  -14.125;  308.000;  513.000
457.017;  -90.050; -153.000;   -3.000
457.138; -111.925; -402.000; -249.000
457.258;  -39.250;  263.000;  224.000
457.379;   -7.025;  509.000;  521.000
457.499;  -28.275;  443.000;  432.000
457.620; -123.500; -407.000; -231.000
457.740; -108.025; -132.000;  -11.000
457.860;  -44.950;   87.000;   44.000
457.981;  -47.175;  132.000;  124.000
458.101;  -64.950;  -89.000;   40.000
458.221;  -15.775;  336.000;  402.000
458.342;  -69.075;   -4.000;  -37.000
458.462;    8.425;  617.000;  352.000
458.582;  -57.650; -302.000; -294.000
458.703;   -4.825;  303.000;  154.000
458.823;  -40.400;   22.000;  163.000
458.943;   15.900;  341.000;  467.000
459.063;  -15.300; 1124.000;  192.000
459.183;  -16.725;  328.000;  313.000
459.304;    2.475;  315.000;  517.000
459.424;  -77.675; -246.000;  -89.000
459.544;  294.150;  388.000;  764.000
459.664;  701.450;  499.000;  506.000
459.784;  278.775; 1004.000; 1175.000
459.904;   50.050;  867.000;  744.000
460.024;   82.150;  867.000;  684.000
460.144;   19.075;  449.000;  554.000
460.264;  -12.725;  515.000;  327.000
460.385; -103.075; -145.000; -119.000
460.505;   31.650;  905.000;  858.000
460.625; -103.300;  -17.000;  -68.000
460.745;  -29.300;  396.000;  541.000
460.864;  -58.950;  153.000;  469.000
460.984;   13.975;  499.000;  573.000
461.104;  133.150; 1656.000; 1775.000
461.224;   17.150;  657.000;  650.000
461.344;  -22.075;  431.000;  360.000
461.464;  -16.950;  258.000;  513.000
461.584;   -0.225;  283.000;  466.000
461.704;  -41.700;   58.000;  108.000
461.824;  -63.700;  238.000;  259.000
461.943;  -44.300;  191.000;  130.000
462.063;  -74.550;    2.000;  324.000
462.183;   26.700;  639.000;  717.000
462.303;  103.950; 1678.000; 1230.000
462.422;   32.325;  781.000;  840.000
462.542;  -39.625;  271.000;  391.000
462.662;   34.225;  353.000;  380.000
462.782;  220.275;  833.000;  572.000
462.901;  426.800;  545.000;  717.000
463.021;  261.300; 1702.000; 1638.000
463.141;  -17.250;  337.000;  770.000
463.260;  -14.150;  614.000;  474.000
463.380;    9.350;  902.000;  884.000
463.499;  -34.625;  342.000;  332.000
463.619;  -41.650;  581.000;  559.000
463.738;  104.025; 1644.000;  903.000
463.858;   -3.725;  657.000;  811.000
463.978;  -32.825;  542.000;  396.000
464.097;   41.425;  921.000; 1114.000
464.217;   81.950; 1196.000; 1143.000
464.336;   93.450; 1068.000; 1130.000
464.455;  -34.725;  328.000;  659.000
464.575;   50.350;  597.000;  602.000
464.694;  198.475; 1204.000; 1179.000
464.814;  130.375; 1190.000; 1138.000
464.933;   78.325; 1095.000; 1027.000
465.052;  120.350; 1412.000; 1054.000
465.172;   86.550;  922.000;  799.000
465.291;  150.900; 1376.000; 1320.000
465.410;   14.275;  462.000;  735.000
465.530;  107.100; 1355.000; 1310.000
465.649;   71.450; 1209.000; 1273.000
465.768;  137.100; 1673.000; 1508.000
465.888;   36.725;  941.000; 1174.000
466.007;  107.275; 1335.000; 1440.000
466.126;  -19.550;  721.000;  641.000
466.245;   33.875; 1176.000; 1187.000
466.364;   -3.100;  950.000; 1060.000
466.484;   53.275; 1024.000; 1213.000
466.603;   41.250; 1101.000; 1222.000
466.722;  128.275; 1490.000; 1769.000
466.841;   83.500; 1151.000; 1401.000
466.960;   33.100; 1069.000;  972.000
467.079;  144.175; 1971.000; 1786.000
467.198;   36.125; 1238.000; 1181.000
467.317;   96.700; 1768.000; 1162.000
467.436;   59.775; 1709.000; 1261.000
467.555;  128.400; 1796.000; 1746.000
467.674;   55.750; 1227.000; 1329.000
467.793;   31.650; 1376.000; 1374.000
467.912;   76.650; 1658.000; 1539.000
468.031;  145.450; 2038.000; 1930.000
468.150;  137.075; 1842.000; 1837.000
468.269;  187.075; 2313.000; 2090.000
468.388;  180.800; 2168.000; 2339.000
468.507;  254.150; 2884.000; 2903.000
468.626;  225.450; 2555.000; 2541.000
468.744;  129.725; 2018.000; 2174.000
468.863;  204.725; 2312.000; 2523.000
468.982;   99.700; 1503.000; 1555.000
469.101;  235.100; 2788.000; 2692.000
469.220;  153.250; 2333.000; 2176.000
469.338;  245.250; 2935.000; 3051.000
469.457;  192.300; 2719.000; 2545.000
469.576;  338.175; 3953.000; 3784.000
469.695;  239.175; 2877.000; 3066.000
469.813;  410.700; 4148.000; 4192.000
469.932;  397.625; 4255.000; 4485.000
470.051;  412.725; 4075.000; 4161.000
470.169;  781.550; 4470.000; 4338.000
470.288; 1325.625; 4700.000; 4809.000
470.406;  810.500; 5059.000; 5194.000
470.525;  624.525; 6101.000; 5787.000
470.644;  647.625; 6847.000; 6794.000
470.762;  822.400; 8397.000; 7873.000
470.881;  897.000; 8651.000; 8464.000
470.999; 1035.075; 9685.000; 9151.000
471.118; 1090.800;11174.000;10711.000

