
Integration time [ms]: 100.000
Averaging Nr. [scans]: 40
Smoothing Nr. [pixels]: 0
Data measured with spectrometer [name]: 2101012U2
Wave   ;Sample   ;Dark     ;Reference
[nm]   ;[counts] ;[counts] ;[counts] 

197.733;   60.150;  516.000;  404.000
197.879;  -88.900; -610.000; -634.000
198.025;  -62.425; -475.000; -420.000
198.171;  -76.025; -602.000; -612.000
198.317;  -32.950; -401.000; -316.000
198.463;  -63.300; -655.000; -404.000
198.609;   30.800;  181.000; -137.000
198.755;  -85.525; -644.000; -410.000
198.901;  -59.175; -505.000; -424.000
199.047;  -62.450; -615.000; -488.000
199.193;  -34.525; -230.000; -468.000
199.339;  -42.050; -222.000; -369.000
199.485;   30.675;  330.000;  271.000
199.631;   17.500;  227.000;  310.000
199.777;  -41.550; -466.000; -398.000
199.923;  -70.025; -610.000; -424.000
200.069;   -8.500; -141.000;  -58.000
200.215;   54.550;  128.000;  453.000
200.361;   60.725;  243.000;  477.000
200.507;  -74.700; -600.000; -373.000
200.653;  -19.275; -371.000; -194.000
200.798;  -37.675; -215.000; -125.000
200.944;   -3.275; -146.000;  -41.000
201.090;   27.250;   61.000;  222.000
201.236;  -11.050; -116.000; -158.000
201.382;  123.350;  874.000;  903.000
201.528;   -2.450;  -58.000;  -48.000
201.674;  -58.850; -386.000; -293.000
201.819;  -68.025; -540.000; -439.000
201.965;  -91.250; -699.000; -447.000
202.111;  -38.325; -273.000; -226.000
202.257;  -42.625; -250.000; -238.000
202.402;   12.200;   13.000;  -36.000
202.548;  -32.850; -169.000; -116.000
202.694;   83.025;  410.000; -183.000
202.840;  -78.750; -603.000; -531.000
202.985;  -71.900; -681.000; -639.000
203.131; -110.525; -832.000; -666.000
203.277;  -24.000; -199.000; -262.000
203.423;  -55.775; -434.000; -520.000
203.568;  -37.550; -462.000; -237.000
203.714;  -55.525; -535.000; -542.000
203.860;  -78.825; -682.000; -641.000
204.005;   12.325;  112.000;  167.000
204.151;   74.175;  561.000;  556.000
204.296;  -54.600; -354.000; -221.000
204.442;  -64.325; -600.000; -547.000
204.588;  -80.150; -592.000; -579.000
204.733;   27.500;  178.000;  168.000
204.879; -132.675;-1018.000; -822.000
205.025;   16.075;  -99.000;  126.000
205.170;    2.775;  -17.000;   94.000
205.316;   95.875;  438.000;  661.000
205.461;  -98.125; -698.000; -554.000
205.607;   85.800;  609.000;  665.000
205.752;  -81.500; -626.000; -551.000
205.898;  -56.450; -501.000; -391.000
206.043;  -62.925; -578.000; -506.000
206.189;  -31.450; -243.000; -285.000
206.334;   77.675;  554.000;  606.000
206.480;   86.750;  409.000;  239.000
206.625;  -80.300; -529.000; -552.000
206.771;  -42.575; -451.000; -373.000
206.916;  -29.800; -210.000; -537.000
207.062;  -73.000; -545.000; -591.000
207.207;  -72.950; -546.000; -443.000
207.353;   49.850;  185.000;  460.000
207.498;   -2.250;  196.000;   85.000
207.643;  -41.200; -501.000; -370.000
207.789; -132.750;-1069.000; -910.000
207.934;  -92.950; -665.000; -713.000
208.080;  -19.275; -154.000;   66.000
208.225;  -20.975;  -22.000;  -57.000
208.370;  -87.950; -727.000; -619.000
208.516;  -72.050; -741.000; -487.000
208.661;  -34.925; -127.000;  -69.000
208.806;  -20.175; -165.000; -171.000
208.952; -127.800;-1044.000; -731.000
209.097;   76.675;  378.000;  349.000
209.242;  -45.300; -307.000; -382.000
209.387;   65.850;  392.000;  350.000
209.533;  -51.000; -321.000; -350.000
209.678;   73.525;  472.000;  543.000
209.823;  -58.775; -408.000; -310.000
209.969; -107.050; -860.000; -757.000
210.114; -114.325; -907.000; -719.000
210.259; -112.000; -939.000; -889.000
210.404;   -7.400; -171.000;  103.000
210.549;   10.550;  108.000;    3.000
210.695;  -12.775;   -3.000;  -95.000
210.840;   20.000;   94.000;   67.000
210.985;  -60.675; -484.000; -303.000
211.130;   58.450;  268.000;  406.000
211.275;   32.900;  207.000;  199.000
211.420;  -52.975; -300.000; -289.000
211.566;  -83.775; -536.000; -489.000
211.711;   17.925;  218.000;  157.000
211.856;  -73.975; -545.000; -519.000
212.001;   18.175;  151.000;   44.000
212.146;   29.625;  153.000;   49.000
212.291;  -21.500; -210.000; -186.000
212.436;  -29.600; -280.000;   -6.000
212.581;  -83.100; -685.000; -653.000
212.726;  -79.650; -487.000; -538.000
212.871;  -54.725; -552.000; -217.000
213.016; -140.300;-1172.000;-1029.000
213.161;   51.800;  406.000;  291.000
213.306;  -76.775; -435.000; -577.000
213.451; -105.225; -778.000; -689.000
213.596;  -55.475; -455.000; -347.000
213.741;  -66.175; -448.000; -538.000
213.886;  -70.500; -498.000; -517.000
214.031;  -27.150; -294.000; -124.000
214.176;  -54.750; -408.000; -341.000
214.321;  -19.075; -296.000; -157.000
214.466;  -35.075; -163.000;  -43.000
214.611;  -13.600;  -61.000;  -10.000
214.756; -130.350; -948.000; -858.000
214.901;  -24.925; -388.000; -226.000
215.046; -129.775; -797.000; -825.000
215.191;   11.050;  128.000;   35.000
215.336;   -7.675; -157.000;  -19.000
215.480;  -77.125; -684.000; -505.000
215.625;  -25.400; -175.000;  -19.000
215.770;  -85.475; -757.000; -662.000
215.915;   -8.225;   -5.000;  -97.000
216.060;   -6.425; -113.000;  -21.000
216.205; -126.425; -731.000; -779.000
216.349;  -62.000; -470.000; -533.000
216.494; -138.175; -939.000; -867.000
216.639; -105.175; -823.000; -888.000
216.784;  -83.400; -577.000; -525.000
216.929;   64.750;  392.000;  281.000
217.073;  -18.700; -244.000;  -31.000
217.218;   10.225;   78.000;  -47.000
217.363;  -88.400; -656.000; -618.000
217.507;  -96.725; -623.000; -588.000
217.652; -138.700; -845.000; -874.000
217.797; -101.750; -708.000; -659.000
217.942; -121.450; -856.000; -720.000
218.086;   76.250;  608.000;  539.000
218.231;  -10.000; -174.000;  -26.000
218.376;  -19.400; -337.000; -229.000
218.520;   -1.225;  -41.000;   96.000
218.665;  -38.600; -338.000; -204.000
218.810;  -51.025; -275.000; -233.000
218.954;    6.850;  201.000;   35.000
219.099; -117.175; -713.000; -963.000
219.243;  -65.475; -589.000; -554.000
219.388;  -38.325; -264.000; -136.000
219.532;   -8.775; -116.000; -116.000
219.677;  -72.025; -564.000; -521.000
219.822;   17.350;   33.000;   89.000
219.966;    3.925;   17.000;  -99.000
220.111;  -31.575; -328.000;  -40.000
220.255;  -91.850; -797.000; -750.000
220.400;  -20.375; -180.000; -146.000
220.544;  -64.975; -516.000; -450.000
220.689;  -52.025; -422.000; -451.000
220.833;  -27.100; -123.000;  -58.000
220.978;  -47.300; -393.000; -563.000
221.122;   22.200;  319.000;  307.000
221.267; -105.500; -906.000; -837.000
221.411;  -66.525; -478.000; -394.000
221.555;   -9.200; -104.000;  -23.000
221.700;  -56.700; -329.000; -222.000
221.844;   33.600;  255.000;  272.000
221.989;  -39.750; -328.000; -311.000
222.133;  -37.425; -289.000; -307.000
222.277;   -6.500;    5.000;   78.000
222.422;   26.450;  227.000;  113.000
222.566;  -38.350; -381.000; -214.000
222.711;  -57.650; -414.000; -479.000
222.855;  -81.025; -643.000; -586.000
222.999;  -78.475; -642.000; -717.000
223.144;  -20.675; -195.000; -194.000
223.288;   49.350;  423.000;  251.000
223.432;   25.025;  184.000;  230.000
223.576;   26.750;  152.000;  -21.000
223.721;   32.475;  364.000;  273.000
223.865;  -65.825; -472.000; -475.000
224.009;  235.900; 1673.000; 1631.000
224.153;  -81.975; -660.000; -671.000
224.298;  -77.250; -531.000; -489.000
224.442;  -25.650;  -74.000;  -33.000
224.586;  -12.250; -169.000; -106.000
224.730; -102.750; -858.000; -670.000
224.875; -100.275; -739.000; -688.000
225.019;    1.925;  102.000;  188.000
225.163;   50.725;  208.000;  341.000
225.307;   23.775;   97.000;  -91.000
225.451;   37.275;  360.000;  481.000
225.595;   31.750;  264.000;  176.000
225.739;  -14.350; -170.000;  -94.000
225.884;    3.650;   86.000;    5.000
226.028;  -92.600; -760.000; -626.000
226.172;  -43.525; -260.000; -273.000
226.316; -123.350; -941.000; -902.000
226.460;  -72.725; -645.000; -493.000
226.604;  -56.625; -406.000; -400.000
226.748; -108.125; -836.000; -733.000
226.892;  -42.000; -227.000; -181.000
227.036;  -55.000; -537.000; -447.000
227.180;  -62.775; -551.000; -375.000
227.324;  -71.400; -561.000; -580.000
227.468; -115.250; -819.000; -717.000
227.612;   17.350;  242.000;  -28.000
227.756; -109.600; -845.000; -698.000
227.900;   54.850;  342.000;  441.000
228.044;  -67.850; -509.000; -290.000
228.188;   59.525;  448.000;  568.000
228.332;  -85.950; -546.000; -472.000
228.476;  -26.400; -223.000; -149.000
228.620;  -35.775; -210.000; -150.000
228.764;   63.675;  431.000;  349.000
228.908;   -9.050; -155.000;   30.000
229.052;  -67.225; -615.000; -528.000
229.195;  -14.775; -172.000;   13.000
229.339;  -27.225; -235.000; -305.000
229.483;  -29.075;    5.000; -162.000
229.627;   -8.575; -156.000;  139.000
229.771;  -40.775; -218.000; -294.000
229.915;   19.325;  230.000;   79.000
230.059;  -86.950; -648.000; -663.000
230.202;  -50.125; -370.000; -317.000
230.346;  -20.925; -107.000;  107.000
230.490;  -55.550; -489.000; -521.000
230.634; -124.175; -736.000; -553.000
230.777;   85.475;  478.000;  509.000
230.921;  -60.675; -450.000; -359.000
231.065;  -39.300; -246.000; -286.000
231.209;   32.975;  261.000;  265.000
231.352;   17.825;   54.000;   40.000
231.496;   15.075;  568.000;  188.000
231.640;  -80.950; -693.000; -621.000
231.783;   60.925;  546.000;  525.000
231.927;  -41.225; -294.000; -365.000
232.071; -124.775; -962.000; -736.000
232.214; -118.200; -980.000; -764.000
232.358; -103.975; -683.000; -599.000
232.502;    1.275;  -19.000;    7.000
232.645; -145.525;-1090.000; -927.000
232.789;  -27.900; -257.000; -218.000
232.933;  -56.125; -407.000; -224.000
233.076; -136.900;-1038.000; -897.000
233.220; -120.050; -752.000; -777.000
233.363;  -72.800; -669.000; -477.000
233.507;   56.175;  371.000;  129.000
233.650;  -97.300; -764.000; -834.000
233.794;   27.825;  438.000;  461.000
233.938;  -58.450; -530.000; -362.000
234.081;  -18.800;  -93.000;   31.000
234.225;  -61.775; -631.000; -539.000
234.368; -115.625; -773.000; -723.000
234.512;  -42.350; -385.000; -299.000
234.655;  -94.350; -582.000; -555.000
234.798;  -68.225; -493.000; -466.000
234.942; -131.225; -884.000;-1002.000
235.085;  -76.200; -651.000; -443.000
235.229;  -80.750; -405.000; -410.000
235.372;  -49.425; -247.000; -191.000
235.516;  -63.025; -397.000; -321.000
235.659;   21.450;   92.000;  121.000
235.802;  -22.650;  -38.000;  -22.000
235.946;   24.975;  335.000;  215.000
236.089;   25.875;  126.000;  250.000
236.233;   52.875;  275.000;  298.000
236.376;  -51.525; -235.000; -378.000
236.519;  -42.025; -297.000; -319.000
236.663;  -34.700; -215.000; -117.000
236.806; -129.600;-1029.000; -999.000
236.949;   60.800;  543.000;  431.000
237.092;   64.475;  412.000;  391.000
237.236;  -86.225; -589.000; -502.000
237.379;   71.750;  352.000;  428.000
237.522; -120.200; -879.000; -768.000
237.666;  -17.750; -271.000;   18.000
237.809; -126.750; -851.000; -823.000
237.952;   39.400;  469.000;  271.000
238.095;  -69.600; -447.000; -442.000
238.238;   84.950;  688.000;  700.000
238.382;    2.400;  166.000;  103.000
238.525;  -72.250; -598.000; -511.000
238.668; -142.100;-1060.000; -985.000
238.811;  -73.000; -638.000; -643.000
238.954;  -61.800; -483.000; -334.000
239.097;   88.800;  617.000;  664.000
239.241;   11.200;  394.000;  326.000
239.384;  -26.125; -254.000; -214.000
239.527;  -63.075; -424.000; -224.000
239.670; -165.000; -994.000;-1091.000
239.813; -110.650; -696.000; -658.000
239.956;   67.125;  579.000;  473.000
240.099; -115.150; -778.000; -725.000
240.242;   56.925;  428.000;  432.000
240.385;   43.050;  466.000;  450.000
240.528;  -73.500; -706.000; -473.000
240.671;   11.150;  189.000;  134.000
240.814;  -32.875; -441.000; -158.000
240.957; -103.475; -767.000; -578.000
241.100;  -97.750; -779.000; -755.000
241.243; -156.775;-1234.000; -893.000
241.386;  -66.800; -508.000; -379.000
241.529;  -97.675; -735.000; -547.000
241.672;  -66.800; -566.000; -495.000
241.815; -116.375; -832.000; -808.000
241.958;  -34.350; -125.000; -182.000
242.101;  -87.075; -545.000; -390.000
242.244;  -36.600; -270.000; -325.000
242.387;  -50.025; -304.000; -246.000
242.530;   57.675;  470.000;  134.000
242.673;  -42.800; -381.000; -309.000
242.815; -121.950; -925.000; -899.000
242.958;  -79.800; -482.000; -381.000
243.101;   18.900;  132.000;  187.000
243.244;  -83.275; -564.000; -521.000
243.387;  -32.975; -313.000; -316.000
243.530;  -88.300; -657.000; -674.000
243.672;   -3.800;   43.000;  -92.000
243.815;  -64.950; -355.000; -283.000
243.958;   -2.975;   98.000;  -26.000
244.101;  -19.550;   59.000;  -16.000
244.243;  -17.500;  -47.000;  101.000
244.386; -110.075; -761.000; -630.000
244.529;  -26.475; -132.000; -139.000
244.672; -159.350;-1154.000; -951.000
244.814;  -99.075; -621.000; -794.000
244.957;  -56.300; -380.000; -304.000
245.100;  -63.625; -489.000; -489.000
245.242;  -74.450; -387.000; -374.000
245.385;  -13.525;  -59.000;  -39.000
245.528; -122.150; -871.000; -705.000
245.670;  100.050;  612.000;  634.000
245.813;  -90.475; -599.000; -547.000
245.956;  -34.175; -324.000; -275.000
246.098;  -71.750; -508.000; -650.000
246.241;   -1.000;  194.000;   48.000
246.383;  -25.250; -119.000;  -73.000
246.526;  -81.875; -454.000; -525.000
246.669; -130.175; -889.000; -780.000
246.811;   12.825;  172.000;   -1.000
246.954;  -66.850; -512.000; -426.000
247.096;  -35.125;  -84.000;   -6.000
247.239;  -56.825; -482.000; -445.000
247.381;  -86.750; -647.000; -488.000
247.524;   75.475;  645.000;  679.000
247.666;   -2.525;   58.000;   11.000
247.809; -108.125; -887.000; -691.000
247.951;  -23.700;  -75.000;  138.000
248.094;   29.750;  432.000;  308.000
248.236; -159.325;-1262.000;-1238.000
248.378;   -4.950; -356.000;  -81.000
248.521;  -35.325; -334.000; -337.000
248.663;  -40.300; -236.000; -267.000
248.806;  -16.900; -300.000; -266.000
248.948;  -86.925; -886.000; -763.000
249.090;  -38.075; -428.000; -398.000
249.233;  -54.975; -344.000; -381.000
249.375;  -63.375; -474.000; -451.000
249.518;  -23.250;  -83.000; -133.000
249.660;   -2.575; -103.000;    3.000
249.802; -182.650;-1303.000;-1189.000
249.945;  -74.275; -612.000; -540.000
250.087; -112.950; -834.000; -768.000
250.229;  -55.600; -362.000; -480.000
250.371;  -58.275; -494.000; -439.000
250.514;  -66.500; -310.000; -244.000
250.656;  -25.625;   69.000;  102.000
250.798; -119.750; -849.000; -800.000
250.940;  -56.200; -322.000; -322.000
251.083;  -25.575; -335.000; -111.000
251.225;   61.750;  338.000;  310.000
251.367;  -59.350; -274.000; -373.000
251.509;  -26.725; -265.000; -210.000
251.651;  -95.925; -731.000; -671.000
251.794;   49.250;  538.000;  632.000
251.936;  -99.200; -821.000; -747.000
252.078;  -76.375; -540.000; -461.000
252.220;  -72.525; -645.000; -477.000
252.362;   86.800;  344.000;  462.000
252.504;  -81.600; -677.000; -584.000
252.646; -119.050; -875.000; -722.000
252.788;   -6.450;   14.000; -128.000
252.931;  -47.600; -257.000; -253.000
253.073;  -46.825; -376.000; -317.000
253.215;  -10.550;  141.000;  122.000
253.357;   -6.950;   82.000; -153.000
253.499;  -52.975; -374.000; -234.000
253.641;  -94.350; -749.000; -594.000
253.783;  -91.650; -609.000; -527.000
253.925;  -79.225; -586.000; -591.000
254.067; -113.425; -744.000; -667.000
254.209;  -21.650; -391.000; -259.000
254.351; -145.975; -865.000; -883.000
254.493;  -66.500; -441.000; -417.000
254.635; -142.175; -936.000; -818.000
254.777;  -84.425; -752.000; -687.000
254.918;  -78.875; -512.000; -430.000
255.060;  -61.325; -551.000; -395.000
255.202;  -51.175; -473.000; -261.000
255.344;  -75.225; -658.000; -455.000
255.486;  -76.925; -471.000; -406.000
255.628; -113.125; -780.000; -781.000
255.770;  -97.300; -676.000; -536.000
255.912;  -67.900; -559.000; -468.000
256.053;  -91.975; -730.000; -508.000
256.195;  147.125; 1008.000;  903.000
256.337; -105.375; -861.000; -595.000
256.479;   61.750;  532.000;  416.000
256.621;  -58.425; -394.000; -212.000
256.762;  -92.900; -789.000; -742.000
256.904;   63.175;  485.000;  487.000
257.046;  -48.900; -381.000; -271.000
257.188;  -45.250; -351.000; -264.000
257.329;  -73.700; -525.000; -464.000
257.471; -126.375; -939.000; -807.000
257.613;  -68.975; -584.000; -498.000
257.755; -138.050;-1073.000; -982.000
257.896;   36.650;  286.000;  392.000
258.038;  -72.450; -403.000; -352.000
258.180;  -49.400; -354.000; -279.000
258.321;  -99.225; -581.000; -457.000
258.463;  -15.750;  -71.000;  133.000
258.605;  -96.275; -562.000; -570.000
258.746; -106.800; -886.000; -772.000
258.888; -147.900;-1026.000;-1020.000
259.029;   11.275;  121.000;   -8.000
259.171;  -88.325; -614.000; -550.000
259.313;    4.925;  -49.000;  -47.000
259.454;  -79.850; -536.000; -414.000
259.596;  -51.275; -483.000; -390.000
259.737;  -85.325; -590.000; -474.000
259.879;   31.875;  217.000;  311.000
260.020;   91.900;  901.000;  636.000
260.162;  -40.175; -146.000; -253.000
260.303; -127.525; -768.000; -687.000
260.445;  -83.425; -609.000; -613.000
260.586;   11.350;  392.000;  157.000
260.728;  -61.675; -360.000; -248.000
260.869;  -62.925; -350.000; -343.000
261.011;   73.575;  706.000;  537.000
261.152;  -74.700; -479.000; -319.000
261.293;  -87.600; -576.000; -595.000
261.435;  -38.950; -219.000; -184.000
261.576;  -62.100; -455.000; -325.000
261.718;   43.400;  420.000;  470.000
261.859; -122.375; -940.000; -949.000
262.000; -131.525; -951.000;-1016.000
262.142;  -22.500;  -52.000;  -60.000
262.283; -114.600; -808.000; -691.000
262.424;  -90.575; -666.000; -625.000
262.566; -151.900;-1161.000; -983.000
262.707; -115.850; -840.000; -830.000
262.848; -124.925; -769.000; -726.000
262.990;  -51.625; -362.000; -345.000
263.131;   75.600;  650.000;  681.000
263.272;   -7.500;  -61.000;  -41.000
263.413;  -87.075; -589.000; -561.000
263.555;  -77.075; -669.000; -143.000
263.696;  -95.000; -550.000; -641.000
263.837;  -62.450; -449.000; -551.000
263.978;  -12.825;   -5.000;  -77.000
264.119;  -49.675; -283.000; -264.000
264.261; -120.450; -847.000; -630.000
264.402;   -5.275;   33.000;   40.000
264.543;  -75.200; -509.000; -524.000
264.684;  -12.850;   61.000;  -50.000
264.825;  -81.175; -816.000; -538.000
264.966;    7.975;  -84.000;  -67.000
265.107; -125.600; -646.000; -670.000
265.248; -122.500; -825.000; -812.000
265.390;   -7.500;  152.000;   -9.000
265.531;  -28.950; -238.000; -107.000
265.672;  -95.025; -557.000; -630.000
265.813;   53.200;  563.000;  439.000
265.954; -156.075; -959.000; -940.000
266.095;  -11.525; -372.000; -322.000
266.236; -100.875; -686.000; -548.000
266.377;  -41.225; -243.000; -297.000
266.518;  -60.975; -619.000; -547.000
266.659;   24.775;  170.000;  268.000
266.800;   -0.725;   83.000;   85.000
266.941;  -82.125; -487.000; -478.000
267.082;   31.025;  354.000;   99.000
267.223;  -48.275; -344.000; -273.000
267.364; -128.975; -892.000; -686.000
267.504;  -16.800;    3.000;  135.000
267.645;    0.450;  160.000;   67.000
267.786;  -40.800; -147.000;  -86.000
267.927;  -87.475; -473.000; -379.000
268.068;  -22.075; -186.000;  -61.000
268.209;  -40.375; -175.000; -413.000
268.350;  -71.275; -388.000; -532.000
268.490;  -92.050; -648.000; -521.000
268.631;   26.300;  127.000;  225.000
268.772; -119.250; -874.000; -647.000
268.913;  -53.050; -328.000; -476.000
269.054;  -17.350; -117.000;   12.000
269.194;  -41.950; -418.000; -402.000
269.335; -157.050;-1137.000;-1074.000
269.476;  -23.350;   33.000;  -35.000
269.617;  -43.625; -347.000; -392.000
269.757;  -95.000; -713.000; -646.000
269.898; -113.625; -856.000; -613.000
270.039;  -60.100; -415.000; -405.000
270.180; -144.625; -952.000; -816.000
270.320;  -26.650; -190.000; -250.000
270.461;  -44.025; -277.000; -249.000
270.602;  -11.175; -186.000; -156.000
270.742; -125.650; -868.000; -943.000
270.883;  -50.125; -442.000; -390.000
271.023;  -63.850; -358.000; -357.000
271.164;  -69.425; -607.000; -528.000
271.305; -116.700; -666.000; -654.000
271.445; -100.500; -722.000; -683.000
271.586;  -74.100; -462.000; -283.000
271.726;  -34.675; -397.000; -322.000
271.867;  -56.700; -594.000; -534.000
272.008;  166.400; -473.000; -285.000
272.148;  138.675;  462.000;  468.000
272.289;   22.300; -113.000; -181.000
272.429;    7.175;   19.000;  185.000
272.570;  -92.400; -633.000; -737.000
272.710; -107.250; -825.000; -775.000
272.851;  -15.850;  113.000; -130.000
272.991; -174.450;-1173.000;-1077.000
273.131;  -66.775; -419.000; -459.000
273.272; -104.800; -683.000; -723.000
273.412;    2.975; -143.000;  -31.000
273.553;  -65.200; -488.000; -507.000
273.693;  131.200;  913.000;  858.000
273.834;  -92.375; -894.000; -692.000
273.974;  -70.950; -664.000; -615.000
274.114;  -99.450; -772.000; -560.000
274.255;   77.625;  414.000;  373.000
274.395;   -0.600; -180.000; -125.000
274.535;   38.950;  199.000;  350.000
274.676;   26.000;  225.000;   94.000
274.816;   -2.975;  110.000;   34.000
274.956;  -95.275; -624.000; -690.000
275.097;  -63.150;-1014.000; -922.000
275.237; -104.475; -913.000; -803.000
275.377; -101.650; -778.000; -689.000
275.517; -168.100; -878.000; -937.000
275.658;  -51.625; -590.000; -555.000
275.798;  -86.075; -606.000; -413.000
275.938;   10.025;  215.000;  323.000
276.078; -104.025; -626.000; -395.000
276.218;   -2.375;   99.000;  104.000
276.359; -140.775;-1026.000;-1024.000
276.499;  -71.775; -605.000; -446.000
276.639;  -37.100; -305.000; -151.000
276.779;  -54.500; -475.000; -357.000
276.919; -113.625; -783.000; -624.000
277.059;  -27.800; -261.000; -212.000
277.199;  -47.775; -357.000; -259.000
277.340;   38.550;  287.000;  175.000
277.480; -112.375; -840.000; -693.000
277.620;   26.400;  192.000;   16.000
277.760; -197.300;-1533.000;-1294.000
277.900;   18.675;  113.000;   33.000
278.040;    8.500;  137.000;  159.000
278.180;   31.800;  270.000;  170.000
278.320;   -9.275;   21.000;   56.000
278.460;  -69.325; -443.000; -469.000
278.600;  -98.475; -708.000; -598.000
278.740;   48.150;  448.000;  224.000
278.880;  -59.900; -768.000; -791.000
279.020;  -13.325; -194.000; -144.000
279.160;  -98.325; -672.000; -595.000
279.300; -109.350; -926.000; -873.000
279.440;  -89.325; -709.000; -622.000
279.579;  -37.250;-1014.000; -929.000
279.719;  -60.050; -410.000; -394.000
279.859;   65.375;   -4.000;   41.000
279.999;   15.425; -208.000;  101.000
280.139;  -17.550; -435.000; -387.000
280.279;  -81.650; -708.000; -745.000
280.419;  -23.475; -229.000; -147.000
280.559;  -54.650; -259.000; -180.000
280.698;  -96.175; -790.000; -639.000
280.838; -104.775; -778.000; -800.000
280.978;  -95.950; -846.000; -790.000
281.118; -118.325; -811.000; -704.000
281.257;    9.700;   24.000;    6.000
281.397; -123.475;-1094.000; -960.000
281.537;  -94.675; -599.000; -712.000
281.677;  -28.300; -150.000; -101.000
281.816;  -96.575; -700.000; -630.000
281.956;  -34.100; -193.000; -257.000
282.096;  -75.800; -539.000; -396.000
282.235; -103.000; -672.000; -638.000
282.375;  -25.650; -243.000;  -98.000
282.515; -105.175; -715.000; -707.000
282.654;   24.825;   29.000;  106.000
282.794;   14.875;  388.000;  244.000
282.934;  -44.250; -530.000; -491.000
283.073; -143.600;-1030.000; -857.000
283.213;  -58.100; -460.000; -467.000
283.353;  -33.600; -408.000; -349.000
283.492;  -34.150; -264.000; -296.000
283.632;  -54.125; -254.000; -168.000
283.771;  -86.075; -859.000; -730.000
283.911;  -38.425; -369.000; -260.000
284.050; -112.200; -794.000; -748.000
284.190; -154.325;-1229.000;-1096.000
284.329; -148.525;-1055.000; -964.000
284.469;  -76.450; -516.000; -591.000
284.608;  -63.700; -559.000; -598.000
284.748;  -85.625; -614.000; -570.000
284.887;  -13.750;  -87.000;  -20.000
285.027; -127.250; -844.000; -892.000
285.166;  -37.950; -192.000; -249.000
285.306;   -8.300; -116.000;  -33.000
285.445;  -31.250; -229.000; -343.000
285.584;  -96.200; -630.000; -494.000
285.724;  -37.075; -282.000; -322.000
285.863; -121.900; -857.000; -507.000
286.002;  -60.025; -366.000; -276.000
286.142; -112.450; -715.000; -622.000
286.281;  -75.525; -525.000; -493.000
286.420;  -86.075; -554.000; -417.000
286.560;   93.150;  653.000;  623.000
286.699; -144.500; -958.000; -912.000
286.838;  -81.875; -590.000; -591.000
286.978;  -95.350; -533.000; -537.000
287.117; -138.825;-1085.000; -950.000
287.256;  -39.475; -228.000; -211.000
287.395;  -43.700; -197.000; -378.000
287.535;  -53.575; -370.000; -298.000
287.674;  -89.275; -509.000; -484.000
287.813;   63.275;  661.000;  533.000
287.952; -138.800;-1010.000; -871.000
288.091; -164.875;-1049.000; -915.000
288.231;    2.875;   13.000;   15.000
288.370; -174.125;-1217.000;-1200.000
288.509;  -90.450; -728.000; -645.000
288.648;  -99.975; -770.000; -548.000
288.787;  -42.225; -243.000;  -87.000
288.926;  -70.275; -454.000; -475.000
289.065;  126.325;  859.000;  672.000
289.204;  -52.700; -377.000; -217.000
289.344; -100.925; -791.000; -690.000
289.483;   19.075;  416.000;  304.000
289.622;  -21.600; -291.000; -149.000
289.761;  -19.850; -309.000; -166.000
289.900; -116.650; -785.000; -626.000
290.039;   -9.925;  -12.000;  -95.000
290.178;  -37.675; -274.000; -180.000
290.317;  -80.425; -618.000; -479.000
290.456;  -62.450; -463.000; -451.000
290.595; -137.975; -961.000; -833.000
290.734; -133.350; -904.000; -891.000
290.873;  -82.950; -456.000; -420.000
291.011; -126.675; -833.000; -843.000
291.150; -114.925; -770.000; -682.000
291.289;  -31.900; -343.000; -110.000
291.428;  -93.750; -599.000; -480.000
291.567;  -55.875; -370.000; -442.000
291.706;   -9.675;  109.000;  154.000
291.845;  -97.100; -597.000; -505.000
291.984; -181.900;-1234.000;-1061.000
292.122;   74.150;  602.000;  582.000
292.261;   43.700;  620.000;  463.000
292.400;  -13.050; -144.000;  211.000
292.539; -125.725; -959.000; -813.000
292.678;  -33.700; -325.000; -300.000
292.816; -143.400;-1136.000; -965.000
292.955;  -90.025; -844.000; -684.000
293.094;  -23.250; -173.000; -337.000
293.233;  -60.825; -556.000; -400.000
293.371;  -26.550; -225.000;  -84.000
293.510; -121.125; -866.000; -780.000
293.649; -138.225; -959.000; -924.000
293.787;  -67.775;-1083.000;-1012.000
293.926;  -18.375; -113.000;  -32.000
294.065;  -49.650; -379.000; -290.000
294.203;   35.800;  298.000;  406.000
294.342;   29.150;   74.000;  156.000
294.481; 5894.900;51180.000; -836.000
294.619;  -34.250; -425.000; -582.000
294.758; -148.000;-1230.000;-1137.000
294.896;   56.250; -125.000;    5.000
295.035; -122.150;-1040.000;-1006.000
295.174; -117.375;-1082.000; -954.000
295.312;  -54.175; -323.000; -203.000
295.451;  -18.100; -307.000; -428.000
295.589;  -49.000; -389.000; -518.000
295.728;   11.400; -292.000; -165.000
295.866;  -12.225;  -36.000;  -51.000
296.005;  -62.050; -584.000; -341.000
296.143;  -73.975; -558.000; -596.000
296.282;  -97.375; -957.000; -881.000
296.420;  -81.500; -657.000; -557.000
296.559;  -88.875; -892.000; -633.000
296.697;    8.775; -847.000; -665.000
296.835;   57.475;-1141.000;-1002.000
296.974;   42.125;  -23.000;   39.000
297.112;    4.525; -443.000; -504.000
297.251;  -84.800; -815.000; -755.000
297.389;   78.275; -576.000; -438.000
297.527;   30.175; -145.000;  -83.000
297.666;  -60.300; -486.000; -438.000
297.804;  -42.075; -404.000; -264.000
297.942;  -15.650; -136.000; -161.000
298.081;   -6.875; -183.000;   63.000
298.219;   80.375;  -17.000;  -19.000
298.357;   35.500; -144.000;  -71.000
298.495;   28.600; -810.000; -812.000
298.634;   60.600;  245.000;  219.000
298.772;   52.175; -220.000; -338.000
298.910;  -42.650; -309.000; -182.000
299.048;  -16.750; -130.000; -153.000
299.187;  -22.050; -350.000; -250.000
299.325;   22.150;   52.000;  122.000
299.463;   40.625; -389.000; -299.000
299.601;  116.950; -327.000; -271.000
299.739; -108.875; -908.000; -883.000
299.877;  -97.225; -791.000; -703.000
300.016;  -48.625;-1095.000; -935.000
300.154;  151.250;  -19.000; -161.000
300.292;   49.400; -428.000; -348.000
300.430;   18.050; -408.000; -291.000
300.568; -105.625; -940.000; -874.000
300.706;  -57.850; -366.000; -469.000
300.844;  -88.025;-1108.000; -979.000
300.982;  120.325;  246.000;  282.000
301.120; -123.000; -965.000; -866.000
301.258;  -66.200; -812.000; -705.000
301.396;   32.775;  104.000;  -41.000
301.534;   86.425; -218.000; -293.000
301.672;   -7.450; -664.000; -521.000
301.810;   18.525; -613.000; -545.000
301.948;  112.925;   53.000;  149.000
302.086;  603.800; -250.000;  -32.000
302.224;  926.600; -610.000; -585.000
302.362;   42.250; -558.000; -622.000
302.500;  -32.700; -923.000; -893.000
302.638;   96.250;  128.000;  245.000
302.776;  -16.200; -352.000; -408.000
302.913;   49.650;  447.000;  236.000
303.051;   -4.700;  -86.000;  -23.000
303.189;   45.525;   90.000;  118.000
303.327;  -43.850; -341.000; -256.000
303.465;  -68.075; -832.000; -588.000
303.603; -103.550; -805.000; -604.000
303.740;   95.850;  417.000;  241.000
303.878;    7.600; -800.000; -759.000
304.016; -100.150; -915.000; -790.000
304.154; -135.075;-1123.000;-1152.000
304.291;  -39.225; -505.000; -554.000
304.429;   -0.175;  102.000;   74.000
304.567; -131.325; -908.000; -893.000
304.705;  -55.775; -408.000; -515.000
304.842;   86.250; -616.000; -540.000
304.980;   44.675;  215.000;   35.000
305.118;   38.850; -367.000; -365.000
305.255;  -77.900; -945.000; -927.000
305.393;   59.425;  178.000;  239.000
305.531; -105.525;-1173.000; -956.000
305.668;  -69.050; -663.000; -582.000
305.806;   98.175; -358.000; -439.000
305.943;   86.950; -629.000; -637.000
306.081;   39.575; -378.000; -267.000
306.219; -101.575; -863.000; -748.000
306.356;    0.775;  158.000;   27.000
306.494;  106.125;  981.000;  761.000
306.631;  -15.300;  -11.000;  -55.000
306.769;    5.050; -613.000; -485.000
306.906;  -19.150; -284.000; -258.000
307.044;  -73.650; -473.000; -488.000
307.181;  -67.300; -410.000; -332.000
307.319;   26.625;  112.000;   87.000
307.456; -183.250;-1191.000;-1153.000
307.594;  -98.050; -980.000; -727.000
307.731;  -24.525; -371.000; -164.000
307.868;  -11.625;  -15.000;   20.000
308.006; -137.925; -961.000; -847.000
308.143;  -72.325; -618.000; -330.000
308.281;  123.975;  -37.000; -254.000
308.418;  -26.700; -748.000; -640.000
308.555;  -76.850; -400.000; -250.000
308.693;  -72.250; -577.000; -573.000
308.830; -121.725; -712.000; -657.000
308.967;   -8.025; -215.000;  -95.000
309.105;  -67.850; -507.000; -396.000
309.242;   18.200; -468.000; -367.000
309.379;  246.100; -577.000; -655.000
309.517;  -74.950; -936.000; -948.000
309.654; -108.900; -910.000; -734.000
309.791;  -66.175; -662.000; -580.000
309.928; -128.900; -977.000; -914.000
310.065;  165.500;  819.000;  697.000
310.203;  -18.575; -825.000; -850.000
310.340;  -27.025; -465.000; -321.000
310.477;  -89.125; -412.000; -516.000
310.614;  -77.150; -383.000; -473.000
310.751;  -76.925; -427.000; -518.000
310.889;  -28.575;    1.000;   11.000
311.026; -145.850;-1161.000; -939.000
311.163;  -49.250; -386.000; -380.000
311.300;  -84.825; -512.000; -479.000
311.437;  -84.875; -658.000; -619.000
311.574; -162.850;-1226.000; -985.000
311.711;  -66.025; -595.000; -433.000
311.848;  -47.700; -380.000; -388.000
311.985;   -2.175;  270.000;   93.000
312.122; -124.225; -932.000; -762.000
312.259; -119.975; -941.000; -994.000
312.396;  -83.200; -508.000; -551.000
312.533; -101.850; -812.000; -790.000
312.670; -144.575;-1070.000; -898.000
312.807;  -34.575; -352.000; -367.000
312.944;  -82.975; -513.000; -611.000
313.081;  -42.450; -150.000; -415.000
313.218; -107.275;-1111.000; -867.000
313.355;   17.275; -531.000; -449.000
313.492;    2.650; -455.000; -292.000
313.629;  132.675;  815.000;  735.000
313.766; -168.225;-1176.000;-1008.000
313.902;  -21.200; -186.000;   21.000
314.039;  -65.925; -372.000; -289.000
314.176;   24.525;  286.000;  192.000
314.313;  -71.975; -569.000; -473.000
314.450;  -82.225; -788.000; -684.000
314.587;  -72.425; -468.000; -480.000
314.723;    9.700;  -78.000;  130.000
314.860;   22.650;  318.000;  332.000
314.997;   34.325;  223.000;  142.000
315.134;  -54.725; -385.000; -368.000
315.270;  -36.675; -480.000; -496.000
315.407; -125.300;-1094.000; -967.000
315.544;  -43.875; -657.000; -538.000
315.681;  -60.175; -681.000; -565.000
315.817;   29.675; -133.000; -176.000
315.954;    4.200; -613.000; -392.000
316.091; -131.475;-1045.000;-1023.000
316.227;  -25.275;  -71.000; -179.000
316.364;   -1.350;   23.000;    6.000
316.500;  -41.275; -113.000; -300.000
316.637;  -52.550; -181.000; -302.000
316.774;  -92.325; -625.000; -358.000
316.910; -102.650; -598.000; -629.000
317.047;  -74.425; -487.000; -351.000
317.183;  -46.900; -435.000; -566.000
317.320;  -14.400; -367.000; -321.000
317.456;  -80.500; -733.000; -805.000
317.593;  -89.925; -598.000; -641.000
317.729;   -0.625;  168.000;  -67.000
317.866; -194.050;-1434.000;-1285.000
318.002;  -94.050; -708.000; -948.000
318.139; -100.100; -883.000; -867.000
318.275; -108.525;-1003.000; -738.000
318.412;  -62.650; -517.000; -336.000
318.548;  -23.550; -751.000; -720.000
318.685;  -98.225; -985.000; -888.000
318.821; -103.175; -762.000; -735.000
318.957;  -15.200;   34.000;  -23.000
319.094;   43.050;  297.000;  154.000
319.230;  -79.225; -756.000; -742.000
319.367;  112.800; -471.000; -520.000
319.503;   51.825; -538.000; -436.000
319.639; -107.125; -877.000; -793.000
319.775;  -58.750; -750.000; -685.000
319.912;  -44.125; -424.000; -519.000
320.048; -112.850;-1184.000;-1184.000
320.184;   68.925;   59.000;   70.000
320.321;  -81.325; -497.000; -467.000
320.457;   68.525;  475.000;  662.000
320.593;  -56.250; -375.000; -382.000
320.729; -118.675; -732.000; -734.000
320.866;  -82.675; -577.000; -635.000
321.002;  -77.475; -759.000; -809.000
321.138;  -18.650; -135.000; -211.000
321.274;   72.475; -148.000; -115.000
321.410;  -43.425; -585.000; -353.000
321.546;  -25.250;-1011.000; -911.000
321.683;   43.175;  400.000;  185.000
321.819;   -9.275;  -48.000; -117.000
321.955; -127.775; -743.000; -722.000
322.091;  -55.975; -585.000; -540.000
322.227;  -15.925; -382.000; -202.000
322.363;  -14.350; -320.000; -215.000
322.499;  -51.650; -343.000; -331.000
322.635;  153.200;  636.000;  443.000
322.771;    5.125; -139.000;   12.000
322.907;   89.050;  129.000;  327.000
323.043;  -33.550; -115.000; -206.000
323.179;  -37.825; -394.000; -363.000
323.315;    5.225; -401.000; -371.000
323.451;   74.875; -328.000; -236.000
323.587;   47.400;  -60.000;  -77.000
323.723;    5.850; -682.000; -601.000
323.859;   -5.625; -258.000;  -76.000
323.995;  -32.425; -467.000; -409.000
324.131; -137.700; -967.000; -892.000
324.267;  -44.050; -254.000; -276.000
324.402; -125.425; -960.000; -983.000
324.538;  -24.450; -279.000; -104.000
324.674;   19.075;  164.000;   77.000
324.810;  118.400;  226.000;  308.000
324.946;   -4.150; -810.000; -658.000
325.082;  -74.200; -568.000; -475.000
325.217;  -12.425;  -62.000;   16.000
325.353;  -94.875; -764.000; -659.000
325.489;  -89.350; -540.000; -506.000
325.625;  -72.825; -579.000; -525.000
325.760;   66.950;  517.000;  376.000
325.896;  -27.350; -515.000; -702.000
326.032;  -71.425; -403.000; -352.000
326.168;  -63.900; -462.000; -369.000
326.303;  -62.000; -352.000; -461.000
326.439;  -26.075; -336.000; -276.000
326.575;    9.000; -190.000;  -29.000
326.710;   -5.375; -156.000;  -30.000
326.846;  -13.125;  146.000;  103.000
326.982; -103.025; -530.000; -548.000
327.117;  -68.375; -481.000; -442.000
327.253;  -81.425; -745.000; -742.000
327.388; -177.725;-1137.000;-1153.000
327.524;  -73.300; -811.000; -578.000
327.659;  -24.250;  -58.000;  -22.000
327.795;  -12.875;   69.000;   45.000
327.931;  -92.375; -723.000; -499.000
328.066;  -38.175; -417.000; -276.000
328.202;  -17.450;   12.000; -129.000
328.337;  101.175;  957.000;  713.000
328.473;   33.175;  -12.000;  -74.000
328.608;  -45.200; -256.000; -267.000
328.743;  -93.750; -799.000; -664.000
328.879;   13.900;  214.000;  114.000
329.014;  -24.675; -102.000; -122.000
329.150;  -92.950; -358.000; -483.000
329.285;  -82.275; -465.000; -466.000
329.421;  -67.850; -548.000; -246.000
329.556;  -20.275;  -36.000;   85.000
329.691;  -94.775; -633.000; -615.000
329.827;  -95.175; -626.000; -480.000
329.962;  -43.325;  131.000; -301.000
330.097;  -92.375; -673.000; -585.000
330.233;  -52.550; -410.000; -223.000
330.368; -135.575; -839.000; -628.000
330.503;  -25.775;    3.000;   98.000
330.638;   -1.250;  -93.000; -125.000
330.774;  -66.600; -609.000; -530.000
330.909;  -48.600; -434.000; -244.000
331.044;  -99.225; -714.000; -708.000
331.179; -186.850;-1217.000;-1109.000
331.315;    1.950;   77.000;   20.000
331.450;   10.725;  157.000;  285.000
331.585;  -97.450; -805.000; -706.000
331.720;  -96.400; -510.000; -460.000
331.855;  -19.775;  -35.000; -102.000
331.990;  246.200;   62.000;  138.000
332.126;  128.650; -110.000;   71.000
332.261;  -21.100; -379.000; -265.000
332.396;    0.375; -135.000; -242.000
332.531; -112.050;-1074.000;-1031.000
332.666;   23.350; -519.000; -363.000
332.801; -106.800; -726.000; -807.000
332.936;  -16.500; -192.000; -122.000
333.071; -130.675; -870.000; -817.000
333.206;   23.575;  307.000;  379.000
333.341;   17.225;  344.000;  418.000
333.476;  -94.850; -627.000; -623.000
333.611;  -43.475; -251.000; -173.000
333.746;  -52.125; -381.000; -464.000
333.881; -130.150; -973.000; -935.000
334.016; -126.275; -936.000; -917.000
334.151; -121.025; -746.000; -702.000
334.286;   24.900;  152.000;  186.000
334.421;  -15.375; -125.000; -178.000
334.556;  -83.600; -611.000; -567.000
334.690; -101.125; -631.000; -577.000
334.825;   54.350;  381.000;   83.000
334.960;  -72.975; -285.000; -413.000
335.095;   -2.250;  135.000;  -91.000
335.230;  -94.550; -722.000; -738.000
335.365; -134.075;-1084.000; -990.000
335.499; -143.825;-1108.000;-1037.000
335.634;   15.000;    9.000;  534.000
335.769; -108.000; -755.000; -720.000
335.904;  -73.400; -603.000; -561.000
336.038;  -66.250; -735.000; -657.000
336.173; -131.875;-1206.000;-1194.000
336.308;   -2.950; -116.000; -189.000
336.443;   13.875; -544.000; -634.000
336.577;  -87.925; -936.000; -787.000
336.712;   63.100;   -4.000;  -12.000
336.847;  -51.075; -724.000; -607.000
336.981;   70.400; -272.000; -208.000
337.116;  276.975;  615.000;  501.000
337.250;  135.400; -434.000; -421.000
337.385;  244.525; -297.000; -208.000
337.520;   82.725; -632.000; -603.000
337.654;  -56.150; -215.000; -126.000
337.789; -124.275; -989.000; -933.000
337.923;  -30.850; -104.000; -205.000
338.058;  -92.075; -673.000; -738.000
338.192;  -45.175; -611.000; -488.000
338.327;   -4.700;  -18.000; -155.000
338.461;  -53.550; -299.000; -469.000
338.596; -102.300; -780.000; -638.000
338.730; -101.500; -767.000; -803.000
338.865;   85.775;  -46.000; -140.000
338.999;  -50.175; -846.000; -702.000
339.134;  -32.875; -634.000; -536.000
339.268;    2.075; -741.000; -603.000
339.403;  366.125; -740.000; -775.000
339.537;  110.075; -894.000; -820.000
339.671; -118.550; -829.000; -813.000
339.806;  -63.075; -556.000; -512.000
339.940;   10.975; -261.000; -235.000
340.074; -103.400; -685.000; -510.000
340.209;  -45.725; -351.000; -230.000
340.343;  -99.650; -517.000; -573.000
340.477;  161.250;  998.000; 1036.000
340.612;  -57.025;-1033.000; -900.000
340.746;  130.900; -199.000; -243.000
340.880;  -73.450; -924.000; -785.000
341.014;  -18.425;  -45.000; -154.000
341.149; -116.625; -756.000; -718.000
341.283; -116.550; -839.000; -754.000
341.417; -107.450;-1124.000; -938.000
341.551;  111.825; -768.000; -708.000
341.685;  -46.075; -633.000; -611.000
341.820;  -60.075; -562.000; -493.000
341.954;  -60.550; -218.000; -349.000
342.088; -158.325;-1102.000;-1019.000
342.222;   45.025;  565.000;  618.000
342.356;  -63.150; -395.000; -335.000
342.490; -104.875; -880.000; -841.000
342.624;  -42.925; -339.000; -242.000
342.758;  -17.075; -364.000; -312.000
342.892;  -63.850; -710.000; -585.000
343.026;  -39.625;  -58.000; -116.000
343.160;  -60.250; -426.000; -376.000
343.294;  -87.100; -474.000; -337.000
343.428;  -29.750; -488.000; -448.000
343.562;  -34.425; -172.000;  -23.000
343.696;  -37.100; -385.000; -314.000
343.830;  -20.725; -362.000; -356.000
343.964;   22.200; -231.000; -168.000
344.098;  869.900;  199.000;   70.000
344.232;  756.200; -266.000; -127.000
344.366;   79.150; -567.000; -453.000
344.500;   43.700; -665.000; -744.000
344.634;   12.000; -324.000; -164.000
344.768;  -28.125; -531.000; -341.000
344.902;   17.150;  278.000;  256.000
345.035;  -75.500; -556.000; -496.000
345.169; -136.225; -933.000; -656.000
345.303;  -66.450; -308.000; -482.000
345.437;  -86.075; -826.000; -717.000
345.571;  -71.700; -675.000; -594.000
345.704;  -68.250; -309.000; -532.000
345.838;  -20.925; -331.000; -284.000
345.972;  -50.675; -543.000; -495.000
346.106;  155.725; -179.000; -190.000
346.239;  411.925; -312.000; -243.000
346.373;   -6.325; -343.000; -302.000
346.507; -141.350; -950.000; -962.000
346.640;  133.450;  -30.000;   13.000
346.774;  -46.500; -650.000; -797.000
346.908;  -11.225; -138.000;  -11.000
347.041; -104.575; -646.000; -593.000
347.175;    3.425;  259.000;   27.000
347.309;  -61.925; -698.000; -628.000
347.442; -108.550; -883.000; -732.000
347.576;  260.075;  670.000;  668.000
347.709;  185.875; -123.000;  -52.000
347.843; -104.925; -933.000; -825.000
347.976;   29.800;  235.000;  294.000
348.110; -189.225;-1268.000;-1186.000
348.243; -103.200; -679.000; -772.000
348.377;   -0.300;  -26.000;   60.000
348.510;   50.175;  403.000;  540.000
348.644;  -39.875;  -37.000; -159.000
348.777;   -9.000;  180.000;  191.000
348.911;  -59.250; -142.000; -112.000
349.044;  158.525;  471.000;  448.000
349.178;  133.375;-1069.000;-1006.000
349.311;  105.250;  141.000;  255.000
349.444;  -24.800; -927.000; -813.000
349.578;  -21.525; -347.000; -200.000
349.711; -117.950; -959.000; -862.000
349.845;  -10.375; -661.000; -591.000
349.978; -154.550;-1224.000;-1137.000
350.111;  -86.725; -546.000; -612.000
350.244;  -90.975; -596.000; -700.000
350.378;    3.275; -392.000; -393.000
350.511;  -72.375; -393.000; -426.000
350.644; -110.050; -808.000; -806.000
350.778;   -0.250;  168.000;  104.000
350.911;    8.125;  134.000;  140.000
351.044; -105.175; -685.000; -615.000
351.177;  -36.775; -321.000; -281.000
351.310;  -26.425;    3.000; -131.000
351.444;  -87.300; -888.000; -788.000
351.577;  111.300;  140.000;   90.000
351.710;   88.350;  593.000;  417.000
351.843;  -37.100; -165.000;  -77.000
351.976;    1.750;  149.000;  -79.000
352.109;  -97.400; -621.000; -612.000
352.242;  -27.800; -464.000; -419.000
352.376;  -62.350; -580.000; -636.000
352.509;  169.100; -437.000; -356.000
352.642;   13.725; -654.000; -604.000
352.775;   57.975; -141.000;  -98.000
352.908; -118.700; -933.000; -904.000
353.041; -106.125; -814.000; -824.000
353.174;  -70.525; -551.000; -424.000
353.307;  -79.275; -753.000; -764.000
353.440;   69.025;  541.000;  453.000
353.573; -106.075; -957.000;-1008.000
353.706;  -33.350; -384.000; -558.000
353.839;  -24.800; -264.000; -220.000
353.971; -101.000; -657.000; -512.000
354.104;  -87.325; -896.000; -835.000
354.237;  -38.675; -627.000; -662.000
354.370;  -81.225; -846.000; -879.000
354.503; -193.550;-1231.000;-1308.000
354.636;  -40.475; -529.000; -348.000
354.769; -128.625; -937.000; -860.000
354.902;  -17.600; -230.000; -139.000
355.034;  -23.275; -164.000; -220.000
355.167;  -15.950; -262.000; -162.000
355.300;  -94.075;-1061.000; -880.000
355.433;  971.050;  -71.000;  -14.000
355.565; 1492.000; -402.000; -384.000
355.698;  385.525; -356.000; -296.000
355.831;  -13.375; -882.000; -801.000
355.964;   63.150; -285.000; -170.000
356.096;  -83.775; -856.000; -843.000
356.229;   -4.125; -523.000; -530.000
356.362;  309.525; -373.000; -266.000
356.494;  586.700; -229.000; -162.000
356.627;  467.500;  269.000;  377.000
356.760;  670.875;  120.000;   53.000
356.892;  948.950; -286.000; -601.000
357.025;  644.025;  403.000;  389.000
357.157;  574.250; -167.000; -179.000
357.290;  673.225; -856.000; -713.000
357.423;  198.600; -667.000; -556.000
357.555;  121.550; -217.000; -228.000
357.688;  123.025; -483.000; -364.000
357.820;  450.900; -870.000; -877.000
357.953; 3642.325; -563.000; -589.000
358.085;  789.175; -632.000; -612.000
358.218; 1068.500;-1131.000; -932.000
358.350;  187.475;  -58.000;  312.000
358.483; -136.625;-1300.000;-1187.000
358.615;  -29.700;-1182.000;-1078.000
358.747;  -77.350;-1187.000;-1058.000
358.880;   14.200; -810.000; -744.000
359.012;    1.125; -376.000; -202.000
359.145;  -37.250; -480.000; -511.000
359.277;   49.100; -962.000; -913.000
359.409; 3012.125;  536.000;  231.000
359.542;  778.200; -738.000; -688.000
359.674;   62.300;   46.000;   13.000
359.806;  -66.925; -565.000; -438.000
359.939;  -62.375; -617.000; -516.000
360.071;  -23.850; -583.000; -579.000
360.203;  -24.625; -411.000; -364.000
360.335;   20.950;  164.000;  -16.000
360.468;  170.550; -249.000; -307.000
360.600; 2430.925; -547.000; -454.000
360.732; 2858.700; -546.000; -423.000
360.864;  380.700;-1216.000;-1044.000
360.996;  267.400; -516.000; -554.000
361.129;   45.175; -389.000; -598.000
361.261;   17.550;  110.000; -113.000
361.393;  -32.325; -252.000; -214.000
361.525;   32.050;   94.000;  244.000
361.657;  -44.300; -821.000; -703.000
361.789;   11.625; -139.000; -155.000
361.921;  216.100; -642.000; -593.000
362.053;  240.550;  524.000;  541.000
362.185;   47.325;  288.000;   72.000
362.318;  -86.600; -709.000; -705.000
362.450;  118.475;  294.000;  444.000
362.582;   84.200; -913.000; -870.000
362.714;  -45.925; -353.000; -332.000
362.846;  -75.575; -606.000; -490.000
362.978; -136.975; -941.000; -811.000
363.109;   37.850; -161.000; -260.000
363.241;  424.800; -739.000; -749.000
363.373;  431.650; -649.000; -564.000
363.505;  653.425; -186.000;  -91.000
363.637;  159.050; -787.000; -601.000
363.769; -123.375;-1067.000;-1080.000
363.901;  -67.875; -596.000; -654.000
364.033; -111.450;-1103.000;-1062.000
364.165;    0.550; -283.000; -283.000
364.296;   86.250; -316.000; -177.000
364.428;   68.575;-1344.000;-1220.000
364.560;  -79.775; -679.000; -661.000
364.692;  -63.150; -738.000; -835.000
364.824;  263.825; -588.000; -456.000
364.955;  432.900; -402.000; -564.000
365.087;  926.275;-1097.000; -852.000
365.219;   13.350; -686.000; -816.000
365.351;  -76.400; -526.000; -572.000
365.482;   44.275;  300.000;  240.000
365.614;  -54.250; -402.000; -314.000
365.746; -101.700; -729.000; -752.000
365.877; -102.100; -706.000; -672.000
366.009;  259.175;  -35.000;  -62.000
366.141;  -92.200;-1249.000;-1134.000
366.272; -104.525; -803.000; -719.000
366.404; -121.700;-1005.000; -874.000
366.535;   -8.800; -139.000;  -12.000
366.667; -120.450; -644.000; -649.000
366.799;   37.900;  353.000;  203.000
366.930; -115.125; -862.000; -996.000
367.062;  131.975; -639.000; -613.000
367.193;  128.800; -872.000; -842.000
367.325;  -70.825; -580.000; -684.000
367.456;   52.450; -246.000;   31.000
367.588;  160.050; -371.000; -318.000
367.719;   23.375;  -44.000;  -45.000
367.851;  -17.675; -222.000; -241.000
367.982;  -52.950; -875.000; -732.000
368.113;   97.875; -475.000; -358.000
368.245; -122.525; -960.000; -841.000
368.376;  -23.550; -254.000; -302.000
368.508;  -44.725; -188.000; -263.000
368.639; -150.200;-1166.000;-1034.000
368.770;  -27.750; -670.000; -589.000
368.902;  -78.525; -836.000; -926.000
369.033; -116.975; -906.000; -855.000
369.164;  -56.125; -720.000; -653.000
369.296; -114.550; -452.000; -601.000
369.427;   -0.350; -209.000; -144.000
369.558;  -63.850; -593.000; -377.000
369.689;  -95.950; -721.000; -569.000
369.821; -135.950; -951.000; -845.000
369.952;  -19.075;   42.000; -108.000
370.083;  -48.325; -229.000; -108.000
370.214;  -87.150; -735.000; -650.000
370.345;  -12.400;   65.000;   81.000
370.477;  -87.800; -810.000; -790.000
370.608;  222.625; -328.000; -264.000
370.739;  -54.925;-1233.000;-1292.000
370.870;  -45.825;-1102.000; -923.000
371.001;  103.350; -378.000; -467.000
371.132;  -81.425; -754.000; -735.000
371.263;  -23.550;  -42.000; -148.000
371.394; -133.725; -841.000; -748.000
371.525;   30.625;  345.000;  225.000
371.657;  -98.425; -808.000; -670.000
371.788;   74.950;  103.000;  199.000
371.919;  150.350; -384.000; -304.000
372.050; 3545.975;  -91.000; -156.000
372.181; 1054.500; -188.000; -294.000
372.311;  350.025;   42.000; -127.000
372.442;   26.650; -457.000; -451.000
372.573;  -40.550; -444.000; -340.000
372.704; -122.875;-1008.000; -980.000
372.835;   82.875; -228.000; -289.000
372.966;  -81.500; -646.000; -554.000
373.097;  -80.800; -575.000; -711.000
373.228;  -56.900; -717.000; -542.000
373.359;  122.975; -824.000; -536.000
373.490;  888.450; -881.000; -727.000
373.620; 1118.575;-1001.000; -803.000
373.751; 1732.400; -332.000; -396.000
373.882;  773.625; -663.000; -733.000
374.013;   66.375; -449.000; -262.000
374.143;  -41.425; -581.000; -659.000
374.274; -121.550; -987.000; -908.000
374.405;  160.400; -388.000; -276.000
374.536;  423.650; -526.000; -387.000
374.666; 1082.975; -759.000; -807.000
374.797;  204.950; -817.000; -868.000
374.928;  803.550; -710.000; -560.000
375.058;  870.075; -535.000; -500.000
375.189;   65.825;  -59.000;  -93.000
375.320; -119.450; -928.000;-1034.000
375.450;  -41.450; -625.000; -616.000
375.581;  -60.325; -526.000; -436.000
375.712;  -40.075; -574.000; -250.000
375.842;  291.225; -438.000; -415.000
375.973;  208.375; -554.000; -513.000
376.103;  -46.800; -665.000; -648.000
376.234;  -89.575; -531.000; -552.000
376.364;  -49.675; -944.000; -867.000
376.495;  322.125;  925.000;  529.000
376.625;  -11.900; -472.000; -485.000
376.756;   54.725; -709.000; -678.000
376.886;  -87.025;-1178.000;-1026.000
377.017;   43.325;-1048.000;-1061.000
377.147;  347.000; -786.000; -782.000
377.278;   82.175;  174.000;  228.000
377.408; -127.700; -801.000; -815.000
377.538; -109.725; -707.000; -693.000
377.669;  -83.525; -537.000; -613.000
377.799;  -81.000; -645.000; -635.000
377.929;  -75.425; -610.000; -428.000
378.060; -127.825; -781.000; -847.000
378.190;  -52.975; -726.000; -531.000
378.320;  -41.675; -401.000; -406.000
378.451;  -17.925; -131.000;  -22.000
378.581;    1.625;  -67.000; -110.000
378.711;  144.000; 1035.000;  866.000
378.841;  -36.450; -533.000; -675.000
378.972;  -89.650; -871.000; -751.000
379.102;  -13.250; -652.000; -579.000
379.232;  -30.325; -126.000;  -73.000
379.362;  -95.075;-1001.000; -885.000
379.492;   -8.500; -373.000; -424.000
379.623;   96.700;    0.000;  111.000
379.753; -101.075;-1107.000; -974.000
379.883;  195.075;   59.000;  156.000
380.013;    1.050;-1081.000;-1017.000
380.143;  -95.650;-1097.000;-1056.000
380.273; -108.600; -985.000; -861.000
380.403;   -2.675; -344.000; -257.000
380.533;  -27.125; -651.000; -664.000
380.663;   65.450;  173.000;  128.000
380.793; -108.225;-1027.000;-1074.000
380.923;  -41.200; -103.000;  -34.000
381.053; -100.700; -613.000; -623.000
381.183;  -30.500; -106.000; -248.000
381.313;   19.675; -656.000; -470.000
381.443;   40.600; -692.000; -473.000
381.573;  187.450; -402.000; -409.000
381.703;  255.275;-1249.000;-1095.000
381.833; -140.350;-1454.000;-1336.000
381.963;  107.300; -134.000;  -87.000
382.093; 1379.450; -925.000; -909.000
382.223;  406.225; -713.000; -602.000
382.353;  -31.825; -801.000; -608.000
382.482;  356.575;-1091.000; -964.000
382.612;  739.875; -872.000; -644.000
382.742;  424.875; -695.000; -622.000
382.872;  231.275; -565.000; -551.000
383.002;   62.275;  347.000; -132.000
383.131;  -27.950; -226.000; -160.000
383.261;  -60.475; -706.000; -768.000
383.391;  276.250; -552.000; -377.000
383.521; 3222.650;  451.000;  263.000
383.650;  758.625; -947.000; -904.000
383.780;   -9.425; -783.000; -656.000
383.910;  108.075;  880.000;  802.000
384.039;    7.075; -794.000; -656.000
384.169;  196.150;-1205.000;-1017.000
384.299;  -36.300; -650.000; -662.000
384.428;  -96.925; -764.000; -680.000
384.558;  -50.350; -308.000; -275.000
384.687;  -49.775; -414.000; -334.000
384.817;    9.500;   75.000;   -2.000
384.947;   26.250; -234.000; -141.000
385.076;  279.325;  982.000;  912.000
385.206;   98.400;  369.000;  480.000
385.335;  -38.525; -549.000; -417.000
385.465;  -85.975; -655.000; -663.000
385.594;  124.650;  -53.000;  -44.000
385.724;  403.625; -868.000; -838.000
385.853;  116.350; -296.000; -270.000
385.982; 1344.950; -743.000; -787.000
386.112; 2075.850;-1052.000; -871.000
386.241;  130.700; -307.000; -312.000
386.371;   -3.200; -174.000;  -87.000
386.500;    3.375; -825.000; -789.000
386.629;   21.325; -874.000; -817.000
386.759;   60.900;  -43.000;   68.000
386.888;   -9.350; -170.000; -250.000
387.017;  -85.250; -648.000; -620.000
387.147;  -97.375; -771.000; -798.000
387.276;   -6.125; -410.000; -397.000
387.405;    7.400; -398.000; -342.000
387.535;  -59.150; -452.000; -361.000
387.664;  -70.425; -692.000; -620.000
387.793;   49.625; -198.000; -113.000
387.922;  496.000;  255.000;  200.000
388.052;    8.825; -576.000; -423.000
388.181;    4.575; -342.000; -472.000
388.310;  -20.625; -889.000; -710.000
388.439;  -52.800; -749.000; -742.000
388.568;  173.025;  365.000;  244.000
388.697; 1012.275; -756.000; -653.000
388.826;  190.625; -768.000; -666.000
388.956;   48.425; -285.000; -307.000
389.085;  -33.325; -347.000; -287.000
389.214; -121.450; -842.000; -872.000
389.343;  -77.600; -645.000; -413.000
389.472;  402.725;  126.000;  149.000
389.601;  508.225;   91.000;    0.000
389.730;   23.125; -568.000; -687.000
389.859;   49.850;  226.000;   46.000
389.988;  165.425; -423.000; -408.000
390.117;  144.050; -168.000; -146.000
390.246;   -6.100; -331.000; -320.000
390.375;   88.950; -673.000; -626.000
390.504;  -65.500; -703.000; -621.000
390.633;  -94.350; -672.000; -726.000
390.761;  -68.650; -732.000; -645.000
390.890;    5.475;   -4.000; -130.000
391.019;  -28.000; -421.000; -441.000
391.148; -126.200; -826.000; -855.000
391.277;  -74.925; -576.000; -493.000
391.406;  -81.975; -821.000; -805.000
391.534;   15.550;  574.000; -301.000
391.663;  -66.250; -583.000; -645.000
391.792;  -89.650; -673.000; -701.000
391.921;   98.825;   -3.000;   15.000
392.050;  171.325; -287.000; -228.000
392.178;  -53.750;-1206.000;-1061.000
392.307;  132.650; -758.000; -712.000
392.436;   63.300; -427.000; -641.000
392.564;   24.675;  166.000;   -6.000
392.693;  -94.800; -860.000; -682.000
392.822;  194.300; -529.000; -534.000
392.950;   81.700; -880.000; -714.000
393.079;  327.650; -188.000; -328.000
393.208;   26.700; -488.000; -511.000
393.336;  -14.050; -170.000; -145.000
393.465;  -53.675; -317.000; -199.000
393.593;   22.300;   62.000;   79.000
393.722; -161.750;-1121.000; -916.000
393.850;  -40.700; -188.000;  -61.000
393.979; -156.225; -926.000; -805.000
394.107;  -66.350; -517.000; -537.000
394.236;  -43.350; -570.000; -507.000
394.364;  194.050;  383.000;  206.000
394.493;  286.350; -911.000; -767.000
394.621;  -30.925; -955.000; -916.000
394.750;  713.400; -873.000; -923.000
394.878; 2927.825; -247.000; -149.000
395.007; 3980.525; -721.000; -807.000
395.135;  309.925; -790.000; -721.000
395.263; -111.200;-1038.000;-1040.000
395.392;   -4.925;  -25.000; -107.000
395.520; -150.225; -818.000; -679.000
395.648;  -92.000; -865.000; -915.000
395.777;  -33.950; -366.000; -405.000
395.905;  -52.600; -449.000; -564.000
396.033;    7.625;  217.000;  172.000
396.162;  470.900; -399.000; -453.000
396.290;  409.950;  -17.000;   -2.000
396.418;   76.200; -555.000; -514.000
396.546;  -73.875; -571.000; -466.000
396.674;  -87.825; -850.000; -878.000
396.803;   -1.950;  -72.000;  -23.000
396.931;   84.700; -179.000; -199.000
397.059;   32.425;-1026.000; -989.000
397.187; -117.825;-1026.000; -975.000
397.315; -133.825; -884.000; -649.000
397.443;  -95.975; -592.000; -443.000
397.572;  -97.775; -578.000; -424.000
397.700;   -8.775; -607.000; -614.000
397.828;    2.925;  120.000;  -90.000
397.956;  -46.025; -508.000; -478.000
398.084;  -62.450; -767.000; -626.000
398.212;   24.750;  137.000;  124.000
398.340;    7.525;  -56.000;  159.000
398.468;   22.300; -390.000; -169.000
398.596; -138.650; -993.000; -953.000
398.724; -123.125; -762.000; -767.000
398.852; -163.250;-1024.000; -976.000
398.980;  -77.550; -560.000; -560.000
399.108;  -76.225; -982.000; -735.000
399.236;   25.625;   13.000;    8.000
399.363;   -3.450;  222.000;  196.000
399.491;  -73.125; -404.000; -398.000
399.619; -134.125; -829.000; -800.000
399.747; -107.575; -859.000; -771.000
399.875;   62.025;  220.000;  234.000
400.003;  -50.425; -359.000; -284.000
400.130;  -97.150; -421.000; -341.000
400.258;  -29.800;  -83.000;   38.000
400.386;  -68.225; -352.000; -168.000
400.514;  -51.900; -526.000; -587.000
400.641;  -86.675; -928.000; -802.000
400.769; -138.450; -979.000; -888.000
400.897; -124.600; -838.000; -793.000
401.025;  -33.925; -166.000; -152.000
401.152;  -20.025;  220.000;   38.000
401.280;  -90.050; -430.000; -429.000
401.408; -118.525; -712.000; -576.000
401.535; -104.800; -735.000; -758.000
401.663; -190.075;-1134.000;-1054.000
401.790;  -84.700; -514.000; -525.000
401.918;   39.625;  436.000;  405.000
402.046;  -23.425;  134.000;  122.000
402.173;  -41.475;  -18.000;    7.000
402.301;  -72.800; -519.000; -397.000
402.428;   41.025;  528.000;  383.000
402.556; -148.725;-1188.000; -913.000
402.683;  -40.875;  -20.000;   -1.000
402.811;  -22.000;  -37.000; -206.000
402.938;  -13.350;   20.000;   27.000
403.066;  172.725; -574.000; -558.000
403.193;  315.225;  299.000;  239.000
403.321;  238.350; -396.000; -574.000
403.448;  300.500;   83.000;   27.000
403.575;  133.175;  -90.000;  -46.000
403.703;  -86.725; -732.000; -557.000
403.830;  -77.200; -531.000; -496.000
403.957; -147.100;-1117.000;-1023.000
404.085;   13.300;  -61.000; -172.000
404.212;   95.025;  -50.000;   63.000
404.339;  274.225; -566.000; -306.000
404.467; 5790.050; -612.000; -524.000
404.594; 3784.975; -287.000; -227.000
404.721;  857.600; -869.000; -764.000
404.848;   96.650; -113.000; -202.000
404.976; -113.900; -856.000; -783.000
405.103;   -2.925;  -14.000;  -82.000
405.230;    2.375;  190.000;  226.000
405.357;   15.250;  117.000;   44.000
405.484;  246.150;  -49.000;    5.000
405.612;   53.075; -548.000; -563.000
405.739;  -66.800; -488.000; -243.000
405.866;   81.950;  669.000;  385.000
405.993;  -47.150; -398.000; -102.000
406.120; -143.400; -801.000; -887.000
406.247;  -57.500; -323.000; -342.000
406.374;  417.650;  540.000;  629.000
406.501;   85.050; -632.000; -702.000
406.628;  -85.150; -621.000; -589.000
406.755; -113.500; -803.000; -620.000
406.882;  -42.475; -228.000; -277.000
407.009; -103.300; -719.000; -628.000
407.136;   51.675; -480.000; -401.000
407.263;  113.725; -939.000; -829.000
407.390;  -88.200; -692.000; -614.000
407.517; -180.700;-1139.000;-1187.000
407.644;  -64.800; -332.000; -256.000
407.771;  -74.050; -249.000; -287.000
407.898;    5.275;  168.000;  328.000
408.025;  -73.100; -421.000; -313.000
408.151;  -21.950;   82.000;  153.000
408.278;  -69.750; -267.000; -216.000
408.405; -107.850; -931.000; -899.000
408.532;  -81.825; -549.000; -542.000
408.659; -123.900; -677.000; -648.000
408.785; -210.950;-1298.000;-1170.000
408.912;  -77.700; -412.000; -296.000
409.039; -121.125; -610.000; -686.000
409.166; -109.100; -591.000; -555.000
409.292; -113.675; -571.000; -534.000
409.419; -137.300; -665.000; -649.000
409.546;  -92.725; -431.000; -192.000
409.672; -115.925; -713.000; -545.000
409.799;  -33.325;  -36.000;   34.000
409.926;  -52.325; -180.000; -179.000
410.052; -182.825;-1127.000;-1091.000
410.179;  -61.150; -368.000; -392.000
410.305;  -96.850; -375.000; -493.000
410.432;  -58.275; -220.000; -333.000
410.558;  -89.575; -305.000; -380.000
410.685; -119.375; -688.000; -431.000
410.812; -112.375; -409.000; -588.000
410.938; -140.950; -964.000; -808.000
411.065; -108.900; -671.000; -645.000
411.191;  -33.400; -189.000; -174.000
411.317; -109.200; -823.000; -742.000
411.444;  -55.700; -317.000; -246.000
411.570;  -74.275; -339.000; -294.000
411.697; -127.625; -758.000; -752.000
411.823; -182.150; -989.000; -999.000
411.949;  -42.500;  -56.000;   17.000
412.076; -129.550; -539.000; -519.000
412.202; -117.625; -758.000; -757.000
412.329; -139.950; -798.000; -752.000
412.455; -124.600; -821.000; -657.000
412.581;  -14.600;  -15.000;  172.000
412.707;  -67.800; -540.000; -457.000
412.834;   -1.725;  156.000;  219.000
412.960;  -95.575; -785.000; -784.000
413.086; -111.750; -743.000; -701.000
413.212;  129.050;  604.000;  578.000
413.339;  -68.250; -685.000; -701.000
413.465;  -10.125; -364.000; -310.000
413.591;  -94.425; -757.000; -474.000
413.717;  -45.925; -358.000; -366.000
413.843; -146.450; -839.000; -861.000
413.969;  -68.575;  -47.000; -292.000
414.096; -103.025; -679.000; -679.000
414.222;  -11.100;  -33.000;   85.000
414.348;  -25.900; -652.000; -385.000
414.474;   86.025;   38.000;  -52.000
414.600;  -27.875; -126.000; -144.000
414.726;  -15.925;  -96.000;  -55.000
414.852;  -62.100; -365.000; -342.000
414.978;   17.075;  104.000;  -18.000
415.104;   43.825;   38.000;   80.000
415.230;    6.350; -329.000; -330.000
415.356;   34.100; -409.000; -514.000
415.482;  192.150;   13.000;  -35.000
415.608;  261.050; -247.000; -323.000
415.734;  955.625;   67.000;   38.000
415.860;20040.875; -875.000; -767.000
415.986;14493.125; -685.000; -607.000
416.111; 1221.450; -798.000; -652.000
416.237;  244.725; -424.000; -571.000
416.363; 1131.100; -765.000; -733.000
416.489; 4195.425; -324.000; -251.000
416.615;  453.750; -707.000; -742.000
416.741;  -30.300; -677.000; -784.000
416.866;  -91.975; -673.000; -736.000
416.992; -137.100; -801.000; -818.000
417.118;  -52.350;  -41.000;  -80.000
417.244;  -79.450; -798.000; -531.000
417.369;  -87.650; -801.000; -612.000
417.495;  -11.125; -325.000; -254.000
417.621;  -85.300;-1015.000; -803.000
417.746;  -12.550; -579.000; -572.000
417.872;   37.475; -254.000; -144.000
417.998;   43.250; -515.000; -530.000
418.123; 1049.200;-1073.000; -845.000
418.249; 5386.825; -512.000; -601.000
418.374;  762.075; -916.000; -824.000
418.500;  110.725; -383.000; -482.000
418.626;  103.500;   70.000;  -59.000
418.751;  109.425; -549.000; -448.000
418.877;  182.400; -637.000; -643.000
419.002; 1814.150; -688.000; -560.000
419.128;12608.500; -930.000; -721.000
419.253; 3081.075; -967.000; -837.000
419.379;  406.400; -391.000; -338.000
419.504;  396.250;  325.000;  415.000
419.629;  517.125; -393.000; -212.000
419.755; 3598.300; -317.000; -254.000
419.880;21381.975;  -98.000;   67.000
420.006;11497.525; -280.000; -221.000
420.131;29608.625; -662.000; -775.000
420.256; 4167.875; -315.000; -316.000
420.382;  559.675; -665.000; -687.000
420.507;   61.650; -649.000; -778.000
420.632;  114.725; -337.000; -339.000
420.758;  233.150; -251.000; -425.000
420.883;  -92.925; -876.000; -672.000
421.008;  -95.950; -775.000; -619.000
421.133;  -78.250; -509.000; -467.000
421.259;  -43.075; -325.000; -259.000
421.384; -128.850; -834.000; -693.000
421.509;  -60.150;-1052.000; -862.000
421.634; 1099.100; -936.000; -820.000
421.759;  472.800; -359.000; -327.000
421.885;  -67.850; -717.000; -656.000
422.010;  -87.775; -673.000; -542.000
422.135; -156.075; -695.000; -727.000
422.260;   30.400;  340.000;  280.000
422.385;  -39.375;   12.000;  -98.000
422.510;   10.500;  151.000;  -26.000
422.635;    4.600;  -87.000;  -43.000
422.760;   83.700; -766.000; -791.000
422.885;   43.100;  -57.000;  -80.000
423.010;  -32.600; -112.000; -169.000
423.135; -102.125; -481.000; -561.000
423.260;  -32.175; -150.000; -245.000
423.385;   57.025;  476.000;  222.000
423.510;   30.475;   71.000;  -22.000
423.635;   68.700;  133.000;   45.000
423.760;   51.325;  383.000;  328.000
423.885;   41.875;  336.000;  391.000
424.010;   17.650;  -68.000;  -13.000
424.135;  -24.825;    5.000;  -33.000
424.259;  -94.500; -654.000; -457.000
424.384;  -57.950; -279.000; -272.000
424.509;  -29.800; -260.000; -186.000
424.634;  -95.475; -761.000; -623.000
424.759;  -32.525; -688.000; -544.000
424.883;  -22.050; -506.000; -527.000
425.008;  160.150; -502.000; -410.000
425.133; 1998.125; -679.000; -653.000
425.258;  926.375; -517.000; -381.000
425.382; 1016.625; -867.000; -774.000
425.507; 2566.025; -487.000; -543.000
425.632;  411.475; -802.000; -663.000
425.756;  447.350; -256.000; -146.000
425.881; 6664.850; -831.000; -857.000
426.006;17944.775; -604.000; -355.000
426.130; 2761.250; -696.000; -508.000
426.255;  361.650; -611.000; -491.000
426.379;  153.400; -189.000; -577.000
426.504;  372.100;  660.000;  544.000
426.629; 4076.975; -519.000; -466.000
426.753; 2751.650;   64.000;  -46.000
426.878;  320.525; -252.000; -288.000
427.002;  134.675; -651.000; -668.000
427.127; 1592.625;  -35.000; -158.000
427.251;11491.025;  372.000;  401.000
427.375; 3260.750; -191.000; -173.000
427.500; 2260.075; -616.000; -610.000
427.624;  756.675; -234.000; -400.000
427.749;   90.975; -216.000; -225.000
427.873;  -53.275; -499.000; -412.000
427.997;  -52.425; -222.000; -230.000
428.122;   63.250;  795.000;  703.000
428.246;   63.950;  433.000;  434.000
428.371; -120.725; -869.000; -773.000
428.495; -104.025; -624.000; -646.000
428.619;  -41.400; -186.000; -117.000
428.743;   16.400;   65.000;  132.000
428.868;    6.575; -732.000; -643.000
428.992; 1367.800; -219.000; -326.000
429.116;  537.150; -329.000; -357.000
429.240;  247.600;  419.000;  426.000
429.365;  -17.800; -454.000; -574.000
429.489;  -39.900; -638.000; -647.000
429.613;   10.450; -236.000; -177.000
429.737;   28.800; -563.000; -432.000
429.861;  275.150; -247.000; -133.000
429.985; 5624.300; -425.000; -305.000
430.109; 6152.700; -770.000; -908.000
430.234;  712.500;   76.000;  -50.000
430.358;   57.575; -250.000; -160.000
430.482;  -73.625; -672.000; -564.000
430.606;  -62.575; -655.000; -375.000
430.730;   -4.000; -437.000; -388.000
430.854;  101.400; -909.000; -835.000
430.978;  -88.175; -795.000; -764.000
431.102;  -94.125; -499.000; -422.000
431.226; -131.675; -874.000; -815.000
431.350;    0.575;  345.000;  422.000
431.474;  -89.275; -661.000; -373.000
431.597; -168.575;-1060.000; -848.000
431.721;  -72.400; -276.000; -267.000
431.845; -142.025; -704.000; -472.000
431.969;  -87.325; -304.000; -349.000
432.093;  -95.325; -395.000; -317.000
432.217;  -17.950;   32.000;   82.000
432.341;  -91.675; -523.000; -518.000
432.464;    1.950;   96.000;   40.000
432.588;  194.375; -401.000; -329.000
432.712;   95.250;  -52.000;  -52.000
432.836;   58.925;  213.000;  263.000
432.959;  -18.900; -372.000; -311.000
433.083;   86.150;   11.000;    2.000
433.207;  379.625;  285.000;  930.000
433.330; 5094.450; -391.000; -200.000
433.454; 6264.775; -654.000; -638.000
433.578; 3622.750;  583.000;  278.000
433.701;  668.600; -623.000; -675.000
433.825;  118.500; -292.000; -299.000
433.949;  166.525;   28.000;  -72.000
434.072;   25.375; -410.000; -323.000
434.196;  -17.250; -309.000; -117.000
434.319; 3751.475;25482.000;25124.000
434.443;  700.925; -656.000; -603.000
434.566; 2697.725;  281.000;   62.000
434.690;  429.500; -637.000; -383.000
434.813;   43.200; -251.000; -173.000
434.937;  -78.375; -569.000; -696.000
435.060;  -63.125; -423.000; -332.000
435.184;  265.275; -492.000; -217.000
435.307;  137.700;  159.000;  102.000
435.431;  -21.925;  -40.000;   24.000
435.554;  -83.900; -399.000; -240.000
435.677;  -96.575; -350.000; -258.000
435.801;  -31.325;  -25.000;   49.000
435.924;  -18.250;    1.000;  -67.000
436.048; -119.625;-1019.000; -732.000
436.171;  -64.325; -240.000;  -66.000
436.294;  -36.400; -248.000; -229.000
436.417;   81.600; -963.000; -849.000
436.541; -101.100; -814.000; -840.000
436.664;  -47.325; -242.000; -316.000
436.787;  -36.100;   13.000;  113.000
436.910; -114.900; -792.000; -422.000
437.034;    1.225;  142.000;  143.000
437.157;   48.250;  -11.000;    0.000
437.280;  -60.700; -392.000; -292.000
437.403;  -92.425; -982.000; -869.000
437.526;  584.400; -903.000; -865.000
437.649; 2155.900; -505.000; -332.000
437.772;  290.100; -692.000; -540.000
437.896;  101.425;  700.000;  544.000
438.019; -105.950; -758.000; -503.000
438.142;  -76.650; -596.000; -506.000
438.265;  -30.450; -639.000; -670.000
438.388;  526.525; -520.000; -410.000
438.511;   81.175; -597.000; -394.000
438.634;  -52.400; -247.000; -125.000
438.757; -148.375; -693.000; -619.000
438.880;  -29.250;  -34.000;  -57.000
439.003;  -90.225; -417.000; -437.000
439.126;  -67.625; -287.000; -167.000
439.248;  -70.950;  -98.000; -139.000
439.371;  -48.225;    9.000;  -53.000
439.494;   28.325;  510.000;  439.000
439.617;  -59.550;   65.000;  -88.000
439.740; -185.925; -968.000; -816.000
439.863; -150.350; -755.000; -595.000
439.986; -131.575; -476.000; -431.000
440.108;  -58.600; -161.000; -112.000
440.231; -178.675; -950.000; -836.000
440.354;  -48.700;  -64.000; -150.000
440.477;   21.150; -566.000; -542.000
440.599;  -22.925; -200.000; -225.000
440.722; -136.075; -709.000; -586.000
440.845;   62.150;  751.000;  928.000
440.968; -123.900; -415.000; -311.000
441.090;  -72.575; -199.000;  -33.000
441.213; -180.000;-1021.000; -825.000
441.336;  -66.400; -159.000;   -5.000
441.458;  -98.425; -549.000; -396.000
441.581;  -89.375; -628.000; -629.000
441.703;  -69.700; -152.000;   13.000
441.826; -122.150; -557.000; -400.000
441.948;  -52.875;   56.000;   51.000
442.071;   26.350;  555.000;  424.000
442.193; -119.875; -531.000; -485.000
442.316;   15.200;  152.000;   97.000
442.438;   30.875; -233.000;  -10.000
442.561;   65.575;  272.000;  262.000
442.683;  503.450; -809.000; -522.000
442.806; 1101.325;   -8.000;   74.000
442.928;   -7.450; -859.000; -604.000
443.051;  -78.075; -577.000; -373.000
443.173;  -90.375; -341.000; -339.000
443.295;  -99.250; -263.000; -371.000
443.418;  -85.000; -321.000;  -29.000
443.540;  -10.450; -106.000;   -4.000
443.662; -126.950; -563.000; -465.000
443.785;  -15.150;  335.000;  199.000
443.907;  -99.175; -362.000; -208.000
444.029; -123.350; -767.000; -494.000
444.152; -153.125; -644.000; -554.000
444.274;  -38.025;  -18.000;  -24.000
444.396; -116.825; -461.000; -221.000
444.518; -132.175; -691.000; -454.000
444.640; -119.275; -268.000; -111.000
444.763;  -14.300;  388.000;  249.000
444.885; -113.900; -432.000; -392.000
445.007;  -52.025;   35.000;   86.000
445.129; -120.600; -610.000; -515.000
445.251; -108.100; -372.000; -439.000
445.373; -149.525; -537.000; -386.000
445.495;   -5.600;  242.000;  350.000
445.617;   51.600;  853.000;  753.000
445.739;  -51.575; -215.000;  -97.000
445.861;  -40.275; -245.000; -112.000
445.984;  -53.650; -267.000; -101.000
446.105;  176.700; -418.000; -251.000
446.227;  568.975; -176.000;  -19.000
446.349;  -21.175; -358.000; -249.000
446.471;  -99.300; -615.000; -448.000
446.593;  -71.500; -316.000;   19.000
446.715;   -4.450;  -67.000;   41.000
446.837;   44.350;  697.000;  832.000
446.959; -107.800; -457.000; -478.000
447.081; -150.050; -628.000; -518.000
447.203;   49.500;  862.000;  834.000
447.325; -111.725; -270.000;   42.000
447.446;  -12.125;  286.000;  530.000
447.568; -152.750; -921.000; -803.000
447.690;  -88.300; -236.000; -245.000
447.812; -161.925; -798.000; -519.000
447.933;  -37.550;  155.000;  127.000
448.055;  -72.775; -306.000; -261.000
448.177;  134.750;   31.000;   79.000
448.299;   71.925; -935.000; -727.000
448.420;   24.100;  -25.000;  159.000
448.542;  -42.100;   -3.000;   33.000
448.664;  -35.600;  109.000;  322.000
448.785;  -32.900;  265.000;   83.000
448.907;  -90.600; -614.000; -353.000
449.028;  -42.700; -771.000; -471.000
449.150;   59.450;  492.000;  589.000
449.272; -185.250;-1044.000; -913.000
449.393;   31.975;  612.000;  694.000
449.515; -164.575; -634.000; -581.000
449.636;  -73.100; -264.000; -155.000
449.758;   86.425;  763.000;  622.000
449.879;  -92.250; -498.000; -396.000
450.001;  -75.800; -149.000;  -49.000
450.122;  -36.775;  -95.000;  162.000
450.244;  -37.625;   37.000;  364.000
450.365;  -97.225; -495.000; -301.000
450.486;  -50.225;   80.000;  268.000
450.608;   27.550;  393.000;  326.000
450.729;   67.200;  578.000;  645.000
450.850;  -10.275; -574.000; -466.000
450.972;  760.400; -552.000; -389.000
451.093; 4950.825;  190.000;  588.000
451.214; 2138.425; -516.000; -337.000
451.336;  360.425;  773.000;  579.000
451.457;   58.475;  264.000;  393.000
451.578;  -35.850; -118.000;  -74.000
451.699; -126.725; -546.000; -540.000
451.821;  -70.250; -284.000;  -50.000
451.942;   -8.875;  278.000;  285.000
452.063;   29.725;  228.000;  419.000
452.184;  559.100;  -54.000;  -49.000
452.305; 1107.250;  103.000;  170.000
452.427;  120.325; -549.000; -301.000
452.548;  -26.575;   23.000;   79.000
452.669;  -53.425; -257.000;  -89.000
452.790;  -56.400;    3.000;  -18.000
452.911;    3.300;  195.000;  259.000
453.032;  -62.125; -289.000;  -60.000
453.153;  -44.125;  -29.000;   81.000
453.274;   73.475;  737.000;  868.000
453.395;  -43.650;  -51.000;  175.000
453.516;  121.800; 1317.000; 1388.000
453.637;  -78.925; -205.000; -150.000
453.758;  -70.675;   15.000;   69.000
453.879; -131.275; -462.000; -250.000
454.000;   57.625; 1086.000;  948.000
454.121; -117.225; -554.000; -326.000
454.242; -123.575; -599.000; -383.000
454.362;  -66.275;  -99.000;  114.000
454.483;  -32.925; -309.000; -229.000
454.604;   44.750;  512.000;  580.000
454.725; -140.750; -627.000; -555.000
454.846; -132.875; -474.000; -406.000
454.967;  -26.325;  230.000;  539.000
455.087;  -49.525;  179.000;  153.000
455.208;    6.625;  554.000;  856.000
455.329;  -62.500;  -22.000;   82.000
455.450;   28.125;  473.000;  633.000
455.570;  -89.950; -234.000; -211.000
455.691;  -52.050;  201.000;  407.000
455.812; -106.650; -270.000;  -92.000
455.932;  -71.975;  107.000;  -97.000
456.053;  -86.450;   36.000;   24.000
456.173; -113.325; -433.000; -355.000
456.294; -132.825; -476.000; -303.000
456.415;  -77.725;  -73.000;   70.000
456.535;  -43.450;  297.000;  273.000
456.656;  -52.900;  132.000;  240.000
456.776;  -82.375;    3.000;  298.000
456.897;   -7.800;  308.000;  513.000
457.017;  -73.725; -153.000;   -3.000
457.138; -116.150; -402.000; -249.000
457.258;  -49.800;  263.000;  224.000
457.379;  -20.875;  509.000;  521.000
457.499;  -23.625;  443.000;  432.000
457.620; -126.875; -407.000; -231.000
457.740; -107.250; -132.000;  -11.000
457.860;  -58.350;   87.000;   44.000
457.981;  -57.900;  132.000;  124.000
458.101;  -82.650;  -89.000;   40.000
458.221;  -26.800;  336.000;  402.000
458.342;  -52.150;   -4.000;  -37.000
458.462;   19.150;  617.000;  352.000
458.582;  -38.025; -302.000; -294.000
458.703;    1.825;  303.000;  154.000
458.823;  -34.125;   22.000;  163.000
458.943;   10.125;  341.000;  467.000
459.063;  -33.175; 1124.000;  192.000
459.183;  -23.500;  328.000;  313.000
459.304;  -17.875;  315.000;  517.000
459.424;  -69.625; -246.000;  -89.000
459.544;  327.800;  388.000;  764.000
459.664;  816.250;  499.000;  506.000
459.784;  310.275; 1004.000; 1175.000
459.904;   65.625;  867.000;  744.000
460.024;   65.000;  867.000;  684.000
460.144;   -6.350;  449.000;  554.000
460.264;   -1.975;  515.000;  327.000
460.385;  -99.000; -145.000; -119.000
460.505;   36.275;  905.000;  858.000
460.625; -103.550;  -17.000;  -68.000
460.745;   -4.350;  396.000;  541.000
460.864;  -65.125;  153.000;  469.000
460.984;   -6.750;  499.000;  573.000
461.104;  135.625; 1656.000; 1775.000
461.224;   13.325;  657.000;  650.000
461.344;  -28.250;  431.000;  360.000
461.464;  -49.075;  258.000;  513.000
461.584;  -21.475;  283.000;  466.000
461.704;  -55.550;   58.000;  108.000
461.824;  -71.700;  238.000;  259.000
461.943;  -58.750;  191.000;  130.000
462.063;  -73.075;    2.000;  324.000
462.183;   21.350;  639.000;  717.000
462.303;   97.400; 1678.000; 1230.000
462.422;   38.550;  781.000;  840.000
462.542;  -45.050;  271.000;  391.000
462.662;   34.150;  353.000;  380.000
462.782;  226.100;  833.000;  572.000
462.901;  473.250;  545.000;  717.000
463.021;  280.475; 1702.000; 1638.000
463.141;  -12.125;  337.000;  770.000
463.260;  -30.500;  614.000;  474.000
463.380;    9.750;  902.000;  884.000
463.499;  -47.275;  342.000;  332.000
463.619;  -23.900;  581.000;  559.000
463.738;  107.000; 1644.000;  903.000
463.858;   26.950;  657.000;  811.000
463.978;  -37.725;  542.000;  396.000
464.097;   36.550;  921.000; 1114.000
464.217;  110.775; 1196.000; 1143.000
464.336;  110.000; 1068.000; 1130.000
464.455;  -43.000;  328.000;  659.000
464.575;   44.225;  597.000;  602.000
464.694;  158.750; 1204.000; 1179.000
464.814;  112.300; 1190.000; 1138.000
464.933;   70.625; 1095.000; 1027.000
465.052;   88.275; 1412.000; 1054.000
465.172;   75.825;  922.000;  799.000
465.291;  139.900; 1376.000; 1320.000
465.410;   19.475;  462.000;  735.000
465.530;   67.400; 1355.000; 1310.000
465.649;   55.250; 1209.000; 1273.000
465.768;  130.875; 1673.000; 1508.000
465.888;   53.375;  941.000; 1174.000
466.007;   68.625; 1335.000; 1440.000
466.126;  -12.525;  721.000;  641.000
466.245;   38.250; 1176.000; 1187.000
466.364;   -5.525;  950.000; 1060.000
466.484;   72.675; 1024.000; 1213.000
466.603;   19.200; 1101.000; 1222.000
466.722;  110.800; 1490.000; 1769.000
466.841;   63.350; 1151.000; 1401.000
466.960;   35.725; 1069.000;  972.000
467.079;  131.125; 1971.000; 1786.000
467.198;   49.550; 1238.000; 1181.000
467.317;   83.825; 1768.000; 1162.000
467.436;   57.300; 1709.000; 1261.000
467.555;  125.375; 1796.000; 1746.000
467.674;   50.025; 1227.000; 1329.000
467.793;   38.050; 1376.000; 1374.000
467.912;   95.575; 1658.000; 1539.000
468.031;  134.475; 2038.000; 1930.000
468.150;  135.825; 1842.000; 1837.000
468.269;  193.825; 2313.000; 2090.000
468.388;  177.250; 2168.000; 2339.000
468.507;  249.250; 2884.000; 2903.000
468.626;  228.525; 2555.000; 2541.000
468.744;  136.775; 2018.000; 2174.000
468.863;  204.225; 2312.000; 2523.000
468.982;   73.425; 1503.000; 1555.000
469.101;  226.450; 2788.000; 2692.000
469.220;  153.675; 2333.000; 2176.000
469.338;  228.775; 2935.000; 3051.000
469.457;  191.700; 2719.000; 2545.000
469.576;  349.075; 3953.000; 3784.000
469.695;  231.350; 2877.000; 3066.000
469.813;  426.550; 4148.000; 4192.000
469.932;  400.575; 4255.000; 4485.000
470.051;  430.375; 4075.000; 4161.000
470.169;  856.100; 4470.000; 4338.000
470.288; 1485.500; 4700.000; 4809.000
470.406;  854.375; 5059.000; 5194.000
470.525;  650.850; 6101.000; 5787.000
470.644;  637.675; 6847.000; 6794.000
470.762;  825.625; 8397.000; 7873.000
470.881;  895.275; 8651.000; 8464.000
470.999; 1029.525; 9685.000; 9151.000
471.118; 1094.300;11174.000;10711.000

