
Integration time [ms]: 200.000
Averaging Nr. [scans]: 10
Smoothing Nr. [pixels]: 0
Data measured with spectrometer [name]: 2101012U2
Wave   ;Sample   ;Dark     ;Reference
[nm]   ;[counts] ;[counts] ;[counts] 

197.733;  124.800;  516.000;  404.000
197.879; -184.900; -610.000; -634.000
198.025; -104.900; -475.000; -420.000
198.171; -173.900; -602.000; -612.000
198.317;  -57.700; -401.000; -316.000
198.463; -135.100; -655.000; -404.000
198.609;   45.400;  181.000; -137.000
198.755; -165.200; -644.000; -410.000
198.901; -140.300; -505.000; -424.000
199.047; -139.700; -615.000; -488.000
199.193;  -87.900; -230.000; -468.000
199.339;  -80.800; -222.000; -369.000
199.485;   38.100;  330.000;  271.000
199.631;   18.200;  227.000;  310.000
199.777;  -84.500; -466.000; -398.000
199.923; -142.400; -610.000; -424.000
200.069;  -29.600; -141.000;  -58.000
200.215;   99.600;  128.000;  453.000
200.361;   64.400;  243.000;  477.000
200.507; -115.700; -600.000; -373.000
200.653;  -52.800; -371.000; -194.000
200.798;  -74.100; -215.000; -125.000
200.944;   -5.800; -146.000;  -41.000
201.090;   84.100;   61.000;  222.000
201.236;    0.200; -116.000; -158.000
201.382;  277.600;  874.000;  903.000
201.528;  -27.700;  -58.000;  -48.000
201.674; -138.700; -386.000; -293.000
201.819; -146.400; -540.000; -439.000
201.965; -179.600; -699.000; -447.000
202.111;  -60.300; -273.000; -226.000
202.257;  -99.200; -250.000; -238.000
202.402;   -3.400;   13.000;  -36.000
202.548;  -58.000; -169.000; -116.000
202.694;  163.900;  410.000; -183.000
202.840; -176.200; -603.000; -531.000
202.985; -186.800; -681.000; -639.000
203.131; -201.200; -832.000; -666.000
203.277;  -57.500; -199.000; -262.000
203.423;  -90.400; -434.000; -520.000
203.568;  -85.500; -462.000; -237.000
203.714; -139.600; -535.000; -542.000
203.860; -166.500; -682.000; -641.000
204.005;   34.400;  112.000;  167.000
204.151;  196.200;  561.000;  556.000
204.296; -134.200; -354.000; -221.000
204.442; -148.200; -600.000; -547.000
204.588; -157.300; -592.000; -579.000
204.733;   56.100;  178.000;  168.000
204.879; -292.800;-1018.000; -822.000
205.025;  -20.300;  -99.000;  126.000
205.170;  -16.000;  -17.000;   94.000
205.316;  151.700;  438.000;  661.000
205.461; -188.100; -698.000; -554.000
205.607;  193.100;  609.000;  665.000
205.752; -155.000; -626.000; -551.000
205.898; -119.000; -501.000; -391.000
206.043; -128.100; -578.000; -506.000
206.189;  -94.500; -243.000; -285.000
206.334;  175.400;  554.000;  606.000
206.480;  170.200;  409.000;  239.000
206.625; -171.900; -529.000; -552.000
206.771; -106.000; -451.000; -373.000
206.916;  -69.800; -210.000; -537.000
207.062; -150.200; -545.000; -591.000
207.207; -124.800; -546.000; -443.000
207.353;  115.500;  185.000;  460.000
207.498;   21.800;  196.000;   85.000
207.643; -128.500; -501.000; -370.000
207.789; -271.600;-1069.000; -910.000
207.934; -174.800; -665.000; -713.000
208.080;  -45.500; -154.000;   66.000
208.225;  -16.900;  -22.000;  -57.000
208.370; -197.200; -727.000; -619.000
208.516; -173.000; -741.000; -487.000
208.661;  -54.700; -127.000;  -69.000
208.806;  -68.000; -165.000; -171.000
208.952; -236.600;-1044.000; -731.000
209.097;  148.400;  378.000;  349.000
209.242;  -90.500; -307.000; -382.000
209.387;  127.200;  392.000;  350.000
209.533; -121.900; -321.000; -350.000
209.678;  172.600;  472.000;  543.000
209.823;  -99.900; -408.000; -310.000
209.969; -214.700; -860.000; -757.000
210.114; -194.900; -907.000; -719.000
210.259; -252.800; -939.000; -889.000
210.404;   -0.900; -171.000;  103.000
210.549;   27.600;  108.000;    3.000
210.695;  -50.500;   -3.000;  -95.000
210.840;   64.800;   94.000;   67.000
210.985; -137.800; -484.000; -303.000
211.130;  177.500;  268.000;  406.000
211.275;   21.500;  207.000;  199.000
211.420; -130.600; -300.000; -289.000
211.566; -149.500; -536.000; -489.000
211.711;   18.000;  218.000;  157.000
211.856; -108.100; -545.000; -519.000
212.001;   10.500;  151.000;   44.000
212.146;   25.900;  153.000;   49.000
212.291;  -38.800; -210.000; -186.000
212.436; -101.800; -280.000;   -6.000
212.581; -178.100; -685.000; -653.000
212.726; -154.600; -487.000; -538.000
212.871;  -93.200; -552.000; -217.000
213.016; -324.800;-1172.000;-1029.000
213.161;  139.900;  406.000;  291.000
213.306; -135.600; -435.000; -577.000
213.451; -201.200; -778.000; -689.000
213.596;  -97.300; -455.000; -347.000
213.741; -118.800; -448.000; -538.000
213.886; -150.600; -498.000; -517.000
214.031;  -72.400; -294.000; -124.000
214.176;  -83.700; -408.000; -341.000
214.321;  -48.700; -296.000; -157.000
214.466;  -29.000; -163.000;  -43.000
214.611;  -12.300;  -61.000;  -10.000
214.756; -263.100; -948.000; -858.000
214.901;  -59.200; -388.000; -226.000
215.046; -235.800; -797.000; -825.000
215.191;   62.500;  128.000;   35.000
215.336;   -6.200; -157.000;  -19.000
215.480; -138.000; -684.000; -505.000
215.625;  -37.400; -175.000;  -19.000
215.770; -168.100; -757.000; -662.000
215.915;   25.500;   -5.000;  -97.000
216.060;  -25.300; -113.000;  -21.000
216.205; -212.400; -731.000; -779.000
216.349; -168.800; -470.000; -533.000
216.494; -318.700; -939.000; -867.000
216.639; -249.900; -823.000; -888.000
216.784; -176.500; -577.000; -525.000
216.929;   97.900;  392.000;  281.000
217.073;  -14.300; -244.000;  -31.000
217.218;   -9.600;   78.000;  -47.000
217.363; -152.600; -656.000; -618.000
217.507; -166.400; -623.000; -588.000
217.652; -268.300; -845.000; -874.000
217.797; -180.100; -708.000; -659.000
217.942; -244.900; -856.000; -720.000
218.086;  149.100;  608.000;  539.000
218.231;  -46.000; -174.000;  -26.000
218.376;  -62.700; -337.000; -229.000
218.520;   20.100;  -41.000;   96.000
218.665;  -50.500; -338.000; -204.000
218.810;  -82.200; -275.000; -233.000
218.954;   61.400;  201.000;   35.000
219.099; -258.000; -713.000; -963.000
219.243; -131.600; -589.000; -554.000
219.388;  -74.400; -264.000; -136.000
219.532;  -30.600; -116.000; -116.000
219.677; -154.700; -564.000; -521.000
219.822;  -35.000;   33.000;   89.000
219.966;    9.400;   17.000;  -99.000
220.111;  -62.700; -328.000;  -40.000
220.255; -192.100; -797.000; -750.000
220.400;  -34.400; -180.000; -146.000
220.544; -129.000; -516.000; -450.000
220.689; -103.400; -422.000; -451.000
220.833;  -29.000; -123.000;  -58.000
220.978; -104.800; -393.000; -563.000
221.122;   64.000;  319.000;  307.000
221.267; -232.500; -906.000; -837.000
221.411; -131.600; -478.000; -394.000
221.555;   17.700; -104.000;  -23.000
221.700;  -90.700; -329.000; -222.000
221.844;   76.000;  255.000;  272.000
221.989;  -89.400; -328.000; -311.000
222.133;  -74.400; -289.000; -307.000
222.277;  -21.000;    5.000;   78.000
222.422;   24.900;  227.000;  113.000
222.566;  -75.100; -381.000; -214.000
222.711; -121.300; -414.000; -479.000
222.855; -149.600; -643.000; -586.000
222.999; -153.100; -642.000; -717.000
223.144;  -77.100; -195.000; -194.000
223.288;  164.900;  423.000;  251.000
223.432;   -0.200;  184.000;  230.000
223.576;   39.100;  152.000;  -21.000
223.721;   65.400;  364.000;  273.000
223.865; -116.800; -472.000; -475.000
224.009;  538.700; 1673.000; 1631.000
224.153; -163.300; -660.000; -671.000
224.298; -160.100; -531.000; -489.000
224.442;  -42.000;  -74.000;  -33.000
224.586;  -16.900; -169.000; -106.000
224.730; -180.200; -858.000; -670.000
224.875; -229.300; -739.000; -688.000
225.019;   53.100;  102.000;  188.000
225.163;  120.400;  208.000;  341.000
225.307;    8.400;   97.000;  -91.000
225.451;   80.100;  360.000;  481.000
225.595;   70.800;  264.000;  176.000
225.739;  -10.400; -170.000;  -94.000
225.884;   13.600;   86.000;    5.000
226.028; -194.600; -760.000; -626.000
226.172;  -47.300; -260.000; -273.000
226.316; -246.700; -941.000; -902.000
226.460; -160.400; -645.000; -493.000
226.604; -113.200; -406.000; -400.000
226.748; -198.700; -836.000; -733.000
226.892;  -68.800; -227.000; -181.000
227.036; -113.900; -537.000; -447.000
227.180; -119.900; -551.000; -375.000
227.324; -162.600; -561.000; -580.000
227.468; -232.600; -819.000; -717.000
227.612;    4.800;  242.000;  -28.000
227.756; -224.900; -845.000; -698.000
227.900;   99.600;  342.000;  441.000
228.044; -119.600; -509.000; -290.000
228.188;  120.100;  448.000;  568.000
228.332; -161.300; -546.000; -472.000
228.476;  -75.400; -223.000; -149.000
228.620;  -57.900; -210.000; -150.000
228.764;  170.300;  431.000;  349.000
228.908;  -56.100; -155.000;   30.000
229.052;  -97.400; -615.000; -528.000
229.195;   -0.300; -172.000;   13.000
229.339;  -47.400; -235.000; -305.000
229.483;  -61.600;    5.000; -162.000
229.627;   18.900; -156.000;  139.000
229.771;  -92.800; -218.000; -294.000
229.915;   57.500;  230.000;   79.000
230.059; -171.500; -648.000; -663.000
230.202;  -54.400; -370.000; -317.000
230.346;   12.700; -107.000;  107.000
230.490; -138.300; -489.000; -521.000
230.634; -243.400; -736.000; -553.000
230.777;  156.400;  478.000;  509.000
230.921; -124.400; -450.000; -359.000
231.065;  -81.300; -246.000; -286.000
231.209;   72.500;  261.000;  265.000
231.352;   50.700;   54.000;   40.000
231.496;   37.000;  568.000;  188.000
231.640; -176.900; -693.000; -621.000
231.783;  133.900;  546.000;  525.000
231.927;  -54.700; -294.000; -365.000
232.071; -251.400; -962.000; -736.000
232.214; -249.600; -980.000; -764.000
232.358; -213.100; -683.000; -599.000
232.502;  -13.800;  -19.000;    7.000
232.645; -277.500;-1090.000; -927.000
232.789;  -42.300; -257.000; -218.000
232.933; -109.700; -407.000; -224.000
233.076; -266.000;-1038.000; -897.000
233.220; -199.500; -752.000; -777.000
233.363; -151.300; -669.000; -477.000
233.507;  118.100;  371.000;  129.000
233.650; -189.500; -764.000; -834.000
233.794;  109.300;  438.000;  461.000
233.938; -121.800; -530.000; -362.000
234.081;  -28.600;  -93.000;   31.000
234.225; -163.000; -631.000; -539.000
234.368; -228.000; -773.000; -723.000
234.512;  -96.200; -385.000; -299.000
234.655; -210.200; -582.000; -555.000
234.798; -153.100; -493.000; -466.000
234.942; -259.700; -884.000;-1002.000
235.085; -139.400; -651.000; -443.000
235.229; -148.600; -405.000; -410.000
235.372; -122.400; -247.000; -191.000
235.516; -136.100; -397.000; -321.000
235.659;   36.500;   92.000;  121.000
235.802;  -29.400;  -38.000;  -22.000
235.946;   68.500;  335.000;  215.000
236.089;   41.000;  126.000;  250.000
236.233;   80.400;  275.000;  298.000
236.376;  -94.100; -235.000; -378.000
236.519;  -91.100; -297.000; -319.000
236.663;  -53.400; -215.000; -117.000
236.806; -284.100;-1029.000; -999.000
236.949;  148.700;  543.000;  431.000
237.092;  165.000;  412.000;  391.000
237.236; -156.200; -589.000; -502.000
237.379;  178.400;  352.000;  428.000
237.522; -231.500; -879.000; -768.000
237.666;  -27.300; -271.000;   18.000
237.809; -251.300; -851.000; -823.000
237.952;   42.000;  469.000;  271.000
238.095; -117.800; -447.000; -442.000
238.238;  184.900;  688.000;  700.000
238.382;    1.800;  166.000;  103.000
238.525; -145.200; -598.000; -511.000
238.668; -279.400;-1060.000; -985.000
238.811; -173.600; -638.000; -643.000
238.954; -137.500; -483.000; -334.000
239.097;  178.300;  617.000;  664.000
239.241;   49.200;  394.000;  326.000
239.384;  -70.900; -254.000; -214.000
239.527; -131.500; -424.000; -224.000
239.670; -307.600; -994.000;-1091.000
239.813; -202.300; -696.000; -658.000
239.956;  167.700;  579.000;  473.000
240.099; -226.900; -778.000; -725.000
240.242;  131.700;  428.000;  432.000
240.385;  126.800;  466.000;  450.000
240.528; -130.200; -706.000; -473.000
240.671;   27.600;  189.000;  134.000
240.814;  -75.400; -441.000; -158.000
240.957; -207.800; -767.000; -578.000
241.100; -198.200; -779.000; -755.000
241.243; -288.400;-1234.000; -893.000
241.386; -135.700; -508.000; -379.000
241.529; -161.100; -735.000; -547.000
241.672; -155.900; -566.000; -495.000
241.815; -237.200; -832.000; -808.000
241.958;  -75.100; -125.000; -182.000
242.101; -159.000; -545.000; -390.000
242.244;  -75.400; -270.000; -325.000
242.387;  -99.300; -304.000; -246.000
242.530;  129.900;  470.000;  134.000
242.673;  -56.300; -381.000; -309.000
242.815; -232.100; -925.000; -899.000
242.958; -115.300; -482.000; -381.000
243.101;   53.300;  132.000;  187.000
243.244; -154.600; -564.000; -521.000
243.387; -101.300; -313.000; -316.000
243.530; -189.600; -657.000; -674.000
243.672;    1.000;   43.000;  -92.000
243.815; -108.800; -355.000; -283.000
243.958;   11.700;   98.000;  -26.000
244.101;    0.900;   59.000;  -16.000
244.243;  -15.100;  -47.000;  101.000
244.386; -217.500; -761.000; -630.000
244.529;  -42.400; -132.000; -139.000
244.672; -302.600;-1154.000; -951.000
244.814; -197.000; -621.000; -794.000
244.957; -128.600; -380.000; -304.000
245.100; -162.500; -489.000; -489.000
245.242; -135.400; -387.000; -374.000
245.385;    8.500;  -59.000;  -39.000
245.528; -223.700; -871.000; -705.000
245.670;  237.600;  612.000;  634.000
245.813; -163.200; -599.000; -547.000
245.956;  -69.100; -324.000; -275.000
246.098; -142.900; -508.000; -650.000
246.241;   11.900;  194.000;   48.000
246.383;  -30.400; -119.000;  -73.000
246.526; -147.900; -454.000; -525.000
246.669; -242.600; -889.000; -780.000
246.811;   46.700;  172.000;   -1.000
246.954; -126.800; -512.000; -426.000
247.096;  -34.000;  -84.000;   -6.000
247.239; -142.800; -482.000; -445.000
247.381; -145.200; -647.000; -488.000
247.524;  173.700;  645.000;  679.000
247.666;  -25.200;   58.000;   11.000
247.809; -256.000; -887.000; -691.000
247.951;   -5.000;  -75.000;  138.000
248.094;   68.700;  432.000;  308.000
248.236; -319.400;-1262.000;-1238.000
248.378;   -0.900; -356.000;  -81.000
248.521;  -67.400; -334.000; -337.000
248.663;  -54.900; -236.000; -267.000
248.806;  -30.700; -300.000; -266.000
248.948; -198.000; -886.000; -763.000
249.090; -101.900; -428.000; -398.000
249.233; -116.800; -344.000; -381.000
249.375; -144.000; -474.000; -451.000
249.518;  -39.800;  -83.000; -133.000
249.660;    8.300; -103.000;    3.000
249.802; -332.800;-1303.000;-1189.000
249.945; -119.800; -612.000; -540.000
250.087; -239.800; -834.000; -768.000
250.229; -100.300; -362.000; -480.000
250.371; -141.800; -494.000; -439.000
250.514; -106.100; -310.000; -244.000
250.656; -132.600;   69.000;  102.000
250.798; -242.900; -849.000; -800.000
250.940; -144.100; -322.000; -322.000
251.083;  -32.400; -335.000; -111.000
251.225;  133.000;  338.000;  310.000
251.367;  -78.900; -274.000; -373.000
251.509;  -90.200; -265.000; -210.000
251.651; -201.600; -731.000; -671.000
251.794;  108.600;  538.000;  632.000
251.936; -200.100; -821.000; -747.000
252.078; -135.500; -540.000; -461.000
252.220; -158.700; -645.000; -477.000
252.362;  139.200;  344.000;  462.000
252.504; -127.700; -677.000; -584.000
252.646; -211.600; -875.000; -722.000
252.788;  -13.800;   14.000; -128.000
252.931;  -67.100; -257.000; -253.000
253.073;  -96.100; -376.000; -317.000
253.215;   25.600;  141.000;  122.000
253.357;  -30.400;   82.000; -153.000
253.499; -110.900; -374.000; -234.000
253.641; -194.200; -749.000; -594.000
253.783; -191.800; -609.000; -527.000
253.925; -160.000; -586.000; -591.000
254.067; -228.500; -744.000; -667.000
254.209;  -48.300; -391.000; -259.000
254.351; -290.400; -865.000; -883.000
254.493; -112.500; -441.000; -417.000
254.635; -227.100; -936.000; -818.000
254.777; -168.900; -752.000; -687.000
254.918; -161.200; -512.000; -430.000
255.060; -110.800; -551.000; -395.000
255.202; -123.800; -473.000; -261.000
255.344; -157.800; -658.000; -455.000
255.486; -120.800; -471.000; -406.000
255.628; -212.900; -780.000; -781.000
255.770; -189.600; -676.000; -536.000
255.912; -125.900; -559.000; -468.000
256.053; -213.900; -730.000; -508.000
256.195;  357.600; 1008.000;  903.000
256.337; -194.500; -861.000; -595.000
256.479;  114.200;  532.000;  416.000
256.621;  -76.100; -394.000; -212.000
256.762; -200.300; -789.000; -742.000
256.904;  130.700;  485.000;  487.000
257.046;  -89.400; -381.000; -271.000
257.188;  -77.400; -351.000; -264.000
257.329; -147.200; -525.000; -464.000
257.471; -236.700; -939.000; -807.000
257.613; -113.900; -584.000; -498.000
257.755; -297.700;-1073.000; -982.000
257.896;   44.400;  286.000;  392.000
258.038; -104.400; -403.000; -352.000
258.180;  -88.400; -354.000; -279.000
258.321; -163.800; -581.000; -457.000
258.463;   15.900;  -71.000;  133.000
258.605; -169.900; -562.000; -570.000
258.746; -196.600; -886.000; -772.000
258.888; -289.500;-1026.000;-1020.000
259.029;   37.800;  121.000;   -8.000
259.171; -165.100; -614.000; -550.000
259.313;   -0.100;  -49.000;  -47.000
259.454; -121.900; -536.000; -414.000
259.596; -133.800; -483.000; -390.000
259.737; -126.800; -590.000; -474.000
259.879;   84.900;  217.000;  311.000
260.020;  189.000;  901.000;  636.000
260.162;  -33.400; -146.000; -253.000
260.303; -250.600; -768.000; -687.000
260.445; -172.400; -609.000; -613.000
260.586;   68.600;  392.000;  157.000
260.728;  -69.400; -360.000; -248.000
260.869; -141.400; -350.000; -343.000
261.011;  160.800;  706.000;  537.000
261.152; -144.600; -479.000; -319.000
261.293; -123.600; -576.000; -595.000
261.435;  -55.300; -219.000; -184.000
261.576;  -98.000; -455.000; -325.000
261.718;  135.400;  420.000;  470.000
261.859; -225.700; -940.000; -949.000
262.000; -265.900; -951.000;-1016.000
262.142;  -41.400;  -52.000;  -60.000
262.283; -212.200; -808.000; -691.000
262.424; -183.300; -666.000; -625.000
262.566; -304.400;-1161.000; -983.000
262.707; -230.800; -840.000; -830.000
262.848; -244.400; -769.000; -726.000
262.990; -104.900; -362.000; -345.000
263.131;  186.900;  650.000;  681.000
263.272;  -17.300;  -61.000;  -41.000
263.413; -169.400; -589.000; -561.000
263.555; -125.500; -669.000; -143.000
263.696; -157.900; -550.000; -641.000
263.837;  -99.500; -449.000; -551.000
263.978;   27.900;   -5.000;  -77.000
264.119;  -81.700; -283.000; -264.000
264.261; -185.900; -847.000; -630.000
264.402;   13.100;   33.000;   40.000
264.543; -104.200; -509.000; -524.000
264.684;   20.500;   61.000;  -50.000
264.825; -168.100; -816.000; -538.000
264.966;  -10.300;  -84.000;  -67.000
265.107; -213.800; -646.000; -670.000
265.248; -230.300; -825.000; -812.000
265.390;  -42.200;  152.000;   -9.000
265.531;  -22.900; -238.000; -107.000
265.672; -179.300; -557.000; -630.000
265.813;  183.100;  563.000;  439.000
265.954; -285.600; -959.000; -940.000
266.095;   -3.400; -372.000; -322.000
266.236; -198.200; -686.000; -548.000
266.377;  -49.400; -243.000; -297.000
266.518; -149.400; -619.000; -547.000
266.659;   87.900;  170.000;  268.000
266.800;   30.300;   83.000;   85.000
266.941; -140.200; -487.000; -478.000
267.082;   20.300;  354.000;   99.000
267.223;  -71.300; -344.000; -273.000
267.364; -239.700; -892.000; -686.000
267.504;  -12.100;    3.000;  135.000
267.645;    4.000;  160.000;   67.000
267.786;  -49.300; -147.000;  -86.000
267.927; -138.100; -473.000; -379.000
268.068;  -25.800; -186.000;  -61.000
268.209;  -84.000; -175.000; -413.000
268.350; -118.300; -388.000; -532.000
268.490; -140.800; -648.000; -521.000
268.631;   68.400;  127.000;  225.000
268.772; -234.500; -874.000; -647.000
268.913;  -76.800; -328.000; -476.000
269.054;  -28.400; -117.000;   12.000
269.194;  -82.400; -418.000; -402.000
269.335; -333.000;-1137.000;-1074.000
269.476;  -14.300;   33.000;  -35.000
269.617; -110.100; -347.000; -392.000
269.757; -162.400; -713.000; -646.000
269.898; -202.000; -856.000; -613.000
270.039; -122.300; -415.000; -405.000
270.180; -273.700; -952.000; -816.000
270.320;  -23.300; -190.000; -250.000
270.461;  -77.000; -277.000; -249.000
270.602;   -2.900; -186.000; -156.000
270.742; -263.400; -868.000; -943.000
270.883; -114.900; -442.000; -390.000
271.023; -103.500; -358.000; -357.000
271.164; -119.300; -607.000; -528.000
271.305; -190.400; -666.000; -654.000
271.445; -140.700; -722.000; -683.000
271.586; -127.900; -462.000; -283.000
271.726;  -91.700; -397.000; -322.000
271.867; -128.500; -594.000; -534.000
272.008;  275.700; -473.000; -285.000
272.148;  249.700;  462.000;  468.000
272.289;   28.600; -113.000; -181.000
272.429;   49.100;   19.000;  185.000
272.570; -171.200; -633.000; -737.000
272.710; -204.400; -825.000; -775.000
272.851;   -3.300;  113.000; -130.000
272.991; -319.200;-1173.000;-1077.000
273.131; -161.700; -419.000; -459.000
273.272; -213.800; -683.000; -723.000
273.412;  -15.600; -143.000;  -31.000
273.553; -102.600; -488.000; -507.000
273.693;  286.700;  913.000;  858.000
273.834; -208.200; -894.000; -692.000
273.974; -138.200; -664.000; -615.000
274.114; -183.900; -772.000; -560.000
274.255;  141.000;  414.000;  373.000
274.395;    7.200; -180.000; -125.000
274.535;   87.900;  199.000;  350.000
274.676;   77.500;  225.000;   94.000
274.816;   14.800;  110.000;   34.000
274.956; -161.300; -624.000; -690.000
275.097; -157.700;-1014.000; -922.000
275.237; -241.100; -913.000; -803.000
275.377; -182.600; -778.000; -689.000
275.517; -271.300; -878.000; -937.000
275.658; -115.600; -590.000; -555.000
275.798; -151.300; -606.000; -413.000
275.938;   97.500;  215.000;  323.000
276.078; -195.300; -626.000; -395.000
276.218;   55.800;   99.000;  104.000
276.359; -281.400;-1026.000;-1024.000
276.499; -143.100; -605.000; -446.000
276.639;  -58.000; -305.000; -151.000
276.779;  -97.000; -475.000; -357.000
276.919; -211.300; -783.000; -624.000
277.059;   -9.900; -261.000; -212.000
277.199;  -67.500; -357.000; -259.000
277.340;  111.100;  287.000;  175.000
277.480; -205.300; -840.000; -693.000
277.620;   74.500;  192.000;   16.000
277.760; -396.000;-1533.000;-1294.000
277.900;   31.500;  113.000;   33.000
278.040;   35.700;  137.000;  159.000
278.180;   93.100;  270.000;  170.000
278.320;   10.200;   21.000;   56.000
278.460; -116.400; -443.000; -469.000
278.600; -189.300; -708.000; -598.000
278.740;  107.200;  448.000;  224.000
278.880; -157.600; -768.000; -791.000
279.020;   42.100; -194.000; -144.000
279.160; -190.800; -672.000; -595.000
279.300; -270.800; -926.000; -873.000
279.440; -180.200; -709.000; -622.000
279.579;  -89.500;-1014.000; -929.000
279.719; -102.700; -410.000; -394.000
279.859;  110.100;   -4.000;   41.000
279.999;   42.500; -208.000;  101.000
280.139;  -66.800; -435.000; -387.000
280.279; -162.800; -708.000; -745.000
280.419;    5.700; -229.000; -147.000
280.559;  -57.500; -259.000; -180.000
280.698; -125.900; -790.000; -639.000
280.838; -207.200; -778.000; -800.000
280.978; -179.100; -846.000; -790.000
281.118; -211.100; -811.000; -704.000
281.257;   71.600;   24.000;    6.000
281.397; -234.200;-1094.000; -960.000
281.537; -176.200; -599.000; -712.000
281.677;  -20.900; -150.000; -101.000
281.816; -154.300; -700.000; -630.000
281.956;  -55.900; -193.000; -257.000
282.096; -101.300; -539.000; -396.000
282.235; -223.700; -672.000; -638.000
282.375;  -34.500; -243.000;  -98.000
282.515; -183.600; -715.000; -707.000
282.654;   78.000;   29.000;  106.000
282.794;   38.200;  388.000;  244.000
282.934; -101.400; -530.000; -491.000
283.073; -240.700;-1030.000; -857.000
283.213; -106.800; -460.000; -467.000
283.353;  -72.400; -408.000; -349.000
283.492;  -33.100; -264.000; -296.000
283.632;  -80.400; -254.000; -168.000
283.771; -183.400; -859.000; -730.000
283.911;  -87.600; -369.000; -260.000
284.050; -206.500; -794.000; -748.000
284.190; -304.100;-1229.000;-1096.000
284.329; -266.300;-1055.000; -964.000
284.469; -156.600; -516.000; -591.000
284.608;  -90.600; -559.000; -598.000
284.748; -157.200; -614.000; -570.000
284.887;  -23.400;  -87.000;  -20.000
285.027; -230.200; -844.000; -892.000
285.166;  -38.900; -192.000; -249.000
285.306;   39.900; -116.000;  -33.000
285.445;  -86.700; -229.000; -343.000
285.584; -184.000; -630.000; -494.000
285.724;  -75.000; -282.000; -322.000
285.863; -207.200; -857.000; -507.000
286.002;  -90.100; -366.000; -276.000
286.142; -229.400; -715.000; -622.000
286.281; -109.700; -525.000; -493.000
286.420; -135.300; -554.000; -417.000
286.560;  232.700;  653.000;  623.000
286.699; -273.500; -958.000; -912.000
286.838; -170.100; -590.000; -591.000
286.978; -169.000; -533.000; -537.000
287.117; -267.400;-1085.000; -950.000
287.256;  -38.800; -228.000; -211.000
287.395;  -98.800; -197.000; -378.000
287.535;  -88.000; -370.000; -298.000
287.674; -154.200; -509.000; -484.000
287.813;  159.800;  661.000;  533.000
287.952; -257.700;-1010.000; -871.000
288.091; -299.100;-1049.000; -915.000
288.231;   45.000;   13.000;   15.000
288.370; -340.600;-1217.000;-1200.000
288.509; -191.000; -728.000; -645.000
288.648; -177.400; -770.000; -548.000
288.787;  -26.800; -243.000;  -87.000
288.926; -110.800; -454.000; -475.000
289.065;  242.600;  859.000;  672.000
289.204;  -63.500; -377.000; -217.000
289.344; -167.800; -791.000; -690.000
289.483;   59.100;  416.000;  304.000
289.622;  -46.800; -291.000; -149.000
289.761;  -22.100; -309.000; -166.000
289.900; -200.900; -785.000; -626.000
290.039;    1.600;  -12.000;  -95.000
290.178;  -60.200; -274.000; -180.000
290.317; -171.800; -618.000; -479.000
290.456; -112.100; -463.000; -451.000
290.595; -278.900; -961.000; -833.000
290.734; -258.100; -904.000; -891.000
290.873; -139.300; -456.000; -420.000
291.011; -206.200; -833.000; -843.000
291.150; -214.400; -770.000; -682.000
291.289;  -29.500; -343.000; -110.000
291.428; -190.400; -599.000; -480.000
291.567; -124.600; -370.000; -442.000
291.706;   52.900;  109.000;  154.000
291.845; -146.500; -597.000; -505.000
291.984; -316.100;-1234.000;-1061.000
292.122;  112.900;  602.000;  582.000
292.261;  123.000;  620.000;  463.000
292.400;    9.100; -144.000;  211.000
292.539; -227.200; -959.000; -813.000
292.678;  -86.800; -325.000; -300.000
292.816; -290.800;-1136.000; -965.000
292.955; -178.900; -844.000; -684.000
293.094;  -50.100; -173.000; -337.000
293.233;  -88.600; -556.000; -400.000
293.371;  -53.800; -225.000;  -84.000
293.510; -212.600; -866.000; -780.000
293.649; -263.600; -959.000; -924.000
293.787; -160.200;-1083.000;-1012.000
293.926;    0.500; -113.000;  -32.000
294.065;  -67.600; -379.000; -290.000
294.203;  121.200;  298.000;  406.000
294.342;   54.100;   74.000;  156.000
294.481;11199.100;51180.000; -836.000
294.619;  -56.700; -425.000; -582.000
294.758; -280.300;-1230.000;-1137.000
294.896;  119.600; -125.000;    5.000
295.035; -231.600;-1040.000;-1006.000
295.174; -248.100;-1082.000; -954.000
295.312;  -72.000; -323.000; -203.000
295.451;  -21.700; -307.000; -428.000
295.589;  -88.200; -389.000; -518.000
295.728;   53.500; -292.000; -165.000
295.866;   45.600;  -36.000;  -51.000
296.005; -139.000; -584.000; -341.000
296.143; -132.400; -558.000; -596.000
296.282; -197.700; -957.000; -881.000
296.420; -157.400; -657.000; -557.000
296.559; -198.400; -892.000; -633.000
296.697;  -55.900; -847.000; -665.000
296.835;   30.900;-1141.000;-1002.000
296.974;  114.800;  -23.000;   39.000
297.112;    0.900; -443.000; -504.000
297.251; -132.700; -815.000; -755.000
297.389;  135.700; -576.000; -438.000
297.527;   45.200; -145.000;  -83.000
297.666; -124.400; -486.000; -438.000
297.804; -115.500; -404.000; -264.000
297.942;    1.000; -136.000; -161.000
298.081;   -3.000; -183.000;   63.000
298.219;   83.500;  -17.000;  -19.000
298.357;   69.100; -144.000;  -71.000
298.495;    7.600; -810.000; -812.000
298.634;  143.200;  245.000;  219.000
298.772;   99.200; -220.000; -338.000
298.910;  -47.600; -309.000; -182.000
299.048;   -4.900; -130.000; -153.000
299.187;  -77.000; -350.000; -250.000
299.325;   47.800;   52.000;  122.000
299.463;   16.900; -389.000; -299.000
299.601;  166.300; -327.000; -271.000
299.739; -199.500; -908.000; -883.000
299.877; -141.600; -791.000; -703.000
300.016; -188.300;-1095.000; -935.000
300.154;  251.300;  -19.000; -161.000
300.292;   36.100; -428.000; -348.000
300.430;   54.400; -408.000; -291.000
300.568; -213.200; -940.000; -874.000
300.706;  -99.200; -366.000; -469.000
300.844; -196.500;-1108.000; -979.000
300.982;  230.500;  246.000;  282.000
301.120; -211.500; -965.000; -866.000
301.258; -145.500; -812.000; -705.000
301.396;   39.400;  104.000;  -41.000
301.534;  148.100; -218.000; -293.000
301.672;  -26.600; -664.000; -521.000
301.810;   15.400; -613.000; -545.000
301.948;  223.100;   53.000;  149.000
302.086;  855.200; -250.000;  -32.000
302.224; 1377.700; -610.000; -585.000
302.362;   37.500; -558.000; -622.000
302.500;  -73.900; -923.000; -893.000
302.638;  205.600;  128.000;  245.000
302.776;   -4.000; -352.000; -408.000
302.913;  125.400;  447.000;  236.000
303.051;  -19.900;  -86.000;  -23.000
303.189;  140.700;   90.000;  118.000
303.327;  -73.800; -341.000; -256.000
303.465; -128.200; -832.000; -588.000
303.603; -181.400; -805.000; -604.000
303.740;  208.800;  417.000;  241.000
303.878;   15.800; -800.000; -759.000
304.016; -164.800; -915.000; -790.000
304.154; -283.800;-1123.000;-1152.000
304.291;  -65.700; -505.000; -554.000
304.429;   48.200;  102.000;   74.000
304.567; -241.900; -908.000; -893.000
304.705; -125.800; -408.000; -515.000
304.842;  139.100; -616.000; -540.000
304.980;  128.500;  215.000;   35.000
305.118;   23.300; -367.000; -365.000
305.255; -186.200; -945.000; -927.000
305.393;  102.300;  178.000;  239.000
305.531; -210.600;-1173.000; -956.000
305.668; -133.800; -663.000; -582.000
305.806;  207.400; -358.000; -439.000
305.943;  137.200; -629.000; -637.000
306.081;   81.200; -378.000; -267.000
306.219; -170.400; -863.000; -748.000
306.356;   33.100;  158.000;   27.000
306.494;  273.800;  981.000;  761.000
306.631;   13.200;  -11.000;  -55.000
306.769;    6.300; -613.000; -485.000
306.906;  -26.700; -284.000; -258.000
307.044;  -78.300; -473.000; -488.000
307.181;  -80.500; -410.000; -332.000
307.319;   78.600;  112.000;   87.000
307.456; -327.300;-1191.000;-1153.000
307.594; -175.000; -980.000; -727.000
307.731;  -13.000; -371.000; -164.000
307.868;   -4.400;  -15.000;   20.000
308.006; -258.500; -961.000; -847.000
308.143; -121.600; -618.000; -330.000
308.281;  401.800;  -37.000; -254.000
308.418;  -11.900; -748.000; -640.000
308.555;  -98.800; -400.000; -250.000
308.693; -135.100; -577.000; -573.000
308.830; -175.000; -712.000; -657.000
308.967;  -18.900; -215.000;  -95.000
309.105;  -88.500; -507.000; -396.000
309.242;   87.900; -468.000; -367.000
309.379;  709.000; -577.000; -655.000
309.517;  -94.900; -936.000; -948.000
309.654; -161.100; -910.000; -734.000
309.791; -125.500; -662.000; -580.000
309.928; -188.200; -977.000; -914.000
310.065;  344.200;  819.000;  697.000
310.203;  -63.900; -825.000; -850.000
310.340;   -5.200; -465.000; -321.000
310.477; -147.700; -412.000; -516.000
310.614; -112.800; -383.000; -473.000
310.751; -123.100; -427.000; -518.000
310.889;   13.400;    1.000;   11.000
311.026; -265.400;-1161.000; -939.000
311.163;  -82.100; -386.000; -380.000
311.300; -116.100; -512.000; -479.000
311.437; -139.300; -658.000; -619.000
311.574; -305.100;-1226.000; -985.000
311.711; -122.000; -595.000; -433.000
311.848;  -74.600; -380.000; -388.000
311.985;   60.200;  270.000;   93.000
312.122; -243.900; -932.000; -762.000
312.259; -218.200; -941.000; -994.000
312.396; -105.000; -508.000; -551.000
312.533; -135.500; -812.000; -790.000
312.670; -252.500;-1070.000; -898.000
312.807;  -28.000; -352.000; -367.000
312.944; -121.400; -513.000; -611.000
313.081;  -40.200; -150.000; -415.000
313.218; -210.500;-1111.000; -867.000
313.355;   27.700; -531.000; -449.000
313.492;   30.400; -455.000; -292.000
313.629;  286.000;  815.000;  735.000
313.766; -306.200;-1176.000;-1008.000
313.902;   11.000; -186.000;   21.000
314.039; -108.700; -372.000; -289.000
314.176;   77.500;  286.000;  192.000
314.313; -124.600; -569.000; -473.000
314.450; -134.400; -788.000; -684.000
314.587; -117.700; -468.000; -480.000
314.723;   22.800;  -78.000;  130.000
314.860;   81.000;  318.000;  332.000
314.997;   90.400;  223.000;  142.000
315.134;  -74.800; -385.000; -368.000
315.270;  -88.900; -480.000; -496.000
315.407; -234.300;-1094.000; -967.000
315.544;  -84.100; -657.000; -538.000
315.681; -152.800; -681.000; -565.000
315.817;   76.900; -133.000; -176.000
315.954;  -16.200; -613.000; -392.000
316.091; -243.800;-1045.000;-1023.000
316.227;   -3.800;  -71.000; -179.000
316.364;   24.800;   23.000;    6.000
316.500;  -45.100; -113.000; -300.000
316.637;  -59.200; -181.000; -302.000
316.774; -128.400; -625.000; -358.000
316.910; -163.100; -598.000; -629.000
317.047; -133.000; -487.000; -351.000
317.183;  -68.200; -435.000; -566.000
317.320;  -35.900; -367.000; -321.000
317.456; -142.200; -733.000; -805.000
317.593; -183.700; -598.000; -641.000
317.729;   28.500;  168.000;  -67.000
317.866; -386.500;-1434.000;-1285.000
318.002; -181.400; -708.000; -948.000
318.139; -160.900; -883.000; -867.000
318.275; -155.800;-1003.000; -738.000
318.412;  -90.200; -517.000; -336.000
318.548;  -57.000; -751.000; -720.000
318.685; -206.400; -985.000; -888.000
318.821; -185.900; -762.000; -735.000
318.957;  -35.400;   34.000;  -23.000
319.094;  112.100;  297.000;  154.000
319.230; -141.800; -756.000; -742.000
319.367;  217.700; -471.000; -520.000
319.503;  103.400; -538.000; -436.000
319.639; -137.500; -877.000; -793.000
319.775; -119.700; -750.000; -685.000
319.912;  -70.900; -424.000; -519.000
320.048; -198.900;-1184.000;-1184.000
320.184;  122.100;   59.000;   70.000
320.321; -101.300; -497.000; -467.000
320.457;  146.300;  475.000;  662.000
320.593;  -90.800; -375.000; -382.000
320.729; -187.700; -732.000; -734.000
320.866; -151.400; -577.000; -635.000
321.002; -189.400; -759.000; -809.000
321.138;  -12.900; -135.000; -211.000
321.274;  129.400; -148.000; -115.000
321.410;  -55.100; -585.000; -353.000
321.546; -106.000;-1011.000; -911.000
321.683;  124.100;  400.000;  185.000
321.819;   45.000;  -48.000; -117.000
321.955; -232.500; -743.000; -722.000
322.091;  -92.400; -585.000; -540.000
322.227;  -23.000; -382.000; -202.000
322.363;  -29.600; -320.000; -215.000
322.499;  -73.800; -343.000; -331.000
322.635;  296.200;  636.000;  443.000
322.771;   45.500; -139.000;   12.000
322.907;  196.000;  129.000;  327.000
323.043;    2.900; -115.000; -206.000
323.179;  -69.700; -394.000; -363.000
323.315;    6.500; -401.000; -371.000
323.451;  131.300; -328.000; -236.000
323.587;   94.800;  -60.000;  -77.000
323.723;  -21.100; -682.000; -601.000
323.859;    0.000; -258.000;  -76.000
323.995;  -26.100; -467.000; -409.000
324.131; -230.900; -967.000; -892.000
324.267;  -72.500; -254.000; -276.000
324.402; -263.000; -960.000; -983.000
324.538;   22.600; -279.000; -104.000
324.674;   72.600;  164.000;   77.000
324.810;  306.800;  226.000;  308.000
324.946;   43.800; -810.000; -658.000
325.082; -142.800; -568.000; -475.000
325.217;   -2.700;  -62.000;   16.000
325.353; -208.000; -764.000; -659.000
325.489; -185.700; -540.000; -506.000
325.625; -122.300; -579.000; -525.000
325.760;  122.400;  517.000;  376.000
325.896;  -79.900; -515.000; -702.000
326.032;  -87.200; -403.000; -352.000
326.168; -103.300; -462.000; -369.000
326.303; -113.400; -352.000; -461.000
326.439;   -4.500; -336.000; -276.000
326.575;   23.800; -190.000;  -29.000
326.710;   12.700; -156.000;  -30.000
326.846;   10.400;  146.000;  103.000
326.982; -167.200; -530.000; -548.000
327.117; -116.300; -481.000; -442.000
327.253; -149.200; -745.000; -742.000
327.388; -213.800;-1137.000;-1153.000
327.524;  -60.000; -811.000; -578.000
327.659;  -17.000;  -58.000;  -22.000
327.795;   20.900;   69.000;   45.000
327.931; -176.300; -723.000; -499.000
328.066;  -21.100; -417.000; -276.000
328.202;    1.600;   12.000; -129.000
328.337;  255.500;  957.000;  713.000
328.473;    9.600;  -12.000;  -74.000
328.608;  -28.900; -256.000; -267.000
328.743; -168.700; -799.000; -664.000
328.879;   75.700;  214.000;  114.000
329.014; -116.200; -102.000; -122.000
329.150; -138.600; -358.000; -483.000
329.285; -132.800; -465.000; -466.000
329.421;  -91.000; -548.000; -246.000
329.556;  -51.600;  -36.000;   85.000
329.691; -133.400; -633.000; -615.000
329.827; -152.200; -626.000; -480.000
329.962;  -37.700;  131.000; -301.000
330.097; -177.300; -673.000; -585.000
330.233; -104.300; -410.000; -223.000
330.368; -229.700; -839.000; -628.000
330.503;   10.800;    3.000;   98.000
330.638;   25.300;  -93.000; -125.000
330.774; -122.000; -609.000; -530.000
330.909;  -58.600; -434.000; -244.000
331.044; -169.000; -714.000; -708.000
331.179; -350.000;-1217.000;-1109.000
331.315;   30.900;   77.000;   20.000
331.450;   52.000;  157.000;  285.000
331.585; -166.000; -805.000; -706.000
331.720; -180.300; -510.000; -460.000
331.855;   22.600;  -35.000; -102.000
331.990;  288.600;   62.000;  138.000
332.126;  159.400; -110.000;   71.000
332.261;  -46.800; -379.000; -265.000
332.396;  -24.100; -135.000; -242.000
332.531; -216.700;-1074.000;-1031.000
332.666;   21.900; -519.000; -363.000
332.801; -187.900; -726.000; -807.000
332.936;  -23.200; -192.000; -122.000
333.071; -293.400; -870.000; -817.000
333.206;   72.800;  307.000;  379.000
333.341;   99.900;  344.000;  418.000
333.476; -172.600; -627.000; -623.000
333.611;  -39.300; -251.000; -173.000
333.746;  -54.600; -381.000; -464.000
333.881; -216.500; -973.000; -935.000
334.016; -230.600; -936.000; -917.000
334.151; -217.700; -746.000; -702.000
334.286;   81.000;  152.000;  186.000
334.421;  -21.900; -125.000; -178.000
334.556; -149.500; -611.000; -567.000
334.690; -150.100; -631.000; -577.000
334.825;  137.700;  381.000;   83.000
334.960;  -90.500; -285.000; -413.000
335.095;   34.200;  135.000;  -91.000
335.230; -190.700; -722.000; -738.000
335.365; -255.400;-1084.000; -990.000
335.499; -249.600;-1108.000;-1037.000
335.634;   33.600;    9.000;  534.000
335.769; -213.300; -755.000; -720.000
335.904; -116.000; -603.000; -561.000
336.038;  -90.800; -735.000; -657.000
336.173; -242.600;-1206.000;-1194.000
336.308;   -2.800; -116.000; -189.000
336.443;    6.900; -544.000; -634.000
336.577; -164.800; -936.000; -787.000
336.712;   83.200;   -4.000;  -12.000
336.847; -109.400; -724.000; -607.000
336.981;   91.400; -272.000; -208.000
337.116;  450.800;  615.000;  501.000
337.250;  162.400; -434.000; -421.000
337.385;  265.800; -297.000; -208.000
337.520;   73.500; -632.000; -603.000
337.654;  -64.600; -215.000; -126.000
337.789; -257.100; -989.000; -933.000
337.923;  -29.700; -104.000; -205.000
338.058; -137.200; -673.000; -738.000
338.192;  -80.100; -611.000; -488.000
338.327;  -15.400;  -18.000; -155.000
338.461; -145.500; -299.000; -469.000
338.596; -157.800; -780.000; -638.000
338.730; -173.600; -767.000; -803.000
338.865;   95.100;  -46.000; -140.000
338.999; -138.900; -846.000; -702.000
339.134;  -81.600; -634.000; -536.000
339.268;  -45.900; -741.000; -603.000
339.403;  391.400; -740.000; -775.000
339.537;   47.900; -894.000; -820.000
339.671; -247.500; -829.000; -813.000
339.806; -124.400; -556.000; -512.000
339.940;    6.500; -261.000; -235.000
340.074; -190.100; -685.000; -510.000
340.209;  -80.500; -351.000; -230.000
340.343; -156.900; -517.000; -573.000
340.477;  350.600;  998.000; 1036.000
340.612; -166.700;-1033.000; -900.000
340.746;  178.600; -199.000; -243.000
340.880; -173.100; -924.000; -785.000
341.014;    5.300;  -45.000; -154.000
341.149; -195.100; -756.000; -718.000
341.283; -186.400; -839.000; -754.000
341.417; -195.800;-1124.000; -938.000
341.551;  164.600; -768.000; -708.000
341.685;  -91.500; -633.000; -611.000
341.820; -113.700; -562.000; -493.000
341.954;  -90.400; -218.000; -349.000
342.088; -285.500;-1102.000;-1019.000
342.222;   98.900;  565.000;  618.000
342.356;  -72.200; -395.000; -335.000
342.490; -183.200; -880.000; -841.000
342.624;  -29.100; -339.000; -242.000
342.758;  -18.700; -364.000; -312.000
342.892; -136.500; -710.000; -585.000
343.026;  -27.300;  -58.000; -116.000
343.160;  -94.400; -426.000; -376.000
343.294; -138.100; -474.000; -337.000
343.428;  -71.600; -488.000; -448.000
343.562;   -5.900; -172.000;  -23.000
343.696;  -45.600; -385.000; -314.000
343.830;  -26.200; -362.000; -356.000
343.964;   46.500; -231.000; -168.000
344.098; 1402.200;  199.000;   70.000
344.232; 1191.400; -266.000; -127.000
344.366;   92.800; -567.000; -453.000
344.500;  112.800; -665.000; -744.000
344.634;   59.000; -324.000; -164.000
344.768;  -22.000; -531.000; -341.000
344.902;   81.100;  278.000;  256.000
345.035; -106.900; -556.000; -496.000
345.169; -254.900; -933.000; -656.000
345.303;  -56.900; -308.000; -482.000
345.437; -177.200; -826.000; -717.000
345.571; -117.900; -675.000; -594.000
345.704; -130.000; -309.000; -532.000
345.838;  -42.400; -331.000; -284.000
345.972;  -84.900; -543.000; -495.000
346.106;  197.400; -179.000; -190.000
346.239;  568.300; -312.000; -243.000
346.373;    7.000; -343.000; -302.000
346.507; -268.800; -950.000; -962.000
346.640;  245.200;  -30.000;   13.000
346.774;  -87.300; -650.000; -797.000
346.908;  -14.900; -138.000;  -11.000
347.041; -174.900; -646.000; -593.000
347.175;   26.300;  259.000;   27.000
347.309; -140.200; -698.000; -628.000
347.442; -195.900; -883.000; -732.000
347.576;  530.900;  670.000;  668.000
347.709;  345.300; -123.000;  -52.000
347.843; -194.800; -933.000; -825.000
347.976;  102.800;  235.000;  294.000
348.110; -342.600;-1268.000;-1186.000
348.243; -193.900; -679.000; -772.000
348.377;   36.800;  -26.000;   60.000
348.510;  153.100;  403.000;  540.000
348.644;  -45.000;  -37.000; -159.000
348.777;   22.100;  180.000;  191.000
348.911;  -71.900; -142.000; -112.000
349.044;  300.100;  471.000;  448.000
349.178;  214.800;-1069.000;-1006.000
349.311;  219.800;  141.000;  255.000
349.444;  -95.300; -927.000; -813.000
349.578;  -46.000; -347.000; -200.000
349.711; -178.400; -959.000; -862.000
349.845;  -21.000; -661.000; -591.000
349.978; -292.400;-1224.000;-1137.000
350.111; -152.100; -546.000; -612.000
350.244; -161.200; -596.000; -700.000
350.378;    5.500; -392.000; -393.000
350.511;  -99.900; -393.000; -426.000
350.644; -220.000; -808.000; -806.000
350.778;   39.200;  168.000;  104.000
350.911;   45.200;  134.000;  140.000
351.044; -166.400; -685.000; -615.000
351.177;  -34.800; -321.000; -281.000
351.310;    8.300;    3.000; -131.000
351.444; -166.800; -888.000; -788.000
351.577;  192.000;  140.000;   90.000
351.710;  222.000;  593.000;  417.000
351.843;  -45.900; -165.000;  -77.000
351.976;   39.800;  149.000;  -79.000
352.109; -182.600; -621.000; -612.000
352.242;  -35.200; -464.000; -419.000
352.376; -111.500; -580.000; -636.000
352.509;  260.300; -437.000; -356.000
352.642;  -39.500; -654.000; -604.000
352.775;   93.400; -141.000;  -98.000
352.908; -192.500; -933.000; -904.000
353.041; -184.800; -814.000; -824.000
353.174;  -98.700; -551.000; -424.000
353.307; -168.800; -753.000; -764.000
353.440;  137.100;  541.000;  453.000
353.573; -212.100; -957.000;-1008.000
353.706;  -58.000; -384.000; -558.000
353.839;    3.800; -264.000; -220.000
353.971; -185.900; -657.000; -512.000
354.104; -153.500; -896.000; -835.000
354.237;  -83.400; -627.000; -662.000
354.370; -198.700; -846.000; -879.000
354.503; -357.300;-1231.000;-1308.000
354.636;  -76.200; -529.000; -348.000
354.769; -241.800; -937.000; -860.000
354.902;   -9.100; -230.000; -139.000
355.034;    5.300; -164.000; -220.000
355.167;  -41.400; -262.000; -162.000
355.300; -217.400;-1061.000; -880.000
355.433; 1187.600;  -71.000;  -14.000
355.565; 1806.600; -402.000; -384.000
355.698;  465.800; -356.000; -296.000
355.831;  -56.300; -882.000; -801.000
355.964;  143.800; -285.000; -170.000
356.096; -199.800; -856.000; -843.000
356.229;  -19.200; -523.000; -530.000
356.362;  369.200; -373.000; -266.000
356.494;  751.100; -229.000; -162.000
356.627;  713.700;  269.000;  377.000
356.760;  867.600;  120.000;   53.000
356.892; 1118.100; -286.000; -601.000
357.025; 1014.600;  403.000;  389.000
357.157;  920.900; -167.000; -179.000
357.290;  784.900; -856.000; -713.000
357.423;  182.500; -667.000; -556.000
357.555;  179.100; -217.000; -228.000
357.688;  141.000; -483.000; -364.000
357.820;  593.900; -870.000; -877.000
357.953; 5554.400; -563.000; -589.000
358.085; 1118.100; -632.000; -612.000
358.218; 1705.600;-1131.000; -932.000
358.350;  310.400;  -58.000;  312.000
358.483; -246.900;-1300.000;-1187.000
358.615;  -68.500;-1182.000;-1078.000
358.747; -139.800;-1187.000;-1058.000
358.880;    9.900; -810.000; -744.000
359.012;   -3.100; -376.000; -202.000
359.145;  -50.400; -480.000; -511.000
359.277;   52.700; -962.000; -913.000
359.409; 4652.400;  536.000;  231.000
359.542; 1144.600; -738.000; -688.000
359.674;  166.100;   46.000;   13.000
359.806; -120.900; -565.000; -438.000
359.939;  -88.000; -617.000; -516.000
360.071;  -69.600; -583.000; -579.000
360.203;  -26.100; -411.000; -364.000
360.335;  115.600;  164.000;  -16.000
360.468;  298.900; -249.000; -307.000
360.600; 3583.400; -547.000; -454.000
360.732; 3503.100; -546.000; -423.000
360.864;  359.800;-1216.000;-1044.000
360.996;  427.400; -516.000; -554.000
361.129;   68.000; -389.000; -598.000
361.261;   42.900;  110.000; -113.000
361.393;  -42.300; -252.000; -214.000
361.525;   78.400;   94.000;  244.000
361.657;  -90.500; -821.000; -703.000
361.789;   32.500; -139.000; -155.000
361.921;  366.900; -642.000; -593.000
362.053;  501.900;  524.000;  541.000
362.185;  145.300;  288.000;   72.000
362.318; -125.000; -709.000; -705.000
362.450;  226.700;  294.000;  444.000
362.582;  150.100; -913.000; -870.000
362.714;  -47.400; -353.000; -332.000
362.846; -187.300; -606.000; -490.000
362.978; -234.000; -941.000; -811.000
363.109;   72.300; -161.000; -260.000
363.241;  541.500; -739.000; -749.000
363.373;  512.400; -649.000; -564.000
363.505;  883.600; -186.000;  -91.000
363.637;  166.400; -787.000; -601.000
363.769; -243.400;-1067.000;-1080.000
363.901; -125.500; -596.000; -654.000
364.033; -208.400;-1103.000;-1062.000
364.165;   26.400; -283.000; -283.000
364.296;  121.600; -316.000; -177.000
364.428;  -35.100;-1344.000;-1220.000
364.560; -134.900; -679.000; -661.000
364.692; -107.700; -738.000; -835.000
364.824;  417.400; -588.000; -456.000
364.955;  566.500; -402.000; -564.000
365.087;  960.100;-1097.000; -852.000
365.219;   -8.400; -686.000; -816.000
365.351; -117.700; -526.000; -572.000
365.482;  119.500;  300.000;  240.000
365.614;  -64.300; -402.000; -314.000
365.746; -150.900; -729.000; -752.000
365.877; -207.600; -706.000; -672.000
366.009;  302.800;  -35.000;  -62.000
366.141; -200.900;-1249.000;-1134.000
366.272; -204.700; -803.000; -719.000
366.404; -246.800;-1005.000; -874.000
366.535;   -2.000; -139.000;  -12.000
366.667; -215.300; -644.000; -649.000
366.799;  109.600;  353.000;  203.000
366.930; -216.300; -862.000; -996.000
367.062;   99.500; -639.000; -613.000
367.193;   99.400; -872.000; -842.000
367.325;  -96.800; -580.000; -684.000
367.456;   73.000; -246.000;   31.000
367.588;  187.600; -371.000; -318.000
367.719;   41.400;  -44.000;  -45.000
367.851;  -28.100; -222.000; -241.000
367.982;  -99.900; -875.000; -732.000
368.113;  153.700; -475.000; -358.000
368.245; -233.500; -960.000; -841.000
368.376;  -27.900; -254.000; -302.000
368.508;  -29.600; -188.000; -263.000
368.639; -267.900;-1166.000;-1034.000
368.770;  -38.000; -670.000; -589.000
368.902; -111.000; -836.000; -926.000
369.033; -197.300; -906.000; -855.000
369.164; -123.400; -720.000; -653.000
369.296; -183.900; -452.000; -601.000
369.427;   17.600; -209.000; -144.000
369.558; -100.900; -593.000; -377.000
369.689; -162.700; -721.000; -569.000
369.821; -258.600; -951.000; -845.000
369.952;    1.900;   42.000; -108.000
370.083;  -56.700; -229.000; -108.000
370.214; -158.600; -735.000; -650.000
370.345;   11.200;   65.000;   81.000
370.477; -157.700; -810.000; -790.000
370.608;  393.300; -328.000; -264.000
370.739;  -91.800;-1233.000;-1292.000
370.870;  -95.400;-1102.000; -923.000
371.001;  148.600; -378.000; -467.000
371.132; -125.700; -754.000; -735.000
371.263;  -41.700;  -42.000; -148.000
371.394; -243.200; -841.000; -748.000
371.525;   93.100;  345.000;  225.000
371.657; -152.400; -808.000; -670.000
371.788;  161.900;  103.000;  199.000
371.919;  287.700; -384.000; -304.000
372.050; 5820.700;  -91.000; -156.000
372.181; 1664.400; -188.000; -294.000
372.311;  583.400;   42.000; -127.000
372.442;   19.800; -457.000; -451.000
372.573;   -4.500; -444.000; -340.000
372.704; -208.500;-1008.000; -980.000
372.835;  131.500; -228.000; -289.000
372.966; -110.500; -646.000; -554.000
373.097; -146.900; -575.000; -711.000
373.228;  -79.200; -717.000; -542.000
373.359;  196.300; -824.000; -536.000
373.490; 1401.200; -881.000; -727.000
373.620; 1664.300;-1001.000; -803.000
373.751; 2798.400; -332.000; -396.000
373.882; 1215.800; -663.000; -733.000
374.013;  107.600; -449.000; -262.000
374.143; -102.600; -581.000; -659.000
374.274; -217.900; -987.000; -908.000
374.405;  244.300; -388.000; -276.000
374.536;  679.400; -526.000; -387.000
374.666; 1752.000; -759.000; -807.000
374.797;  316.300; -817.000; -868.000
374.928; 1335.000; -710.000; -560.000
375.058; 1312.200; -535.000; -500.000
375.189;  125.200;  -59.000;  -93.000
375.320; -199.600; -928.000;-1034.000
375.450;  -69.600; -625.000; -616.000
375.581;  -83.200; -526.000; -436.000
375.712;  -14.200; -574.000; -250.000
375.842;  495.500; -438.000; -415.000
375.973;  315.500; -554.000; -513.000
376.103;  -91.200; -665.000; -648.000
376.234; -122.100; -531.000; -552.000
376.364;  -88.600; -944.000; -867.000
376.495;  595.800;  925.000;  529.000
376.625;   -8.800; -472.000; -485.000
376.756;   62.700; -709.000; -678.000
376.886; -191.400;-1178.000;-1026.000
377.017;  -31.900;-1048.000;-1061.000
377.147;  321.000; -786.000; -782.000
377.278;  142.600;  174.000;  228.000
377.408; -222.700; -801.000; -815.000
377.538; -154.800; -707.000; -693.000
377.669; -161.300; -537.000; -613.000
377.799; -151.700; -645.000; -635.000
377.929; -103.900; -610.000; -428.000
378.060; -218.600; -781.000; -847.000
378.190; -135.100; -726.000; -531.000
378.320; -110.300; -401.000; -406.000
378.451;    6.300; -131.000;  -22.000
378.581;  -11.100;  -67.000; -110.000
378.711;  340.200; 1035.000;  866.000
378.841;  -17.600; -533.000; -675.000
378.972; -145.100; -871.000; -751.000
379.102;  -12.900; -652.000; -579.000
379.232;  -12.200; -126.000;  -73.000
379.362; -230.100;-1001.000; -885.000
379.492;   -0.200; -373.000; -424.000
379.623;  167.400;    0.000;  111.000
379.753; -218.900;-1107.000; -974.000
379.883;  394.400;   59.000;  156.000
380.013;  -32.600;-1081.000;-1017.000
380.143; -210.900;-1097.000;-1056.000
380.273; -201.300; -985.000; -861.000
380.403;    3.100; -344.000; -257.000
380.533;  -92.400; -651.000; -664.000
380.663;  150.100;  173.000;  128.000
380.793; -206.000;-1027.000;-1074.000
380.923;  -13.000; -103.000;  -34.000
381.053; -163.500; -613.000; -623.000
381.183;    7.100; -106.000; -248.000
381.313;   41.600; -656.000; -470.000
381.443;   23.900; -692.000; -473.000
381.573;  305.200; -402.000; -409.000
381.703;  371.200;-1249.000;-1095.000
381.833; -239.300;-1454.000;-1336.000
381.963;  166.000; -134.000;  -87.000
382.093; 2090.700; -925.000; -909.000
382.223;  582.300; -713.000; -602.000
382.353;  -30.400; -801.000; -608.000
382.482;  573.300;-1091.000; -964.000
382.612; 1134.900; -872.000; -644.000
382.742;  610.900; -695.000; -622.000
382.872;  397.100; -565.000; -551.000
383.002;  143.500;  347.000; -132.000
383.131;  -34.400; -226.000; -160.000
383.261;  -98.800; -706.000; -768.000
383.391;  389.800; -552.000; -377.000
383.521; 4040.500;  451.000;  263.000
383.650;  756.800; -947.000; -904.000
383.780;  -69.700; -783.000; -656.000
383.910;  233.500;  880.000;  802.000
384.039;    2.400; -794.000; -656.000
384.169;  253.900;-1205.000;-1017.000
384.299;  -48.500; -650.000; -662.000
384.428; -152.800; -764.000; -680.000
384.558;  -58.900; -308.000; -275.000
384.687;  -67.500; -414.000; -334.000
384.817;   62.900;   75.000;   -2.000
384.947;   65.400; -234.000; -141.000
385.076;  530.100;  982.000;  912.000
385.206;  205.300;  369.000;  480.000
385.335;  -36.100; -549.000; -417.000
385.465; -166.300; -655.000; -663.000
385.594;  269.200;  -53.000;  -44.000
385.724;  637.700; -868.000; -838.000
385.853;  200.900; -296.000; -270.000
385.982; 2196.800; -743.000; -787.000
386.112; 3293.400;-1052.000; -871.000
386.241;  211.000; -307.000; -312.000
386.371;   56.600; -174.000;  -87.000
386.500;   -9.700; -825.000; -789.000
386.629;  -14.600; -874.000; -817.000
386.759;   95.500;  -43.000;   68.000
386.888;    9.900; -170.000; -250.000
387.017; -170.100; -648.000; -620.000
387.147; -174.500; -771.000; -798.000
387.276;   22.500; -410.000; -397.000
387.405;   37.700; -398.000; -342.000
387.535;  -85.500; -452.000; -361.000
387.664;  -91.200; -692.000; -620.000
387.793;   84.400; -198.000; -113.000
387.922;  886.900;  255.000;  200.000
388.052;   33.500; -576.000; -423.000
388.181;   28.600; -342.000; -472.000
388.310;    5.500; -889.000; -710.000
388.439; -129.400; -749.000; -742.000
388.568;  365.300;  365.000;  244.000
388.697; 1734.900; -756.000; -653.000
388.826;  290.300; -768.000; -666.000
388.956;   90.200; -285.000; -307.000
389.085;  -56.600; -347.000; -287.000
389.214; -175.500; -842.000; -872.000
389.343; -109.000; -645.000; -413.000
389.472;  603.700;  126.000;  149.000
389.601;  750.600;   91.000;    0.000
389.730;   32.700; -568.000; -687.000
389.859;  147.200;  226.000;   46.000
389.988;  320.700; -423.000; -408.000
390.117;  220.100; -168.000; -146.000
390.246;   37.100; -331.000; -320.000
390.375;  155.100; -673.000; -626.000
390.504;  -84.400; -703.000; -621.000
390.633; -175.600; -672.000; -726.000
390.761; -119.100; -732.000; -645.000
390.890;   51.800;   -4.000; -130.000
391.019;  -33.100; -421.000; -441.000
391.148; -199.100; -826.000; -855.000
391.277;  -83.200; -576.000; -493.000
391.406; -136.800; -821.000; -805.000
391.534;   83.300;  574.000; -301.000
391.663; -102.600; -583.000; -645.000
391.792; -120.000; -673.000; -701.000
391.921;  204.400;   -3.000;   15.000
392.050;  334.300; -287.000; -228.000
392.178; -139.900;-1206.000;-1061.000
392.307;  236.800; -758.000; -712.000
392.436;   98.200; -427.000; -641.000
392.564;   66.800;  166.000;   -6.000
392.693; -193.000; -860.000; -682.000
392.822;  349.000; -529.000; -534.000
392.950;  132.300; -880.000; -714.000
393.079;  556.200; -188.000; -328.000
393.208;   42.900; -488.000; -511.000
393.336;   11.000; -170.000; -145.000
393.465;  -63.400; -317.000; -199.000
393.593;   58.700;   62.000;   79.000
393.722; -264.900;-1121.000; -916.000
393.850;  -12.200; -188.000;  -61.000
393.979; -252.500; -926.000; -805.000
394.107; -107.300; -517.000; -537.000
394.236;  -55.400; -570.000; -507.000
394.364;  456.900;  383.000;  206.000
394.493;  734.500; -911.000; -767.000
394.621;  -47.900; -955.000; -916.000
394.750;  776.000; -873.000; -923.000
394.878; 3613.000; -247.000; -149.000
395.007; 4624.600; -721.000; -807.000
395.135;  277.300; -790.000; -721.000
395.263; -163.400;-1038.000;-1040.000
395.392;   17.200;  -25.000; -107.000
395.520; -140.500; -818.000; -679.000
395.648; -171.500; -865.000; -915.000
395.777;   -8.000; -366.000; -405.000
395.905;  -72.900; -449.000; -564.000
396.033;   82.800;  217.000;  172.000
396.162; 1271.200; -399.000; -453.000
396.290; 1095.500;  -17.000;   -2.000
396.418;  131.700; -555.000; -514.000
396.546; -159.800; -571.000; -466.000
396.674; -155.700; -850.000; -878.000
396.803;   51.700;  -72.000;  -23.000
396.931;  145.500; -179.000; -199.000
397.059;   33.500;-1026.000; -989.000
397.187; -187.500;-1026.000; -975.000
397.315; -255.300; -884.000; -649.000
397.443; -150.400; -592.000; -443.000
397.572; -141.400; -578.000; -424.000
397.700;   -6.600; -607.000; -614.000
397.828;    7.600;  120.000;  -90.000
397.956; -110.200; -508.000; -478.000
398.084; -133.300; -767.000; -626.000
398.212;   88.700;  137.000;  124.000
398.340;   40.100;  -56.000;  159.000
398.468;   56.600; -390.000; -169.000
398.596; -260.900; -993.000; -953.000
398.724; -199.500; -762.000; -767.000
398.852; -277.000;-1024.000; -976.000
398.980;  -80.300; -560.000; -560.000
399.108;  -85.900; -982.000; -735.000
399.236;   52.800;   13.000;    8.000
399.363;   58.100;  222.000;  196.000
399.491; -101.100; -404.000; -398.000
399.619; -232.100; -829.000; -800.000
399.747; -165.200; -859.000; -771.000
399.875;  155.700;  220.000;  234.000
400.003;  -53.500; -359.000; -284.000
400.130; -135.500; -421.000; -341.000
400.258;    3.000;  -83.000;   38.000
400.386;  -59.800; -352.000; -168.000
400.514;  -54.600; -526.000; -587.000
400.641; -166.500; -928.000; -802.000
400.769; -241.300; -979.000; -888.000
400.897; -160.400; -838.000; -793.000
401.025;   30.400; -166.000; -152.000
401.152;   42.000;  220.000;   38.000
401.280; -150.400; -430.000; -429.000
401.408; -172.900; -712.000; -576.000
401.535; -167.900; -735.000; -758.000
401.663; -339.100;-1134.000;-1054.000
401.790; -112.300; -514.000; -525.000
401.918;  144.500;  436.000;  405.000
402.046;  -13.100;  134.000;  122.000
402.173;  -36.300;  -18.000;    7.000
402.301; -104.300; -519.000; -397.000
402.428;  162.000;  528.000;  383.000
402.556; -252.800;-1188.000; -913.000
402.683;  -33.300;  -20.000;   -1.000
402.811;   20.100;  -37.000; -206.000
402.938;    2.400;   20.000;   27.000
403.066;  292.400; -574.000; -558.000
403.193;  524.400;  299.000;  239.000
403.321;  413.200; -396.000; -574.000
403.448;  537.600;   83.000;   27.000
403.575;  254.000;  -90.000;  -46.000
403.703; -166.100; -732.000; -557.000
403.830; -146.800; -531.000; -496.000
403.957; -249.600;-1117.000;-1023.000
404.085;   36.300;  -61.000; -172.000
404.212;  171.600;  -50.000;   63.000
404.339;  303.400; -566.000; -306.000
404.467; 7078.400; -612.000; -524.000
404.594; 4579.900; -287.000; -227.000
404.721; 1112.300; -869.000; -764.000
404.848;  129.500; -113.000; -202.000
404.976; -233.300; -856.000; -783.000
405.103;   44.100;  -14.000;  -82.000
405.230;   18.800;  190.000;  226.000
405.357;   72.400;  117.000;   44.000
405.484;  331.500;  -49.000;    5.000
405.612;   56.200; -548.000; -563.000
405.739; -119.500; -488.000; -243.000
405.866;  202.400;  669.000;  385.000
405.993;  -65.000; -398.000; -102.000
406.120; -213.700; -801.000; -887.000
406.247;  -88.100; -323.000; -342.000
406.374;  767.100;  540.000;  629.000
406.501;  115.800; -632.000; -702.000
406.628; -133.500; -621.000; -589.000
406.755; -148.100; -803.000; -620.000
406.882;  -67.700; -228.000; -277.000
407.009; -154.900; -719.000; -628.000
407.136;   82.900; -480.000; -401.000
407.263;  133.200; -939.000; -829.000
407.390; -122.200; -692.000; -614.000
407.517; -296.800;-1139.000;-1187.000
407.644;  -75.400; -332.000; -256.000
407.771; -243.500; -249.000; -287.000
407.898;   78.500;  168.000;  328.000
408.025;  -82.400; -421.000; -313.000
408.151;   23.800;   82.000;  153.000
408.278;  -93.100; -267.000; -216.000
408.405; -196.900; -931.000; -899.000
408.532; -138.600; -549.000; -542.000
408.659; -169.600; -677.000; -648.000
408.785; -355.100;-1298.000;-1170.000
408.912; -102.700; -412.000; -296.000
409.039; -159.800; -610.000; -686.000
409.166; -145.800; -591.000; -555.000
409.292; -167.000; -571.000; -534.000
409.419; -180.300; -665.000; -649.000
409.546; -161.500; -431.000; -192.000
409.672; -197.800; -713.000; -545.000
409.799;   -8.100;  -36.000;   34.000
409.926;  -31.900; -180.000; -179.000
410.052; -303.000;-1127.000;-1091.000
410.179;  -70.600; -368.000; -392.000
410.305; -148.000; -375.000; -493.000
410.432;  -52.100; -220.000; -333.000
410.558; -125.800; -305.000; -380.000
410.685; -169.800; -688.000; -431.000
410.812; -138.900; -409.000; -588.000
410.938; -223.200; -964.000; -808.000
411.065; -168.500; -671.000; -645.000
411.191;   -3.600; -189.000; -174.000
411.317; -194.500; -823.000; -742.000
411.444;  -85.800; -317.000; -246.000
411.570; -105.700; -339.000; -294.000
411.697; -199.000; -758.000; -752.000
411.823; -315.500; -989.000; -999.000
411.949;  -39.600;  -56.000;   17.000
412.076; -183.200; -539.000; -519.000
412.202; -194.400; -758.000; -757.000
412.329; -195.200; -798.000; -752.000
412.455; -189.300; -821.000; -657.000
412.581;   -6.300;  -15.000;  172.000
412.707; -103.900; -540.000; -457.000
412.834;   60.500;  156.000;  219.000
412.960; -109.000; -785.000; -784.000
413.086; -170.600; -743.000; -701.000
413.212;  282.600;  604.000;  578.000
413.339; -120.500; -685.000; -701.000
413.465;   12.300; -364.000; -310.000
413.591; -164.500; -757.000; -474.000
413.717;  -73.500; -358.000; -366.000
413.843; -248.800; -839.000; -861.000
413.969;  -49.200;  -47.000; -292.000
414.096; -155.400; -679.000; -679.000
414.222;   24.800;  -33.000;   85.000
414.348;  -45.400; -652.000; -385.000
414.474;  181.800;   38.000;  -52.000
414.600;   26.200; -126.000; -144.000
414.726;   16.200;  -96.000;  -55.000
414.852; -106.900; -365.000; -342.000
414.978;   81.200;  104.000;  -18.000
415.104;  105.100;   38.000;   80.000
415.230;   -8.800; -329.000; -330.000
415.356;   29.400; -409.000; -514.000
415.482;  269.800;   13.000;  -35.000
415.608;  336.900; -247.000; -323.000
415.734; 1276.200;   67.000;   38.000
415.860;25993.800; -875.000; -767.000
415.986;16992.600; -685.000; -607.000
416.111; 1342.400; -798.000; -652.000
416.237;  243.200; -424.000; -571.000
416.363; 1425.800; -765.000; -733.000
416.489; 5099.100; -324.000; -251.000
416.615;  432.600; -707.000; -742.000
416.741;  -83.000; -677.000; -784.000
416.866; -152.400; -673.000; -736.000
416.992; -249.300; -801.000; -818.000
417.118;   -3.900;  -41.000;  -80.000
417.244; -110.300; -798.000; -531.000
417.369; -137.100; -801.000; -612.000
417.495;   -1.900; -325.000; -254.000
417.621; -183.400;-1015.000; -803.000
417.746;  -16.500; -579.000; -572.000
417.872;   65.600; -254.000; -144.000
417.998;   51.800; -515.000; -530.000
418.123; 1302.100;-1073.000; -845.000
418.249; 6477.400; -512.000; -601.000
418.374;  732.600; -916.000; -824.000
418.500;   77.100; -383.000; -482.000
418.626;  150.500;   70.000;  -59.000
418.751;  181.600; -549.000; -448.000
418.877;  193.100; -637.000; -643.000
419.002; 2389.500; -688.000; -560.000
419.128;15181.100; -930.000; -721.000
419.253; 3294.000; -967.000; -837.000
419.379;  429.700; -391.000; -338.000
419.504;  545.300;  325.000;  415.000
419.629;  653.000; -393.000; -212.000
419.755; 4663.400; -317.000; -254.000
419.880;25180.000;  -98.000;   67.000
420.006;14301.200; -280.000; -221.000
420.131;35761.900; -662.000; -775.000
420.256; 4777.500; -315.000; -316.000
420.382;  613.800; -665.000; -687.000
420.507;   17.900; -649.000; -778.000
420.632;  215.200; -337.000; -339.000
420.758;  407.100; -251.000; -425.000
420.883; -151.700; -876.000; -672.000
421.008; -133.500; -775.000; -619.000
421.133; -125.100; -509.000; -467.000
421.259;  -32.500; -325.000; -259.000
421.384; -178.600; -834.000; -693.000
421.509;  -89.500;-1052.000; -862.000
421.634; 1963.100; -936.000; -820.000
421.759;  810.300; -359.000; -327.000
421.885;  -98.400; -717.000; -656.000
422.010; -131.400; -673.000; -542.000
422.135; -238.100; -695.000; -727.000
422.260;   85.700;  340.000;  280.000
422.385;  -42.900;   12.000;  -98.000
422.510;   50.400;  151.000;  -26.000
422.635;   65.400;  -87.000;  -43.000
422.760;  160.900; -766.000; -791.000
422.885;  104.400;  -57.000;  -80.000
423.010;  -16.800; -112.000; -169.000
423.135; -136.500; -481.000; -561.000
423.260;   58.500; -150.000; -245.000
423.385;  143.800;  476.000;  222.000
423.510;  109.400;   71.000;  -22.000
423.635;  142.500;  133.000;   45.000
423.760;  163.200;  383.000;  328.000
423.885;  142.900;  336.000;  391.000
424.010;   35.100;  -68.000;  -13.000
424.135;    6.800;    5.000;  -33.000
424.259; -124.700; -654.000; -457.000
424.384;  -65.300; -279.000; -272.000
424.509;  -30.000; -260.000; -186.000
424.634; -166.200; -761.000; -623.000
424.759;  -45.600; -688.000; -544.000
424.883;  -70.500; -506.000; -527.000
425.008;  229.200; -502.000; -410.000
425.133; 2511.400; -679.000; -653.000
425.258;  976.600; -517.000; -381.000
425.382; 1638.600; -867.000; -774.000
425.507; 3832.500; -487.000; -543.000
425.632;  519.900; -802.000; -663.000
425.756;  582.500; -256.000; -146.000
425.881; 8297.100; -831.000; -857.000
426.006;20254.800; -604.000; -355.000
426.130; 3022.700; -696.000; -508.000
426.255;  340.400; -611.000; -491.000
426.379;  192.900; -189.000; -577.000
426.504;  599.300;  660.000;  544.000
426.629; 5112.600; -519.000; -466.000
426.753; 3306.100;   64.000;  -46.000
426.878;  393.100; -252.000; -288.000
427.002;  146.500; -651.000; -668.000
427.127; 2138.100;  -35.000; -158.000
427.251;14476.100;  372.000;  401.000
427.375; 3655.200; -191.000; -173.000
427.500; 3491.200; -616.000; -610.000
427.624; 1075.400; -234.000; -400.000
427.749;  146.700; -216.000; -225.000
427.873;  -57.900; -499.000; -412.000
427.997;  -44.800; -222.000; -230.000
428.122;  212.900;  795.000;  703.000
428.246;  202.400;  433.000;  434.000
428.371; -243.600; -869.000; -773.000
428.495; -174.200; -624.000; -646.000
428.619;  -55.900; -186.000; -117.000
428.743;   51.000;   65.000;  132.000
428.868;   50.100; -732.000; -643.000
428.992; 2192.200; -219.000; -326.000
429.116;  853.800; -329.000; -357.000
429.240;  481.100;  419.000;  426.000
429.365;  -18.300; -454.000; -574.000
429.489;  -72.700; -638.000; -647.000
429.613;   27.700; -236.000; -177.000
429.737;   26.400; -563.000; -432.000
429.861;  393.500; -247.000; -133.000
429.985; 7287.900; -425.000; -305.000
430.109; 7125.600; -770.000; -908.000
430.234;  872.400;   76.000;  -50.000
430.358;   70.800; -250.000; -160.000
430.482; -107.000; -672.000; -564.000
430.606;  -79.400; -655.000; -375.000
430.730;   71.500; -437.000; -388.000
430.854;  199.300; -909.000; -835.000
430.978; -129.200; -795.000; -764.000
431.102; -122.900; -499.000; -422.000
431.226; -177.200; -874.000; -815.000
431.350;  131.400;  345.000;  422.000
431.474;  -92.700; -661.000; -373.000
431.597; -285.200;-1060.000; -848.000
431.721;  -93.600; -276.000; -267.000
431.845; -232.900; -704.000; -472.000
431.969; -119.500; -304.000; -349.000
432.093; -153.600; -395.000; -317.000
432.217;   14.200;   32.000;   82.000
432.341; -128.500; -523.000; -518.000
432.464;   32.200;   96.000;   40.000
432.588;  340.300; -401.000; -329.000
432.712;  187.500;  -52.000;  -52.000
432.836;  114.300;  213.000;  263.000
432.959;  -24.000; -372.000; -311.000
433.083;  142.600;   11.000;    2.000
433.207;  541.700;  285.000;  930.000
433.330; 6402.300; -391.000; -200.000
433.454; 7326.200; -654.000; -638.000
433.578; 4342.200;  583.000;  278.000
433.701;  717.100; -623.000; -675.000
433.825;  181.900; -292.000; -299.000
433.949;  301.000;   28.000;  -72.000
434.072;  115.700; -410.000; -323.000
434.196;   -2.100; -309.000; -117.000
434.319; 7765.700;25482.000;25124.000
434.443;  971.900; -656.000; -603.000
434.566; 3277.500;  281.000;   62.000
434.690;  415.600; -637.000; -383.000
434.813;   49.500; -251.000; -173.000
434.937; -132.800; -569.000; -696.000
435.060;  -36.900; -423.000; -332.000
435.184;  524.700; -492.000; -217.000
435.307;  304.200;  159.000;  102.000
435.431;   21.100;  -40.000;   24.000
435.554;  -91.400; -399.000; -240.000
435.677; -102.800; -350.000; -258.000
435.801;  -35.600;  -25.000;   49.000
435.924;   27.300;    1.000;  -67.000
436.048; -211.000;-1019.000; -732.000
436.171;  -73.500; -240.000;  -66.000
436.294;  -48.800; -248.000; -229.000
436.417;   53.100; -963.000; -849.000
436.541; -183.600; -814.000; -840.000
436.664;  -50.300; -242.000; -316.000
436.787;    8.900;   13.000;  113.000
436.910; -180.700; -792.000; -422.000
437.034;   50.400;  142.000;  143.000
437.157;  140.100;  -11.000;    0.000
437.280;  -76.900; -392.000; -292.000
437.403; -138.200; -982.000; -869.000
437.526; 1136.700; -903.000; -865.000
437.649; 3753.800; -505.000; -332.000
437.772;  484.000; -692.000; -540.000
437.896;  281.700;  700.000;  544.000
438.019; -156.700; -758.000; -503.000
438.142; -169.900; -596.000; -506.000
438.265;  -21.000; -639.000; -670.000
438.388;  860.100; -520.000; -410.000
438.511;  116.000; -597.000; -394.000
438.634;  -68.000; -247.000; -125.000
438.757; -210.100; -693.000; -619.000
438.880;  -10.200;  -34.000;  -57.000
439.003; -109.000; -417.000; -437.000
439.126;  -92.200; -287.000; -167.000
439.248;  -66.400;  -98.000; -139.000
439.371;  -24.600;    9.000;  -53.000
439.494;   86.100;  510.000;  439.000
439.617;  -49.000;   65.000;  -88.000
439.740; -300.200; -968.000; -816.000
439.863; -232.300; -755.000; -595.000
439.986; -196.300; -476.000; -431.000
440.108;  -62.300; -161.000; -112.000
440.231; -271.300; -950.000; -836.000
440.354;   -9.000;  -64.000; -150.000
440.477;   82.700; -566.000; -542.000
440.599;   33.300; -200.000; -225.000
440.722; -209.800; -709.000; -586.000
440.845;  221.400;  751.000;  928.000
440.968; -175.800; -415.000; -311.000
441.090;  -69.500; -199.000;  -33.000
441.213; -303.600;-1021.000; -825.000
441.336;  -46.100; -159.000;   -5.000
441.458; -109.500; -549.000; -396.000
441.581; -138.100; -628.000; -629.000
441.703;  -39.700; -152.000;   13.000
441.826; -161.400; -557.000; -400.000
441.948;  -57.700;   56.000;   51.000
442.071;  131.700;  555.000;  424.000
442.193; -183.200; -531.000; -485.000
442.316;   58.100;  152.000;   97.000
442.438;   82.900; -233.000;  -10.000
442.561;  178.100;  272.000;  262.000
442.683;  971.600; -809.000; -522.000
442.806; 1926.000;   -8.000;   74.000
442.928;   -1.700; -859.000; -604.000
443.051;  -90.800; -577.000; -373.000
443.173; -143.100; -341.000; -339.000
443.295; -155.300; -263.000; -371.000
443.418; -120.300; -321.000;  -29.000
443.540;   31.400; -106.000;   -4.000
443.662; -189.000; -563.000; -465.000
443.785;    7.400;  335.000;  199.000
443.907; -186.700; -362.000; -208.000
444.029; -208.800; -767.000; -494.000
444.152; -232.500; -644.000; -554.000
444.274;  -14.400;  -18.000;  -24.000
444.396; -185.100; -461.000; -221.000
444.518; -183.000; -691.000; -454.000
444.640; -151.500; -268.000; -111.000
444.763;    8.500;  388.000;  249.000
444.885; -186.700; -432.000; -392.000
445.007;   -6.900;   35.000;   86.000
445.129; -205.500; -610.000; -515.000
445.251; -139.800; -372.000; -439.000
445.373; -214.200; -537.000; -386.000
445.495;   34.600;  242.000;  350.000
445.617;  167.700;  853.000;  753.000
445.739;  -59.700; -215.000;  -97.000
445.861;  -39.000; -245.000; -112.000
445.984;  -11.500; -267.000; -101.000
446.105;  404.400; -418.000; -251.000
446.227; 1044.400; -176.000;  -19.000
446.349;  -16.400; -358.000; -249.000
446.471; -154.200; -615.000; -448.000
446.593;  -97.200; -316.000;   19.000
446.715;   29.300;  -67.000;   41.000
446.837;  153.400;  697.000;  832.000
446.959; -152.800; -457.000; -478.000
447.081; -207.200; -628.000; -518.000
447.203;  190.200;  862.000;  834.000
447.325; -112.200; -270.000;   42.000
447.446;   37.700;  286.000;  530.000
447.568; -251.200; -921.000; -803.000
447.690;  -97.500; -236.000; -245.000
447.812; -235.100; -798.000; -519.000
447.933;  -10.600;  155.000;  127.000
448.055; -102.000; -306.000; -261.000
448.177;  284.000;   31.000;   79.000
448.299;  136.200; -935.000; -727.000
448.420;   74.200;  -25.000;  159.000
448.542;  -38.900;   -3.000;   33.000
448.664;   -7.100;  109.000;  322.000
448.785;   -8.000;  265.000;   83.000
448.907; -109.100; -614.000; -353.000
449.028;  -37.200; -771.000; -471.000
449.150;  182.900;  492.000;  589.000
449.272; -305.100;-1044.000; -913.000
449.393;   80.800;  612.000;  694.000
449.515; -224.700; -634.000; -581.000
449.636;  -52.300; -264.000; -155.000
449.758;  220.200;  763.000;  622.000
449.879; -159.700; -498.000; -396.000
450.001; -117.100; -149.000;  -49.000
450.122;  -23.800;  -95.000;  162.000
450.244;    1.300;   37.000;  364.000
450.365; -113.800; -495.000; -301.000
450.486;  -16.100;   80.000;  268.000
450.608;   76.700;  393.000;  326.000
450.729;  190.600;  578.000;  645.000
450.850;  -40.400; -574.000; -466.000
450.972;  905.700; -552.000; -389.000
451.093; 6077.500;  190.000;  588.000
451.214; 2229.600; -516.000; -337.000
451.336;  507.000;  773.000;  579.000
451.457;  107.900;  264.000;  393.000
451.578;  -46.500; -118.000;  -74.000
451.699; -204.000; -546.000; -540.000
451.821;  -90.600; -284.000;  -50.000
451.942;   28.700;  278.000;  285.000
452.063;  118.900;  228.000;  419.000
452.184;  748.700;  -54.000;  -49.000
452.305; 1368.700;  103.000;  170.000
452.427;   74.700; -549.000; -301.000
452.548;  -11.100;   23.000;   79.000
452.669;  -46.300; -257.000;  -89.000
452.790;   -7.300;    3.000;  -18.000
452.911;   28.900;  195.000;  259.000
453.032;  -58.000; -289.000;  -60.000
453.153;   -3.200;  -29.000;   81.000
453.274;  192.300;  737.000;  868.000
453.395;  -29.700;  -51.000;  175.000
453.516;  327.000; 1317.000; 1388.000
453.637; -105.100; -205.000; -150.000
453.758;  -50.000;   15.000;   69.000
453.879; -154.100; -462.000; -250.000
454.000;  235.600; 1086.000;  948.000
454.121; -208.700; -554.000; -326.000
454.242; -175.400; -599.000; -383.000
454.362;  -67.100;  -99.000;  114.000
454.483;  -44.400; -309.000; -229.000
454.604;  156.700;  512.000;  580.000
454.725; -191.400; -627.000; -555.000
454.846; -179.600; -474.000; -406.000
454.967;  -22.100;  230.000;  539.000
455.087;  -17.700;  179.000;  153.000
455.208;  105.300;  554.000;  856.000
455.329;  -69.300;  -22.000;   82.000
455.450;  130.300;  473.000;  633.000
455.570; -129.900; -234.000; -211.000
455.691;   11.600;  201.000;  407.000
455.812; -131.800; -270.000;  -92.000
455.932;  -78.100;  107.000;  -97.000
456.053;  -74.600;   36.000;   24.000
456.173; -155.700; -433.000; -355.000
456.294; -205.500; -476.000; -303.000
456.415;  -74.200;  -73.000;   70.000
456.535;    5.000;  297.000;  273.000
456.656;    2.800;  132.000;  240.000
456.776;  -90.600;    3.000;  298.000
456.897;   56.800;  308.000;  513.000
457.017;  -98.800; -153.000;   -3.000
457.138; -154.600; -402.000; -249.000
457.258;   -1.200;  263.000;  224.000
457.379;   60.600;  509.000;  521.000
457.499;    5.900;  443.000;  432.000
457.620; -198.700; -407.000; -231.000
457.740; -132.800; -132.000;  -11.000
457.860;  -53.000;   87.000;   44.000
457.981;  -53.300;  132.000;  124.000
458.101;  -77.300;  -89.000;   40.000
458.221;   41.100;  336.000;  402.000
458.342;  -77.200;   -4.000;  -37.000
458.462;  109.000;  617.000;  352.000
458.582;  -66.100; -302.000; -294.000
458.703;   15.100;  303.000;  154.000
458.823;  -40.000;   22.000;  163.000
458.943;   94.300;  341.000;  467.000
459.063;   30.900; 1124.000;  192.000
459.183;    5.000;  328.000;  313.000
459.304;   66.000;  315.000;  517.000
459.424;  -66.300; -246.000;  -89.000
459.544;  505.300;  388.000;  764.000
459.664; 1084.700;  499.000;  506.000
459.784;  445.900; 1004.000; 1175.000
459.904;  180.300;  867.000;  744.000
460.024;  224.100;  867.000;  684.000
460.144;   78.000;  449.000;  554.000
460.264;   61.600;  515.000;  327.000
460.385; -122.100; -145.000; -119.000
460.505;  145.800;  905.000;  858.000
460.625; -165.500;  -17.000;  -68.000
460.745;   17.200;  396.000;  541.000
460.864;  -35.800;  153.000;  469.000
460.984;   64.600;  499.000;  573.000
461.104;  351.200; 1656.000; 1775.000
461.224;  126.900;  657.000;  650.000
461.344;   21.000;  431.000;  360.000
461.464;    7.700;  258.000;  513.000
461.584;   44.300;  283.000;  466.000
461.704;  -56.500;   58.000;  108.000
461.824;  -68.900;  238.000;  259.000
461.943;  -29.800;  191.000;  130.000
462.063;  -69.500;    2.000;  324.000
462.183;  109.200;  639.000;  717.000
462.303;  236.800; 1678.000; 1230.000
462.422;  100.700;  781.000;  840.000
462.542;  -27.300;  271.000;  391.000
462.662;  125.500;  353.000;  380.000
462.782;  372.800;  833.000;  572.000
462.901;  647.400;  545.000;  717.000
463.021;  518.300; 1702.000; 1638.000
463.141;   31.500;  337.000;  770.000
463.260;   -0.600;  614.000;  474.000
463.380;  102.000;  902.000;  884.000
463.499;    4.700;  342.000;  332.000
463.619;   16.600;  581.000;  559.000
463.738;  315.300; 1644.000;  903.000
463.858;  104.200;  657.000;  811.000
463.978;   22.300;  542.000;  396.000
464.097;  170.400;  921.000; 1114.000
464.217;  267.700; 1196.000; 1143.000
464.336;  288.200; 1068.000; 1130.000
464.455;  -26.900;  328.000;  659.000
464.575;  126.000;  597.000;  602.000
464.694;  384.500; 1204.000; 1179.000
464.814;  282.200; 1190.000; 1138.000
464.933;  204.900; 1095.000; 1027.000
465.052;  244.100; 1412.000; 1054.000
465.172;  172.400;  922.000;  799.000
465.291;  326.800; 1376.000; 1320.000
465.410;   86.400;  462.000;  735.000
465.530;  216.000; 1355.000; 1310.000
465.649;  174.700; 1209.000; 1273.000
465.768;  371.800; 1673.000; 1508.000
465.888;  162.500;  941.000; 1174.000
466.007;  243.800; 1335.000; 1440.000
466.126;   38.500;  721.000;  641.000
466.245;  171.100; 1176.000; 1187.000
466.364;  129.200;  950.000; 1060.000
466.484;  188.400; 1024.000; 1213.000
466.603;  213.000; 1101.000; 1222.000
466.722;  296.200; 1490.000; 1769.000
466.841;  210.000; 1151.000; 1401.000
466.960;  154.000; 1069.000;  972.000
467.079;  331.800; 1971.000; 1786.000
467.198;  164.600; 1238.000; 1181.000
467.317;  246.000; 1768.000; 1162.000
467.436;  212.000; 1709.000; 1261.000
467.555;  294.200; 1796.000; 1746.000
467.674;  204.900; 1227.000; 1329.000
467.793;  191.300; 1376.000; 1374.000
467.912;  255.400; 1658.000; 1539.000
468.031;  376.600; 2038.000; 1930.000
468.150;  339.500; 1842.000; 1837.000
468.269;  491.200; 2313.000; 2090.000
468.388;  449.900; 2168.000; 2339.000
468.507;  585.000; 2884.000; 2903.000
468.626;  621.200; 2555.000; 2541.000
468.744;  354.800; 2018.000; 2174.000
468.863;  481.900; 2312.000; 2523.000
468.982;  265.900; 1503.000; 1555.000
469.101;  512.800; 2788.000; 2692.000
469.220;  368.600; 2333.000; 2176.000
469.338;  574.100; 2935.000; 3051.000
469.457;  439.900; 2719.000; 2545.000
469.576;  798.900; 3953.000; 3784.000
469.695;  521.900; 2877.000; 3066.000
469.813;  903.900; 4148.000; 4192.000
469.932;  879.100; 4255.000; 4485.000
470.051;  885.500; 4075.000; 4161.000
470.169; 1494.100; 4470.000; 4338.000
470.288; 2265.800; 4700.000; 4809.000
470.406; 1446.200; 5059.000; 5194.000
470.525; 1245.700; 6101.000; 5787.000
470.644; 1371.600; 6847.000; 6794.000
470.762; 1679.300; 8397.000; 7873.000
470.881; 1877.300; 8651.000; 8464.000
470.999; 2135.000; 9685.000; 9151.000
471.118; 2258.400;11174.000;10711.000

