
Integration time [ms]: 100.000
Averaging Nr. [scans]: 40
Smoothing Nr. [pixels]: 0
Data measured with spectrometer [name]: 2101012U2
Wave   ;Sample   ;Dark     ;Reference
[nm]   ;[counts] ;[counts] ;[counts] 

197.733;   69.350;  516.000;  404.000
197.879;  -71.975; -610.000; -634.000
198.025;  -48.600; -475.000; -420.000
198.171;  -76.550; -602.000; -612.000
198.317;  -38.625; -401.000; -316.000
198.463;  -42.700; -655.000; -404.000
198.609;   28.750;  181.000; -137.000
198.755;  -85.700; -644.000; -410.000
198.901;  -60.675; -505.000; -424.000
199.047;  -72.650; -615.000; -488.000
199.193;  -27.300; -230.000; -468.000
199.339;  -52.350; -222.000; -369.000
199.485;   46.875;  330.000;  271.000
199.631;   22.900;  227.000;  310.000
199.777;  -56.900; -466.000; -398.000
199.923;  -55.925; -610.000; -424.000
200.069;   11.600; -141.000;  -58.000
200.215;   55.700;  128.000;  453.000
200.361;   48.250;  243.000;  477.000
200.507;  -62.050; -600.000; -373.000
200.653;  -23.550; -371.000; -194.000
200.798;  -39.175; -215.000; -125.000
200.944;   -6.350; -146.000;  -41.000
201.090;   32.400;   61.000;  222.000
201.236;   -8.150; -116.000; -158.000
201.382;  125.800;  874.000;  903.000
201.528;    1.925;  -58.000;  -48.000
201.674;  -42.000; -386.000; -293.000
201.819;  -65.125; -540.000; -439.000
201.965;  -79.175; -699.000; -447.000
202.111;  -16.050; -273.000; -226.000
202.257;  -23.400; -250.000; -238.000
202.402;   14.925;   13.000;  -36.000
202.548;  -29.825; -169.000; -116.000
202.694;   86.550;  410.000; -183.000
202.840;  -60.700; -603.000; -531.000
202.985;  -73.875; -681.000; -639.000
203.131; -104.000; -832.000; -666.000
203.277;  -24.375; -199.000; -262.000
203.423;  -40.450; -434.000; -520.000
203.568;  -34.450; -462.000; -237.000
203.714;  -51.300; -535.000; -542.000
203.860;  -76.325; -682.000; -641.000
204.005;   13.675;  112.000;  167.000
204.151;   82.475;  561.000;  556.000
204.296;  -40.200; -354.000; -221.000
204.442;  -64.600; -600.000; -547.000
204.588;  -68.300; -592.000; -579.000
204.733;   36.400;  178.000;  168.000
204.879; -124.300;-1018.000; -822.000
205.025;    3.250;  -99.000;  126.000
205.170;   -1.350;  -17.000;   94.000
205.316;   93.775;  438.000;  661.000
205.461;  -81.175; -698.000; -554.000
205.607;   97.525;  609.000;  665.000
205.752;  -74.825; -626.000; -551.000
205.898;  -47.275; -501.000; -391.000
206.043;  -52.425; -578.000; -506.000
206.189;  -35.475; -243.000; -285.000
206.334;   87.450;  554.000;  606.000
206.480;   96.400;  409.000;  239.000
206.625;  -73.175; -529.000; -552.000
206.771;  -46.975; -451.000; -373.000
206.916;  -15.775; -210.000; -537.000
207.062;  -81.450; -545.000; -591.000
207.207;  -53.375; -546.000; -443.000
207.353;   59.150;  185.000;  460.000
207.498;   14.825;  196.000;   85.000
207.643;  -41.800; -501.000; -370.000
207.789; -137.525;-1069.000; -910.000
207.934;  -97.425; -665.000; -713.000
208.080;  -10.150; -154.000;   66.000
208.225;  -16.675;  -22.000;  -57.000
208.370;  -80.800; -727.000; -619.000
208.516;  -66.700; -741.000; -487.000
208.661;  -21.675; -127.000;  -69.000
208.806;  -18.750; -165.000; -171.000
208.952; -135.100;-1044.000; -731.000
209.097;   90.275;  378.000;  349.000
209.242;  -34.150; -307.000; -382.000
209.387;   76.725;  392.000;  350.000
209.533;  -53.375; -321.000; -350.000
209.678;   94.400;  472.000;  543.000
209.823;  -48.600; -408.000; -310.000
209.969; -111.800; -860.000; -757.000
210.114;  -99.325; -907.000; -719.000
210.259; -125.550; -939.000; -889.000
210.404;  -22.050; -171.000;  103.000
210.549;   25.900;  108.000;    3.000
210.695;  -14.725;   -3.000;  -95.000
210.840;   43.050;   94.000;   67.000
210.985;  -49.725; -484.000; -303.000
211.130;   70.125;  268.000;  406.000
211.275;   22.850;  207.000;  199.000
211.420;  -45.775; -300.000; -289.000
211.566;  -63.175; -536.000; -489.000
211.711;   42.025;  218.000;  157.000
211.856;  -60.250; -545.000; -519.000
212.001;   10.125;  151.000;   44.000
212.146;   35.650;  153.000;   49.000
212.291;  -13.925; -210.000; -186.000
212.436;  -28.750; -280.000;   -6.000
212.581;  -79.500; -685.000; -653.000
212.726;  -69.600; -487.000; -538.000
212.871;  -50.275; -552.000; -217.000
213.016; -150.525;-1172.000;-1029.000
213.161;   63.700;  406.000;  291.000
213.306;  -74.425; -435.000; -577.000
213.451;  -93.475; -778.000; -689.000
213.596;  -39.450; -455.000; -347.000
213.741;  -56.700; -448.000; -538.000
213.886;  -63.725; -498.000; -517.000
214.031;  -28.825; -294.000; -124.000
214.176;  -47.925; -408.000; -341.000
214.321;   -7.025; -296.000; -157.000
214.466;  -22.250; -163.000;  -43.000
214.611;    3.625;  -61.000;  -10.000
214.756; -121.550; -948.000; -858.000
214.901;  -23.950; -388.000; -226.000
215.046; -129.775; -797.000; -825.000
215.191;   21.925;  128.000;   35.000
215.336;   -6.375; -157.000;  -19.000
215.480;  -60.400; -684.000; -505.000
215.625;   -4.175; -175.000;  -19.000
215.770;  -81.275; -757.000; -662.000
215.915;   -1.325;   -5.000;  -97.000
216.060;   18.500; -113.000;  -21.000
216.205; -102.075; -731.000; -779.000
216.349;  -68.575; -470.000; -533.000
216.494; -130.300; -939.000; -867.000
216.639; -113.325; -823.000; -888.000
216.784;  -86.750; -577.000; -525.000
216.929;   57.800;  392.000;  281.000
217.073;  -11.600; -244.000;  -31.000
217.218;    9.700;   78.000;  -47.000
217.363;  -82.125; -656.000; -618.000
217.507;  -82.825; -623.000; -588.000
217.652; -135.675; -845.000; -874.000
217.797;  -94.775; -708.000; -659.000
217.942; -108.775; -856.000; -720.000
218.086;   82.925;  608.000;  539.000
218.231;  -24.500; -174.000;  -26.000
218.376;  -30.850; -337.000; -229.000
218.520;    7.875;  -41.000;   96.000
218.665;  -33.150; -338.000; -204.000
218.810;  -32.600; -275.000; -233.000
218.954;   25.325;  201.000;   35.000
219.099; -110.125; -713.000; -963.000
219.243;  -73.750; -589.000; -554.000
219.388;  -33.400; -264.000; -136.000
219.532;   -5.625; -116.000; -116.000
219.677;  -67.100; -564.000; -521.000
219.822;    3.975;   33.000;   89.000
219.966;    7.675;   17.000;  -99.000
220.111;  -27.225; -328.000;  -40.000
220.255;  -91.125; -797.000; -750.000
220.400;  -27.025; -180.000; -146.000
220.544;  -66.225; -516.000; -450.000
220.689;  -55.350; -422.000; -451.000
220.833;  -38.625; -123.000;  -58.000
220.978;  -34.325; -393.000; -563.000
221.122;   28.950;  319.000;  307.000
221.267; -116.975; -906.000; -837.000
221.411;  -57.675; -478.000; -394.000
221.555;   -2.050; -104.000;  -23.000
221.700;  -46.000; -329.000; -222.000
221.844;   30.375;  255.000;  272.000
221.989;  -40.050; -328.000; -311.000
222.133;  -33.275; -289.000; -307.000
222.277;    0.425;    5.000;   78.000
222.422;   27.675;  227.000;  113.000
222.566;  -26.425; -381.000; -214.000
222.711;  -60.575; -414.000; -479.000
222.855;  -75.900; -643.000; -586.000
222.999;  -91.950; -642.000; -717.000
223.144;  -18.400; -195.000; -194.000
223.288;   54.600;  423.000;  251.000
223.432;   31.350;  184.000;  230.000
223.576;   19.625;  152.000;  -21.000
223.721;   58.850;  364.000;  273.000
223.865;  -56.450; -472.000; -475.000
224.009;  216.850; 1673.000; 1631.000
224.153;  -68.375; -660.000; -671.000
224.298;  -55.850; -531.000; -489.000
224.442;   -6.825;  -74.000;  -33.000
224.586;   -7.100; -169.000; -106.000
224.730;  -94.475; -858.000; -670.000
224.875;  -92.275; -739.000; -688.000
225.019;   26.875;  102.000;  188.000
225.163;   57.850;  208.000;  341.000
225.307;   26.300;   97.000;  -91.000
225.451;   32.250;  360.000;  481.000
225.595;   41.600;  264.000;  176.000
225.739;   -8.150; -170.000;  -94.000
225.884;    3.675;   86.000;    5.000
226.028;  -97.175; -760.000; -626.000
226.172;  -43.800; -260.000; -273.000
226.316; -119.425; -941.000; -902.000
226.460;  -60.025; -645.000; -493.000
226.604;  -45.500; -406.000; -400.000
226.748;  -92.600; -836.000; -733.000
226.892;  -36.150; -227.000; -181.000
227.036;  -59.925; -537.000; -447.000
227.180;  -47.775; -551.000; -375.000
227.324;  -71.800; -561.000; -580.000
227.468; -124.100; -819.000; -717.000
227.612;   17.500;  242.000;  -28.000
227.756;  -94.575; -845.000; -698.000
227.900;   51.700;  342.000;  441.000
228.044;  -65.500; -509.000; -290.000
228.188;   39.700;  448.000;  568.000
228.332;  -87.725; -546.000; -472.000
228.476;  -22.250; -223.000; -149.000
228.620;  -32.625; -210.000; -150.000
228.764;   58.975;  431.000;  349.000
228.908;  -18.150; -155.000;   30.000
229.052;  -69.400; -615.000; -528.000
229.195;  -11.225; -172.000;   13.000
229.339;  -27.125; -235.000; -305.000
229.483;  -27.650;    5.000; -162.000
229.627;   -1.725; -156.000;  139.000
229.771;  -43.750; -218.000; -294.000
229.915;   10.550;  230.000;   79.000
230.059;  -95.575; -648.000; -663.000
230.202;  -46.050; -370.000; -317.000
230.346;   -9.975; -107.000;  107.000
230.490;  -60.175; -489.000; -521.000
230.634; -110.925; -736.000; -553.000
230.777;   90.650;  478.000;  509.000
230.921;  -61.375; -450.000; -359.000
231.065;  -36.725; -246.000; -286.000
231.209;   33.050;  261.000;  265.000
231.352;    8.050;   54.000;   40.000
231.496;   19.925;  568.000;  188.000
231.640;  -88.325; -693.000; -621.000
231.783;   71.275;  546.000;  525.000
231.927;  -46.175; -294.000; -365.000
232.071; -118.250; -962.000; -736.000
232.214; -109.600; -980.000; -764.000
232.358; -103.100; -683.000; -599.000
232.502;    8.200;  -19.000;    7.000
232.645; -134.000;-1090.000; -927.000
232.789;  -21.675; -257.000; -218.000
232.933;  -43.175; -407.000; -224.000
233.076; -136.025;-1038.000; -897.000
233.220; -107.650; -752.000; -777.000
233.363;  -72.425; -669.000; -477.000
233.507;   64.025;  371.000;  129.000
233.650; -100.375; -764.000; -834.000
233.794;   51.525;  438.000;  461.000
233.938;  -70.950; -530.000; -362.000
234.081;  -10.900;  -93.000;   31.000
234.225;  -68.575; -631.000; -539.000
234.368; -110.750; -773.000; -723.000
234.512;  -45.950; -385.000; -299.000
234.655;  -92.000; -582.000; -555.000
234.798;  -72.600; -493.000; -466.000
234.942; -129.775; -884.000;-1002.000
235.085;  -71.075; -651.000; -443.000
235.229;  -75.975; -405.000; -410.000
235.372;  -44.200; -247.000; -191.000
235.516;  -61.475; -397.000; -321.000
235.659;   25.275;   92.000;  121.000
235.802;    3.100;  -38.000;  -22.000
235.946;   35.650;  335.000;  215.000
236.089;   29.725;  126.000;  250.000
236.233;   49.450;  275.000;  298.000
236.376;  -51.325; -235.000; -378.000
236.519;  -56.775; -297.000; -319.000
236.663;  -14.650; -215.000; -117.000
236.806; -134.400;-1029.000; -999.000
236.949;   58.850;  543.000;  431.000
237.092;   67.600;  412.000;  391.000
237.236;  -80.575; -589.000; -502.000
237.379;   68.425;  352.000;  428.000
237.522; -120.850; -879.000; -768.000
237.666;  -21.675; -271.000;   18.000
237.809; -123.275; -851.000; -823.000
237.952;   34.475;  469.000;  271.000
238.095;  -46.925; -447.000; -442.000
238.238;   80.650;  688.000;  700.000
238.382;    0.975;  166.000;  103.000
238.525;  -53.700; -598.000; -511.000
238.668; -135.100;-1060.000; -985.000
238.811;  -84.425; -638.000; -643.000
238.954;  -52.250; -483.000; -334.000
239.097;   96.350;  617.000;  664.000
239.241;   29.200;  394.000;  326.000
239.384;  -41.175; -254.000; -214.000
239.527;  -55.475; -424.000; -224.000
239.670; -149.075; -994.000;-1091.000
239.813;  -92.800; -696.000; -658.000
239.956;   81.850;  579.000;  473.000
240.099; -107.825; -778.000; -725.000
240.242;   67.325;  428.000;  432.000
240.385;   51.425;  466.000;  450.000
240.528;  -66.300; -706.000; -473.000
240.671;   21.350;  189.000;  134.000
240.814;  -41.675; -441.000; -158.000
240.957; -101.150; -767.000; -578.000
241.100;  -92.000; -779.000; -755.000
241.243; -139.200;-1234.000; -893.000
241.386;  -70.450; -508.000; -379.000
241.529;  -86.100; -735.000; -547.000
241.672;  -79.850; -566.000; -495.000
241.815; -103.200; -832.000; -808.000
241.958;  -30.475; -125.000; -182.000
242.101;  -72.800; -545.000; -390.000
242.244;  -29.125; -270.000; -325.000
242.387;  -30.725; -304.000; -246.000
242.530;   64.050;  470.000;  134.000
242.673;  -41.525; -381.000; -309.000
242.815; -122.700; -925.000; -899.000
242.958;  -74.925; -482.000; -381.000
243.101;   12.800;  132.000;  187.000
243.244;  -81.800; -564.000; -521.000
243.387;  -48.400; -313.000; -316.000
243.530;  -99.025; -657.000; -674.000
243.672;   -5.550;   43.000;  -92.000
243.815;  -44.475; -355.000; -283.000
243.958;    9.875;   98.000;  -26.000
244.101;    1.100;   59.000;  -16.000
244.243;   -9.675;  -47.000;  101.000
244.386; -116.975; -761.000; -630.000
244.529;  -27.875; -132.000; -139.000
244.672; -149.150;-1154.000; -951.000
244.814; -106.975; -621.000; -794.000
244.957;  -65.050; -380.000; -304.000
245.100;  -73.600; -489.000; -489.000
245.242;  -62.150; -387.000; -374.000
245.385;   -5.150;  -59.000;  -39.000
245.528; -131.650; -871.000; -705.000
245.670;   88.925;  612.000;  634.000
245.813;  -79.550; -599.000; -547.000
245.956;  -34.150; -324.000; -275.000
246.098;  -65.875; -508.000; -650.000
246.241;   13.700;  194.000;   48.000
246.383;  -19.650; -119.000;  -73.000
246.526;  -75.150; -454.000; -525.000
246.669; -123.275; -889.000; -780.000
246.811;   11.025;  172.000;   -1.000
246.954;  -66.575; -512.000; -426.000
247.096;  -23.475;  -84.000;   -6.000
247.239;  -58.900; -482.000; -445.000
247.381;  -75.725; -647.000; -488.000
247.524;   80.950;  645.000;  679.000
247.666;   -5.900;   58.000;   11.000
247.809; -115.425; -887.000; -691.000
247.951;   -8.775;  -75.000;  138.000
248.094;   21.275;  432.000;  308.000
248.236; -154.675;-1262.000;-1238.000
248.378;    4.375; -356.000;  -81.000
248.521;  -40.525; -334.000; -337.000
248.663;  -38.000; -236.000; -267.000
248.806;  -21.600; -300.000; -266.000
248.948;  -83.650; -886.000; -763.000
249.090;  -40.675; -428.000; -398.000
249.233;  -62.550; -344.000; -381.000
249.375;  -72.975; -474.000; -451.000
249.518;  -17.850;  -83.000; -133.000
249.660;  -10.950; -103.000;    3.000
249.802; -169.875;-1303.000;-1189.000
249.945;  -70.400; -612.000; -540.000
250.087; -111.225; -834.000; -768.000
250.229;  -42.575; -362.000; -480.000
250.371;  -74.625; -494.000; -439.000
250.514;  -48.075; -310.000; -244.000
250.656;    8.825;   69.000;  102.000
250.798; -106.775; -849.000; -800.000
250.940;  -54.850; -322.000; -322.000
251.083;  -23.900; -335.000; -111.000
251.225;   63.075;  338.000;  310.000
251.367;  -36.575; -274.000; -373.000
251.509;  -42.100; -265.000; -210.000
251.651;  -99.525; -731.000; -671.000
251.794;   58.875;  538.000;  632.000
251.936; -114.050; -821.000; -747.000
252.078;  -76.025; -540.000; -461.000
252.220;  -62.400; -645.000; -477.000
252.362;   72.050;  344.000;  462.000
252.504;  -78.800; -677.000; -584.000
252.646; -113.225; -875.000; -722.000
252.788;   -1.675;   14.000; -128.000
252.931;  -45.500; -257.000; -253.000
253.073;  -50.425; -376.000; -317.000
253.215;   -7.075;  141.000;  122.000
253.357;  -10.175;   82.000; -153.000
253.499;  -44.025; -374.000; -234.000
253.641;  -78.025; -749.000; -594.000
253.783;  -95.500; -609.000; -527.000
253.925;  -86.425; -586.000; -591.000
254.067; -107.575; -744.000; -667.000
254.209;  -26.950; -391.000; -259.000
254.351; -136.550; -865.000; -883.000
254.493;  -63.550; -441.000; -417.000
254.635; -126.800; -936.000; -818.000
254.777; -100.275; -752.000; -687.000
254.918;  -74.250; -512.000; -430.000
255.060;  -62.975; -551.000; -395.000
255.202;  -48.300; -473.000; -261.000
255.344;  -75.400; -658.000; -455.000
255.486;  -78.750; -471.000; -406.000
255.628; -114.000; -780.000; -781.000
255.770;  -94.325; -676.000; -536.000
255.912;  -59.450; -559.000; -468.000
256.053;  -78.300; -730.000; -508.000
256.195;  156.575; 1008.000;  903.000
256.337;  -99.400; -861.000; -595.000
256.479;   54.050;  532.000;  416.000
256.621;  -38.950; -394.000; -212.000
256.762; -115.175; -789.000; -742.000
256.904;   55.025;  485.000;  487.000
257.046;  -44.675; -381.000; -271.000
257.188;  -43.900; -351.000; -264.000
257.329;  -71.475; -525.000; -464.000
257.471; -113.775; -939.000; -807.000
257.613;  -54.450; -584.000; -498.000
257.755; -152.000;-1073.000; -982.000
257.896;   53.450;  286.000;  392.000
258.038;  -56.900; -403.000; -352.000
258.180;  -46.400; -354.000; -279.000
258.321;  -86.575; -581.000; -457.000
258.463;   -1.875;  -71.000;  133.000
258.605; -100.925; -562.000; -570.000
258.746; -108.525; -886.000; -772.000
258.888; -153.575;-1026.000;-1020.000
259.029;   16.275;  121.000;   -8.000
259.171;  -83.200; -614.000; -550.000
259.313;   -7.475;  -49.000;  -47.000
259.454;  -55.600; -536.000; -414.000
259.596;  -59.725; -483.000; -390.000
259.737;  -80.875; -590.000; -474.000
259.879;   33.950;  217.000;  311.000
260.020;   92.025;  901.000;  636.000
260.162;  -20.000; -146.000; -253.000
260.303; -113.925; -768.000; -687.000
260.445;  -88.525; -609.000; -613.000
260.586;   13.850;  392.000;  157.000
260.728;  -38.975; -360.000; -248.000
260.869; -127.375; -350.000; -343.000
261.011;   86.100;  706.000;  537.000
261.152;  -68.150; -479.000; -319.000
261.293;  -67.175; -576.000; -595.000
261.435;  -30.975; -219.000; -184.000
261.576;  -63.250; -455.000; -325.000
261.718;   45.725;  420.000;  470.000
261.859; -133.825; -940.000; -949.000
262.000; -135.200; -951.000;-1016.000
262.142;  -27.325;  -52.000;  -60.000
262.283; -117.775; -808.000; -691.000
262.424; -103.825; -666.000; -625.000
262.566; -154.925;-1161.000; -983.000
262.707; -124.750; -840.000; -830.000
262.848; -127.200; -769.000; -726.000
262.990;  -51.225; -362.000; -345.000
263.131;   87.550;  650.000;  681.000
263.272;  -17.250;  -61.000;  -41.000
263.413;  -90.325; -589.000; -561.000
263.555;  -65.525; -669.000; -143.000
263.696;  -87.100; -550.000; -641.000
263.837;  -55.075; -449.000; -551.000
263.978;   -6.750;   -5.000;  -77.000
264.119;  -40.575; -283.000; -264.000
264.261; -128.225; -847.000; -630.000
264.402;   -4.725;   33.000;   40.000
264.543;  -74.775; -509.000; -524.000
264.684;   -5.825;   61.000;  -50.000
264.825;  -73.300; -816.000; -538.000
264.966;  -10.925;  -84.000;  -67.000
265.107; -114.800; -646.000; -670.000
265.248; -115.375; -825.000; -812.000
265.390;   -1.600;  152.000;   -9.000
265.531;  -11.250; -238.000; -107.000
265.672;  -86.200; -557.000; -630.000
265.813;   76.200;  563.000;  439.000
265.954; -147.825; -959.000; -940.000
266.095;  -25.775; -372.000; -322.000
266.236; -101.450; -686.000; -548.000
266.377;  -47.025; -243.000; -297.000
266.518;  -56.500; -619.000; -547.000
266.659;   28.500;  170.000;  268.000
266.800;    2.350;   83.000;   85.000
266.941;  -75.625; -487.000; -478.000
267.082;   30.775;  354.000;   99.000
267.223;  -61.000; -344.000; -273.000
267.364; -121.500; -892.000; -686.000
267.504;  -18.750;    3.000;  135.000
267.645;   -6.750;  160.000;   67.000
267.786;  -30.125; -147.000;  -86.000
267.927;  -60.175; -473.000; -379.000
268.068;  -21.675; -186.000;  -61.000
268.209;  -40.375; -175.000; -413.000
268.350;  -66.350; -388.000; -532.000
268.490;  -93.475; -648.000; -521.000
268.631;   32.725;  127.000;  225.000
268.772; -109.225; -874.000; -647.000
268.913;  -48.825; -328.000; -476.000
269.054;  -22.625; -117.000;   12.000
269.194;  -52.050; -418.000; -402.000
269.335; -158.050;-1137.000;-1074.000
269.476;  -13.625;   33.000;  -35.000
269.617;  -46.975; -347.000; -392.000
269.757;  -93.525; -713.000; -646.000
269.898; -100.375; -856.000; -613.000
270.039;  -70.500; -415.000; -405.000
270.180; -148.325; -952.000; -816.000
270.320;  -24.725; -190.000; -250.000
270.461;  -41.375; -277.000; -249.000
270.602;  -15.500; -186.000; -156.000
270.742; -129.750; -868.000; -943.000
270.883;  -57.900; -442.000; -390.000
271.023;  -60.225; -358.000; -357.000
271.164;  -77.500; -607.000; -528.000
271.305; -104.050; -666.000; -654.000
271.445;  -92.950; -722.000; -683.000
271.586;  -66.950; -462.000; -283.000
271.726;  -43.825; -397.000; -322.000
271.867;  -57.875; -594.000; -534.000
272.008;  155.325; -473.000; -285.000
272.148;  119.900;  462.000;  468.000
272.289;   12.950; -113.000; -181.000
272.429;    4.625;   19.000;  185.000
272.570;  -96.525; -633.000; -737.000
272.710; -108.175; -825.000; -775.000
272.851;  -18.900;  113.000; -130.000
272.991; -155.400;-1173.000;-1077.000
273.131;  -77.000; -419.000; -459.000
273.272;  -98.100; -683.000; -723.000
273.412;    1.075; -143.000;  -31.000
273.553;  -60.575; -488.000; -507.000
273.693;  123.150;  913.000;  858.000
273.834;  -96.175; -894.000; -692.000
273.974;  -84.100; -664.000; -615.000
274.114; -104.975; -772.000; -560.000
274.255;   67.425;  414.000;  373.000
274.395;   -1.300; -180.000; -125.000
274.535;   36.500;  199.000;  350.000
274.676;   25.250;  225.000;   94.000
274.816;   -6.800;  110.000;   34.000
274.956;  -91.225; -624.000; -690.000
275.097;  -82.550;-1014.000; -922.000
275.237; -121.925; -913.000; -803.000
275.377; -105.700; -778.000; -689.000
275.517; -138.300; -878.000; -937.000
275.658;  -69.450; -590.000; -555.000
275.798;  -70.275; -606.000; -413.000
275.938;    9.950;  215.000;  323.000
276.078;  -95.825; -626.000; -395.000
276.218;    0.600;   99.000;  104.000
276.359; -132.900;-1026.000;-1024.000
276.499;  -66.500; -605.000; -446.000
276.639;  -26.375; -305.000; -151.000
276.779;  -62.625; -475.000; -357.000
276.919; -100.250; -783.000; -624.000
277.059;  -32.100; -261.000; -212.000
277.199;  -43.775; -357.000; -259.000
277.340;   51.475;  287.000;  175.000
277.480; -110.050; -840.000; -693.000
277.620;   24.350;  192.000;   16.000
277.760; -197.675;-1533.000;-1294.000
277.900;   21.075;  113.000;   33.000
278.040;   18.325;  137.000;  159.000
278.180;   26.175;  270.000;  170.000
278.320;    5.475;   21.000;   56.000
278.460;  -65.750; -443.000; -469.000
278.600;  -85.800; -708.000; -598.000
278.740;   52.850;  448.000;  224.000
278.880;  -73.725; -768.000; -791.000
279.020;   -5.875; -194.000; -144.000
279.160;  -97.575; -672.000; -595.000
279.300; -126.350; -926.000; -873.000
279.440; -103.850; -709.000; -622.000
279.579;  -30.000;-1014.000; -929.000
279.719;  -47.675; -410.000; -394.000
279.859;   58.500;   -4.000;   41.000
279.999;   10.950; -208.000;  101.000
280.139;  -34.650; -435.000; -387.000
280.279;  -75.450; -708.000; -745.000
280.419;  -23.800; -229.000; -147.000
280.559;  -36.500; -259.000; -180.000
280.698;  -94.600; -790.000; -639.000
280.838; -105.000; -778.000; -800.000
280.978;  -92.850; -846.000; -790.000
281.118; -112.275; -811.000; -704.000
281.257;   12.775;   24.000;    6.000
281.397; -126.850;-1094.000; -960.000
281.537;  -98.650; -599.000; -712.000
281.677;  -19.475; -150.000; -101.000
281.816;  -99.300; -700.000; -630.000
281.956;  -25.825; -193.000; -257.000
282.096;  -74.000; -539.000; -396.000
282.235; -104.875; -672.000; -638.000
282.375;   -6.950; -243.000;  -98.000
282.515; -110.975; -715.000; -707.000
282.654;   16.450;   29.000;  106.000
282.794;   21.925;  388.000;  244.000
282.934;  -62.875; -530.000; -491.000
283.073; -139.000;-1030.000; -857.000
283.213;  -52.750; -460.000; -467.000
283.353;  -45.900; -408.000; -349.000
283.492;  -33.075; -264.000; -296.000
283.632;  -47.300; -254.000; -168.000
283.771; -101.425; -859.000; -730.000
283.911;  -38.400; -369.000; -260.000
284.050; -121.025; -794.000; -748.000
284.190; -159.475;-1229.000;-1096.000
284.329; -128.850;-1055.000; -964.000
284.469;  -88.050; -516.000; -591.000
284.608;  -58.950; -559.000; -598.000
284.748;  -84.500; -614.000; -570.000
284.887;   -3.525;  -87.000;  -20.000
285.027; -131.825; -844.000; -892.000
285.166;  -41.550; -192.000; -249.000
285.306;   18.475; -116.000;  -33.000
285.445;  -54.250; -229.000; -343.000
285.584;  -93.325; -630.000; -494.000
285.724;  -59.150; -282.000; -322.000
285.863; -118.175; -857.000; -507.000
286.002;  -44.225; -366.000; -276.000
286.142; -111.900; -715.000; -622.000
286.281;  -78.650; -525.000; -493.000
286.420;  -82.625; -554.000; -417.000
286.560;   95.300;  653.000;  623.000
286.699; -139.350; -958.000; -912.000
286.838;  -92.750; -590.000; -591.000
286.978;  -96.675; -533.000; -537.000
287.117; -153.600;-1085.000; -950.000
287.256;  -32.600; -228.000; -211.000
287.395;  -66.325; -197.000; -378.000
287.535;  -61.175; -370.000; -298.000
287.674;  -94.600; -509.000; -484.000
287.813;   58.700;  661.000;  533.000
287.952; -134.350;-1010.000; -871.000
288.091; -142.625;-1049.000; -915.000
288.231;   27.825;   13.000;   15.000
288.370; -169.700;-1217.000;-1200.000
288.509;  -91.500; -728.000; -645.000
288.648;  -88.675; -770.000; -548.000
288.787;  -50.600; -243.000;  -87.000
288.926;  -71.475; -454.000; -475.000
289.065;  105.175;  859.000;  672.000
289.204;  -60.400; -377.000; -217.000
289.344;  -97.800; -791.000; -690.000
289.483;   30.250;  416.000;  304.000
289.622;  -12.675; -291.000; -149.000
289.761;  -23.400; -309.000; -166.000
289.900; -123.950; -785.000; -626.000
290.039;  -21.975;  -12.000;  -95.000
290.178;  -35.675; -274.000; -180.000
290.317;  -77.150; -618.000; -479.000
290.456;  -70.725; -463.000; -451.000
290.595; -145.925; -961.000; -833.000
290.734; -136.325; -904.000; -891.000
290.873;  -70.525; -456.000; -420.000
291.011; -123.200; -833.000; -843.000
291.150; -101.175; -770.000; -682.000
291.289;  -19.250; -343.000; -110.000
291.428;  -99.850; -599.000; -480.000
291.567;  -51.350; -370.000; -442.000
291.706;    2.900;  109.000;  154.000
291.845;  -93.375; -597.000; -505.000
291.984; -174.375;-1234.000;-1061.000
292.122;   63.625;  602.000;  582.000
292.261;   41.850;  620.000;  463.000
292.400;    3.350; -144.000;  211.000
292.539; -126.225; -959.000; -813.000
292.678;  -40.950; -325.000; -300.000
292.816; -165.500;-1136.000; -965.000
292.955; -101.475; -844.000; -684.000
293.094;  -23.600; -173.000; -337.000
293.233;  -68.150; -556.000; -400.000
293.371;  -40.200; -225.000;  -84.000
293.510; -119.925; -866.000; -780.000
293.649; -142.400; -959.000; -924.000
293.787;  -80.550;-1083.000;-1012.000
293.926;   -1.250; -113.000;  -32.000
294.065;  -54.900; -379.000; -290.000
294.203;   49.650;  298.000;  406.000
294.342;   10.600;   74.000;  156.000
294.481; 5335.050;51180.000; -836.000
294.619;  -47.750; -425.000; -582.000
294.758; -153.700;-1230.000;-1137.000
294.896;   50.850; -125.000;    5.000
295.035; -135.225;-1040.000;-1006.000
295.174; -132.850;-1082.000; -954.000
295.312;  -50.825; -323.000; -203.000
295.451;  -31.000; -307.000; -428.000
295.589;  -65.400; -389.000; -518.000
295.728;   11.125; -292.000; -165.000
295.866;   -2.400;  -36.000;  -51.000
296.005;  -63.475; -584.000; -341.000
296.143;  -74.900; -558.000; -596.000
296.282; -108.075; -957.000; -881.000
296.420;  -87.125; -657.000; -557.000
296.559;  -96.400; -892.000; -633.000
296.697;    9.400; -847.000; -665.000
296.835;   -6.675;-1141.000;-1002.000
296.974;   34.625;  -23.000;   39.000
297.112;   -8.725; -443.000; -504.000
297.251;  -83.500; -815.000; -755.000
297.389;   54.675; -576.000; -438.000
297.527;   36.100; -145.000;  -83.000
297.666;  -65.775; -486.000; -438.000
297.804;  -58.450; -404.000; -264.000
297.942;  -18.525; -136.000; -161.000
298.081;   -5.325; -183.000;   63.000
298.219;   50.375;  -17.000;  -19.000
298.357;   31.075; -144.000;  -71.000
298.495;   12.750; -810.000; -812.000
298.634;   57.550;  245.000;  219.000
298.772;   30.975; -220.000; -338.000
298.910;  -40.500; -309.000; -182.000
299.048;  -24.900; -130.000; -153.000
299.187;  -27.175; -350.000; -250.000
299.325;    5.400;   52.000;  122.000
299.463;   19.100; -389.000; -299.000
299.601;   92.175; -327.000; -271.000
299.739; -115.275; -908.000; -883.000
299.877;  -90.725; -791.000; -703.000
300.016;  -65.225;-1095.000; -935.000
300.154;  141.300;  -19.000; -161.000
300.292;   35.375; -428.000; -348.000
300.430;   15.075; -408.000; -291.000
300.568; -124.075; -940.000; -874.000
300.706;  -67.600; -366.000; -469.000
300.844;  -94.025;-1108.000; -979.000
300.982;  115.100;  246.000;  282.000
301.120; -109.900; -965.000; -866.000
301.258;  -83.200; -812.000; -705.000
301.396;   26.350;  104.000;  -41.000
301.534;   32.450; -218.000; -293.000
301.672;  -44.425; -664.000; -521.000
301.810;    0.825; -613.000; -545.000
301.948;  100.900;   53.000;  149.000
302.086;  514.425; -250.000;  -32.000
302.224;  805.000; -610.000; -585.000
302.362;   14.275; -558.000; -622.000
302.500;  -52.250; -923.000; -893.000
302.638;   79.425;  128.000;  245.000
302.776;  -11.975; -352.000; -408.000
302.913;   41.250;  447.000;  236.000
303.051;  -24.700;  -86.000;  -23.000
303.189;   37.550;   90.000;  118.000
303.327;  -50.450; -341.000; -256.000
303.465;  -91.925; -832.000; -588.000
303.603;  -91.075; -805.000; -604.000
303.740;   75.650;  417.000;  241.000
303.878;   -1.300; -800.000; -759.000
304.016;  -96.600; -915.000; -790.000
304.154; -140.300;-1123.000;-1152.000
304.291;  -56.050; -505.000; -554.000
304.429;   17.550;  102.000;   74.000
304.567; -146.225; -908.000; -893.000
304.705;  -55.725; -408.000; -515.000
304.842;   74.300; -616.000; -540.000
304.980;   52.750;  215.000;   35.000
305.118;   10.525; -367.000; -365.000
305.255;  -76.975; -945.000; -927.000
305.393;   47.700;  178.000;  239.000
305.531; -117.425;-1173.000; -956.000
305.668;  -84.300; -663.000; -582.000
305.806;   66.950; -358.000; -439.000
305.943;   83.825; -629.000; -637.000
306.081;   44.125; -378.000; -267.000
306.219; -109.850; -863.000; -748.000
306.356;   -2.500;  158.000;   27.000
306.494;  106.800;  981.000;  761.000
306.631;    0.275;  -11.000;  -55.000
306.769;   -4.975; -613.000; -485.000
306.906;  -30.775; -284.000; -258.000
307.044;  -67.950; -473.000; -488.000
307.181;  -71.100; -410.000; -332.000
307.319;    6.125;  112.000;   87.000
307.456; -176.900;-1191.000;-1153.000
307.594; -113.600; -980.000; -727.000
307.731;  -21.175; -371.000; -164.000
307.868;    1.825;  -15.000;   20.000
308.006; -129.975; -961.000; -847.000
308.143;  -82.725; -618.000; -330.000
308.281;   93.075;  -37.000; -254.000
308.418;  -44.075; -748.000; -640.000
308.555;  -69.450; -400.000; -250.000
308.693;  -81.250; -577.000; -573.000
308.830; -120.250; -712.000; -657.000
308.967;  -13.975; -215.000;  -95.000
309.105;  -45.875; -507.000; -396.000
309.242;  -17.575; -468.000; -367.000
309.379;  178.675; -577.000; -655.000
309.517;  -88.450; -936.000; -948.000
309.654; -123.975; -910.000; -734.000
309.791;  -86.650; -662.000; -580.000
309.928; -128.475; -977.000; -914.000
310.065;  173.350;  819.000;  697.000
310.203;  -29.275; -825.000; -850.000
310.340;  -25.275; -465.000; -321.000
310.477;  -85.450; -412.000; -516.000
310.614;  -70.125; -383.000; -473.000
310.751;  -84.000; -427.000; -518.000
310.889;  -34.700;    1.000;   11.000
311.026; -148.775;-1161.000; -939.000
311.163;  -61.525; -386.000; -380.000
311.300;  -82.950; -512.000; -479.000
311.437;  -83.375; -658.000; -619.000
311.574; -160.375;-1226.000; -985.000
311.711;  -57.600; -595.000; -433.000
311.848;  -42.325; -380.000; -388.000
311.985;    7.850;  270.000;   93.000
312.122; -128.575; -932.000; -762.000
312.259; -122.150; -941.000; -994.000
312.396;  -93.600; -508.000; -551.000
312.533;  -99.700; -812.000; -790.000
312.670; -151.150;-1070.000; -898.000
312.807;  -45.700; -352.000; -367.000
312.944;  -89.025; -513.000; -611.000
313.081;  -45.000; -150.000; -415.000
313.218; -117.975;-1111.000; -867.000
313.355;   -3.125; -531.000; -449.000
313.492;    1.200; -455.000; -292.000
313.629;  124.675;  815.000;  735.000
313.766; -159.575;-1176.000;-1008.000
313.902;   -8.175; -186.000;   21.000
314.039;  -56.300; -372.000; -289.000
314.176;   21.750;  286.000;  192.000
314.313;  -88.300; -569.000; -473.000
314.450;  -79.575; -788.000; -684.000
314.587;  -66.600; -468.000; -480.000
314.723;   -0.175;  -78.000;  130.000
314.860;   24.050;  318.000;  332.000
314.997;   11.450;  223.000;  142.000
315.134;  -48.775; -385.000; -368.000
315.270;  -31.100; -480.000; -496.000
315.407; -141.000;-1094.000; -967.000
315.544;  -59.200; -657.000; -538.000
315.681;  -80.950; -681.000; -565.000
315.817;    9.475; -133.000; -176.000
315.954;    1.875; -613.000; -392.000
316.091; -137.525;-1045.000;-1023.000
316.227;  -18.875;  -71.000; -179.000
316.364;  -12.025;   23.000;    6.000
316.500;  -48.350; -113.000; -300.000
316.637;  -58.525; -181.000; -302.000
316.774;  -84.850; -625.000; -358.000
316.910;  -96.250; -598.000; -629.000
317.047;  -73.375; -487.000; -351.000
317.183;  -60.850; -435.000; -566.000
317.320;  -14.625; -367.000; -321.000
317.456;  -80.850; -733.000; -805.000
317.593;  -91.400; -598.000; -641.000
317.729;   -8.400;  168.000;  -67.000
317.866; -203.525;-1434.000;-1285.000
318.002; -105.125; -708.000; -948.000
318.139; -119.850; -883.000; -867.000
318.275; -121.775;-1003.000; -738.000
318.412;  -64.150; -517.000; -336.000
318.548;  -48.350; -751.000; -720.000
318.685; -111.250; -985.000; -888.000
318.821;  -88.450; -762.000; -735.000
318.957;  -23.675;   34.000;  -23.000
319.094;   42.200;  297.000;  154.000
319.230;  -79.400; -756.000; -742.000
319.367;   91.275; -471.000; -520.000
319.503;   34.625; -538.000; -436.000
319.639; -117.725; -877.000; -793.000
319.775;  -79.075; -750.000; -685.000
319.912;  -62.475; -424.000; -519.000
320.048; -108.550;-1184.000;-1184.000
320.184;   72.175;   59.000;   70.000
320.321;  -66.525; -497.000; -467.000
320.457;   67.800;  475.000;  662.000
320.593;  -73.850; -375.000; -382.000
320.729; -117.850; -732.000; -734.000
320.866;  -74.025; -577.000; -635.000
321.002;  -88.850; -759.000; -809.000
321.138;  -18.400; -135.000; -211.000
321.274;   68.525; -148.000; -115.000
321.410;  -30.475; -585.000; -353.000
321.546;  -46.025;-1011.000; -911.000
321.683;   51.775;  400.000;  185.000
321.819;   12.325;  -48.000; -117.000
321.955; -121.575; -743.000; -722.000
322.091;  -57.675; -585.000; -540.000
322.227;  -19.700; -382.000; -202.000
322.363;  -11.725; -320.000; -215.000
322.499;  -43.475; -343.000; -331.000
322.635;  159.150;  636.000;  443.000
322.771;   18.650; -139.000;   12.000
322.907;   68.275;  129.000;  327.000
323.043;  -28.975; -115.000; -206.000
323.179;  -51.125; -394.000; -363.000
323.315;  -10.600; -401.000; -371.000
323.451;   71.875; -328.000; -236.000
323.587;   55.225;  -60.000;  -77.000
323.723;   -9.300; -682.000; -601.000
323.859;  -21.925; -258.000;  -76.000
323.995;  -29.775; -467.000; -409.000
324.131; -130.650; -967.000; -892.000
324.267;  -44.175; -254.000; -276.000
324.402; -136.725; -960.000; -983.000
324.538;  -13.350; -279.000; -104.000
324.674;    7.450;  164.000;   77.000
324.810;   91.425;  226.000;  308.000
324.946;  -15.100; -810.000; -658.000
325.082;  -79.075; -568.000; -475.000
325.217;  -13.275;  -62.000;   16.000
325.353; -109.075; -764.000; -659.000
325.489;  -84.850; -540.000; -506.000
325.625;  -80.725; -579.000; -525.000
325.760;   77.825;  517.000;  376.000
325.896;  -27.575; -515.000; -702.000
326.032;  -47.525; -403.000; -352.000
326.168;  -82.500; -462.000; -369.000
326.303;  -67.875; -352.000; -461.000
326.439;  -24.475; -336.000; -276.000
326.575;    8.850; -190.000;  -29.000
326.710;   -6.075; -156.000;  -30.000
326.846;  -11.450;  146.000;  103.000
326.982;  -96.025; -530.000; -548.000
327.117;  -56.550; -481.000; -442.000
327.253;  -89.275; -745.000; -742.000
327.388; -183.350;-1137.000;-1153.000
327.524;  -73.875; -811.000; -578.000
327.659;  -33.725;  -58.000;  -22.000
327.795;  -18.425;   69.000;   45.000
327.931;  -97.050; -723.000; -499.000
328.066;  -49.350; -417.000; -276.000
328.202;  -11.200;   12.000; -129.000
328.337;  104.100;  957.000;  713.000
328.473;   36.725;  -12.000;  -74.000
328.608;  -25.325; -256.000; -267.000
328.743;  -91.500; -799.000; -664.000
328.879;   18.300;  214.000;  114.000
329.014;  -34.600; -102.000; -122.000
329.150;  -95.700; -358.000; -483.000
329.285;  -85.150; -465.000; -466.000
329.421;  -67.725; -548.000; -246.000
329.556;  -20.700;  -36.000;   85.000
329.691; -107.925; -633.000; -615.000
329.827;  -83.075; -626.000; -480.000
329.962;  -38.750;  131.000; -301.000
330.097;  -91.375; -673.000; -585.000
330.233;  -60.400; -410.000; -223.000
330.368; -126.625; -839.000; -628.000
330.503;  -11.500;    3.000;   98.000
330.638;   -0.950;  -93.000; -125.000
330.774;  -61.350; -609.000; -530.000
330.909;  -49.475; -434.000; -244.000
331.044; -100.550; -714.000; -708.000
331.179; -186.125;-1217.000;-1109.000
331.315;    2.575;   77.000;   20.000
331.450;    9.875;  157.000;  285.000
331.585; -102.000; -805.000; -706.000
331.720;  -86.500; -510.000; -460.000
331.855;   -7.700;  -35.000; -102.000
331.990;  251.975;   62.000;  138.000
332.126;  136.625; -110.000;   71.000
332.261;  -24.550; -379.000; -265.000
332.396;   -3.700; -135.000; -242.000
332.531;  -96.050;-1074.000;-1031.000
332.666;   27.400; -519.000; -363.000
332.801; -103.300; -726.000; -807.000
332.936;  -24.275; -192.000; -122.000
333.071; -131.200; -870.000; -817.000
333.206;   12.950;  307.000;  379.000
333.341;   18.325;  344.000;  418.000
333.476;  -85.650; -627.000; -623.000
333.611;  -34.050; -251.000; -173.000
333.746;  -52.750; -381.000; -464.000
333.881; -130.275; -973.000; -935.000
334.016; -123.425; -936.000; -917.000
334.151; -131.875; -746.000; -702.000
334.286;   18.475;  152.000;  186.000
334.421;  -19.925; -125.000; -178.000
334.556;  -79.700; -611.000; -567.000
334.690;  -95.775; -631.000; -577.000
334.825;   57.950;  381.000;   83.000
334.960;  -59.075; -285.000; -413.000
335.095;    4.050;  135.000;  -91.000
335.230;  -97.950; -722.000; -738.000
335.365; -137.200;-1084.000; -990.000
335.499; -138.925;-1108.000;-1037.000
335.634;   17.825;    9.000;  534.000
335.769; -108.150; -755.000; -720.000
335.904;  -75.500; -603.000; -561.000
336.038;  -73.000; -735.000; -657.000
336.173; -134.875;-1206.000;-1194.000
336.308;   -8.350; -116.000; -189.000
336.443;   11.675; -544.000; -634.000
336.577;  -72.100; -936.000; -787.000
336.712;   48.950;   -4.000;  -12.000
336.847;  -68.175; -724.000; -607.000
336.981;   40.500; -272.000; -208.000
337.116;  245.075;  615.000;  501.000
337.250;  111.225; -434.000; -421.000
337.385;  265.450; -297.000; -208.000
337.520;   94.600; -632.000; -603.000
337.654;  -43.000; -215.000; -126.000
337.789; -127.350; -989.000; -933.000
337.923;  -36.225; -104.000; -205.000
338.058;  -94.100; -673.000; -738.000
338.192;  -44.750; -611.000; -488.000
338.327;  -28.250;  -18.000; -155.000
338.461;  -62.325; -299.000; -469.000
338.596;  -99.650; -780.000; -638.000
338.730;  -99.500; -767.000; -803.000
338.865;  101.350;  -46.000; -140.000
338.999;  -57.575; -846.000; -702.000
339.134;  -37.700; -634.000; -536.000
339.268;   17.800; -741.000; -603.000
339.403;  367.900; -740.000; -775.000
339.537;  116.025; -894.000; -820.000
339.671; -120.775; -829.000; -813.000
339.806;  -63.200; -556.000; -512.000
339.940;   24.025; -261.000; -235.000
340.074; -101.275; -685.000; -510.000
340.209;  -52.925; -351.000; -230.000
340.343;  -95.100; -517.000; -573.000
340.477;  150.000;  998.000; 1036.000
340.612;  -45.575;-1033.000; -900.000
340.746;  142.475; -199.000; -243.000
340.880;  -94.475; -924.000; -785.000
341.014;  -30.125;  -45.000; -154.000
341.149; -113.800; -756.000; -718.000
341.283; -127.550; -839.000; -754.000
341.417; -108.025;-1124.000; -938.000
341.551;   76.775; -768.000; -708.000
341.685;  -35.250; -633.000; -611.000
341.820;  -72.700; -562.000; -493.000
341.954;  -53.375; -218.000; -349.000
342.088; -155.275;-1102.000;-1019.000
342.222;   56.250;  565.000;  618.000
342.356;  -72.600; -395.000; -335.000
342.490; -106.625; -880.000; -841.000
342.624;  -63.300; -339.000; -242.000
342.758;   -8.450; -364.000; -312.000
342.892;  -82.425; -710.000; -585.000
343.026;  -39.800;  -58.000; -116.000
343.160;  -60.400; -426.000; -376.000
343.294;  -94.725; -474.000; -337.000
343.428;  -40.650; -488.000; -448.000
343.562;  -15.000; -172.000;  -23.000
343.696;  -26.650; -385.000; -314.000
343.830;  -34.075; -362.000; -356.000
343.964;    7.675; -231.000; -168.000
344.098;  762.425;  199.000;   70.000
344.232;  640.450; -266.000; -127.000
344.366;   75.400; -567.000; -453.000
344.500;   27.050; -665.000; -744.000
344.634;   12.650; -324.000; -164.000
344.768;  -22.900; -531.000; -341.000
344.902;   26.500;  278.000;  256.000
345.035;  -85.600; -556.000; -496.000
345.169; -128.000; -933.000; -656.000
345.303;  -42.400; -308.000; -482.000
345.437;  -84.350; -826.000; -717.000
345.571;  -84.925; -675.000; -594.000
345.704;  -72.700; -309.000; -532.000
345.838;  -22.375; -331.000; -284.000
345.972;  -50.950; -543.000; -495.000
346.106;  158.425; -179.000; -190.000
346.239;  397.250; -312.000; -243.000
346.373;   -3.575; -343.000; -302.000
346.507; -146.250; -950.000; -962.000
346.640;  103.600;  -30.000;   13.000
346.774;  -54.775; -650.000; -797.000
346.908;  -18.100; -138.000;  -11.000
347.041; -100.375; -646.000; -593.000
347.175;   -2.550;  259.000;   27.000
347.309;  -81.025; -698.000; -628.000
347.442; -113.400; -883.000; -732.000
347.576;  245.700;  670.000;  668.000
347.709;  161.175; -123.000;  -52.000
347.843; -102.050; -933.000; -825.000
347.976;   31.975;  235.000;  294.000
348.110; -202.750;-1268.000;-1186.000
348.243; -123.275; -679.000; -772.000
348.377;   10.950;  -26.000;   60.000
348.510;   57.450;  403.000;  540.000
348.644;  -50.000;  -37.000; -159.000
348.777;    4.600;  180.000;  191.000
348.911;  -51.275; -142.000; -112.000
349.044;  155.550;  471.000;  448.000
349.178;   97.425;-1069.000;-1006.000
349.311;   95.250;  141.000;  255.000
349.444;   -7.775; -927.000; -813.000
349.578;  -28.075; -347.000; -200.000
349.711; -108.200; -959.000; -862.000
349.845;   -6.525; -661.000; -591.000
349.978; -145.775;-1224.000;-1137.000
350.111;  -99.350; -546.000; -612.000
350.244;  -67.925; -596.000; -700.000
350.378;  -19.850; -392.000; -393.000
350.511;  -68.750; -393.000; -426.000
350.644; -126.675; -808.000; -806.000
350.778;   12.900;  168.000;  104.000
350.911;   -4.450;  134.000;  140.000
351.044;  -98.125; -685.000; -615.000
351.177;  -43.100; -321.000; -281.000
351.310;  -16.675;    3.000; -131.000
351.444;  -85.825; -888.000; -788.000
351.577;   98.875;  140.000;   90.000
351.710;   90.375;  593.000;  417.000
351.843;  -41.725; -165.000;  -77.000
351.976;  -19.925;  149.000;  -79.000
352.109; -101.075; -621.000; -612.000
352.242;  -30.750; -464.000; -419.000
352.376;  -74.775; -580.000; -636.000
352.509;  132.425; -437.000; -356.000
352.642;  -19.000; -654.000; -604.000
352.775;   49.475; -141.000;  -98.000
352.908; -129.500; -933.000; -904.000
353.041; -117.825; -814.000; -824.000
353.174;  -70.450; -551.000; -424.000
353.307; -107.450; -753.000; -764.000
353.440;   55.100;  541.000;  453.000
353.573; -122.025; -957.000;-1008.000
353.706;  -69.250; -384.000; -558.000
353.839;  -17.625; -264.000; -220.000
353.971;  -98.500; -657.000; -512.000
354.104;  -92.325; -896.000; -835.000
354.237;  -37.275; -627.000; -662.000
354.370; -102.525; -846.000; -879.000
354.503; -185.375;-1231.000;-1308.000
354.636;  -45.775; -529.000; -348.000
354.769; -142.000; -937.000; -860.000
354.902;  -19.725; -230.000; -139.000
355.034;  -24.150; -164.000; -220.000
355.167;  -21.200; -262.000; -162.000
355.300;  -95.700;-1061.000; -880.000
355.433;  958.025;  -71.000;  -14.000
355.565; 1521.500; -402.000; -384.000
355.698;  388.125; -356.000; -296.000
355.831;  -12.175; -882.000; -801.000
355.964;   46.800; -285.000; -170.000
356.096;  -98.225; -856.000; -843.000
356.229;  -11.625; -523.000; -530.000
356.362;  329.075; -373.000; -266.000
356.494;  607.850; -229.000; -162.000
356.627;  414.750;  269.000;  377.000
356.760;  660.650;  120.000;   53.000
356.892;  971.575; -286.000; -601.000
357.025;  534.100;  403.000;  389.000
357.157;  483.300; -167.000; -179.000
357.290;  738.550; -856.000; -713.000
357.423;  198.200; -667.000; -556.000
357.555;   91.925; -217.000; -228.000
357.688;   98.875; -483.000; -364.000
357.820;  390.875; -870.000; -877.000
357.953; 3370.425; -563.000; -589.000
358.085;  683.025; -632.000; -612.000
358.218;  837.575;-1131.000; -932.000
358.350;  146.450;  -58.000;  312.000
358.483; -143.850;-1300.000;-1187.000
358.615;  -63.200;-1182.000;-1078.000
358.747;  -90.000;-1187.000;-1058.000
358.880;   -9.175; -810.000; -744.000
359.012;  -12.850; -376.000; -202.000
359.145;  -55.425; -480.000; -511.000
359.277;   24.625; -962.000; -913.000
359.409; 2747.950;  536.000;  231.000
359.542;  677.075; -738.000; -688.000
359.674;   69.150;   46.000;   13.000
359.806;  -75.125; -565.000; -438.000
359.939;  -52.775; -617.000; -516.000
360.071;  -15.500; -583.000; -579.000
360.203;  -32.900; -411.000; -364.000
360.335;   43.200;  164.000;  -16.000
360.468;  176.650; -249.000; -307.000
360.600; 2252.875; -547.000; -454.000
360.732; 2964.750; -546.000; -423.000
360.864;  397.550;-1216.000;-1044.000
360.996;  203.625; -516.000; -554.000
361.129;   21.000; -389.000; -598.000
361.261;   15.250;  110.000; -113.000
361.393;  -41.375; -252.000; -214.000
361.525;   13.600;   94.000;  244.000
361.657;  -62.150; -821.000; -703.000
361.789;    7.100; -139.000; -155.000
361.921;  145.950; -642.000; -593.000
362.053;  207.000;  524.000;  541.000
362.185;   24.200;  288.000;   72.000
362.318;  -88.675; -709.000; -705.000
362.450;   86.700;  294.000;  444.000
362.582;   31.400; -913.000; -870.000
362.714;  -46.175; -353.000; -332.000
362.846;  -87.775; -606.000; -490.000
362.978; -141.200; -941.000; -811.000
363.109;   22.700; -161.000; -260.000
363.241;  351.675; -739.000; -749.000
363.373;  429.475; -649.000; -564.000
363.505;  686.625; -186.000;  -91.000
363.637;  143.575; -787.000; -601.000
363.769; -154.850;-1067.000;-1080.000
363.901;  -76.775; -596.000; -654.000
364.033; -132.850;-1103.000;-1062.000
364.165;  -22.175; -283.000; -283.000
364.296;   55.650; -316.000; -177.000
364.428;   67.725;-1344.000;-1220.000
364.560;  -81.550; -679.000; -661.000
364.692;  -83.400; -738.000; -835.000
364.824;  185.550; -588.000; -456.000
364.955;  433.275; -402.000; -564.000
365.087; 1006.350;-1097.000; -852.000
365.219;   17.550; -686.000; -816.000
365.351;  -66.650; -526.000; -572.000
365.482;   43.875;  300.000;  240.000
365.614;  -41.650; -402.000; -314.000
365.746; -101.950; -729.000; -752.000
365.877; -108.850; -706.000; -672.000
366.009;  280.100;  -35.000;  -62.000
366.141;  -93.250;-1249.000;-1134.000
366.272; -118.500; -803.000; -719.000
366.404; -121.525;-1005.000; -874.000
366.535;  -22.925; -139.000;  -12.000
366.667; -110.675; -644.000; -649.000
366.799;   19.425;  353.000;  203.000
366.930; -131.225; -862.000; -996.000
367.062;  122.000; -639.000; -613.000
367.193;  173.225; -872.000; -842.000
367.325;  -58.400; -580.000; -684.000
367.456;   40.425; -246.000;   31.000
367.588;  154.425; -371.000; -318.000
367.719;   14.775;  -44.000;  -45.000
367.851;  -16.750; -222.000; -241.000
367.982;  -72.100; -875.000; -732.000
368.113;   69.975; -475.000; -358.000
368.245; -132.975; -960.000; -841.000
368.376;  -30.150; -254.000; -302.000
368.508;  -39.650; -188.000; -263.000
368.639; -156.025;-1166.000;-1034.000
368.770;  -44.475; -670.000; -589.000
368.902;  -83.725; -836.000; -926.000
369.033; -115.450; -906.000; -855.000
369.164;  -59.625; -720.000; -653.000
369.296; -107.125; -452.000; -601.000
369.427;  -19.200; -209.000; -144.000
369.558;  -66.375; -593.000; -377.000
369.689; -107.425; -721.000; -569.000
369.821; -141.300; -951.000; -845.000
369.952;  -32.200;   42.000; -108.000
370.083;  -62.650; -229.000; -108.000
370.214;  -94.100; -735.000; -650.000
370.345;   -6.275;   65.000;   81.000
370.477; -103.325; -810.000; -790.000
370.608;  180.125; -328.000; -264.000
370.739;  -92.400;-1233.000;-1292.000
370.870;  -66.625;-1102.000; -923.000
371.001;   54.325; -378.000; -467.000
371.132;  -95.375; -754.000; -735.000
371.263;  -22.275;  -42.000; -148.000
371.394; -132.925; -841.000; -748.000
371.525;   31.825;  345.000;  225.000
371.657;  -93.275; -808.000; -670.000
371.788;   54.350;  103.000;  199.000
371.919;  134.525; -384.000; -304.000
372.050; 3168.775;  -91.000; -156.000
372.181;  931.700; -188.000; -294.000
372.311;  303.675;   42.000; -127.000
372.442;    9.150; -457.000; -451.000
372.573;  -28.625; -444.000; -340.000
372.704; -136.900;-1008.000; -980.000
372.835;   60.550; -228.000; -289.000
372.966;  -75.325; -646.000; -554.000
373.097;  -66.775; -575.000; -711.000
373.228;  -63.725; -717.000; -542.000
373.359;   74.350; -824.000; -536.000
373.490;  733.825; -881.000; -727.000
373.620;  931.350;-1001.000; -803.000
373.751; 1485.100; -332.000; -396.000
373.882;  653.325; -663.000; -733.000
374.013;   40.675; -449.000; -262.000
374.143;  -53.975; -581.000; -659.000
374.274; -127.750; -987.000; -908.000
374.405;  115.425; -388.000; -276.000
374.536;  358.600; -526.000; -387.000
374.666;  896.800; -759.000; -807.000
374.797;  167.000; -817.000; -868.000
374.928;  696.375; -710.000; -560.000
375.058;  726.050; -535.000; -500.000
375.189;   44.125;  -59.000;  -93.000
375.320; -113.925; -928.000;-1034.000
375.450;  -53.800; -625.000; -616.000
375.581;  -55.575; -526.000; -436.000
375.712;  -46.325; -574.000; -250.000
375.842;  234.850; -438.000; -415.000
375.973;  152.500; -554.000; -513.000
376.103;  -69.725; -665.000; -648.000
376.234;  -85.000; -531.000; -552.000
376.364;  -68.400; -944.000; -867.000
376.495;  278.400;  925.000;  529.000
376.625;  -40.950; -472.000; -485.000
376.756;   12.375; -709.000; -678.000
376.886; -101.025;-1178.000;-1026.000
377.017;   49.700;-1048.000;-1061.000
377.147;  381.275; -786.000; -782.000
377.278;   49.925;  174.000;  228.000
377.408; -132.325; -801.000; -815.000
377.538; -124.275; -707.000; -693.000
377.669;  -77.025; -537.000; -613.000
377.799; -103.350; -645.000; -635.000
377.929;  -71.150; -610.000; -428.000
378.060; -139.750; -781.000; -847.000
378.190;  -68.900; -726.000; -531.000
378.320;  -69.525; -401.000; -406.000
378.451;  -24.400; -131.000;  -22.000
378.581;  -18.575;  -67.000; -110.000
378.711;  126.950; 1035.000;  866.000
378.841;  -47.000; -533.000; -675.000
378.972;  -89.150; -871.000; -751.000
379.102;  -33.775; -652.000; -579.000
379.232;  -27.550; -126.000;  -73.000
379.362; -134.100;-1001.000; -885.000
379.492;  -10.900; -373.000; -424.000
379.623;   82.200;    0.000;  111.000
379.753; -116.125;-1107.000; -974.000
379.883;  151.125;   59.000;  156.000
380.013;  -31.900;-1081.000;-1017.000
380.143; -131.175;-1097.000;-1056.000
380.273; -108.975; -985.000; -861.000
380.403;  -20.575; -344.000; -257.000
380.533;  -57.300; -651.000; -664.000
380.663;   56.850;  173.000;  128.000
380.793; -121.325;-1027.000;-1074.000
380.923;  -21.650; -103.000;  -34.000
381.053;  -92.000; -613.000; -623.000
381.183;  -30.200; -106.000; -248.000
381.313;    5.800; -656.000; -470.000
381.443;   -1.750; -692.000; -473.000
381.573;  142.775; -402.000; -409.000
381.703;  161.275;-1249.000;-1095.000
381.833; -159.925;-1454.000;-1336.000
381.963;   90.750; -134.000;  -87.000
382.093; 1204.650; -925.000; -909.000
382.223;  349.025; -713.000; -602.000
382.353;  -39.525; -801.000; -608.000
382.482;  278.425;-1091.000; -964.000
382.612;  659.375; -872.000; -644.000
382.742;  346.450; -695.000; -622.000
382.872;  183.300; -565.000; -551.000
383.002;   58.675;  347.000; -132.000
383.131;  -31.900; -226.000; -160.000
383.261;  -43.400; -706.000; -768.000
383.391;  265.175; -552.000; -377.000
383.521; 3426.350;  451.000;  263.000
383.650;  783.650; -947.000; -904.000
383.780;  -16.775; -783.000; -656.000
383.910;  118.650;  880.000;  802.000
384.039;   -3.550; -794.000; -656.000
384.169;  114.000;-1205.000;-1017.000
384.299;  -53.475; -650.000; -662.000
384.428;  -99.275; -764.000; -680.000
384.558;  -59.450; -308.000; -275.000
384.687;  -50.175; -414.000; -334.000
384.817;    3.200;   75.000;   -2.000
384.947;    9.625; -234.000; -141.000
385.076;  249.475;  982.000;  912.000
385.206;   93.725;  369.000;  480.000
385.335;  -57.800; -549.000; -417.000
385.465;  -95.250; -655.000; -663.000
385.594;  103.600;  -53.000;  -44.000
385.724;  324.125; -868.000; -838.000
385.853;   73.075; -296.000; -270.000
385.982; 1154.050; -743.000; -787.000
386.112; 1776.375;-1052.000; -871.000
386.241;   98.650; -307.000; -312.000
386.371;    0.475; -174.000;  -87.000
386.500;  -38.000; -825.000; -789.000
386.629;    4.425; -874.000; -817.000
386.759;   53.400;  -43.000;   68.000
386.888;  -16.575; -170.000; -250.000
387.017;  -94.925; -648.000; -620.000
387.147; -115.250; -771.000; -798.000
387.276;  -31.075; -410.000; -397.000
387.405;   -7.475; -398.000; -342.000
387.535;  -68.800; -452.000; -361.000
387.664;  -74.700; -692.000; -620.000
387.793;   30.775; -198.000; -113.000
387.922;  413.625;  255.000;  200.000
388.052;   -2.325; -576.000; -423.000
388.181;  -27.200; -342.000; -472.000
388.310;  -40.725; -889.000; -710.000
388.439;  -77.700; -749.000; -742.000
388.568;  141.925;  365.000;  244.000
388.697;  852.450; -756.000; -653.000
388.826;  143.650; -768.000; -666.000
388.956;   37.275; -285.000; -307.000
389.085;  -53.325; -347.000; -287.000
389.214; -107.600; -842.000; -872.000
389.343;  -73.125; -645.000; -413.000
389.472;  422.550;  126.000;  149.000
389.601;  472.775;   91.000;    0.000
389.730;   -7.300; -568.000; -687.000
389.859;   44.300;  226.000;   46.000
389.988;  119.325; -423.000; -408.000
390.117;  104.150; -168.000; -146.000
390.246;  -32.375; -331.000; -320.000
390.375;   49.350; -673.000; -626.000
390.504;  -80.950; -703.000; -621.000
390.633;  -98.650; -672.000; -726.000
390.761;  -77.900; -732.000; -645.000
390.890;    7.625;   -4.000; -130.000
391.019;  -49.750; -421.000; -441.000
391.148; -132.600; -826.000; -855.000
391.277;  -73.100; -576.000; -493.000
391.406; -104.175; -821.000; -805.000
391.534;   18.300;  574.000; -301.000
391.663;  -81.300; -583.000; -645.000
391.792;  -86.475; -673.000; -701.000
391.921;   63.775;   -3.000;   15.000
392.050;  126.775; -287.000; -228.000
392.178;  -80.200;-1206.000;-1061.000
392.307;  101.850; -758.000; -712.000
392.436;   29.775; -427.000; -641.000
392.564;    4.300;  166.000;   -6.000
392.693;  -94.950; -860.000; -682.000
392.822;  144.325; -529.000; -534.000
392.950;   38.700; -880.000; -714.000
393.079;  246.250; -188.000; -328.000
393.208;    0.475; -488.000; -511.000
393.336;  -23.375; -170.000; -145.000
393.465;  -55.475; -317.000; -199.000
393.593;   -5.875;   62.000;   79.000
393.722; -141.175;-1121.000; -916.000
393.850;  -33.875; -188.000;  -61.000
393.979; -151.200; -926.000; -805.000
394.107;  -73.150; -517.000; -537.000
394.236;  -34.425; -570.000; -507.000
394.364;  160.275;  383.000;  206.000
394.493;  188.150; -911.000; -767.000
394.621;  -42.575; -955.000; -916.000
394.750;  758.875; -873.000; -923.000
394.878; 3057.550; -247.000; -149.000
395.007; 4105.925; -721.000; -807.000
395.135;  303.200; -790.000; -721.000
395.263;  -87.400;-1038.000;-1040.000
395.392;   -3.275;  -25.000; -107.000
395.520; -141.800; -818.000; -679.000
395.648; -112.725; -865.000; -915.000
395.777;  -41.350; -366.000; -405.000
395.905;  -68.025; -449.000; -564.000
396.033;    7.300;  217.000;  172.000
396.162;  352.750; -399.000; -453.000
396.290;  316.725;  -17.000;   -2.000
396.418;   37.125; -555.000; -514.000
396.546;  -83.600; -571.000; -466.000
396.674; -121.875; -850.000; -878.000
396.803;   -3.525;  -72.000;  -23.000
396.931;   60.800; -179.000; -199.000
397.059;   -7.150;-1026.000; -989.000
397.187; -119.750;-1026.000; -975.000
397.315; -146.000; -884.000; -649.000
397.443; -116.875; -592.000; -443.000
397.572; -100.750; -578.000; -424.000
397.700;  -45.475; -607.000; -614.000
397.828;   -6.300;  120.000;  -90.000
397.956;  -53.600; -508.000; -478.000
398.084;  -79.000; -767.000; -626.000
398.212;   22.975;  137.000;  124.000
398.340;    3.400;  -56.000;  159.000
398.468;   -7.500; -390.000; -169.000
398.596; -147.825; -993.000; -953.000
398.724; -130.450; -762.000; -767.000
398.852; -171.525;-1024.000; -976.000
398.980;  -75.275; -560.000; -560.000
399.108;  -74.800; -982.000; -735.000
399.236;   12.150;   13.000;    8.000
399.363;    7.950;  222.000;  196.000
399.491;  -59.475; -404.000; -398.000
399.619; -138.100; -829.000; -800.000
399.747; -106.425; -859.000; -771.000
399.875;   54.575;  220.000;  234.000
400.003;  -55.250; -359.000; -284.000
400.130;  -96.550; -421.000; -341.000
400.258;  -26.000;  -83.000;   38.000
400.386;  -64.850; -352.000; -168.000
400.514;  -72.350; -526.000; -587.000
400.641; -112.125; -928.000; -802.000
400.769; -157.025; -979.000; -888.000
400.897; -112.225; -838.000; -793.000
401.025;  -44.400; -166.000; -152.000
401.152;  -19.800;  220.000;   38.000
401.280;  -94.825; -430.000; -429.000
401.408; -130.050; -712.000; -576.000
401.535; -121.575; -735.000; -758.000
401.663; -199.075;-1134.000;-1054.000
401.790;  -84.125; -514.000; -525.000
401.918;   48.050;  436.000;  405.000
402.046;  -16.900;  134.000;  122.000
402.173;  -39.425;  -18.000;    7.000
402.301;  -79.850; -519.000; -397.000
402.428;   34.250;  528.000;  383.000
402.556; -162.750;-1188.000; -913.000
402.683;  -24.550;  -20.000;   -1.000
402.811;  -30.525;  -37.000; -206.000
402.938;  -11.075;   20.000;   27.000
403.066;  142.000; -574.000; -558.000
403.193;  258.700;  299.000;  239.000
403.321;  192.475; -396.000; -574.000
403.448;  266.525;   83.000;   27.000
403.575;  109.600;  -90.000;  -46.000
403.703; -102.775; -732.000; -557.000
403.830;  -74.600; -531.000; -496.000
403.957; -147.125;-1117.000;-1023.000
404.085;   -2.525;  -61.000; -172.000
404.212;  106.300;  -50.000;   63.000
404.339;  270.900; -566.000; -306.000
404.467; 6064.250; -612.000; -524.000
404.594; 3727.050; -287.000; -227.000
404.721;  792.525; -869.000; -764.000
404.848;   66.750; -113.000; -202.000
404.976; -112.450; -856.000; -783.000
405.103;   -4.875;  -14.000;  -82.000
405.230;   -5.850;  190.000;  226.000
405.357;   33.000;  117.000;   44.000
405.484;  288.250;  -49.000;    5.000
405.612;   32.250; -548.000; -563.000
405.739;  -76.625; -488.000; -243.000
405.866;   74.475;  669.000;  385.000
405.993;  -57.425; -398.000; -102.000
406.120; -150.875; -801.000; -887.000
406.247;  -61.575; -323.000; -342.000
406.374;  353.775;  540.000;  629.000
406.501;   38.650; -632.000; -702.000
406.628;  -82.900; -621.000; -589.000
406.755; -117.075; -803.000; -620.000
406.882;  -49.575; -228.000; -277.000
407.009; -118.950; -719.000; -628.000
407.136;   13.500; -480.000; -401.000
407.263;   53.675; -939.000; -829.000
407.390; -108.225; -692.000; -614.000
407.517; -184.175;-1139.000;-1187.000
407.644;  -58.225; -332.000; -256.000
407.771; -146.650; -249.000; -287.000
407.898;   13.925;  168.000;  328.000
408.025;  -93.850; -421.000; -313.000
408.151;   -8.025;   82.000;  153.000
408.278;  -66.225; -267.000; -216.000
408.405; -126.825; -931.000; -899.000
408.532;  -75.575; -549.000; -542.000
408.659; -139.900; -677.000; -648.000
408.785; -193.725;-1298.000;-1170.000
408.912;  -69.325; -412.000; -296.000
409.039; -117.350; -610.000; -686.000
409.166;  -98.775; -591.000; -555.000
409.292;  -96.875; -571.000; -534.000
409.419; -125.450; -665.000; -649.000
409.546;  -89.000; -431.000; -192.000
409.672; -124.550; -713.000; -545.000
409.799;  -27.150;  -36.000;   34.000
409.926;  -45.550; -180.000; -179.000
410.052; -180.000;-1127.000;-1091.000
410.179;  -62.350; -368.000; -392.000
410.305;  -91.075; -375.000; -493.000
410.432;  -52.375; -220.000; -333.000
410.558;  -87.925; -305.000; -380.000
410.685; -117.125; -688.000; -431.000
410.812; -103.975; -409.000; -588.000
410.938; -155.900; -964.000; -808.000
411.065;  -99.850; -671.000; -645.000
411.191;  -31.250; -189.000; -174.000
411.317; -132.450; -823.000; -742.000
411.444;  -79.450; -317.000; -246.000
411.570;  -76.050; -339.000; -294.000
411.697; -141.275; -758.000; -752.000
411.823; -180.050; -989.000; -999.000
411.949;  -36.625;  -56.000;   17.000
412.076; -118.150; -539.000; -519.000
412.202; -125.075; -758.000; -757.000
412.329; -127.075; -798.000; -752.000
412.455; -130.100; -821.000; -657.000
412.581;  -18.950;  -15.000;  172.000
412.707;  -77.975; -540.000; -457.000
412.834;    4.750;  156.000;  219.000
412.960;  -98.175; -785.000; -784.000
413.086;  -97.025; -743.000; -701.000
413.212;  119.900;  604.000;  578.000
413.339;  -91.625; -685.000; -701.000
413.465;  -24.775; -364.000; -310.000
413.591;  -93.100; -757.000; -474.000
413.717;  -72.450; -358.000; -366.000
413.843; -145.425; -839.000; -861.000
413.969;  -59.800;  -47.000; -292.000
414.096; -103.650; -679.000; -679.000
414.222;  -13.625;  -33.000;   85.000
414.348;  -46.550; -652.000; -385.000
414.474;   67.200;   38.000;  -52.000
414.600;  -16.200; -126.000; -144.000
414.726;  -18.300;  -96.000;  -55.000
414.852;  -50.375; -365.000; -342.000
414.978;   34.450;  104.000;  -18.000
415.104;   30.650;   38.000;   80.000
415.230;   25.625; -329.000; -330.000
415.356;   26.725; -409.000; -514.000
415.482;  195.275;   13.000;  -35.000
415.608;  283.900; -247.000; -323.000
415.734;  974.850;   67.000;   38.000
415.860;20695.400; -875.000; -767.000
415.986;14499.725; -685.000; -607.000
416.111; 1248.300; -798.000; -652.000
416.237;  251.325; -424.000; -571.000
416.363; 1222.950; -765.000; -733.000
416.489; 4358.450; -324.000; -251.000
416.615;  440.550; -707.000; -742.000
416.741;  -15.625; -677.000; -784.000
416.866;  -94.550; -673.000; -736.000
416.992; -131.575; -801.000; -818.000
417.118;  -33.900;  -41.000;  -80.000
417.244;  -92.525; -798.000; -531.000
417.369;  -87.075; -801.000; -612.000
417.495;  -20.425; -325.000; -254.000
417.621; -100.325;-1015.000; -803.000
417.746;    2.325; -579.000; -572.000
417.872;   48.950; -254.000; -144.000
417.998;   50.275; -515.000; -530.000
418.123; 1136.725;-1073.000; -845.000
418.249; 5591.800; -512.000; -601.000
418.374;  763.375; -916.000; -824.000
418.500;  105.700; -383.000; -482.000
418.626;  118.175;   70.000;  -59.000
418.751;  114.400; -549.000; -448.000
418.877;  190.750; -637.000; -643.000
419.002; 1941.050; -688.000; -560.000
419.128;13169.675; -930.000; -721.000
419.253; 3082.475; -967.000; -837.000
419.379;  405.425; -391.000; -338.000
419.504;  400.850;  325.000;  415.000
419.629;  540.100; -393.000; -212.000
419.755; 3891.750; -317.000; -254.000
419.880;22577.125;  -98.000;   67.000
420.006;12055.150; -280.000; -221.000
420.131;30409.100; -662.000; -775.000
420.256; 4217.650; -315.000; -316.000
420.382;  553.250; -665.000; -687.000
420.507;   63.975; -649.000; -778.000
420.632;  103.525; -337.000; -339.000
420.758;  167.225; -251.000; -425.000
420.883; -104.700; -876.000; -672.000
421.008; -110.725; -775.000; -619.000
421.133;  -73.550; -509.000; -467.000
421.259;  -58.000; -325.000; -259.000
421.384; -123.275; -834.000; -693.000
421.509;  -81.300;-1052.000; -862.000
421.634;  858.300; -936.000; -820.000
421.759;  352.400; -359.000; -327.000
421.885;  -77.225; -717.000; -656.000
422.010;  -82.900; -673.000; -542.000
422.135; -148.575; -695.000; -727.000
422.260;   21.700;  340.000;  280.000
422.385;  -60.025;   12.000;  -98.000
422.510;   17.400;  151.000;  -26.000
422.635;    0.225;  -87.000;  -43.000
422.760;   67.375; -766.000; -791.000
422.885;   34.700;  -57.000;  -80.000
423.010;  -39.900; -112.000; -169.000
423.135; -101.550; -481.000; -561.000
423.260;  -32.600; -150.000; -245.000
423.385;   55.875;  476.000;  222.000
423.510;   15.600;   71.000;  -22.000
423.635;   60.625;  133.000;   45.000
423.760;   50.425;  383.000;  328.000
423.885;   53.925;  336.000;  391.000
424.010;   -2.375;  -68.000;  -13.000
424.135;  -16.900;    5.000;  -33.000
424.259;  -75.025; -654.000; -457.000
424.384;  -63.450; -279.000; -272.000
424.509;  -24.500; -260.000; -186.000
424.634;  -97.525; -761.000; -623.000
424.759;  -38.825; -688.000; -544.000
424.883;   -5.025; -506.000; -527.000
425.008;  150.300; -502.000; -410.000
425.133; 2076.825; -679.000; -653.000
425.258;  946.650; -517.000; -381.000
425.382;  940.675; -867.000; -774.000
425.507; 2283.675; -487.000; -543.000
425.632;  378.450; -802.000; -663.000
425.756;  487.450; -256.000; -146.000
425.881; 7252.925; -831.000; -857.000
426.006;19044.875; -604.000; -355.000
426.130; 2821.025; -696.000; -508.000
426.255;  364.525; -611.000; -491.000
426.379;  161.725; -189.000; -577.000
426.504;  369.525;  660.000;  544.000
426.629; 4162.775; -519.000; -466.000
426.753; 2784.425;   64.000;  -46.000
426.878;  293.625; -252.000; -288.000
427.002;  168.675; -651.000; -668.000
427.127; 1681.325;  -35.000; -158.000
427.251;11981.175;  372.000;  401.000
427.375; 3280.850; -191.000; -173.000
427.500; 2045.750; -616.000; -610.000
427.624;  656.125; -234.000; -400.000
427.749;   73.350; -216.000; -225.000
427.873;  -60.300; -499.000; -412.000
427.997;  -37.850; -222.000; -230.000
428.122;   68.475;  795.000;  703.000
428.246;   65.875;  433.000;  434.000
428.371; -144.450; -869.000; -773.000
428.495; -110.000; -624.000; -646.000
428.619;  -41.300; -186.000; -117.000
428.743;   11.650;   65.000;  132.000
428.868;    1.875; -732.000; -643.000
428.992; 1238.725; -219.000; -326.000
429.116;  434.750; -329.000; -357.000
429.240;  211.275;  419.000;  426.000
429.365;  -21.950; -454.000; -574.000
429.489;  -56.225; -638.000; -647.000
429.613;   20.200; -236.000; -177.000
429.737;   28.525; -563.000; -432.000
429.861;  266.950; -247.000; -133.000
429.985; 5825.175; -425.000; -305.000
430.109; 6233.625; -770.000; -908.000
430.234;  692.450;   76.000;  -50.000
430.358;   50.250; -250.000; -160.000
430.482;  -83.625; -672.000; -564.000
430.606;  -74.200; -655.000; -375.000
430.730;  -15.800; -437.000; -388.000
430.854;   44.075; -909.000; -835.000
430.978; -102.850; -795.000; -764.000
431.102; -101.950; -499.000; -422.000
431.226; -119.700; -874.000; -815.000
431.350;   16.275;  345.000;  422.000
431.474;  -89.875; -661.000; -373.000
431.597; -152.175;-1060.000; -848.000
431.721;  -87.200; -276.000; -267.000
431.845; -130.450; -704.000; -472.000
431.969; -100.725; -304.000; -349.000
432.093;  -90.525; -395.000; -317.000
432.217;  -26.200;   32.000;   82.000
432.341; -105.425; -523.000; -518.000
432.464;   -2.650;   96.000;   40.000
432.588;  119.525; -401.000; -329.000
432.712;   61.650;  -52.000;  -52.000
432.836;   36.450;  213.000;  263.000
432.959;  -19.025; -372.000; -311.000
433.083;   97.875;   11.000;    2.000
433.207;  388.475;  285.000;  930.000
433.330; 5416.900; -391.000; -200.000
433.454; 6478.175; -654.000; -638.000
433.578; 3702.800;  583.000;  278.000
433.701;  670.325; -623.000; -675.000
433.825;  100.100; -292.000; -299.000
433.949;  107.100;   28.000;  -72.000
434.072;   19.075; -410.000; -323.000
434.196;  -21.650; -309.000; -117.000
434.319; 3802.025;25482.000;25124.000
434.443;  735.750; -656.000; -603.000
434.566; 2756.975;  281.000;   62.000
434.690;  422.325; -637.000; -383.000
434.813;   52.275; -251.000; -173.000
434.937;  -84.875; -569.000; -696.000
435.060;  -65.000; -423.000; -332.000
435.184;  193.500; -492.000; -217.000
435.307;   89.825;  159.000;  102.000
435.431;  -11.900;  -40.000;   24.000
435.554;  -87.750; -399.000; -240.000
435.677;  -92.675; -350.000; -258.000
435.801;  -49.225;  -25.000;   49.000
435.924;  -17.600;    1.000;  -67.000
436.048; -128.525;-1019.000; -732.000
436.171;  -78.175; -240.000;  -66.000
436.294;  -35.525; -248.000; -229.000
436.417;   89.750; -963.000; -849.000
436.541;  -79.575; -814.000; -840.000
436.664;  -66.075; -242.000; -316.000
436.787;  -31.400;   13.000;  113.000
436.910; -119.475; -792.000; -422.000
437.034;   -0.025;  142.000;  143.000
437.157;   25.300;  -11.000;    0.000
437.280;  -79.575; -392.000; -292.000
437.403; -111.975; -982.000; -869.000
437.526;  432.625; -903.000; -865.000
437.649; 1678.975; -505.000; -332.000
437.772;  194.125; -692.000; -540.000
437.896;  103.150;  700.000;  544.000
438.019; -106.400; -758.000; -503.000
438.142; -104.225; -596.000; -506.000
438.265;  -53.300; -639.000; -670.000
438.388;  399.525; -520.000; -410.000
438.511;   26.875; -597.000; -394.000
438.634;  -64.025; -247.000; -125.000
438.757; -130.500; -693.000; -619.000
438.880;  -32.775;  -34.000;  -57.000
439.003;  -90.375; -417.000; -437.000
439.126;  -65.050; -287.000; -167.000
439.248;  -72.450;  -98.000; -139.000
439.371;  -46.225;    9.000;  -53.000
439.494;   20.100;  510.000;  439.000
439.617;  -56.425;   65.000;  -88.000
439.740; -188.650; -968.000; -816.000
439.863; -147.225; -755.000; -595.000
439.986; -127.850; -476.000; -431.000
440.108;  -52.825; -161.000; -112.000
440.231; -168.925; -950.000; -836.000
440.354;  -46.975;  -64.000; -150.000
440.477;  -23.550; -566.000; -542.000
440.599;  -25.500; -200.000; -225.000
440.722; -133.825; -709.000; -586.000
440.845;   56.175;  751.000;  928.000
440.968; -120.400; -415.000; -311.000
441.090;  -68.500; -199.000;  -33.000
441.213; -176.250;-1021.000; -825.000
441.336;  -59.600; -159.000;   -5.000
441.458;  -81.625; -549.000; -396.000
441.581; -100.275; -628.000; -629.000
441.703;  -86.700; -152.000;   13.000
441.826; -121.125; -557.000; -400.000
441.948;  -61.575;   56.000;   51.000
442.071;   11.975;  555.000;  424.000
442.193; -126.750; -531.000; -485.000
442.316;    7.550;  152.000;   97.000
442.438;   31.475; -233.000;  -10.000
442.561;   47.050;  272.000;  262.000
442.683;  366.125; -809.000; -522.000
442.806;  862.850;   -8.000;   74.000
442.928;  -38.850; -859.000; -604.000
443.051;  -89.050; -577.000; -373.000
443.173; -102.125; -341.000; -339.000
443.295;  -89.300; -263.000; -371.000
443.418;  -73.800; -321.000;  -29.000
443.540;  -25.650; -106.000;   -4.000
443.662; -127.800; -563.000; -465.000
443.785;  -15.150;  335.000;  199.000
443.907; -112.475; -362.000; -208.000
444.029; -134.275; -767.000; -494.000
444.152; -139.425; -644.000; -554.000
444.274;  -42.050;  -18.000;  -24.000
444.396; -117.750; -461.000; -221.000
444.518; -133.325; -691.000; -454.000
444.640; -107.750; -268.000; -111.000
444.763;  -19.000;  388.000;  249.000
444.885; -128.775; -432.000; -392.000
445.007;  -24.900;   35.000;   86.000
445.129; -119.950; -610.000; -515.000
445.251; -109.775; -372.000; -439.000
445.373; -136.425; -537.000; -386.000
445.495;    4.700;  242.000;  350.000
445.617;   42.200;  853.000;  753.000
445.739;  -67.150; -215.000;  -97.000
445.861;  -35.325; -245.000; -112.000
445.984;  -43.525; -267.000; -101.000
446.105;  143.650; -418.000; -251.000
446.227;  458.900; -176.000;  -19.000
446.349;  -30.000; -358.000; -249.000
446.471; -115.675; -615.000; -448.000
446.593;  -86.875; -316.000;   19.000
446.715;  -26.050;  -67.000;   41.000
446.837;   58.425;  697.000;  832.000
446.959; -107.450; -457.000; -478.000
447.081; -128.825; -628.000; -518.000
447.203;   39.075;  862.000;  834.000
447.325; -101.300; -270.000;   42.000
447.446;  -14.575;  286.000;  530.000
447.568; -148.950; -921.000; -803.000
447.690;  -80.425; -236.000; -245.000
447.812; -147.700; -798.000; -519.000
447.933;  -37.175;  155.000;  127.000
448.055;  -75.325; -306.000; -261.000
448.177;  112.675;   31.000;   79.000
448.299;    2.775; -935.000; -727.000
448.420;   11.700;  -25.000;  159.000
448.542;  -51.225;   -3.000;   33.000
448.664;  -27.850;  109.000;  322.000
448.785;  -35.750;  265.000;   83.000
448.907;  -87.850; -614.000; -353.000
449.028;  -60.425; -771.000; -471.000
449.150;   52.950;  492.000;  589.000
449.272; -198.175;-1044.000; -913.000
449.393;   20.475;  612.000;  694.000
449.515; -159.550; -634.000; -581.000
449.636;  -61.750; -264.000; -155.000
449.758;   79.375;  763.000;  622.000
449.879; -102.175; -498.000; -396.000
450.001;  -80.200; -149.000;  -49.000
450.122;  -45.675;  -95.000;  162.000
450.244;  -35.625;   37.000;  364.000
450.365; -102.150; -495.000; -301.000
450.486;  -34.225;   80.000;  268.000
450.608;   20.450;  393.000;  326.000
450.729;   77.000;  578.000;  645.000
450.850;   13.000; -574.000; -466.000
450.972;  827.400; -552.000; -389.000
451.093; 5293.400;  190.000;  588.000
451.214; 2211.400; -516.000; -337.000
451.336;  404.800;  773.000;  579.000
451.457;   58.950;  264.000;  393.000
451.578;  -45.250; -118.000;  -74.000
451.699; -120.075; -546.000; -540.000
451.821;  -90.075; -284.000;  -50.000
451.942;    7.325;  278.000;  285.000
452.063;   22.525;  228.000;  419.000
452.184;  599.600;  -54.000;  -49.000
452.305; 1142.800;  103.000;  170.000
452.427;  122.150; -549.000; -301.000
452.548;  -25.800;   23.000;   79.000
452.669;  -60.350; -257.000;  -89.000
452.790;  -54.775;    3.000;  -18.000
452.911;  -20.600;  195.000;  259.000
453.032;  -72.975; -289.000;  -60.000
453.153;  -40.300;  -29.000;   81.000
453.274;   56.000;  737.000;  868.000
453.395;  -68.250;  -51.000;  175.000
453.516;  118.400; 1317.000; 1388.000
453.637;  -78.150; -205.000; -150.000
453.758;  -67.925;   15.000;   69.000
453.879; -127.650; -462.000; -250.000
454.000;   67.225; 1086.000;  948.000
454.121; -117.450; -554.000; -326.000
454.242; -139.225; -599.000; -383.000
454.362;  -71.475;  -99.000;  114.000
454.483;  -46.250; -309.000; -229.000
454.604;   58.775;  512.000;  580.000
454.725; -133.125; -627.000; -555.000
454.846; -124.525; -474.000; -406.000
454.967;  -28.150;  230.000;  539.000
455.087;  -48.825;  179.000;  153.000
455.208;    7.775;  554.000;  856.000
455.329;  -72.200;  -22.000;   82.000
455.450;   42.150;  473.000;  633.000
455.570;  -77.600; -234.000; -211.000
455.691;  -61.100;  201.000;  407.000
455.812; -108.425; -270.000;  -92.000
455.932;  -66.875;  107.000;  -97.000
456.053;  -84.825;   36.000;   24.000
456.173; -109.975; -433.000; -355.000
456.294; -136.750; -476.000; -303.000
456.415;  -77.500;  -73.000;   70.000
456.535;  -28.250;  297.000;  273.000
456.656;  -57.000;  132.000;  240.000
456.776;  -78.925;    3.000;  298.000
456.897;   -9.400;  308.000;  513.000
457.017;  -80.050; -153.000;   -3.000
457.138; -121.575; -402.000; -249.000
457.258;  -30.800;  263.000;  224.000
457.379;  -17.125;  509.000;  521.000
457.499;  -33.225;  443.000;  432.000
457.620; -128.950; -407.000; -231.000
457.740; -103.400; -132.000;  -11.000
457.860;  -60.125;   87.000;   44.000
457.981;  -38.050;  132.000;  124.000
458.101;  -80.500;  -89.000;   40.000
458.221;  -31.925;  336.000;  402.000
458.342;  -70.375;   -4.000;  -37.000
458.462;   12.125;  617.000;  352.000
458.582;  -47.950; -302.000; -294.000
458.703;   -1.375;  303.000;  154.000
458.823;  -24.825;   22.000;  163.000
458.943;   23.225;  341.000;  467.000
459.063;  -17.650; 1124.000;  192.000
459.183;  -37.325;  328.000;  313.000
459.304;   -7.075;  315.000;  517.000
459.424;  -59.525; -246.000;  -89.000
459.544;  343.525;  388.000;  764.000
459.664;  890.500;  499.000;  506.000
459.784;  311.625; 1004.000; 1175.000
459.904;   65.100;  867.000;  744.000
460.024;   58.000;  867.000;  684.000
460.144;    3.050;  449.000;  554.000
460.264;   -8.375;  515.000;  327.000
460.385;  -98.825; -145.000; -119.000
460.505;   36.725;  905.000;  858.000
460.625;  -92.750;  -17.000;  -68.000
460.745;  -28.175;  396.000;  541.000
460.864;  -58.850;  153.000;  469.000
460.984;    6.850;  499.000;  573.000
461.104;  140.275; 1656.000; 1775.000
461.224;   10.350;  657.000;  650.000
461.344;  -36.900;  431.000;  360.000
461.464;  -42.325;  258.000;  513.000
461.584;  -22.325;  283.000;  466.000
461.704;  -61.100;   58.000;  108.000
461.824;  -57.600;  238.000;  259.000
461.943;  -60.925;  191.000;  130.000
462.063;  -82.975;    2.000;  324.000
462.183;   25.325;  639.000;  717.000
462.303;   86.825; 1678.000; 1230.000
462.422;   35.425;  781.000;  840.000
462.542;  -22.225;  271.000;  391.000
462.662;   31.675;  353.000;  380.000
462.782;  246.225;  833.000;  572.000
462.901;  510.500;  545.000;  717.000
463.021;  279.025; 1702.000; 1638.000
463.141;   -2.100;  337.000;  770.000
463.260;   -0.875;  614.000;  474.000
463.380;    4.825;  902.000;  884.000
463.499;  -32.875;  342.000;  332.000
463.619;  -41.275;  581.000;  559.000
463.738;  107.250; 1644.000;  903.000
463.858;    9.875;  657.000;  811.000
463.978;  -23.000;  542.000;  396.000
464.097;   52.675;  921.000; 1114.000
464.217;  127.325; 1196.000; 1143.000
464.336;  121.775; 1068.000; 1130.000
464.455;  -24.125;  328.000;  659.000
464.575;   17.075;  597.000;  602.000
464.694;  162.925; 1204.000; 1179.000
464.814;  123.000; 1190.000; 1138.000
464.933;   60.000; 1095.000; 1027.000
465.052;   87.075; 1412.000; 1054.000
465.172;   74.850;  922.000;  799.000
465.291;  114.225; 1376.000; 1320.000
465.410;   15.700;  462.000;  735.000
465.530;   81.350; 1355.000; 1310.000
465.649;   48.350; 1209.000; 1273.000
465.768;  126.850; 1673.000; 1508.000
465.888;   47.025;  941.000; 1174.000
466.007;   84.075; 1335.000; 1440.000
466.126;   10.325;  721.000;  641.000
466.245;   35.925; 1176.000; 1187.000
466.364;   25.625;  950.000; 1060.000
466.484;   57.075; 1024.000; 1213.000
466.603;   15.825; 1101.000; 1222.000
466.722;  111.700; 1490.000; 1769.000
466.841;   79.250; 1151.000; 1401.000
466.960;   38.100; 1069.000;  972.000
467.079;  126.350; 1971.000; 1786.000
467.198;   49.275; 1238.000; 1181.000
467.317;   86.200; 1768.000; 1162.000
467.436;   72.850; 1709.000; 1261.000
467.555;  127.075; 1796.000; 1746.000
467.674;   75.975; 1227.000; 1329.000
467.793;   41.400; 1376.000; 1374.000
467.912;   66.500; 1658.000; 1539.000
468.031;  124.925; 2038.000; 1930.000
468.150;  134.875; 1842.000; 1837.000
468.269;  200.225; 2313.000; 2090.000
468.388;  189.875; 2168.000; 2339.000
468.507;  251.625; 2884.000; 2903.000
468.626;  222.750; 2555.000; 2541.000
468.744;  129.075; 2018.000; 2174.000
468.863;  184.925; 2312.000; 2523.000
468.982;   87.700; 1503.000; 1555.000
469.101;  210.075; 2788.000; 2692.000
469.220;  152.950; 2333.000; 2176.000
469.338;  246.850; 2935.000; 3051.000
469.457;  182.025; 2719.000; 2545.000
469.576;  352.300; 3953.000; 3784.000
469.695;  243.200; 2877.000; 3066.000
469.813;  420.950; 4148.000; 4192.000
469.932;  407.200; 4255.000; 4485.000
470.051;  400.875; 4075.000; 4161.000
470.169;  908.350; 4470.000; 4338.000
470.288; 1518.950; 4700.000; 4809.000
470.406;  867.950; 5059.000; 5194.000
470.525;  651.350; 6101.000; 5787.000
470.644;  658.150; 6847.000; 6794.000
470.762;  839.400; 8397.000; 7873.000
470.881;  930.125; 8651.000; 8464.000
470.999; 1050.225; 9685.000; 9151.000
471.118; 1114.500;11174.000;10711.000

