
Integration time [ms]: 200.000
Averaging Nr. [scans]: 10
Smoothing Nr. [pixels]: 0
Data measured with spectrometer [name]: 2101012U2
Wave   ;Sample   ;Dark     ;Reference
[nm]   ;[counts] ;[counts] ;[counts] 

197.733;   91.400;  516.000;  404.000
197.879; -194.000; -610.000; -634.000
198.025; -100.900; -475.000; -420.000
198.171; -137.300; -602.000; -612.000
198.317;  -76.700; -401.000; -316.000
198.463; -113.200; -655.000; -404.000
198.609;   57.100;  181.000; -137.000
198.755; -177.700; -644.000; -410.000
198.901; -161.700; -505.000; -424.000
199.047; -163.500; -615.000; -488.000
199.193; -107.800; -230.000; -468.000
199.339; -109.800; -222.000; -369.000
199.485;   74.600;  330.000;  271.000
199.631;   21.000;  227.000;  310.000
199.777; -100.200; -466.000; -398.000
199.923; -149.400; -610.000; -424.000
200.069;  -39.800; -141.000;  -58.000
200.215;  109.000;  128.000;  453.000
200.361;   66.700;  243.000;  477.000
200.507; -148.700; -600.000; -373.000
200.653;  -71.400; -371.000; -194.000
200.798;  -80.100; -215.000; -125.000
200.944;   12.700; -146.000;  -41.000
201.090;   43.000;   61.000;  222.000
201.236;  -29.800; -116.000; -158.000
201.382;  258.400;  874.000;  903.000
201.528;  -15.100;  -58.000;  -48.000
201.674;  -36.200; -386.000; -293.000
201.819; -124.200; -540.000; -439.000
201.965; -175.900; -699.000; -447.000
202.111;  -80.700; -273.000; -226.000
202.257;  -94.500; -250.000; -238.000
202.402;   28.900;   13.000;  -36.000
202.548;  -92.800; -169.000; -116.000
202.694;  168.300;  410.000; -183.000
202.840; -173.700; -603.000; -531.000
202.985; -127.000; -681.000; -639.000
203.131; -218.900; -832.000; -666.000
203.277;  -49.400; -199.000; -262.000
203.423; -119.500; -434.000; -520.000
203.568;  -89.500; -462.000; -237.000
203.714; -114.800; -535.000; -542.000
203.860; -178.200; -682.000; -641.000
204.005;   18.300;  112.000;  167.000
204.151;  152.600;  561.000;  556.000
204.296;  -89.900; -354.000; -221.000
204.442; -160.500; -600.000; -547.000
204.588; -182.200; -592.000; -579.000
204.733;   19.700;  178.000;  168.000
204.879; -281.900;-1018.000; -822.000
205.025;   17.800;  -99.000;  126.000
205.170;   -2.500;  -17.000;   94.000
205.316;  184.300;  438.000;  661.000
205.461; -208.400; -698.000; -554.000
205.607;  165.800;  609.000;  665.000
205.752; -162.000; -626.000; -551.000
205.898;  -95.600; -501.000; -391.000
206.043; -134.100; -578.000; -506.000
206.189;  -93.000; -243.000; -285.000
206.334;  163.500;  554.000;  606.000
206.480;  145.900;  409.000;  239.000
206.625; -193.600; -529.000; -552.000
206.771;  -99.600; -451.000; -373.000
206.916;  -73.700; -210.000; -537.000
207.062; -161.100; -545.000; -591.000
207.207; -156.300; -546.000; -443.000
207.353;  150.000;  185.000;  460.000
207.498;   41.600;  196.000;   85.000
207.643; -125.800; -501.000; -370.000
207.789; -293.500;-1069.000; -910.000
207.934; -186.000; -665.000; -713.000
208.080;  -61.700; -154.000;   66.000
208.225;  -30.000;  -22.000;  -57.000
208.370; -179.900; -727.000; -619.000
208.516; -151.600; -741.000; -487.000
208.661;  -75.100; -127.000;  -69.000
208.806;  -38.700; -165.000; -171.000
208.952; -259.400;-1044.000; -731.000
209.097;  192.200;  378.000;  349.000
209.242;  -86.000; -307.000; -382.000
209.387;  127.400;  392.000;  350.000
209.533; -108.000; -321.000; -350.000
209.678;  121.400;  472.000;  543.000
209.823; -142.900; -408.000; -310.000
209.969; -202.100; -860.000; -757.000
210.114; -222.100; -907.000; -719.000
210.259; -236.500; -939.000; -889.000
210.404;  -43.800; -171.000;  103.000
210.549;   -1.700;  108.000;    3.000
210.695;  -47.800;   -3.000;  -95.000
210.840;   47.300;   94.000;   67.000
210.985; -138.400; -484.000; -303.000
211.130;  117.600;  268.000;  406.000
211.275;   40.800;  207.000;  199.000
211.420; -111.900; -300.000; -289.000
211.566; -179.400; -536.000; -489.000
211.711;   38.500;  218.000;  157.000
211.856; -137.200; -545.000; -519.000
212.001;    4.600;  151.000;   44.000
212.146;   43.300;  153.000;   49.000
212.291;  -51.100; -210.000; -186.000
212.436;  -65.800; -280.000;   -6.000
212.581; -165.400; -685.000; -653.000
212.726; -158.500; -487.000; -538.000
212.871; -132.200; -552.000; -217.000
213.016; -319.600;-1172.000;-1029.000
213.161;  149.500;  406.000;  291.000
213.306; -169.800; -435.000; -577.000
213.451; -216.200; -778.000; -689.000
213.596; -115.600; -455.000; -347.000
213.741; -106.800; -448.000; -538.000
213.886; -158.600; -498.000; -517.000
214.031;  -47.500; -294.000; -124.000
214.176; -106.000; -408.000; -341.000
214.321;  -24.600; -296.000; -157.000
214.466;  -74.800; -163.000;  -43.000
214.611;  -15.900;  -61.000;  -10.000
214.756; -250.100; -948.000; -858.000
214.901;  -38.700; -388.000; -226.000
215.046; -242.400; -797.000; -825.000
215.191;   39.000;  128.000;   35.000
215.336;  -34.500; -157.000;  -19.000
215.480; -126.100; -684.000; -505.000
215.625;  -68.700; -175.000;  -19.000
215.770; -194.300; -757.000; -662.000
215.915;  -35.300;   -5.000;  -97.000
216.060;   26.800; -113.000;  -21.000
216.205; -242.300; -731.000; -779.000
216.349; -151.800; -470.000; -533.000
216.494; -260.900; -939.000; -867.000
216.639; -251.600; -823.000; -888.000
216.784; -215.600; -577.000; -525.000
216.929;   96.400;  392.000;  281.000
217.073;  -17.900; -244.000;  -31.000
217.218;    2.100;   78.000;  -47.000
217.363; -177.300; -656.000; -618.000
217.507; -178.600; -623.000; -588.000
217.652; -264.800; -845.000; -874.000
217.797; -199.100; -708.000; -659.000
217.942; -247.600; -856.000; -720.000
218.086;  157.100;  608.000;  539.000
218.231;  -27.000; -174.000;  -26.000
218.376;  -63.500; -337.000; -229.000
218.520;  -17.100;  -41.000;   96.000
218.665;  -75.900; -338.000; -204.000
218.810;  -93.800; -275.000; -233.000
218.954;   15.600;  201.000;   35.000
219.099; -239.700; -713.000; -963.000
219.243; -164.100; -589.000; -554.000
219.388; -104.900; -264.000; -136.000
219.532;  -27.700; -116.000; -116.000
219.677; -155.400; -564.000; -521.000
219.822;   24.900;   33.000;   89.000
219.966;   11.100;   17.000;  -99.000
220.111;  -76.900; -328.000;  -40.000
220.255; -210.600; -797.000; -750.000
220.400;  -36.700; -180.000; -146.000
220.544; -143.000; -516.000; -450.000
220.689; -111.700; -422.000; -451.000
220.833;  -73.400; -123.000;  -58.000
220.978; -104.800; -393.000; -563.000
221.122;   26.700;  319.000;  307.000
221.267; -233.900; -906.000; -837.000
221.411; -142.200; -478.000; -394.000
221.555;  -19.300; -104.000;  -23.000
221.700; -124.700; -329.000; -222.000
221.844;   53.900;  255.000;  272.000
221.989; -114.600; -328.000; -311.000
222.133;  -64.100; -289.000; -307.000
222.277;   -1.900;    5.000;   78.000
222.422;   26.700;  227.000;  113.000
222.566; -101.600; -381.000; -214.000
222.711; -121.200; -414.000; -479.000
222.855; -155.800; -643.000; -586.000
222.999; -182.600; -642.000; -717.000
223.144;  -76.900; -195.000; -194.000
223.288;  130.700;  423.000;  251.000
223.432;   31.600;  184.000;  230.000
223.576;   32.800;  152.000;  -21.000
223.721;   99.200;  364.000;  273.000
223.865; -109.300; -472.000; -475.000
224.009;  531.800; 1673.000; 1631.000
224.153; -155.000; -660.000; -671.000
224.298; -129.100; -531.000; -489.000
224.442;  -27.300;  -74.000;  -33.000
224.586;  -10.100; -169.000; -106.000
224.730; -208.200; -858.000; -670.000
224.875; -213.500; -739.000; -688.000
225.019;   23.700;  102.000;  188.000
225.163;   98.000;  208.000;  341.000
225.307;   37.400;   97.000;  -91.000
225.451;   93.700;  360.000;  481.000
225.595;   68.300;  264.000;  176.000
225.739;  -37.000; -170.000;  -94.000
225.884;   23.700;   86.000;    5.000
226.028; -210.600; -760.000; -626.000
226.172;  -80.800; -260.000; -273.000
226.316; -271.600; -941.000; -902.000
226.460; -135.100; -645.000; -493.000
226.604; -133.300; -406.000; -400.000
226.748; -222.300; -836.000; -733.000
226.892;  -89.400; -227.000; -181.000
227.036; -103.100; -537.000; -447.000
227.180; -111.300; -551.000; -375.000
227.324; -152.200; -561.000; -580.000
227.468; -243.500; -819.000; -717.000
227.612;   46.500;  242.000;  -28.000
227.756; -228.600; -845.000; -698.000
227.900;  101.300;  342.000;  441.000
228.044; -119.900; -509.000; -290.000
228.188;  140.400;  448.000;  568.000
228.332; -189.700; -546.000; -472.000
228.476;  -39.900; -223.000; -149.000
228.620;  -93.100; -210.000; -150.000
228.764;  106.900;  431.000;  349.000
228.908;  -67.900; -155.000;   30.000
229.052; -142.200; -615.000; -528.000
229.195;  -22.400; -172.000;   13.000
229.339;  -50.000; -235.000; -305.000
229.483;  -43.000;    5.000; -162.000
229.627;    5.100; -156.000;  139.000
229.771; -106.600; -218.000; -294.000
229.915;   34.300;  230.000;   79.000
230.059; -185.200; -648.000; -663.000
230.202;  -72.800; -370.000; -317.000
230.346;  -30.500; -107.000;  107.000
230.490; -114.200; -489.000; -521.000
230.634; -223.100; -736.000; -553.000
230.777;  136.400;  478.000;  509.000
230.921; -133.900; -450.000; -359.000
231.065;  -98.800; -246.000; -286.000
231.209;   47.300;  261.000;  265.000
231.352;   45.200;   54.000;   40.000
231.496;   34.900;  568.000;  188.000
231.640; -157.600; -693.000; -621.000
231.783;  100.400;  546.000;  525.000
231.927;  -87.400; -294.000; -365.000
232.071; -247.500; -962.000; -736.000
232.214; -227.900; -980.000; -764.000
232.358; -203.600; -683.000; -599.000
232.502;   44.900;  -19.000;    7.000
232.645; -306.900;-1090.000; -927.000
232.789;  -44.700; -257.000; -218.000
232.933; -107.500; -407.000; -224.000
233.076; -242.900;-1038.000; -897.000
233.220; -224.600; -752.000; -777.000
233.363; -146.600; -669.000; -477.000
233.507;  126.300;  371.000;  129.000
233.650; -197.400; -764.000; -834.000
233.794;   88.400;  438.000;  461.000
233.938; -134.100; -530.000; -362.000
234.081;  -69.200;  -93.000;   31.000
234.225; -122.700; -631.000; -539.000
234.368; -231.800; -773.000; -723.000
234.512;  -79.500; -385.000; -299.000
234.655; -193.400; -582.000; -555.000
234.798; -145.500; -493.000; -466.000
234.942; -246.100; -884.000;-1002.000
235.085; -159.100; -651.000; -443.000
235.229; -136.000; -405.000; -410.000
235.372; -114.100; -247.000; -191.000
235.516; -143.300; -397.000; -321.000
235.659;   42.200;   92.000;  121.000
235.802;  -45.300;  -38.000;  -22.000
235.946;   71.900;  335.000;  215.000
236.089;   65.700;  126.000;  250.000
236.233;  108.800;  275.000;  298.000
236.376;  -88.400; -235.000; -378.000
236.519;  -90.700; -297.000; -319.000
236.663;  -63.100; -215.000; -117.000
236.806; -297.200;-1029.000; -999.000
236.949;  102.300;  543.000;  431.000
237.092;  123.800;  412.000;  391.000
237.236; -175.700; -589.000; -502.000
237.379;  143.100;  352.000;  428.000
237.522; -273.600; -879.000; -768.000
237.666;  -51.700; -271.000;   18.000
237.809; -259.400; -851.000; -823.000
237.952;   87.500;  469.000;  271.000
238.095; -137.900; -447.000; -442.000
238.238;  175.300;  688.000;  700.000
238.382;   -6.000;  166.000;  103.000
238.525; -128.600; -598.000; -511.000
238.668; -306.500;-1060.000; -985.000
238.811; -142.800; -638.000; -643.000
238.954;  -97.700; -483.000; -334.000
239.097;  209.400;  617.000;  664.000
239.241;   61.200;  394.000;  326.000
239.384;  -75.500; -254.000; -214.000
239.527; -133.600; -424.000; -224.000
239.670; -287.200; -994.000;-1091.000
239.813; -208.000; -696.000; -658.000
239.956;  187.000;  579.000;  473.000
240.099; -249.700; -778.000; -725.000
240.242;  143.500;  428.000;  432.000
240.385;  127.600;  466.000;  450.000
240.528; -170.200; -706.000; -473.000
240.671;   56.500;  189.000;  134.000
240.814;  -96.800; -441.000; -158.000
240.957; -172.600; -767.000; -578.000
241.100; -199.500; -779.000; -755.000
241.243; -310.100;-1234.000; -893.000
241.386; -133.300; -508.000; -379.000
241.529; -178.400; -735.000; -547.000
241.672; -147.500; -566.000; -495.000
241.815; -217.700; -832.000; -808.000
241.958;  -32.800; -125.000; -182.000
242.101; -163.000; -545.000; -390.000
242.244;  -99.300; -270.000; -325.000
242.387; -100.500; -304.000; -246.000
242.530;  135.800;  470.000;  134.000
242.673;  -71.900; -381.000; -309.000
242.815; -241.000; -925.000; -899.000
242.958; -151.200; -482.000; -381.000
243.101;   18.400;  132.000;  187.000
243.244; -182.600; -564.000; -521.000
243.387;  -96.500; -313.000; -316.000
243.530; -195.700; -657.000; -674.000
243.672;   -7.900;   43.000;  -92.000
243.815; -108.300; -355.000; -283.000
243.958;    2.600;   98.000;  -26.000
244.101;   -5.100;   59.000;  -16.000
244.243;   -7.000;  -47.000;  101.000
244.386; -218.000; -761.000; -630.000
244.529;  -46.700; -132.000; -139.000
244.672; -290.600;-1154.000; -951.000
244.814; -210.600; -621.000; -794.000
244.957; -127.700; -380.000; -304.000
245.100; -152.000; -489.000; -489.000
245.242; -109.600; -387.000; -374.000
245.385;   36.200;  -59.000;  -39.000
245.528; -247.800; -871.000; -705.000
245.670;  190.400;  612.000;  634.000
245.813; -203.500; -599.000; -547.000
245.956;  -51.500; -324.000; -275.000
246.098; -148.300; -508.000; -650.000
246.241;   10.700;  194.000;   48.000
246.383;  -22.500; -119.000;  -73.000
246.526; -169.900; -454.000; -525.000
246.669; -232.800; -889.000; -780.000
246.811;   58.500;  172.000;   -1.000
246.954; -118.100; -512.000; -426.000
247.096;  -59.900;  -84.000;   -6.000
247.239; -154.300; -482.000; -445.000
247.381; -162.100; -647.000; -488.000
247.524;  173.500;  645.000;  679.000
247.666;  -15.200;   58.000;   11.000
247.809; -225.700; -887.000; -691.000
247.951;   -2.400;  -75.000;  138.000
248.094;  105.900;  432.000;  308.000
248.236; -318.600;-1262.000;-1238.000
248.378;  -11.900; -356.000;  -81.000
248.521;  -56.500; -334.000; -337.000
248.663;  -57.700; -236.000; -267.000
248.806;  -60.800; -300.000; -266.000
248.948; -242.600; -886.000; -763.000
249.090;  -70.300; -428.000; -398.000
249.233; -125.600; -344.000; -381.000
249.375; -147.400; -474.000; -451.000
249.518;  -39.900;  -83.000; -133.000
249.660;   22.400; -103.000;    3.000
249.802; -354.200;-1303.000;-1189.000
249.945; -154.400; -612.000; -540.000
250.087; -247.700; -834.000; -768.000
250.229; -119.500; -362.000; -480.000
250.371; -163.500; -494.000; -439.000
250.514;  -81.800; -310.000; -244.000
250.656;   -0.500;   69.000;  102.000
250.798; -253.900; -849.000; -800.000
250.940; -141.700; -322.000; -322.000
251.083;  -60.300; -335.000; -111.000
251.225;  116.200;  338.000;  310.000
251.367;  -64.500; -274.000; -373.000
251.509;  -94.600; -265.000; -210.000
251.651; -186.600; -731.000; -671.000
251.794;  157.800;  538.000;  632.000
251.936; -228.700; -821.000; -747.000
252.078; -141.400; -540.000; -461.000
252.220; -124.200; -645.000; -477.000
252.362;  145.500;  344.000;  462.000
252.504; -130.400; -677.000; -584.000
252.646; -223.300; -875.000; -722.000
252.788;  -12.800;   14.000; -128.000
252.931;  -82.500; -257.000; -253.000
253.073; -102.300; -376.000; -317.000
253.215;   12.800;  141.000;  122.000
253.357;  -25.700;   82.000; -153.000
253.499; -123.400; -374.000; -234.000
253.641; -179.900; -749.000; -594.000
253.783; -198.500; -609.000; -527.000
253.925; -186.400; -586.000; -591.000
254.067; -249.000; -744.000; -667.000
254.209;  -35.200; -391.000; -259.000
254.351; -263.400; -865.000; -883.000
254.493; -131.000; -441.000; -417.000
254.635; -247.800; -936.000; -818.000
254.777; -167.400; -752.000; -687.000
254.918; -137.600; -512.000; -430.000
255.060; -119.500; -551.000; -395.000
255.202; -130.500; -473.000; -261.000
255.344; -176.400; -658.000; -455.000
255.486; -139.900; -471.000; -406.000
255.628; -203.200; -780.000; -781.000
255.770; -179.800; -676.000; -536.000
255.912; -123.900; -559.000; -468.000
256.053; -184.800; -730.000; -508.000
256.195;  325.800; 1008.000;  903.000
256.337; -204.300; -861.000; -595.000
256.479;  164.600;  532.000;  416.000
256.621;  -90.000; -394.000; -212.000
256.762; -216.100; -789.000; -742.000
256.904;  118.700;  485.000;  487.000
257.046;  -92.600; -381.000; -271.000
257.188; -110.400; -351.000; -264.000
257.329; -143.500; -525.000; -464.000
257.471; -244.500; -939.000; -807.000
257.613; -104.400; -584.000; -498.000
257.755; -294.700;-1073.000; -982.000
257.896;   84.800;  286.000;  392.000
258.038; -138.500; -403.000; -352.000
258.180;  -43.300; -354.000; -279.000
258.321; -145.800; -581.000; -457.000
258.463;   -0.200;  -71.000;  133.000
258.605; -174.900; -562.000; -570.000
258.746; -212.300; -886.000; -772.000
258.888; -281.300;-1026.000;-1020.000
259.029;   70.600;  121.000;   -8.000
259.171; -179.300; -614.000; -550.000
259.313;   -7.400;  -49.000;  -47.000
259.454; -111.100; -536.000; -414.000
259.596; -108.000; -483.000; -390.000
259.737; -163.300; -590.000; -474.000
259.879;   69.600;  217.000;  311.000
260.020;  183.800;  901.000;  636.000
260.162;  -38.000; -146.000; -253.000
260.303; -231.200; -768.000; -687.000
260.445; -165.800; -609.000; -613.000
260.586;   67.800;  392.000;  157.000
260.728;  -52.000; -360.000; -248.000
260.869; -131.300; -350.000; -343.000
261.011;  177.100;  706.000;  537.000
261.152; -107.600; -479.000; -319.000
261.293; -152.600; -576.000; -595.000
261.435;  -77.700; -219.000; -184.000
261.576;  -52.500; -455.000; -325.000
261.718;  124.500;  420.000;  470.000
261.859; -261.100; -940.000; -949.000
262.000; -257.200; -951.000;-1016.000
262.142;  -36.700;  -52.000;  -60.000
262.283; -235.300; -808.000; -691.000
262.424; -170.900; -666.000; -625.000
262.566; -327.200;-1161.000; -983.000
262.707; -244.300; -840.000; -830.000
262.848; -254.000; -769.000; -726.000
262.990;  -86.500; -362.000; -345.000
263.131;  205.100;  650.000;  681.000
263.272;    3.900;  -61.000;  -41.000
263.413; -183.900; -589.000; -561.000
263.555; -162.600; -669.000; -143.000
263.696; -167.900; -550.000; -641.000
263.837; -115.400; -449.000; -551.000
263.978;   12.200;   -5.000;  -77.000
264.119; -107.500; -283.000; -264.000
264.261; -223.700; -847.000; -630.000
264.402;   21.500;   33.000;   40.000
264.543; -143.100; -509.000; -524.000
264.684;   -8.500;   61.000;  -50.000
264.825; -138.800; -816.000; -538.000
264.966;    0.000;  -84.000;  -67.000
265.107; -229.000; -646.000; -670.000
265.248; -249.600; -825.000; -812.000
265.390;  -27.300;  152.000;   -9.000
265.531;  -46.300; -238.000; -107.000
265.672; -199.000; -557.000; -630.000
265.813;  134.400;  563.000;  439.000
265.954; -282.400; -959.000; -940.000
266.095;  -36.100; -372.000; -322.000
266.236; -179.500; -686.000; -548.000
266.377;  -64.900; -243.000; -297.000
266.518; -140.900; -619.000; -547.000
266.659;   47.700;  170.000;  268.000
266.800;   14.900;   83.000;   85.000
266.941; -145.100; -487.000; -478.000
267.082;   59.700;  354.000;   99.000
267.223; -121.600; -344.000; -273.000
267.364; -239.000; -892.000; -686.000
267.504;  -22.700;    3.000;  135.000
267.645;    8.900;  160.000;   67.000
267.786;  -74.800; -147.000;  -86.000
267.927; -142.800; -473.000; -379.000
268.068;  -11.500; -186.000;  -61.000
268.209; -105.800; -175.000; -413.000
268.350; -100.000; -388.000; -532.000
268.490; -176.200; -648.000; -521.000
268.631;   66.700;  127.000;  225.000
268.772; -230.100; -874.000; -647.000
268.913;  -69.300; -328.000; -476.000
269.054;   -1.800; -117.000;   12.000
269.194;  -82.900; -418.000; -402.000
269.335; -310.800;-1137.000;-1074.000
269.476;  -21.300;   33.000;  -35.000
269.617;  -88.100; -347.000; -392.000
269.757; -161.600; -713.000; -646.000
269.898; -231.900; -856.000; -613.000
270.039; -114.000; -415.000; -405.000
270.180; -284.700; -952.000; -816.000
270.320;  -43.100; -190.000; -250.000
270.461;  -88.400; -277.000; -249.000
270.602;  -10.800; -186.000; -156.000
270.742; -249.600; -868.000; -943.000
270.883; -110.400; -442.000; -390.000
271.023; -117.800; -358.000; -357.000
271.164; -169.400; -607.000; -528.000
271.305; -201.100; -666.000; -654.000
271.445; -191.800; -722.000; -683.000
271.586; -135.000; -462.000; -283.000
271.726;  -71.900; -397.000; -322.000
271.867; -146.000; -594.000; -534.000
272.008;  304.700; -473.000; -285.000
272.148;  212.400;  462.000;  468.000
272.289;   49.000; -113.000; -181.000
272.429;   58.600;   19.000;  185.000
272.570; -184.100; -633.000; -737.000
272.710; -208.700; -825.000; -775.000
272.851;  -13.200;  113.000; -130.000
272.991; -314.700;-1173.000;-1077.000
273.131; -122.700; -419.000; -459.000
273.272; -183.000; -683.000; -723.000
273.412;   -4.600; -143.000;  -31.000
273.553; -108.900; -488.000; -507.000
273.693;  295.300;  913.000;  858.000
273.834; -188.400; -894.000; -692.000
273.974; -161.600; -664.000; -615.000
274.114; -189.700; -772.000; -560.000
274.255;  153.200;  414.000;  373.000
274.395;   -8.400; -180.000; -125.000
274.535;  108.600;  199.000;  350.000
274.676;   61.900;  225.000;   94.000
274.816;   29.800;  110.000;   34.000
274.956; -145.300; -624.000; -690.000
275.097; -163.900;-1014.000; -922.000
275.237; -227.600; -913.000; -803.000
275.377; -192.600; -778.000; -689.000
275.517; -300.800; -878.000; -937.000
275.658; -110.100; -590.000; -555.000
275.798; -151.800; -606.000; -413.000
275.938;  101.800;  215.000;  323.000
276.078; -168.100; -626.000; -395.000
276.218;    9.800;   99.000;  104.000
276.359; -257.900;-1026.000;-1024.000
276.499; -145.700; -605.000; -446.000
276.639;  -57.100; -305.000; -151.000
276.779;  -49.100; -475.000; -357.000
276.919; -226.100; -783.000; -624.000
277.059;  -24.300; -261.000; -212.000
277.199;  -70.500; -357.000; -259.000
277.340;   73.200;  287.000;  175.000
277.480; -204.100; -840.000; -693.000
277.620;   80.100;  192.000;   16.000
277.760; -417.200;-1533.000;-1294.000
277.900;   17.400;  113.000;   33.000
278.040;   27.200;  137.000;  159.000
278.180;   94.800;  270.000;  170.000
278.320;   -2.300;   21.000;   56.000
278.460; -132.700; -443.000; -469.000
278.600; -182.600; -708.000; -598.000
278.740;  129.100;  448.000;  224.000
278.880; -117.300; -768.000; -791.000
279.020;   68.800; -194.000; -144.000
279.160; -167.700; -672.000; -595.000
279.300; -216.200; -926.000; -873.000
279.440; -184.400; -709.000; -622.000
279.579; -106.200;-1014.000; -929.000
279.719;  -88.000; -410.000; -394.000
279.859;  133.600;   -4.000;   41.000
279.999;   32.100; -208.000;  101.000
280.139;  -47.400; -435.000; -387.000
280.279; -142.900; -708.000; -745.000
280.419;  -10.900; -229.000; -147.000
280.559;  -74.700; -259.000; -180.000
280.698; -146.800; -790.000; -639.000
280.838; -180.100; -778.000; -800.000
280.978; -207.900; -846.000; -790.000
281.118; -207.800; -811.000; -704.000
281.257;   44.600;   24.000;    6.000
281.397; -233.400;-1094.000; -960.000
281.537; -124.700; -599.000; -712.000
281.677;  -34.900; -150.000; -101.000
281.816; -165.200; -700.000; -630.000
281.956;  -36.100; -193.000; -257.000
282.096; -115.600; -539.000; -396.000
282.235; -200.700; -672.000; -638.000
282.375;   11.700; -243.000;  -98.000
282.515; -166.100; -715.000; -707.000
282.654;   83.100;   29.000;  106.000
282.794;   85.900;  388.000;  244.000
282.934;  -92.200; -530.000; -491.000
283.073; -258.200;-1030.000; -857.000
283.213; -105.400; -460.000; -467.000
283.353;  -23.800; -408.000; -349.000
283.492;  -66.600; -264.000; -296.000
283.632;  -47.600; -254.000; -168.000
283.771; -183.900; -859.000; -730.000
283.911;  -98.700; -369.000; -260.000
284.050; -200.200; -794.000; -748.000
284.190; -311.500;-1229.000;-1096.000
284.329; -292.900;-1055.000; -964.000
284.469; -133.000; -516.000; -591.000
284.608;  -93.700; -559.000; -598.000
284.748; -133.400; -614.000; -570.000
284.887;   19.000;  -87.000;  -20.000
285.027; -226.500; -844.000; -892.000
285.166;  -41.700; -192.000; -249.000
285.306;   73.400; -116.000;  -33.000
285.445;  -46.600; -229.000; -343.000
285.584; -180.600; -630.000; -494.000
285.724;  -76.400; -282.000; -322.000
285.863; -235.700; -857.000; -507.000
286.002; -100.300; -366.000; -276.000
286.142; -193.200; -715.000; -622.000
286.281; -119.500; -525.000; -493.000
286.420; -131.100; -554.000; -417.000
286.560;  202.200;  653.000;  623.000
286.699; -279.900; -958.000; -912.000
286.838; -156.100; -590.000; -591.000
286.978; -172.600; -533.000; -537.000
287.117; -247.600;-1085.000; -950.000
287.256;  -48.100; -228.000; -211.000
287.395;  -65.400; -197.000; -378.000
287.535;  -88.100; -370.000; -298.000
287.674; -140.600; -509.000; -484.000
287.813;  119.400;  661.000;  533.000
287.952; -256.000;-1010.000; -871.000
288.091; -278.100;-1049.000; -915.000
288.231;   41.300;   13.000;   15.000
288.370; -314.500;-1217.000;-1200.000
288.509; -185.300; -728.000; -645.000
288.648; -152.600; -770.000; -548.000
288.787;  -39.800; -243.000;  -87.000
288.926; -139.000; -454.000; -475.000
289.065;  303.900;  859.000;  672.000
289.204; -120.300; -377.000; -217.000
289.344; -187.000; -791.000; -690.000
289.483;   29.300;  416.000;  304.000
289.622;  -22.000; -291.000; -149.000
289.761;  -35.300; -309.000; -166.000
289.900; -233.000; -785.000; -626.000
290.039;  -17.500;  -12.000;  -95.000
290.178;  -34.300; -274.000; -180.000
290.317; -134.700; -618.000; -479.000
290.456;  -99.600; -463.000; -451.000
290.595; -286.600; -961.000; -833.000
290.734; -257.900; -904.000; -891.000
290.873;  -98.900; -456.000; -420.000
291.011; -214.300; -833.000; -843.000
291.150; -201.000; -770.000; -682.000
291.289;    2.900; -343.000; -110.000
291.428; -187.600; -599.000; -480.000
291.567; -116.000; -370.000; -442.000
291.706;    7.800;  109.000;  154.000
291.845; -166.300; -597.000; -505.000
291.984; -313.200;-1234.000;-1061.000
292.122;  149.100;  602.000;  582.000
292.261;  124.200;  620.000;  463.000
292.400;    6.600; -144.000;  211.000
292.539; -266.900; -959.000; -813.000
292.678;  -57.700; -325.000; -300.000
292.816; -334.400;-1136.000; -965.000
292.955; -185.100; -844.000; -684.000
293.094;  -21.400; -173.000; -337.000
293.233; -107.400; -556.000; -400.000
293.371;  -82.000; -225.000;  -84.000
293.510; -187.900; -866.000; -780.000
293.649; -246.800; -959.000; -924.000
293.787; -130.400;-1083.000;-1012.000
293.926;    5.200; -113.000;  -32.000
294.065;  -61.100; -379.000; -290.000
294.203;   95.400;  298.000;  406.000
294.342;   60.400;   74.000;  156.000
294.481;11105.200;51180.000; -836.000
294.619;  -45.400; -425.000; -582.000
294.758; -273.600;-1230.000;-1137.000
294.896;  167.300; -125.000;    5.000
295.035; -246.700;-1040.000;-1006.000
295.174; -238.500;-1082.000; -954.000
295.312;  -36.400; -323.000; -203.000
295.451;  -16.600; -307.000; -428.000
295.589;  -93.700; -389.000; -518.000
295.728;   35.900; -292.000; -165.000
295.866;   28.100;  -36.000;  -51.000
296.005; -135.800; -584.000; -341.000
296.143; -128.400; -558.000; -596.000
296.282; -175.000; -957.000; -881.000
296.420; -160.400; -657.000; -557.000
296.559; -170.700; -892.000; -633.000
296.697;   45.700; -847.000; -665.000
296.835;  102.000;-1141.000;-1002.000
296.974;  136.800;  -23.000;   39.000
297.112;   48.500; -443.000; -504.000
297.251; -145.900; -815.000; -755.000
297.389;  157.600; -576.000; -438.000
297.527;  126.800; -145.000;  -83.000
297.666; -100.200; -486.000; -438.000
297.804; -101.100; -404.000; -264.000
297.942;   40.500; -136.000; -161.000
298.081;   -8.000; -183.000;   63.000
298.219;  114.500;  -17.000;  -19.000
298.357;  149.000; -144.000;  -71.000
298.495;   51.700; -810.000; -812.000
298.634;  163.100;  245.000;  219.000
298.772;  141.700; -220.000; -338.000
298.910;  -69.800; -309.000; -182.000
299.048;   17.500; -130.000; -153.000
299.187;  -45.000; -350.000; -250.000
299.325;   42.300;   52.000;  122.000
299.463;   82.100; -389.000; -299.000
299.601;  214.100; -327.000; -271.000
299.739; -219.800; -908.000; -883.000
299.877; -162.600; -791.000; -703.000
300.016; -116.000;-1095.000; -935.000
300.154;  317.600;  -19.000; -161.000
300.292;  101.200; -428.000; -348.000
300.430;  105.200; -408.000; -291.000
300.568; -193.000; -940.000; -874.000
300.706;  -79.100; -366.000; -469.000
300.844; -183.400;-1108.000; -979.000
300.982;  235.700;  246.000;  282.000
301.120; -232.300; -965.000; -866.000
301.258; -109.000; -812.000; -705.000
301.396;  120.000;  104.000;  -41.000
301.534;  120.300; -218.000; -293.000
301.672;   -8.100; -664.000; -521.000
301.810;   72.100; -613.000; -545.000
301.948;  250.800;   53.000;  149.000
302.086; 1024.800; -250.000;  -32.000
302.224; 1635.800; -610.000; -585.000
302.362;  103.300; -558.000; -622.000
302.500;  -40.500; -923.000; -893.000
302.638;  235.300;  128.000;  245.000
302.776;  -14.200; -352.000; -408.000
302.913;  109.100;  447.000;  236.000
303.051;   16.800;  -86.000;  -23.000
303.189;  118.400;   90.000;  118.000
303.327;  -56.300; -341.000; -256.000
303.465; -131.400; -832.000; -588.000
303.603; -189.900; -805.000; -604.000
303.740;  233.900;  417.000;  241.000
303.878;   17.700; -800.000; -759.000
304.016; -160.700; -915.000; -790.000
304.154; -245.500;-1123.000;-1152.000
304.291;  -20.800; -505.000; -554.000
304.429;   54.400;  102.000;   74.000
304.567; -255.000; -908.000; -893.000
304.705;  -76.400; -408.000; -515.000
304.842;  147.100; -616.000; -540.000
304.980;  127.000;  215.000;   35.000
305.118;   75.700; -367.000; -365.000
305.255; -143.000; -945.000; -927.000
305.393;  150.500;  178.000;  239.000
305.531; -211.600;-1173.000; -956.000
305.668; -114.100; -663.000; -582.000
305.806;  172.400; -358.000; -439.000
305.943;  150.200; -629.000; -637.000
306.081;  125.800; -378.000; -267.000
306.219; -189.400; -863.000; -748.000
306.356;   66.500;  158.000;   27.000
306.494;  246.800;  981.000;  761.000
306.631;   13.600;  -11.000;  -55.000
306.769;   58.000; -613.000; -485.000
306.906;   18.200; -284.000; -258.000
307.044;  -85.800; -473.000; -488.000
307.181;  -93.500; -410.000; -332.000
307.319;   39.300;  112.000;   87.000
307.456; -325.000;-1191.000;-1153.000
307.594; -170.500; -980.000; -727.000
307.731;   26.700; -371.000; -164.000
307.868;   64.700;  -15.000;   20.000
308.006; -259.700; -961.000; -847.000
308.143;  -66.700; -618.000; -330.000
308.281;  340.400;  -37.000; -254.000
308.418;   41.500; -748.000; -640.000
308.555; -111.200; -400.000; -250.000
308.693; -123.500; -577.000; -573.000
308.830; -213.200; -712.000; -657.000
308.967;    7.800; -215.000;  -95.000
309.105;  -20.400; -507.000; -396.000
309.242;  125.200; -468.000; -367.000
309.379;  672.400; -577.000; -655.000
309.517;  -68.800; -936.000; -948.000
309.654; -165.900; -910.000; -734.000
309.791;  -91.700; -662.000; -580.000
309.928; -214.700; -977.000; -914.000
310.065;  432.200;  819.000;  697.000
310.203;  -26.000; -825.000; -850.000
310.340;   38.700; -465.000; -321.000
310.477; -113.900; -412.000; -516.000
310.614; -100.600; -383.000; -473.000
310.751;  -77.500; -427.000; -518.000
310.889;    6.500;    1.000;   11.000
311.026; -278.100;-1161.000; -939.000
311.163;  -29.800; -386.000; -380.000
311.300; -100.200; -512.000; -479.000
311.437; -124.200; -658.000; -619.000
311.574; -298.400;-1226.000; -985.000
311.711;  -75.100; -595.000; -433.000
311.848;  -55.400; -380.000; -388.000
311.985;   63.800;  270.000;   93.000
312.122; -222.600; -932.000; -762.000
312.259; -221.400; -941.000; -994.000
312.396;  -92.300; -508.000; -551.000
312.533; -121.200; -812.000; -790.000
312.670; -257.400;-1070.000; -898.000
312.807;  -11.300; -352.000; -367.000
312.944; -126.400; -513.000; -611.000
313.081;  -39.500; -150.000; -415.000
313.218; -172.200;-1111.000; -867.000
313.355;   25.600; -531.000; -449.000
313.492;   37.200; -455.000; -292.000
313.629;  307.600;  815.000;  735.000
313.766; -290.300;-1176.000;-1008.000
313.902;   24.200; -186.000;   21.000
314.039;  -51.800; -372.000; -289.000
314.176;  113.900;  286.000;  192.000
314.313; -132.600; -569.000; -473.000
314.450; -126.300; -788.000; -684.000
314.587;  -96.300; -468.000; -480.000
314.723;   55.100;  -78.000;  130.000
314.860;   98.300;  318.000;  332.000
314.997;  101.800;  223.000;  142.000
315.134;  -56.800; -385.000; -368.000
315.270;  -25.600; -480.000; -496.000
315.407; -218.400;-1094.000; -967.000
315.544;  -48.600; -657.000; -538.000
315.681; -142.300; -681.000; -565.000
315.817;   54.200; -133.000; -176.000
315.954;   42.500; -613.000; -392.000
316.091; -225.900;-1045.000;-1023.000
316.227;  -37.600;  -71.000; -179.000
316.364;   15.800;   23.000;    6.000
316.500;  -85.400; -113.000; -300.000
316.637;  -27.200; -181.000; -302.000
316.774; -147.800; -625.000; -358.000
316.910; -153.200; -598.000; -629.000
317.047;  -78.700; -487.000; -351.000
317.183;  -86.600; -435.000; -566.000
317.320;  -19.500; -367.000; -321.000
317.456; -100.100; -733.000; -805.000
317.593; -155.300; -598.000; -641.000
317.729;   27.900;  168.000;  -67.000
317.866; -401.300;-1434.000;-1285.000
318.002; -148.500; -708.000; -948.000
318.139; -186.200; -883.000; -867.000
318.275; -179.100;-1003.000; -738.000
318.412;  -96.700; -517.000; -336.000
318.548;  -41.600; -751.000; -720.000
318.685; -170.600; -985.000; -888.000
318.821; -179.000; -762.000; -735.000
318.957;    8.600;   34.000;  -23.000
319.094;  101.000;  297.000;  154.000
319.230; -142.700; -756.000; -742.000
319.367;  225.700; -471.000; -520.000
319.503;  111.600; -538.000; -436.000
319.639; -164.400; -877.000; -793.000
319.775; -116.100; -750.000; -685.000
319.912;  -98.400; -424.000; -519.000
320.048; -186.200;-1184.000;-1184.000
320.184;  179.000;   59.000;   70.000
320.321;  -86.400; -497.000; -467.000
320.457;  150.600;  475.000;  662.000
320.593;  -90.000; -375.000; -382.000
320.729; -180.400; -732.000; -734.000
320.866; -131.300; -577.000; -635.000
321.002; -150.000; -759.000; -809.000
321.138;  -19.000; -135.000; -211.000
321.274;  161.400; -148.000; -115.000
321.410;  -50.100; -585.000; -353.000
321.546;  -55.000;-1011.000; -911.000
321.683;  118.800;  400.000;  185.000
321.819;   14.300;  -48.000; -117.000
321.955; -196.500; -743.000; -722.000
322.091;  -86.200; -585.000; -540.000
322.227;   11.600; -382.000; -202.000
322.363;   24.500; -320.000; -215.000
322.499;  -53.900; -343.000; -331.000
322.635;  379.900;  636.000;  443.000
322.771;   66.500; -139.000;   12.000
322.907;  216.400;  129.000;  327.000
323.043;  -27.900; -115.000; -206.000
323.179;  -48.700; -394.000; -363.000
323.315;   54.500; -401.000; -371.000
323.451;  197.800; -328.000; -236.000
323.587;  127.900;  -60.000;  -77.000
323.723;   13.000; -682.000; -601.000
323.859;  -50.200; -258.000;  -76.000
323.995;  -39.400; -467.000; -409.000
324.131; -215.900; -967.000; -892.000
324.267;  -37.900; -254.000; -276.000
324.402; -252.800; -960.000; -983.000
324.538;    1.600; -279.000; -104.000
324.674;   51.300;  164.000;   77.000
324.810;  344.600;  226.000;  308.000
324.946;   77.400; -810.000; -658.000
325.082; -116.800; -568.000; -475.000
325.217;   -2.200;  -62.000;   16.000
325.353; -147.800; -764.000; -659.000
325.489; -159.400; -540.000; -506.000
325.625; -116.700; -579.000; -525.000
325.760;  147.100;  517.000;  376.000
325.896;  -21.100; -515.000; -702.000
326.032;  -95.700; -403.000; -352.000
326.168;  -79.800; -462.000; -369.000
326.303;  -91.400; -352.000; -461.000
326.439;    0.700; -336.000; -276.000
326.575;   21.500; -190.000;  -29.000
326.710;   44.300; -156.000;  -30.000
326.846;    5.900;  146.000;  103.000
326.982; -145.100; -530.000; -548.000
327.117; -103.800; -481.000; -442.000
327.253; -141.700; -745.000; -742.000
327.388; -250.900;-1137.000;-1153.000
327.524;  -27.900; -811.000; -578.000
327.659;   -6.500;  -58.000;  -22.000
327.795;    2.200;   69.000;   45.000
327.931; -147.100; -723.000; -499.000
328.066;    9.700; -417.000; -276.000
328.202;    7.900;   12.000; -129.000
328.337;  267.600;  957.000;  713.000
328.473;  -10.900;  -12.000;  -74.000
328.608;  -54.300; -256.000; -267.000
328.743; -136.800; -799.000; -664.000
328.879;   63.900;  214.000;  114.000
329.014; -103.900; -102.000; -122.000
329.150; -146.900; -358.000; -483.000
329.285; -120.600; -465.000; -466.000
329.421;  -60.200; -548.000; -246.000
329.556;    9.400;  -36.000;   85.000
329.691; -136.100; -633.000; -615.000
329.827; -153.300; -626.000; -480.000
329.962;  -56.600;  131.000; -301.000
330.097; -157.000; -673.000; -585.000
330.233;  -64.200; -410.000; -223.000
330.368; -223.500; -839.000; -628.000
330.503;   -1.900;    3.000;   98.000
330.638;    8.700;  -93.000; -125.000
330.774;  -98.500; -609.000; -530.000
330.909;  -86.100; -434.000; -244.000
331.044; -167.400; -714.000; -708.000
331.179; -305.800;-1217.000;-1109.000
331.315;   62.900;   77.000;   20.000
331.450;   37.700;  157.000;  285.000
331.585; -160.400; -805.000; -706.000
331.720; -147.100; -510.000; -460.000
331.855;   24.000;  -35.000; -102.000
331.990;  454.100;   62.000;  138.000
332.126;  276.100; -110.000;   71.000
332.261;  -26.200; -379.000; -265.000
332.396;   18.900; -135.000; -242.000
332.531; -193.200;-1074.000;-1031.000
332.666;   89.700; -519.000; -363.000
332.801; -191.800; -726.000; -807.000
332.936;    3.000; -192.000; -122.000
333.071; -240.600; -870.000; -817.000
333.206;  102.500;  307.000;  379.000
333.341;  100.200;  344.000;  418.000
333.476; -142.100; -627.000; -623.000
333.611;  -37.800; -251.000; -173.000
333.746;  -55.000; -381.000; -464.000
333.881; -208.300; -973.000; -935.000
334.016; -233.500; -936.000; -917.000
334.151; -222.000; -746.000; -702.000
334.286;  105.200;  152.000;  186.000
334.421;  -26.600; -125.000; -178.000
334.556; -115.600; -611.000; -567.000
334.690; -142.100; -631.000; -577.000
334.825;  143.300;  381.000;   83.000
334.960;  -80.600; -285.000; -413.000
335.095;   67.600;  135.000;  -91.000
335.230; -140.700; -722.000; -738.000
335.365; -268.000;-1084.000; -990.000
335.499; -239.200;-1108.000;-1037.000
335.634;   82.300;    9.000;  534.000
335.769; -180.800; -755.000; -720.000
335.904; -107.000; -603.000; -561.000
336.038;  -81.000; -735.000; -657.000
336.173; -190.900;-1206.000;-1194.000
336.308;   11.300; -116.000; -189.000
336.443;   50.500; -544.000; -634.000
336.577; -147.000; -936.000; -787.000
336.712;  141.000;   -4.000;  -12.000
336.847;  -98.500; -724.000; -607.000
336.981;  143.300; -272.000; -208.000
337.116;  583.500;  615.000;  501.000
337.250;  279.300; -434.000; -421.000
337.385;  443.000; -297.000; -208.000
337.520;  145.200; -632.000; -603.000
337.654;  -50.200; -215.000; -126.000
337.789; -222.900; -989.000; -933.000
337.923;  -36.100; -104.000; -205.000
338.058; -144.500; -673.000; -738.000
338.192;  -21.700; -611.000; -488.000
338.327;   20.600;  -18.000; -155.000
338.461; -116.700; -299.000; -469.000
338.596; -133.000; -780.000; -638.000
338.730; -213.700; -767.000; -803.000
338.865;  184.000;  -46.000; -140.000
338.999; -112.800; -846.000; -702.000
339.134;  -23.500; -634.000; -536.000
339.268;   15.000; -741.000; -603.000
339.403;  648.700; -740.000; -775.000
339.537;  247.000; -894.000; -820.000
339.671; -177.900; -829.000; -813.000
339.806; -112.300; -556.000; -512.000
339.940;   76.900; -261.000; -235.000
340.074; -171.600; -685.000; -510.000
340.209;  -66.400; -351.000; -230.000
340.343; -156.200; -517.000; -573.000
340.477;  335.700;  998.000; 1036.000
340.612; -116.400;-1033.000; -900.000
340.746;  250.500; -199.000; -243.000
340.880; -107.800; -924.000; -785.000
341.014;    2.500;  -45.000; -154.000
341.149; -208.700; -756.000; -718.000
341.283; -191.900; -839.000; -754.000
341.417; -176.500;-1124.000; -938.000
341.551;  242.500; -768.000; -708.000
341.685;  -63.800; -633.000; -611.000
341.820;  -94.100; -562.000; -493.000
341.954;  -84.500; -218.000; -349.000
342.088; -284.600;-1102.000;-1019.000
342.222;  101.500;  565.000;  618.000
342.356; -106.100; -395.000; -335.000
342.490; -152.800; -880.000; -841.000
342.624;  -49.500; -339.000; -242.000
342.758;   19.500; -364.000; -312.000
342.892; -115.100; -710.000; -585.000
343.026;  -31.400;  -58.000; -116.000
343.160;  -83.500; -426.000; -376.000
343.294; -128.800; -474.000; -337.000
343.428;  -19.500; -488.000; -448.000
343.562;   -9.100; -172.000;  -23.000
343.696;  -33.500; -385.000; -314.000
343.830;  -38.400; -362.000; -356.000
343.964;   76.700; -231.000; -168.000
344.098; 1572.300;  199.000;   70.000
344.232; 1355.900; -266.000; -127.000
344.366;  133.300; -567.000; -453.000
344.500;  138.200; -665.000; -744.000
344.634;   76.800; -324.000; -164.000
344.768;  -18.800; -531.000; -341.000
344.902;  100.500;  278.000;  256.000
345.035; -110.200; -556.000; -496.000
345.169; -249.300; -933.000; -656.000
345.303;  -11.400; -308.000; -482.000
345.437; -142.100; -826.000; -717.000
345.571; -115.800; -675.000; -594.000
345.704; -100.900; -309.000; -532.000
345.838;   -7.300; -331.000; -284.000
345.972;  -75.800; -543.000; -495.000
346.106;  320.800; -179.000; -190.000
346.239;  783.600; -312.000; -243.000
346.373;    9.500; -343.000; -302.000
346.507; -254.300; -950.000; -962.000
346.640;  297.300;  -30.000;   13.000
346.774;  -75.600; -650.000; -797.000
346.908;  -10.000; -138.000;  -11.000
347.041; -176.500; -646.000; -593.000
347.175;   51.700;  259.000;   27.000
347.309; -128.300; -698.000; -628.000
347.442; -192.300; -883.000; -732.000
347.576;  530.000;  670.000;  668.000
347.709;  373.500; -123.000;  -52.000
347.843; -134.000; -933.000; -825.000
347.976;  102.000;  235.000;  294.000
348.110; -339.000;-1268.000;-1186.000
348.243; -180.700; -679.000; -772.000
348.377;   29.200;  -26.000;   60.000
348.510;  151.900;  403.000;  540.000
348.644;  -44.000;  -37.000; -159.000
348.777;   46.600;  180.000;  191.000
348.911;  -80.100; -142.000; -112.000
349.044;  369.500;  471.000;  448.000
349.178;  260.400;-1069.000;-1006.000
349.311;  222.100;  141.000;  255.000
349.444;  -37.600; -927.000; -813.000
349.578;   11.700; -347.000; -200.000
349.711; -183.200; -959.000; -862.000
349.845;   28.700; -661.000; -591.000
349.978; -273.300;-1224.000;-1137.000
350.111; -138.100; -546.000; -612.000
350.244; -149.000; -596.000; -700.000
350.378;   51.800; -392.000; -393.000
350.511;  -92.400; -393.000; -426.000
350.644; -205.600; -808.000; -806.000
350.778;   55.000;  168.000;  104.000
350.911;   34.000;  134.000;  140.000
351.044; -150.400; -685.000; -615.000
351.177;  -40.900; -321.000; -281.000
351.310;   -5.500;    3.000; -131.000
351.444; -172.300; -888.000; -788.000
351.577;  248.200;  140.000;   90.000
351.710;  232.600;  593.000;  417.000
351.843;  -32.500; -165.000;  -77.000
351.976;   52.300;  149.000;  -79.000
352.109; -152.700; -621.000; -612.000
352.242;  -23.200; -464.000; -419.000
352.376;  -85.400; -580.000; -636.000
352.509;  321.900; -437.000; -356.000
352.642;  -20.200; -654.000; -604.000
352.775;  151.300; -141.000;  -98.000
352.908; -217.300; -933.000; -904.000
353.041; -159.900; -814.000; -824.000
353.174; -102.200; -551.000; -424.000
353.307; -158.900; -753.000; -764.000
353.440;  154.400;  541.000;  453.000
353.573; -202.200; -957.000;-1008.000
353.706;  -67.300; -384.000; -558.000
353.839;  -25.800; -264.000; -220.000
353.971; -191.300; -657.000; -512.000
354.104; -146.300; -896.000; -835.000
354.237;  -47.000; -627.000; -662.000
354.370; -148.300; -846.000; -879.000
354.503; -330.200;-1231.000;-1308.000
354.636;    0.300; -529.000; -348.000
354.769; -231.300; -937.000; -860.000
354.902;    3.900; -230.000; -139.000
355.034;   -9.400; -164.000; -220.000
355.167;   -8.700; -262.000; -162.000
355.300; -176.800;-1061.000; -880.000
355.433; 1787.800;  -71.000;  -14.000
355.565; 2712.500; -402.000; -384.000
355.698;  675.900; -356.000; -296.000
355.831;  -16.300; -882.000; -801.000
355.964;  166.500; -285.000; -170.000
356.096; -139.000; -856.000; -843.000
356.229;   37.400; -523.000; -530.000
356.362;  611.000; -373.000; -266.000
356.494; 1079.200; -229.000; -162.000
356.627;  895.500;  269.000;  377.000
356.760; 1226.400;  120.000;   53.000
356.892; 1654.600; -286.000; -601.000
357.025; 1204.200;  403.000;  389.000
357.157; 1121.100; -167.000; -179.000
357.290; 1184.200; -856.000; -713.000
357.423;  335.800; -667.000; -556.000
357.555;  222.100; -217.000; -228.000
357.688;  215.900; -483.000; -364.000
357.820;  724.900; -870.000; -877.000
357.953; 6222.600; -563.000; -589.000
358.085; 1363.000; -632.000; -612.000
358.218; 2114.600;-1131.000; -932.000
358.350;  388.200;  -58.000;  312.000
358.483; -228.300;-1300.000;-1187.000
358.615;  -13.300;-1182.000;-1078.000
358.747; -119.200;-1187.000;-1058.000
358.880;   79.400; -810.000; -744.000
359.012;  -18.200; -376.000; -202.000
359.145;  -29.300; -480.000; -511.000
359.277;   98.400; -962.000; -913.000
359.409; 5162.600;  536.000;  231.000
359.542; 1317.400; -738.000; -688.000
359.674;  168.200;   46.000;   13.000
359.806;  -92.900; -565.000; -438.000
359.939;  -30.300; -617.000; -516.000
360.071;  -44.000; -583.000; -579.000
360.203;  -38.200; -411.000; -364.000
360.335;  125.300;  164.000;  -16.000
360.468;  350.800; -249.000; -307.000
360.600; 4144.600; -547.000; -454.000
360.732; 4854.700; -546.000; -423.000
360.864;  646.800;-1216.000;-1044.000
360.996;  564.500; -516.000; -554.000
361.129;   99.600; -389.000; -598.000
361.261;   92.800;  110.000; -113.000
361.393;  -41.200; -252.000; -214.000
361.525;  107.900;   94.000;  244.000
361.657;  -73.300; -821.000; -703.000
361.789;   63.100; -139.000; -155.000
361.921;  419.800; -642.000; -593.000
362.053;  519.300;  524.000;  541.000
362.185;  115.500;  288.000;   72.000
362.318; -137.600; -709.000; -705.000
362.450;  286.400;  294.000;  444.000
362.582;  246.400; -913.000; -870.000
362.714;  -44.000; -353.000; -332.000
362.846; -130.900; -606.000; -490.000
362.978; -234.700; -941.000; -811.000
363.109;  110.100; -161.000; -260.000
363.241;  822.500; -739.000; -749.000
363.373;  770.800; -649.000; -564.000
363.505; 1161.700; -186.000;  -91.000
363.637;  294.200; -787.000; -601.000
363.769; -253.900;-1067.000;-1080.000
363.901;  -76.900; -596.000; -654.000
364.033; -238.800;-1103.000;-1062.000
364.165;   31.400; -283.000; -283.000
364.296;  156.800; -316.000; -177.000
364.428;   88.700;-1344.000;-1220.000
364.560;  -91.200; -679.000; -661.000
364.692; -107.100; -738.000; -835.000
364.824;  465.600; -588.000; -456.000
364.955;  814.000; -402.000; -564.000
365.087; 1616.900;-1097.000; -852.000
365.219;   64.600; -686.000; -816.000
365.351; -131.600; -526.000; -572.000
365.482;  134.100;  300.000;  240.000
365.614;  -42.500; -402.000; -314.000
365.746; -146.500; -729.000; -752.000
365.877; -180.000; -706.000; -672.000
366.009;  483.700;  -35.000;  -62.000
366.141; -182.700;-1249.000;-1134.000
366.272; -170.700; -803.000; -719.000
366.404; -192.700;-1005.000; -874.000
366.535;   27.300; -139.000;  -12.000
366.667; -184.600; -644.000; -649.000
366.799;  109.800;  353.000;  203.000
366.930; -218.900; -862.000; -996.000
367.062;  249.300; -639.000; -613.000
367.193;  247.000; -872.000; -842.000
367.325;  -89.500; -580.000; -684.000
367.456;  179.700; -246.000;   31.000
367.588;  319.300; -371.000; -318.000
367.719;   71.000;  -44.000;  -45.000
367.851;    1.600; -222.000; -241.000
367.982;  -77.300; -875.000; -732.000
368.113;  207.400; -475.000; -358.000
368.245; -218.900; -960.000; -841.000
368.376;   11.400; -254.000; -302.000
368.508;  -31.200; -188.000; -263.000
368.639; -279.900;-1166.000;-1034.000
368.770;   -2.800; -670.000; -589.000
368.902;  -95.000; -836.000; -926.000
369.033; -178.900; -906.000; -855.000
369.164;  -90.900; -720.000; -653.000
369.296; -187.700; -452.000; -601.000
369.427;   57.400; -209.000; -144.000
369.558;  -75.000; -593.000; -377.000
369.689; -134.500; -721.000; -569.000
369.821; -229.700; -951.000; -845.000
369.952;    9.300;   42.000; -108.000
370.083;  -73.700; -229.000; -108.000
370.214; -140.800; -735.000; -650.000
370.345;   25.100;   65.000;   81.000
370.477; -148.100; -810.000; -790.000
370.608;  439.200; -328.000; -264.000
370.739;  -76.700;-1233.000;-1292.000
370.870;  -43.700;-1102.000; -923.000
371.001;  193.400; -378.000; -467.000
371.132; -110.800; -754.000; -735.000
371.263;   24.700;  -42.000; -148.000
371.394; -224.900; -841.000; -748.000
371.525;   80.000;  345.000;  225.000
371.657; -161.900; -808.000; -670.000
371.788;  167.200;  103.000;  199.000
371.919;  326.900; -384.000; -304.000
372.050; 6265.300;  -91.000; -156.000
372.181; 1747.800; -188.000; -294.000
372.311;  733.700;   42.000; -127.000
372.442;   42.600; -457.000; -451.000
372.573;  -10.000; -444.000; -340.000
372.704; -230.400;-1008.000; -980.000
372.835;  140.900; -228.000; -289.000
372.966;  -97.300; -646.000; -554.000
373.097;  -74.900; -575.000; -711.000
373.228;  -83.100; -717.000; -542.000
373.359;  244.800; -824.000; -536.000
373.490; 1665.900; -881.000; -727.000
373.620; 2018.600;-1001.000; -803.000
373.751; 3168.100; -332.000; -396.000
373.882; 1392.200; -663.000; -733.000
374.013;  142.800; -449.000; -262.000
374.143;  -55.800; -581.000; -659.000
374.274; -204.200; -987.000; -908.000
374.405;  336.200; -388.000; -276.000
374.536;  807.700; -526.000; -387.000
374.666; 1987.700; -759.000; -807.000
374.797;  373.000; -817.000; -868.000
374.928; 1495.600; -710.000; -560.000
375.058; 1606.500; -535.000; -500.000
375.189;  166.000;  -59.000;  -93.000
375.320; -209.600; -928.000;-1034.000
375.450;  -69.400; -625.000; -616.000
375.581; -107.600; -526.000; -436.000
375.712;   -4.900; -574.000; -250.000
375.842;  551.000; -438.000; -415.000
375.973;  378.300; -554.000; -513.000
376.103;  -60.100; -665.000; -648.000
376.234; -111.300; -531.000; -552.000
376.364;  -51.100; -944.000; -867.000
376.495;  622.100;  925.000;  529.000
376.625;  -14.400; -472.000; -485.000
376.756;  127.100; -709.000; -678.000
376.886; -150.900;-1178.000;-1026.000
377.017;  102.100;-1048.000;-1061.000
377.147;  608.700; -786.000; -782.000
377.278;  157.800;  174.000;  228.000
377.408; -244.600; -801.000; -815.000
377.538; -149.900; -707.000; -693.000
377.669; -110.700; -537.000; -613.000
377.799; -127.500; -645.000; -635.000
377.929;  -91.500; -610.000; -428.000
378.060; -203.800; -781.000; -847.000
378.190;  -72.100; -726.000; -531.000
378.320;  -67.300; -401.000; -406.000
378.451;   16.500; -131.000;  -22.000
378.581;   35.500;  -67.000; -110.000
378.711;  333.300; 1035.000;  866.000
378.841;   24.500; -533.000; -675.000
378.972;  -95.300; -871.000; -751.000
379.102;   13.500; -652.000; -579.000
379.232;  -18.100; -126.000;  -73.000
379.362; -210.200;-1001.000; -885.000
379.492;   78.200; -373.000; -424.000
379.623;  234.400;    0.000;  111.000
379.753; -151.100;-1107.000; -974.000
379.883;  433.900;   59.000;  156.000
380.013;    1.700;-1081.000;-1017.000
380.143; -176.900;-1097.000;-1056.000
380.273; -173.800; -985.000; -861.000
380.403;   51.000; -344.000; -257.000
380.533;  -50.200; -651.000; -664.000
380.663;  200.500;  173.000;  128.000
380.793; -146.900;-1027.000;-1074.000
380.923;   -5.900; -103.000;  -34.000
381.053; -146.300; -613.000; -623.000
381.183;    9.200; -106.000; -248.000
381.313;   64.400; -656.000; -470.000
381.443;  121.800; -692.000; -473.000
381.573;  387.900; -402.000; -409.000
381.703;  540.800;-1249.000;-1095.000
381.833; -244.900;-1454.000;-1336.000
381.963;  258.000; -134.000;  -87.000
382.093; 2429.700; -925.000; -909.000
382.223;  658.900; -713.000; -602.000
382.353;  -13.600; -801.000; -608.000
382.482;  678.300;-1091.000; -964.000
382.612; 1343.600; -872.000; -644.000
382.742;  761.700; -695.000; -622.000
382.872;  475.600; -565.000; -551.000
383.002;  166.600;  347.000; -132.000
383.131;   35.200; -226.000; -160.000
383.261;  -36.100; -706.000; -768.000
383.391;  508.200; -552.000; -377.000
383.521; 5653.300;  451.000;  263.000
383.650; 1251.600; -947.000; -904.000
383.780;    7.100; -783.000; -656.000
383.910;  273.700;  880.000;  802.000
384.039;   66.100; -794.000; -656.000
384.169;  380.000;-1205.000;-1017.000
384.299;  -32.900; -650.000; -662.000
384.428; -124.000; -764.000; -680.000
384.558;  -21.600; -308.000; -275.000
384.687;  -35.400; -414.000; -334.000
384.817;   98.700;   75.000;   -2.000
384.947;   95.400; -234.000; -141.000
385.076;  617.600;  982.000;  912.000
385.206;  232.100;  369.000;  480.000
385.335;  -23.000; -549.000; -417.000
385.465; -115.200; -655.000; -663.000
385.594;  307.700;  -53.000;  -44.000
385.724;  793.600; -868.000; -838.000
385.853;  256.800; -296.000; -270.000
385.982; 2480.200; -743.000; -787.000
386.112; 3676.900;-1052.000; -871.000
386.241;  300.900; -307.000; -312.000
386.371;   67.500; -174.000;  -87.000
386.500;   31.400; -825.000; -789.000
386.629;   70.100; -874.000; -817.000
386.759;  194.300;  -43.000;   68.000
386.888;   78.100; -170.000; -250.000
387.017;  -92.600; -648.000; -620.000
387.147; -102.000; -771.000; -798.000
387.276;   24.600; -410.000; -397.000
387.405;   81.400; -398.000; -342.000
387.535;  -48.800; -452.000; -361.000
387.664;  -84.300; -692.000; -620.000
387.793;  143.500; -198.000; -113.000
387.922; 1040.400;  255.000;  200.000
388.052;   89.100; -576.000; -423.000
388.181;  113.400; -342.000; -472.000
388.310;   43.700; -889.000; -710.000
388.439;  -14.000; -749.000; -742.000
388.568;  396.100;  365.000;  244.000
388.697; 1855.400; -756.000; -653.000
388.826;  353.200; -768.000; -666.000
388.956;  176.900; -285.000; -307.000
389.085;  -13.600; -347.000; -287.000
389.214; -195.300; -842.000; -872.000
389.343; -104.400; -645.000; -413.000
389.472;  839.600;  126.000;  149.000
389.601;  962.300;   91.000;    0.000
389.730;   55.100; -568.000; -687.000
389.859;  183.200;  226.000;   46.000
389.988;  412.700; -423.000; -408.000
390.117;  273.400; -168.000; -146.000
390.246;    1.600; -331.000; -320.000
390.375;  235.300; -673.000; -626.000
390.504;  -98.100; -703.000; -621.000
390.633; -125.800; -672.000; -726.000
390.761;  -83.800; -732.000; -645.000
390.890;  129.900;   -4.000; -130.000
391.019;    0.700; -421.000; -441.000
391.148; -175.800; -826.000; -855.000
391.277;  -63.900; -576.000; -493.000
391.406;  -83.200; -821.000; -805.000
391.534;  118.500;  574.000; -301.000
391.663;  -79.700; -583.000; -645.000
391.792; -107.400; -673.000; -701.000
391.921;  237.300;   -3.000;   15.000
392.050;  404.900; -287.000; -228.000
392.178;  -47.600;-1206.000;-1061.000
392.307;  260.000; -758.000; -712.000
392.436;  128.900; -427.000; -641.000
392.564;   90.500;  166.000;   -6.000
392.693; -162.900; -860.000; -682.000
392.822;  432.400; -529.000; -534.000
392.950;  176.000; -880.000; -714.000
393.079;  600.200; -188.000; -328.000
393.208;   51.300; -488.000; -511.000
393.336;   45.900; -170.000; -145.000
393.465;  -51.100; -317.000; -199.000
393.593;  122.300;   62.000;   79.000
393.722; -270.100;-1121.000; -916.000
393.850;    2.900; -188.000;  -61.000
393.979; -246.100; -926.000; -805.000
394.107;  -70.200; -517.000; -537.000
394.236;  -19.600; -570.000; -507.000
394.364;  483.300;  383.000;  206.000
394.493;  771.300; -911.000; -767.000
394.621;    9.000; -955.000; -916.000
394.750; 1319.500; -873.000; -923.000
394.878; 5523.000; -247.000; -149.000
395.007; 7122.700; -721.000; -807.000
395.135;  499.500; -790.000; -721.000
395.263; -138.700;-1038.000;-1040.000
395.392;   39.700;  -25.000; -107.000
395.520; -143.800; -818.000; -679.000
395.648; -158.900; -865.000; -915.000
395.777;   12.200; -366.000; -405.000
395.905;  -61.100; -449.000; -564.000
396.033;   37.400;  217.000;  172.000
396.162; 1332.100; -399.000; -453.000
396.290; 1062.000;  -17.000;   -2.000
396.418;  189.800; -555.000; -514.000
396.546; -152.900; -571.000; -466.000
396.674; -158.000; -850.000; -878.000
396.803;   53.900;  -72.000;  -23.000
396.931;  211.500; -179.000; -199.000
397.059;   94.000;-1026.000; -989.000
397.187; -195.200;-1026.000; -975.000
397.315; -229.600; -884.000; -649.000
397.443; -132.600; -592.000; -443.000
397.572; -139.900; -578.000; -424.000
397.700;   -9.100; -607.000; -614.000
397.828;   45.000;  120.000;  -90.000
397.956;  -38.200; -508.000; -478.000
398.084; -106.600; -767.000; -626.000
398.212;  113.200;  137.000;  124.000
398.340;   59.800;  -56.000;  159.000
398.468;   99.600; -390.000; -169.000
398.596; -267.200; -993.000; -953.000
398.724; -187.700; -762.000; -767.000
398.852; -305.400;-1024.000; -976.000
398.980;  -78.700; -560.000; -560.000
399.108;  -90.400; -982.000; -735.000
399.236;  123.400;   13.000;    8.000
399.363;  103.100;  222.000;  196.000
399.491;  -59.000; -404.000; -398.000
399.619; -211.000; -829.000; -800.000
399.747; -162.400; -859.000; -771.000
399.875;  188.700;  220.000;  234.000
400.003;  -50.900; -359.000; -284.000
400.130; -167.200; -421.000; -341.000
400.258;    6.000;  -83.000;   38.000
400.386;  -86.800; -352.000; -168.000
400.514;  -47.500; -526.000; -587.000
400.641; -174.900; -928.000; -802.000
400.769; -255.100; -979.000; -888.000
400.897; -147.800; -838.000; -793.000
401.025;   18.000; -166.000; -152.000
401.152;   58.500;  220.000;   38.000
401.280;  -90.600; -430.000; -429.000
401.408; -199.100; -712.000; -576.000
401.535; -166.300; -735.000; -758.000
401.663; -362.100;-1134.000;-1054.000
401.790; -126.500; -514.000; -525.000
401.918;  153.400;  436.000;  405.000
402.046;   35.000;  134.000;  122.000
402.173;   -5.100;  -18.000;    7.000
402.301;  -83.800; -519.000; -397.000
402.428;  126.300;  528.000;  383.000
402.556; -241.100;-1188.000; -913.000
402.683;   -4.200;  -20.000;   -1.000
402.811;   10.100;  -37.000; -206.000
402.938;   31.900;   20.000;   27.000
403.066;  322.100; -574.000; -558.000
403.193;  573.600;  299.000;  239.000
403.321;  478.300; -396.000; -574.000
403.448;  566.800;   83.000;   27.000
403.575;  286.700;  -90.000;  -46.000
403.703; -165.000; -732.000; -557.000
403.830;  -66.300; -531.000; -496.000
403.957; -229.900;-1117.000;-1023.000
404.085;   43.600;  -61.000; -172.000
404.212;  234.400;  -50.000;   63.000
404.339;  523.800; -566.000; -306.000
404.467;10807.400; -612.000; -524.000
404.594; 6714.000; -287.000; -227.000
404.721; 1555.400; -869.000; -764.000
404.848;  186.900; -113.000; -202.000
404.976; -179.100; -856.000; -783.000
405.103;   27.200;  -14.000;  -82.000
405.230;   62.400;  190.000;  226.000
405.357;  122.200;  117.000;   44.000
405.484;  559.100;  -49.000;    5.000
405.612;   85.600; -548.000; -563.000
405.739;  -89.900; -488.000; -243.000
405.866;  236.500;  669.000;  385.000
405.993;  -53.000; -398.000; -102.000
406.120; -214.600; -801.000; -887.000
406.247;  -70.600; -323.000; -342.000
406.374;  905.300;  540.000;  629.000
406.501;  172.800; -632.000; -702.000
406.628; -113.300; -621.000; -589.000
406.755; -163.500; -803.000; -620.000
406.882;  -42.200; -228.000; -277.000
407.009; -165.200; -719.000; -628.000
407.136;  125.500; -480.000; -401.000
407.263;  265.900; -939.000; -829.000
407.390;  -68.800; -692.000; -614.000
407.517; -277.500;-1139.000;-1187.000
407.644;  -46.900; -332.000; -256.000
407.771;  -74.400; -249.000; -287.000
407.898;   67.400;  168.000;  328.000
408.025;  -80.800; -421.000; -313.000
408.151;   81.500;   82.000;  153.000
408.278; -114.000; -267.000; -216.000
408.405; -164.000; -931.000; -899.000
408.532;  -97.800; -549.000; -542.000
408.659; -171.000; -677.000; -648.000
408.785; -379.500;-1298.000;-1170.000
408.912;  -59.900; -412.000; -296.000
409.039; -186.200; -610.000; -686.000
409.166; -138.900; -591.000; -555.000
409.292; -168.700; -571.000; -534.000
409.419; -213.100; -665.000; -649.000
409.546; -115.900; -431.000; -192.000
409.672; -161.600; -713.000; -545.000
409.799;   10.600;  -36.000;   34.000
409.926;  -48.000; -180.000; -179.000
410.052; -287.800;-1127.000;-1091.000
410.179;  -66.400; -368.000; -392.000
410.305; -107.900; -375.000; -493.000
410.432;  -39.000; -220.000; -333.000
410.558; -131.700; -305.000; -380.000
410.685; -140.300; -688.000; -431.000
410.812; -168.000; -409.000; -588.000
410.938; -219.700; -964.000; -808.000
411.065; -173.900; -671.000; -645.000
411.191;   -6.000; -189.000; -174.000
411.317; -180.800; -823.000; -742.000
411.444;  -46.400; -317.000; -246.000
411.570;  -91.800; -339.000; -294.000
411.697; -202.100; -758.000; -752.000
411.823; -297.700; -989.000; -999.000
411.949;   -1.600;  -56.000;   17.000
412.076; -156.700; -539.000; -519.000
412.202; -196.900; -758.000; -757.000
412.329; -207.300; -798.000; -752.000
412.455; -163.500; -821.000; -657.000
412.581;  -22.800;  -15.000;  172.000
412.707;  -67.100; -540.000; -457.000
412.834;   55.700;  156.000;  219.000
412.960; -111.000; -785.000; -784.000
413.086; -172.600; -743.000; -701.000
413.212;  351.400;  604.000;  578.000
413.339; -129.200; -685.000; -701.000
413.465;   53.800; -364.000; -310.000
413.591; -173.100; -757.000; -474.000
413.717;  -82.400; -358.000; -366.000
413.843; -245.700; -839.000; -861.000
413.969;  -65.800;  -47.000; -292.000
414.096; -156.200; -679.000; -679.000
414.222;   36.500;  -33.000;   85.000
414.348;  -17.500; -652.000; -385.000
414.474;  230.700;   38.000;  -52.000
414.600;   35.400; -126.000; -144.000
414.726;   32.200;  -96.000;  -55.000
414.852;  -91.900; -365.000; -342.000
414.978;  117.400;  104.000;  -18.000
415.104;  100.000;   38.000;   80.000
415.230;   95.000; -329.000; -330.000
415.356;  100.000; -409.000; -514.000
415.482;  411.200;   13.000;  -35.000
415.608;  566.100; -247.000; -323.000
415.734; 1898.800;   67.000;   38.000
415.860;38181.000; -875.000; -767.000
415.986;25080.700; -685.000; -607.000
416.111; 2091.100; -798.000; -652.000
416.237;  451.000; -424.000; -571.000
416.363; 2222.800; -765.000; -733.000
416.489; 7427.200; -324.000; -251.000
416.615;  754.400; -707.000; -742.000
416.741;   14.900; -677.000; -784.000
416.866; -128.900; -673.000; -736.000
416.992; -190.800; -801.000; -818.000
417.118;  -33.800;  -41.000;  -80.000
417.244;  -88.300; -798.000; -531.000
417.369; -149.800; -801.000; -612.000
417.495;   52.300; -325.000; -254.000
417.621; -162.900;-1015.000; -803.000
417.746;   33.600; -579.000; -572.000
417.872;  148.700; -254.000; -144.000
417.998;  141.700; -515.000; -530.000
418.123; 2165.900;-1073.000; -845.000
418.249; 9795.400; -512.000; -601.000
418.374; 1175.400; -916.000; -824.000
418.500;  223.800; -383.000; -482.000
418.626;  269.900;   70.000;  -59.000
418.751;  249.400; -549.000; -448.000
418.877;  337.800; -637.000; -643.000
419.002; 3694.800; -688.000; -560.000
419.128;22940.600; -930.000; -721.000
419.253; 5017.100; -967.000; -837.000
419.379;  713.100; -391.000; -338.000
419.504;  777.900;  325.000;  415.000
419.629;  970.000; -393.000; -212.000
419.755; 7027.000; -317.000; -254.000
419.880;37529.200;  -98.000;   67.000
420.006;21046.600; -280.000; -221.000
420.131;51720.300; -662.000; -775.000
420.256; 6822.900; -315.000; -316.000
420.382;  959.700; -665.000; -687.000
420.507;  124.400; -649.000; -778.000
420.632;  296.700; -337.000; -339.000
420.758;  500.400; -251.000; -425.000
420.883; -157.600; -876.000; -672.000
421.008; -145.900; -775.000; -619.000
421.133;  -76.800; -509.000; -467.000
421.259;  -24.300; -325.000; -259.000
421.384; -189.600; -834.000; -693.000
421.509;  -49.600;-1052.000; -862.000
421.634; 2201.700; -936.000; -820.000
421.759;  852.700; -359.000; -327.000
421.885;  -51.500; -717.000; -656.000
422.010;  -97.300; -673.000; -542.000
422.135; -219.800; -695.000; -727.000
422.260;  109.300;  340.000;  280.000
422.385;  -22.000;   12.000;  -98.000
422.510;   83.300;  151.000;  -26.000
422.635;   95.600;  -87.000;  -43.000
422.760;  189.600; -766.000; -791.000
422.885;  136.000;  -57.000;  -80.000
423.010;    2.100; -112.000; -169.000
423.135; -115.400; -481.000; -561.000
423.260;   31.500; -150.000; -245.000
423.385;  147.100;  476.000;  222.000
423.510;  121.700;   71.000;  -22.000
423.635;  153.500;  133.000;   45.000
423.760;  172.400;  383.000;  328.000
423.885;  137.700;  336.000;  391.000
424.010;   78.300;  -68.000;  -13.000
424.135;   49.600;    5.000;  -33.000
424.259; -104.400; -654.000; -457.000
424.384;  -60.300; -279.000; -272.000
424.509;   23.700; -260.000; -186.000
424.634; -155.600; -761.000; -623.000
424.759;  -32.400; -688.000; -544.000
424.883;    2.000; -506.000; -527.000
425.008;  387.000; -502.000; -410.000
425.133; 3874.800; -679.000; -653.000
425.258; 1620.100; -517.000; -381.000
425.382; 1931.400; -867.000; -774.000
425.507; 4381.400; -487.000; -543.000
425.632;  665.200; -802.000; -663.000
425.756;  874.700; -256.000; -146.000
425.881;12502.900; -831.000; -857.000
426.006;30473.100; -604.000; -355.000
426.130; 4333.700; -696.000; -508.000
426.255;  600.900; -611.000; -491.000
426.379;  301.300; -189.000; -577.000
426.504;  771.900;  660.000;  544.000
426.629; 7922.100; -519.000; -466.000
426.753; 4862.000;   64.000;  -46.000
426.878;  608.500; -252.000; -288.000
427.002;  383.500; -651.000; -668.000
427.127; 3200.100;  -35.000; -158.000
427.251;21011.900;  372.000;  401.000
427.375; 5346.500; -191.000; -173.000
427.500; 4042.700; -616.000; -610.000
427.624; 1237.000; -234.000; -400.000
427.749;  232.600; -216.000; -225.000
427.873;  -24.900; -499.000; -412.000
427.997;  -13.900; -222.000; -230.000
428.122;  202.300;  795.000;  703.000
428.246;  202.200;  433.000;  434.000
428.371; -201.600; -869.000; -773.000
428.495; -173.700; -624.000; -646.000
428.619;  -21.400; -186.000; -117.000
428.743;  151.900;   65.000;  132.000
428.868;   74.300; -732.000; -643.000
428.992; 2516.200; -219.000; -326.000
429.116;  954.100; -329.000; -357.000
429.240;  563.600;  419.000;  426.000
429.365;   16.700; -454.000; -574.000
429.489;   -1.700; -638.000; -647.000
429.613;  112.100; -236.000; -177.000
429.737;  114.000; -563.000; -432.000
429.861;  581.600; -247.000; -133.000
429.985;10812.600; -425.000; -305.000
430.109;10704.300; -770.000; -908.000
430.234; 1257.400;   76.000;  -50.000
430.358;  182.200; -250.000; -160.000
430.482;  -90.100; -672.000; -564.000
430.606;  -70.700; -655.000; -375.000
430.730;  140.500; -437.000; -388.000
430.854;  264.600; -909.000; -835.000
430.978;  -46.900; -795.000; -764.000
431.102;  -91.200; -499.000; -422.000
431.226; -147.800; -874.000; -815.000
431.350;  154.500;  345.000;  422.000
431.474;  -84.500; -661.000; -373.000
431.597; -233.900;-1060.000; -848.000
431.721; -101.600; -276.000; -267.000
431.845; -208.500; -704.000; -472.000
431.969;  -90.300; -304.000; -349.000
432.093; -124.800; -395.000; -317.000
432.217;   40.800;   32.000;   82.000
432.341; -124.800; -523.000; -518.000
432.464;   50.100;   96.000;   40.000
432.588;  406.000; -401.000; -329.000
432.712;  206.100;  -52.000;  -52.000
432.836;  141.200;  213.000;  263.000
432.959;   11.200; -372.000; -311.000
433.083;  204.300;   11.000;    2.000
433.207;  812.200;  285.000;  930.000
433.330; 9799.200; -391.000; -200.000
433.454;11009.700; -654.000; -638.000
433.578; 6499.000;  583.000;  278.000
433.701; 1117.200; -623.000; -675.000
433.825;  310.800; -292.000; -299.000
433.949;  382.600;   28.000;  -72.000
434.072;  153.700; -410.000; -323.000
434.196;   35.500; -309.000; -117.000
434.319; 7877.800;25482.000;25124.000
434.443; 1486.700; -656.000; -603.000
434.566; 4844.900;  281.000;   62.000
434.690;  762.600; -637.000; -383.000
434.813;  129.500; -251.000; -173.000
434.937;  -97.100; -569.000; -696.000
435.060;  -18.200; -423.000; -332.000
435.184;  662.900; -492.000; -217.000
435.307;  349.100;  159.000;  102.000
435.431;   39.900;  -40.000;   24.000
435.554; -104.400; -399.000; -240.000
435.677; -142.200; -350.000; -258.000
435.801;  -28.300;  -25.000;   49.000
435.924;   34.200;    1.000;  -67.000
436.048; -195.100;-1019.000; -732.000
436.171;  -91.400; -240.000;  -66.000
436.294;   15.100; -248.000; -229.000
436.417;  178.600; -963.000; -849.000
436.541; -146.600; -814.000; -840.000
436.664;  -21.000; -242.000; -316.000
436.787;   44.600;   13.000;  113.000
436.910; -176.300; -792.000; -422.000
437.034;   67.700;  142.000;  143.000
437.157;  170.400;  -11.000;    0.000
437.280;  -76.900; -392.000; -292.000
437.403; -127.800; -982.000; -869.000
437.526; 1252.900; -903.000; -865.000
437.649; 4119.000; -505.000; -332.000
437.772;  580.700; -692.000; -540.000
437.896;  315.600;  700.000;  544.000
438.019; -141.100; -758.000; -503.000
438.142; -127.700; -596.000; -506.000
438.265;   24.400; -639.000; -670.000
438.388; 1078.500; -520.000; -410.000
438.511;  211.500; -597.000; -394.000
438.634;   -9.600; -247.000; -125.000
438.757; -212.400; -693.000; -619.000
438.880;   29.100;  -34.000;  -57.000
439.003;  -97.400; -417.000; -437.000
439.126;  -63.300; -287.000; -167.000
439.248;  -64.300;  -98.000; -139.000
439.371;   14.100;    9.000;  -53.000
439.494;  150.100;  510.000;  439.000
439.617;  -34.300;   65.000;  -88.000
439.740; -319.600; -968.000; -816.000
439.863; -235.200; -755.000; -595.000
439.986; -190.900; -476.000; -431.000
440.108;  -62.700; -161.000; -112.000
440.231; -258.200; -950.000; -836.000
440.354;   -2.500;  -64.000; -150.000
440.477;  102.600; -566.000; -542.000
440.599;   78.900; -200.000; -225.000
440.722; -191.200; -709.000; -586.000
440.845;  197.800;  751.000;  928.000
440.968; -179.300; -415.000; -311.000
441.090;  -63.800; -199.000;  -33.000
441.213; -286.300;-1021.000; -825.000
441.336;  -46.200; -159.000;   -5.000
441.458; -124.400; -549.000; -396.000
441.581; -127.400; -628.000; -629.000
441.703; -122.100; -152.000;   13.000
441.826; -169.100; -557.000; -400.000
441.948;  -49.100;   56.000;   51.000
442.071;  136.100;  555.000;  424.000
442.193; -175.500; -531.000; -485.000
442.316;   80.000;  152.000;   97.000
442.438;  103.600; -233.000;  -10.000
442.561;  208.500;  272.000;  262.000
442.683; 1081.900; -809.000; -522.000
442.806; 2091.300;   -8.000;   74.000
442.928;   26.100; -859.000; -604.000
443.051;  -97.400; -577.000; -373.000
443.173; -146.800; -341.000; -339.000
443.295; -119.500; -263.000; -371.000
443.418;  -70.200; -321.000;  -29.000
443.540;   37.000; -106.000;   -4.000
443.662; -181.700; -563.000; -465.000
443.785;   35.600;  335.000;  199.000
443.907; -172.600; -362.000; -208.000
444.029; -202.700; -767.000; -494.000
444.152; -274.900; -644.000; -554.000
444.274;   13.500;  -18.000;  -24.000
444.396; -194.800; -461.000; -221.000
444.518; -220.500; -691.000; -454.000
444.640; -153.200; -268.000; -111.000
444.763;   16.600;  388.000;  249.000
444.885; -193.900; -432.000; -392.000
445.007;  -26.500;   35.000;   86.000
445.129; -176.000; -610.000; -515.000
445.251; -151.200; -372.000; -439.000
445.373; -228.400; -537.000; -386.000
445.495;   51.900;  242.000;  350.000
445.617;  155.500;  853.000;  753.000
445.739; -110.500; -215.000;  -97.000
445.861;  -37.600; -245.000; -112.000
445.984;  -52.000; -267.000; -101.000
446.105;  450.700; -418.000; -251.000
446.227; 1125.800; -176.000;  -19.000
446.349;  -15.300; -358.000; -249.000
446.471; -158.800; -615.000; -448.000
446.593;  -64.900; -316.000;   19.000
446.715;   28.600;  -67.000;   41.000
446.837;  206.800;  697.000;  832.000
446.959; -164.500; -457.000; -478.000
447.081; -236.200; -628.000; -518.000
447.203;  178.600;  862.000;  834.000
447.325; -123.200; -270.000;   42.000
447.446;   47.800;  286.000;  530.000
447.568; -275.900; -921.000; -803.000
447.690; -110.300; -236.000; -245.000
447.812; -263.500; -798.000; -519.000
447.933;   10.100;  155.000;  127.000
448.055;  -78.000; -306.000; -261.000
448.177;  339.500;   31.000;   79.000
448.299;  145.600; -935.000; -727.000
448.420;   78.100;  -25.000;  159.000
448.542;  -58.000;   -3.000;   33.000
448.664;   12.700;  109.000;  322.000
448.785;   24.300;  265.000;   83.000
448.907; -107.200; -614.000; -353.000
449.028;  -13.800; -771.000; -471.000
449.150;  179.300;  492.000;  589.000
449.272; -307.800;-1044.000; -913.000
449.393;  151.300;  612.000;  694.000
449.515; -232.900; -634.000; -581.000
449.636;  -48.600; -264.000; -155.000
449.758;  194.900;  763.000;  622.000
449.879; -148.000; -498.000; -396.000
450.001;  -80.000; -149.000;  -49.000
450.122;   -9.000;  -95.000;  162.000
450.244;   33.000;   37.000;  364.000
450.365; -149.100; -495.000; -301.000
450.486;  -24.800;   80.000;  268.000
450.608;  119.000;  393.000;  326.000
450.729;  206.800;  578.000;  645.000
450.850;   63.400; -574.000; -466.000
450.972; 1470.600; -552.000; -389.000
451.093; 9108.100;  190.000;  588.000
451.214; 3434.800; -516.000; -337.000
451.336;  678.100;  773.000;  579.000
451.457;  170.500;  264.000;  393.000
451.578;  -30.800; -118.000;  -74.000
451.699; -188.200; -546.000; -540.000
451.821;  -68.600; -284.000;  -50.000
451.942;   75.700;  278.000;  285.000
452.063;  163.700;  228.000;  419.000
452.184; 1154.700;  -54.000;  -49.000
452.305; 1943.000;  103.000;  170.000
452.427;  193.900; -549.000; -301.000
452.548;  -24.900;   23.000;   79.000
452.669;  -47.500; -257.000;  -89.000
452.790;  -45.700;    3.000;  -18.000
452.911;   48.100;  195.000;  259.000
453.032;  -57.100; -289.000;  -60.000
453.153;  -33.300;  -29.000;   81.000
453.274;  193.400;  737.000;  868.000
453.395;  -49.600;  -51.000;  175.000
453.516;  315.800; 1317.000; 1388.000
453.637;  -62.300; -205.000; -150.000
453.758;  -73.700;   15.000;   69.000
453.879; -185.500; -462.000; -250.000
454.000;  242.700; 1086.000;  948.000
454.121; -191.500; -554.000; -326.000
454.242; -155.800; -599.000; -383.000
454.362;  -37.000;  -99.000;  114.000
454.483;  -39.100; -309.000; -229.000
454.604;  153.600;  512.000;  580.000
454.725; -204.700; -627.000; -555.000
454.846; -216.600; -474.000; -406.000
454.967;   55.900;  230.000;  539.000
455.087;  -64.700;  179.000;  153.000
455.208;  115.200;  554.000;  856.000
455.329;  -70.800;  -22.000;   82.000
455.450;  176.000;  473.000;  633.000
455.570; -139.300; -234.000; -211.000
455.691;    9.200;  201.000;  407.000
455.812; -157.300; -270.000;  -92.000
455.932;  -64.100;  107.000;  -97.000
456.053; -111.200;   36.000;   24.000
456.173; -173.700; -433.000; -355.000
456.294; -193.400; -476.000; -303.000
456.415;  -46.100;  -73.000;   70.000
456.535;  -16.200;  297.000;  273.000
456.656;  -16.400;  132.000;  240.000
456.776;  -68.500;    3.000;  298.000
456.897;  103.700;  308.000;  513.000
457.017; -101.600; -153.000;   -3.000
457.138; -139.200; -402.000; -249.000
457.258;    3.300;  263.000;  224.000
457.379;   44.900;  509.000;  521.000
457.499;   -1.200;  443.000;  432.000
457.620; -158.900; -407.000; -231.000
457.740; -123.300; -132.000;  -11.000
457.860;  -18.000;   87.000;   44.000
457.981;  -22.200;  132.000;  124.000
458.101;  -58.900;  -89.000;   40.000
458.221;   24.600;  336.000;  402.000
458.342;  -37.200;   -4.000;  -37.000
458.462;  118.200;  617.000;  352.000
458.582;  -35.600; -302.000; -294.000
458.703;   54.900;  303.000;  154.000
458.823;  -25.800;   22.000;  163.000
458.943;   97.600;  341.000;  467.000
459.063;   17.300; 1124.000;  192.000
459.183;   25.800;  328.000;  313.000
459.304;   84.800;  315.000;  517.000
459.424;  -78.300; -246.000;  -89.000
459.544;  682.300;  388.000;  764.000
459.664; 1585.700;  499.000;  506.000
459.784;  588.300; 1004.000; 1175.000
459.904;  148.100;  867.000;  744.000
460.024;  212.300;  867.000;  684.000
460.144;   67.100;  449.000;  554.000
460.264;   42.600;  515.000;  327.000
460.385; -129.100; -145.000; -119.000
460.505;  159.600;  905.000;  858.000
460.625; -160.400;  -17.000;  -68.000
460.745;   50.400;  396.000;  541.000
460.864;  -48.900;  153.000;  469.000
460.984;   91.200;  499.000;  573.000
461.104;  318.800; 1656.000; 1775.000
461.224;  112.000;  657.000;  650.000
461.344;    7.000;  431.000;  360.000
461.464;    0.600;  258.000;  513.000
461.584;   33.500;  283.000;  466.000
461.704;  -12.400;   58.000;  108.000
461.824;  -57.500;  238.000;  259.000
461.943;  -33.600;  191.000;  130.000
462.063;  -51.100;    2.000;  324.000
462.183;  136.100;  639.000;  717.000
462.303;  255.200; 1678.000; 1230.000
462.422;   98.600;  781.000;  840.000
462.542;  -15.300;  271.000;  391.000
462.662;  139.000;  353.000;  380.000
462.782;  538.700;  833.000;  572.000
462.901;  952.500;  545.000;  717.000
463.021;  571.300; 1702.000; 1638.000
463.141;    7.900;  337.000;  770.000
463.260;   10.900;  614.000;  474.000
463.380;   77.900;  902.000;  884.000
463.499;    4.800;  342.000;  332.000
463.619;   -2.200;  581.000;  559.000
463.738;  268.700; 1644.000;  903.000
463.858;  103.700;  657.000;  811.000
463.978;    0.700;  542.000;  396.000
464.097;  175.600;  921.000; 1114.000
464.217;  299.400; 1196.000; 1143.000
464.336;  308.600; 1068.000; 1130.000
464.455;    9.200;  328.000;  659.000
464.575;  135.500;  597.000;  602.000
464.694;  397.800; 1204.000; 1179.000
464.814;  306.800; 1190.000; 1138.000
464.933;  209.700; 1095.000; 1027.000
465.052;  250.500; 1412.000; 1054.000
465.172;  234.500;  922.000;  799.000
465.291;  335.400; 1376.000; 1320.000
465.410;   85.400;  462.000;  735.000
465.530;  250.800; 1355.000; 1310.000
465.649;  218.200; 1209.000; 1273.000
465.768;  371.000; 1673.000; 1508.000
465.888;  158.300;  941.000; 1174.000
466.007;  228.200; 1335.000; 1440.000
466.126;   75.800;  721.000;  641.000
466.245;  179.900; 1176.000; 1187.000
466.364;  128.300;  950.000; 1060.000
466.484;  175.500; 1024.000; 1213.000
466.603;  119.600; 1101.000; 1222.000
466.722;  307.300; 1490.000; 1769.000
466.841;  217.400; 1151.000; 1401.000
466.960;  128.700; 1069.000;  972.000
467.079;  330.100; 1971.000; 1786.000
467.198;  165.500; 1238.000; 1181.000
467.317;  233.300; 1768.000; 1162.000
467.436;  247.000; 1709.000; 1261.000
467.555;  354.300; 1796.000; 1746.000
467.674;  202.100; 1227.000; 1329.000
467.793;  168.400; 1376.000; 1374.000
467.912;  215.300; 1658.000; 1539.000
468.031;  339.000; 2038.000; 1930.000
468.150;  330.100; 1842.000; 1837.000
468.269;  481.300; 2313.000; 2090.000
468.388;  467.600; 2168.000; 2339.000
468.507;  607.600; 2884.000; 2903.000
468.626;  633.800; 2555.000; 2541.000
468.744;  384.100; 2018.000; 2174.000
468.863;  462.200; 2312.000; 2523.000
468.982;  255.600; 1503.000; 1555.000
469.101;  488.300; 2788.000; 2692.000
469.220;  369.600; 2333.000; 2176.000
469.338;  585.600; 2935.000; 3051.000
469.457;  468.000; 2719.000; 2545.000
469.576;  785.100; 3953.000; 3784.000
469.695;  596.100; 2877.000; 3066.000
469.813;  954.700; 4148.000; 4192.000
469.932;  918.500; 4255.000; 4485.000
470.051;  903.700; 4075.000; 4161.000
470.169; 1806.500; 4470.000; 4338.000
470.288; 2865.800; 4700.000; 4809.000
470.406; 1682.900; 5059.000; 5194.000
470.525; 1359.000; 6101.000; 5787.000
470.644; 1389.800; 6847.000; 6794.000
470.762; 1734.100; 8397.000; 7873.000
470.881; 1881.300; 8651.000; 8464.000
470.999; 2209.600; 9685.000; 9151.000
471.118; 2283.000;11174.000;10711.000

