
Integration time [ms]: 100.000
Averaging Nr. [scans]: 40
Smoothing Nr. [pixels]: 0
Data measured with spectrometer [name]: 2101012U2
Wave   ;Sample   ;Dark     ;Reference
[nm]   ;[counts] ;[counts] ;[counts] 

197.733;   62.000;  516.000;  404.000
197.879;  -86.050; -610.000; -634.000
198.025;  -34.675; -475.000; -420.000
198.171;  -81.750; -602.000; -612.000
198.317;  -20.325; -401.000; -316.000
198.463;  -67.100; -655.000; -404.000
198.609;   21.775;  181.000; -137.000
198.755;  -74.725; -644.000; -410.000
198.901;  -65.700; -505.000; -424.000
199.047;  -54.200; -615.000; -488.000
199.193;  -34.700; -230.000; -468.000
199.339;  -49.350; -222.000; -369.000
199.485;   36.550;  330.000;  271.000
199.631;   20.400;  227.000;  310.000
199.777;  -51.075; -466.000; -398.000
199.923;  -64.975; -610.000; -424.000
200.069;   -9.850; -141.000;  -58.000
200.215;   73.000;  128.000;  453.000
200.361;   38.600;  243.000;  477.000
200.507;  -60.425; -600.000; -373.000
200.653;  -24.575; -371.000; -194.000
200.798;  -33.375; -215.000; -125.000
200.944;   -8.125; -146.000;  -41.000
201.090;   33.675;   61.000;  222.000
201.236;   -4.175; -116.000; -158.000
201.382;  132.775;  874.000;  903.000
201.528;    9.375;  -58.000;  -48.000
201.674;  -30.100; -386.000; -293.000
201.819;  -63.375; -540.000; -439.000
201.965;  -78.275; -699.000; -447.000
202.111;  -30.700; -273.000; -226.000
202.257;  -32.400; -250.000; -238.000
202.402;   -2.475;   13.000;  -36.000
202.548;  -29.825; -169.000; -116.000
202.694;   77.100;  410.000; -183.000
202.840;  -76.125; -603.000; -531.000
202.985;  -67.425; -681.000; -639.000
203.131; -103.200; -832.000; -666.000
203.277;  -13.400; -199.000; -262.000
203.423;  -52.100; -434.000; -520.000
203.568;  -34.375; -462.000; -237.000
203.714;  -67.200; -535.000; -542.000
203.860;  -75.375; -682.000; -641.000
204.005;    9.850;  112.000;  167.000
204.151;   86.650;  561.000;  556.000
204.296;  -37.975; -354.000; -221.000
204.442;  -71.050; -600.000; -547.000
204.588;  -82.625; -592.000; -579.000
204.733;   28.250;  178.000;  168.000
204.879; -132.150;-1018.000; -822.000
205.025;   11.600;  -99.000;  126.000
205.170;   -5.225;  -17.000;   94.000
205.316;   82.550;  438.000;  661.000
205.461;  -93.100; -698.000; -554.000
205.607;   73.850;  609.000;  665.000
205.752;  -70.250; -626.000; -551.000
205.898;  -54.400; -501.000; -391.000
206.043;  -53.275; -578.000; -506.000
206.189;  -44.600; -243.000; -285.000
206.334;   79.475;  554.000;  606.000
206.480;   82.575;  409.000;  239.000
206.625;  -84.700; -529.000; -552.000
206.771;  -47.575; -451.000; -373.000
206.916;  -37.625; -210.000; -537.000
207.062;  -79.925; -545.000; -591.000
207.207;  -66.100; -546.000; -443.000
207.353;   56.100;  185.000;  460.000
207.498;   12.925;  196.000;   85.000
207.643;  -55.450; -501.000; -370.000
207.789; -135.550;-1069.000; -910.000
207.934;  -90.525; -665.000; -713.000
208.080;  -11.275; -154.000;   66.000
208.225;   -4.675;  -22.000;  -57.000
208.370;  -77.200; -727.000; -619.000
208.516;  -73.100; -741.000; -487.000
208.661;  -33.975; -127.000;  -69.000
208.806;  -23.325; -165.000; -171.000
208.952; -118.125;-1044.000; -731.000
209.097;   74.200;  378.000;  349.000
209.242;  -44.050; -307.000; -382.000
209.387;   67.700;  392.000;  350.000
209.533;  -48.700; -321.000; -350.000
209.678;   80.500;  472.000;  543.000
209.823;  -61.925; -408.000; -310.000
209.969;  -95.350; -860.000; -757.000
210.114; -105.825; -907.000; -719.000
210.259; -116.775; -939.000; -889.000
210.404;    0.450; -171.000;  103.000
210.549;   11.725;  108.000;    3.000
210.695;  -14.025;   -3.000;  -95.000
210.840;   38.400;   94.000;   67.000
210.985;  -58.075; -484.000; -303.000
211.130;   68.550;  268.000;  406.000
211.275;   30.000;  207.000;  199.000
211.420;  -47.875; -300.000; -289.000
211.566;  -65.200; -536.000; -489.000
211.711;   18.725;  218.000;  157.000
211.856;  -77.225; -545.000; -519.000
212.001;   16.275;  151.000;   44.000
212.146;   23.300;  153.000;   49.000
212.291;  -22.575; -210.000; -186.000
212.436;  -22.600; -280.000;   -6.000
212.581;  -81.225; -685.000; -653.000
212.726;  -73.975; -487.000; -538.000
212.871;  -54.200; -552.000; -217.000
213.016; -149.050;-1172.000;-1029.000
213.161;   55.800;  406.000;  291.000
213.306;  -74.200; -435.000; -577.000
213.451;  -99.450; -778.000; -689.000
213.596;  -49.575; -455.000; -347.000
213.741;  -56.350; -448.000; -538.000
213.886;  -73.725; -498.000; -517.000
214.031;  -25.050; -294.000; -124.000
214.176;  -30.025; -408.000; -341.000
214.321;  -15.025; -296.000; -157.000
214.466;  -23.025; -163.000;  -43.000
214.611;    4.350;  -61.000;  -10.000
214.756; -126.975; -948.000; -858.000
214.901;  -30.375; -388.000; -226.000
215.046; -123.625; -797.000; -825.000
215.191;   10.025;  128.000;   35.000
215.336;  -21.900; -157.000;  -19.000
215.480;  -75.950; -684.000; -505.000
215.625;   -7.900; -175.000;  -19.000
215.770;  -84.875; -757.000; -662.000
215.915;    1.225;   -5.000;  -97.000
216.060;    4.600; -113.000;  -21.000
216.205; -109.600; -731.000; -779.000
216.349;  -67.375; -470.000; -533.000
216.494; -131.975; -939.000; -867.000
216.639; -108.900; -823.000; -888.000
216.784;  -97.100; -577.000; -525.000
216.929;   53.150;  392.000;  281.000
217.073;   -3.850; -244.000;  -31.000
217.218;    2.875;   78.000;  -47.000
217.363;  -81.850; -656.000; -618.000
217.507;  -75.150; -623.000; -588.000
217.652; -132.450; -845.000; -874.000
217.797;  -80.625; -708.000; -659.000
217.942; -102.375; -856.000; -720.000
218.086;   76.900;  608.000;  539.000
218.231;  -27.050; -174.000;  -26.000
218.376;  -35.750; -337.000; -229.000
218.520;    6.550;  -41.000;   96.000
218.665;  -36.375; -338.000; -204.000
218.810;  -47.600; -275.000; -233.000
218.954;    5.325;  201.000;   35.000
219.099; -115.050; -713.000; -963.000
219.243;  -57.350; -589.000; -554.000
219.388;  -26.800; -264.000; -136.000
219.532;  -13.550; -116.000; -116.000
219.677;  -83.700; -564.000; -521.000
219.822;    0.500;   33.000;   89.000
219.966;    7.100;   17.000;  -99.000
220.111;  -35.825; -328.000;  -40.000
220.255; -100.775; -797.000; -750.000
220.400;  -27.625; -180.000; -146.000
220.544;  -69.675; -516.000; -450.000
220.689;  -50.000; -422.000; -451.000
220.833;  -14.100; -123.000;  -58.000
220.978;  -40.775; -393.000; -563.000
221.122;   25.550;  319.000;  307.000
221.267; -110.250; -906.000; -837.000
221.411;  -59.800; -478.000; -394.000
221.555;   -5.975; -104.000;  -23.000
221.700;  -59.675; -329.000; -222.000
221.844;   39.375;  255.000;  272.000
221.989;  -60.325; -328.000; -311.000
222.133;  -29.675; -289.000; -307.000
222.277;  -17.850;    5.000;   78.000
222.422;   15.050;  227.000;  113.000
222.566;  -41.450; -381.000; -214.000
222.711;  -49.200; -414.000; -479.000
222.855;  -78.325; -643.000; -586.000
222.999;  -91.400; -642.000; -717.000
223.144;  -20.325; -195.000; -194.000
223.288;   44.025;  423.000;  251.000
223.432;   24.250;  184.000;  230.000
223.576;   23.075;  152.000;  -21.000
223.721;   39.875;  364.000;  273.000
223.865;  -44.475; -472.000; -475.000
224.009;  259.300; 1673.000; 1631.000
224.153;  -81.850; -660.000; -671.000
224.298;  -71.925; -531.000; -489.000
224.442;   -9.050;  -74.000;  -33.000
224.586;    2.450; -169.000; -106.000
224.730;  -96.725; -858.000; -670.000
224.875; -110.150; -739.000; -688.000
225.019;    9.925;  102.000;  188.000
225.163;   53.525;  208.000;  341.000
225.307;   16.200;   97.000;  -91.000
225.451;   56.550;  360.000;  481.000
225.595;   28.325;  264.000;  176.000
225.739;  -11.250; -170.000;  -94.000
225.884;    5.300;   86.000;    5.000
226.028;  -99.900; -760.000; -626.000
226.172;  -20.650; -260.000; -273.000
226.316; -121.550; -941.000; -902.000
226.460;  -58.950; -645.000; -493.000
226.604;  -53.775; -406.000; -400.000
226.748;  -92.950; -836.000; -733.000
226.892;  -25.425; -227.000; -181.000
227.036;  -58.625; -537.000; -447.000
227.180;  -63.850; -551.000; -375.000
227.324;  -64.225; -561.000; -580.000
227.468; -109.575; -819.000; -717.000
227.612;   14.450;  242.000;  -28.000
227.756; -105.375; -845.000; -698.000
227.900;   43.700;  342.000;  441.000
228.044;  -55.975; -509.000; -290.000
228.188;   43.975;  448.000;  568.000
228.332;  -80.525; -546.000; -472.000
228.476;  -31.350; -223.000; -149.000
228.620;  -34.250; -210.000; -150.000
228.764;   65.150;  431.000;  349.000
228.908;  -29.625; -155.000;   30.000
229.052;  -65.600; -615.000; -528.000
229.195;  -18.900; -172.000;   13.000
229.339;  -32.000; -235.000; -305.000
229.483;  -14.825;    5.000; -162.000
229.627;    3.350; -156.000;  139.000
229.771;  -39.350; -218.000; -294.000
229.915;    3.750;  230.000;   79.000
230.059;  -95.700; -648.000; -663.000
230.202;  -48.500; -370.000; -317.000
230.346;   -5.225; -107.000;  107.000
230.490;  -68.400; -489.000; -521.000
230.634; -107.375; -736.000; -553.000
230.777;   77.300;  478.000;  509.000
230.921;  -50.125; -450.000; -359.000
231.065;  -38.225; -246.000; -286.000
231.209;   30.250;  261.000;  265.000
231.352;   32.300;   54.000;   40.000
231.496;   16.300;  568.000;  188.000
231.640;  -86.075; -693.000; -621.000
231.783;   68.300;  546.000;  525.000
231.927;  -46.075; -294.000; -365.000
232.071; -128.000; -962.000; -736.000
232.214; -108.800; -980.000; -764.000
232.358; -100.625; -683.000; -599.000
232.502;   -1.075;  -19.000;    7.000
232.645; -137.650;-1090.000; -927.000
232.789;  -22.250; -257.000; -218.000
232.933;  -29.575; -407.000; -224.000
233.076; -128.975;-1038.000; -897.000
233.220; -100.025; -752.000; -777.000
233.363;  -76.850; -669.000; -477.000
233.507;   53.100;  371.000;  129.000
233.650; -107.600; -764.000; -834.000
233.794;   42.050;  438.000;  461.000
233.938;  -51.225; -530.000; -362.000
234.081;  -18.400;  -93.000;   31.000
234.225;  -64.000; -631.000; -539.000
234.368; -113.875; -773.000; -723.000
234.512;  -34.625; -385.000; -299.000
234.655;  -87.500; -582.000; -555.000
234.798;  -64.325; -493.000; -466.000
234.942; -140.425; -884.000;-1002.000
235.085;  -77.825; -651.000; -443.000
235.229;  -77.600; -405.000; -410.000
235.372;  -55.200; -247.000; -191.000
235.516;  -64.175; -397.000; -321.000
235.659;   10.475;   92.000;  121.000
235.802;  -16.675;  -38.000;  -22.000
235.946;   22.475;  335.000;  215.000
236.089;   30.425;  126.000;  250.000
236.233;   45.925;  275.000;  298.000
236.376;  -48.500; -235.000; -378.000
236.519;  -40.775; -297.000; -319.000
236.663;  -31.150; -215.000; -117.000
236.806; -134.275;-1029.000; -999.000
236.949;   60.925;  543.000;  431.000
237.092;   56.375;  412.000;  391.000
237.236;  -80.725; -589.000; -502.000
237.379;   72.350;  352.000;  428.000
237.522; -124.725; -879.000; -768.000
237.666;  -15.125; -271.000;   18.000
237.809; -120.225; -851.000; -823.000
237.952;   41.000;  469.000;  271.000
238.095;  -60.075; -447.000; -442.000
238.238;   79.825;  688.000;  700.000
238.382;   -9.700;  166.000;  103.000
238.525;  -66.675; -598.000; -511.000
238.668; -141.325;-1060.000; -985.000
238.811;  -75.375; -638.000; -643.000
238.954;  -60.350; -483.000; -334.000
239.097;   90.500;  617.000;  664.000
239.241;   30.225;  394.000;  326.000
239.384;  -42.600; -254.000; -214.000
239.527;  -69.100; -424.000; -224.000
239.670; -146.700; -994.000;-1091.000
239.813; -102.800; -696.000; -658.000
239.956;   75.825;  579.000;  473.000
240.099; -124.825; -778.000; -725.000
240.242;   62.925;  428.000;  432.000
240.385;   32.525;  466.000;  450.000
240.528;  -68.125; -706.000; -473.000
240.671;   12.675;  189.000;  134.000
240.814;  -35.000; -441.000; -158.000
240.957; -107.400; -767.000; -578.000
241.100;  -90.875; -779.000; -755.000
241.243; -147.025;-1234.000; -893.000
241.386;  -75.450; -508.000; -379.000
241.529;  -91.525; -735.000; -547.000
241.672;  -61.550; -566.000; -495.000
241.815; -131.075; -832.000; -808.000
241.958;  -29.025; -125.000; -182.000
242.101;  -73.900; -545.000; -390.000
242.244;  -47.125; -270.000; -325.000
242.387;  -43.475; -304.000; -246.000
242.530;   51.600;  470.000;  134.000
242.673;  -43.375; -381.000; -309.000
242.815; -123.475; -925.000; -899.000
242.958;  -63.075; -482.000; -381.000
243.101;   11.975;  132.000;  187.000
243.244;  -64.500; -564.000; -521.000
243.387;  -51.975; -313.000; -316.000
243.530;  -93.875; -657.000; -674.000
243.672;    9.250;   43.000;  -92.000
243.815;  -50.575; -355.000; -283.000
243.958;    5.275;   98.000;  -26.000
244.101;    5.650;   59.000;  -16.000
244.243;  -16.550;  -47.000;  101.000
244.386; -121.100; -761.000; -630.000
244.529;  -18.900; -132.000; -139.000
244.672; -147.625;-1154.000; -951.000
244.814;  -95.625; -621.000; -794.000
244.957;  -61.100; -380.000; -304.000
245.100;  -61.150; -489.000; -489.000
245.242;  -61.075; -387.000; -374.000
245.385;  -20.750;  -59.000;  -39.000
245.528; -117.075; -871.000; -705.000
245.670;   87.500;  612.000;  634.000
245.813;  -86.275; -599.000; -547.000
245.956;  -39.900; -324.000; -275.000
246.098;  -83.400; -508.000; -650.000
246.241;   -4.450;  194.000;   48.000
246.383;  -23.550; -119.000;  -73.000
246.526;  -67.800; -454.000; -525.000
246.669; -127.725; -889.000; -780.000
246.811;   26.900;  172.000;   -1.000
246.954;  -59.525; -512.000; -426.000
247.096;  -32.650;  -84.000;   -6.000
247.239;  -63.075; -482.000; -445.000
247.381;  -62.625; -647.000; -488.000
247.524;   82.150;  645.000;  679.000
247.666;   -9.300;   58.000;   11.000
247.809; -114.250; -887.000; -691.000
247.951;  -12.325;  -75.000;  138.000
248.094;   25.725;  432.000;  308.000
248.236; -159.825;-1262.000;-1238.000
248.378;   -5.125; -356.000;  -81.000
248.521;  -18.700; -334.000; -337.000
248.663;  -36.000; -236.000; -267.000
248.806;  -37.575; -300.000; -266.000
248.948; -106.100; -886.000; -763.000
249.090;  -38.575; -428.000; -398.000
249.233;  -45.375; -344.000; -381.000
249.375;  -58.975; -474.000; -451.000
249.518;  -16.875;  -83.000; -133.000
249.660;   11.250; -103.000;    3.000
249.802; -176.700;-1303.000;-1189.000
249.945;  -81.250; -612.000; -540.000
250.087; -118.800; -834.000; -768.000
250.229;  -42.475; -362.000; -480.000
250.371;  -68.850; -494.000; -439.000
250.514;  -49.800; -310.000; -244.000
250.656;  -19.325;   69.000;  102.000
250.798; -119.075; -849.000; -800.000
250.940;  -62.300; -322.000; -322.000
251.083;  -24.125; -335.000; -111.000
251.225;   66.950;  338.000;  310.000
251.367;  -35.125; -274.000; -373.000
251.509;  -30.775; -265.000; -210.000
251.651;  -93.925; -731.000; -671.000
251.794;   59.100;  538.000;  632.000
251.936; -115.550; -821.000; -747.000
252.078;  -82.525; -540.000; -461.000
252.220;  -73.325; -645.000; -477.000
252.362;   93.625;  344.000;  462.000
252.504;  -63.925; -677.000; -584.000
252.646; -114.575; -875.000; -722.000
252.788;  -13.225;   14.000; -128.000
252.931;  -38.150; -257.000; -253.000
253.073;  -52.625; -376.000; -317.000
253.215;   -4.525;  141.000;  122.000
253.357;  -17.175;   82.000; -153.000
253.499;  -48.625; -374.000; -234.000
253.641;  -98.450; -749.000; -594.000
253.783;  -85.325; -609.000; -527.000
253.925;  -88.325; -586.000; -591.000
254.067; -104.025; -744.000; -667.000
254.209;  -20.900; -391.000; -259.000
254.351; -124.550; -865.000; -883.000
254.493;  -50.725; -441.000; -417.000
254.635; -136.025; -936.000; -818.000
254.777;  -81.575; -752.000; -687.000
254.918;  -57.700; -512.000; -430.000
255.060;  -62.125; -551.000; -395.000
255.202;  -37.975; -473.000; -261.000
255.344;  -77.425; -658.000; -455.000
255.486;  -77.350; -471.000; -406.000
255.628; -104.950; -780.000; -781.000
255.770;  -81.825; -676.000; -536.000
255.912;  -61.950; -559.000; -468.000
256.053;  -85.650; -730.000; -508.000
256.195;  163.800; 1008.000;  903.000
256.337; -110.525; -861.000; -595.000
256.479;   67.275;  532.000;  416.000
256.621;  -47.225; -394.000; -212.000
256.762;  -98.025; -789.000; -742.000
256.904;   51.675;  485.000;  487.000
257.046;  -37.600; -381.000; -271.000
257.188;  -60.150; -351.000; -264.000
257.329;  -82.975; -525.000; -464.000
257.471; -122.500; -939.000; -807.000
257.613;  -71.000; -584.000; -498.000
257.755; -143.650;-1073.000; -982.000
257.896;   32.925;  286.000;  392.000
258.038;  -65.500; -403.000; -352.000
258.180;  -45.750; -354.000; -279.000
258.321;  -83.075; -581.000; -457.000
258.463;   -8.575;  -71.000;  133.000
258.605;  -92.750; -562.000; -570.000
258.746; -113.275; -886.000; -772.000
258.888; -146.025;-1026.000;-1020.000
259.029;   22.950;  121.000;   -8.000
259.171;  -90.525; -614.000; -550.000
259.313;   -6.975;  -49.000;  -47.000
259.454;  -70.300; -536.000; -414.000
259.596;  -63.375; -483.000; -390.000
259.737;  -77.350; -590.000; -474.000
259.879;   43.950;  217.000;  311.000
260.020;   96.575;  901.000;  636.000
260.162;  -31.375; -146.000; -253.000
260.303; -124.100; -768.000; -687.000
260.445;  -91.800; -609.000; -613.000
260.586;   30.275;  392.000;  157.000
260.728;  -39.400; -360.000; -248.000
260.869;  -59.000; -350.000; -343.000
261.011;   88.975;  706.000;  537.000
261.152;  -62.425; -479.000; -319.000
261.293;  -81.400; -576.000; -595.000
261.435;  -28.575; -219.000; -184.000
261.576;  -59.725; -455.000; -325.000
261.718;   59.675;  420.000;  470.000
261.859; -135.200; -940.000; -949.000
262.000; -131.975; -951.000;-1016.000
262.142;  -32.500;  -52.000;  -60.000
262.283; -110.325; -808.000; -691.000
262.424;  -87.150; -666.000; -625.000
262.566; -168.725;-1161.000; -983.000
262.707; -115.800; -840.000; -830.000
262.848; -121.550; -769.000; -726.000
262.990;  -60.550; -362.000; -345.000
263.131;   77.925;  650.000;  681.000
263.272;   -6.975;  -61.000;  -41.000
263.413;  -99.475; -589.000; -561.000
263.555;  -67.775; -669.000; -143.000
263.696;  -74.875; -550.000; -641.000
263.837;  -63.650; -449.000; -551.000
263.978;    5.425;   -5.000;  -77.000
264.119;  -45.500; -283.000; -264.000
264.261; -119.150; -847.000; -630.000
264.402;   -2.200;   33.000;   40.000
264.543;  -87.225; -509.000; -524.000
264.684;  -11.500;   61.000;  -50.000
264.825;  -72.600; -816.000; -538.000
264.966;  -20.825;  -84.000;  -67.000
265.107; -112.325; -646.000; -670.000
265.248; -116.525; -825.000; -812.000
265.390;   -6.000;  152.000;   -9.000
265.531;  -25.425; -238.000; -107.000
265.672;  -95.250; -557.000; -630.000
265.813;   76.125;  563.000;  439.000
265.954; -146.825; -959.000; -940.000
266.095;  -18.225; -372.000; -322.000
266.236; -110.300; -686.000; -548.000
266.377;  -44.325; -243.000; -297.000
266.518;  -77.900; -619.000; -547.000
266.659;   25.850;  170.000;  268.000
266.800;   13.875;   83.000;   85.000
266.941;  -79.475; -487.000; -478.000
267.082;   45.525;  354.000;   99.000
267.223;  -59.675; -344.000; -273.000
267.364; -119.575; -892.000; -686.000
267.504;   -3.625;    3.000;  135.000
267.645;    5.500;  160.000;   67.000
267.786;  -26.150; -147.000;  -86.000
267.927;  -76.875; -473.000; -379.000
268.068;   -9.450; -186.000;  -61.000
268.209;  -48.900; -175.000; -413.000
268.350;  -64.325; -388.000; -532.000
268.490;  -85.600; -648.000; -521.000
268.631;   33.050;  127.000;  225.000
268.772; -116.000; -874.000; -647.000
268.913;  -54.625; -328.000; -476.000
269.054;  -22.025; -117.000;   12.000
269.194;  -54.725; -418.000; -402.000
269.335; -151.900;-1137.000;-1074.000
269.476;  -10.050;   33.000;  -35.000
269.617;  -55.500; -347.000; -392.000
269.757;  -84.650; -713.000; -646.000
269.898; -104.775; -856.000; -613.000
270.039;  -63.775; -415.000; -405.000
270.180; -144.200; -952.000; -816.000
270.320;  -26.700; -190.000; -250.000
270.461;  -38.725; -277.000; -249.000
270.602;   -9.650; -186.000; -156.000
270.742; -118.200; -868.000; -943.000
270.883;  -54.175; -442.000; -390.000
271.023;  -48.275; -358.000; -357.000
271.164;  -66.450; -607.000; -528.000
271.305; -100.925; -666.000; -654.000
271.445;  -85.700; -722.000; -683.000
271.586;  -69.775; -462.000; -283.000
271.726;  -39.700; -397.000; -322.000
271.867;  -53.900; -594.000; -534.000
272.008;  189.375; -473.000; -285.000
272.148;  142.650;  462.000;  468.000
272.289;   22.425; -113.000; -181.000
272.429;   19.650;   19.000;  185.000
272.570;  -92.875; -633.000; -737.000
272.710; -102.600; -825.000; -775.000
272.851;  -28.150;  113.000; -130.000
272.991; -159.550;-1173.000;-1077.000
273.131;  -76.325; -419.000; -459.000
273.272;  -96.175; -683.000; -723.000
273.412;    4.875; -143.000;  -31.000
273.553;  -54.475; -488.000; -507.000
273.693;  131.450;  913.000;  858.000
273.834;  -95.775; -894.000; -692.000
273.974;  -84.650; -664.000; -615.000
274.114;  -91.650; -772.000; -560.000
274.255;   67.950;  414.000;  373.000
274.395;   13.075; -180.000; -125.000
274.535;   49.775;  199.000;  350.000
274.676;   31.550;  225.000;   94.000
274.816;   -4.175;  110.000;   34.000
274.956;  -81.775; -624.000; -690.000
275.097;  -43.750;-1014.000; -922.000
275.237;  -98.875; -913.000; -803.000
275.377;  -96.375; -778.000; -689.000
275.517; -146.200; -878.000; -937.000
275.658;  -45.875; -590.000; -555.000
275.798;  -52.700; -606.000; -413.000
275.938;   25.500;  215.000;  323.000
276.078;  -96.850; -626.000; -395.000
276.218;   16.675;   99.000;  104.000
276.359; -139.050;-1026.000;-1024.000
276.499;  -73.125; -605.000; -446.000
276.639;  -38.775; -305.000; -151.000
276.779;  -52.925; -475.000; -357.000
276.919; -112.225; -783.000; -624.000
277.059;  -15.775; -261.000; -212.000
277.199;  -44.575; -357.000; -259.000
277.340;   54.175;  287.000;  175.000
277.480; -114.950; -840.000; -693.000
277.620;   23.325;  192.000;   16.000
277.760; -197.725;-1533.000;-1294.000
277.900;   17.350;  113.000;   33.000
278.040;   26.575;  137.000;  159.000
278.180;   40.500;  270.000;  170.000
278.320;  -10.725;   21.000;   56.000
278.460;  -69.300; -443.000; -469.000
278.600;  -84.125; -708.000; -598.000
278.740;   48.950;  448.000;  224.000
278.880;  -43.500; -768.000; -791.000
279.020;   -4.050; -194.000; -144.000
279.160;  -93.650; -672.000; -595.000
279.300; -112.475; -926.000; -873.000
279.440;  -81.775; -709.000; -622.000
279.579;  -15.375;-1014.000; -929.000
279.719;  -48.925; -410.000; -394.000
279.859;   66.525;   -4.000;   41.000
279.999;   33.075; -208.000;  101.000
280.139;  -17.250; -435.000; -387.000
280.279;  -73.775; -708.000; -745.000
280.419;  -23.100; -229.000; -147.000
280.559;  -25.800; -259.000; -180.000
280.698;  -95.500; -790.000; -639.000
280.838;  -91.675; -778.000; -800.000
280.978;  -92.000; -846.000; -790.000
281.118; -115.225; -811.000; -704.000
281.257;   -6.525;   24.000;    6.000
281.397; -111.400;-1094.000; -960.000
281.537;  -95.275; -599.000; -712.000
281.677;  -21.300; -150.000; -101.000
281.816;  -89.525; -700.000; -630.000
281.956;  -43.725; -193.000; -257.000
282.096;  -51.725; -539.000; -396.000
282.235;  -97.325; -672.000; -638.000
282.375;  -21.775; -243.000;  -98.000
282.515; -101.200; -715.000; -707.000
282.654;   20.675;   29.000;  106.000
282.794;   39.975;  388.000;  244.000
282.934;  -51.600; -530.000; -491.000
283.073; -120.975;-1030.000; -857.000
283.213;  -55.375; -460.000; -467.000
283.353;  -38.725; -408.000; -349.000
283.492;  -35.475; -264.000; -296.000
283.632;  -36.175; -254.000; -168.000
283.771;  -95.625; -859.000; -730.000
283.911;  -47.250; -369.000; -260.000
284.050; -120.700; -794.000; -748.000
284.190; -155.000;-1229.000;-1096.000
284.329; -135.700;-1055.000; -964.000
284.469;  -63.825; -516.000; -591.000
284.608;  -58.050; -559.000; -598.000
284.748;  -81.350; -614.000; -570.000
284.887;   -0.275;  -87.000;  -20.000
285.027; -128.525; -844.000; -892.000
285.166;  -30.575; -192.000; -249.000
285.306;    5.625; -116.000;  -33.000
285.445;  -55.600; -229.000; -343.000
285.584; -101.650; -630.000; -494.000
285.724;  -33.300; -282.000; -322.000
285.863; -114.375; -857.000; -507.000
286.002;  -65.700; -366.000; -276.000
286.142; -108.825; -715.000; -622.000
286.281;  -76.800; -525.000; -493.000
286.420;  -76.850; -554.000; -417.000
286.560;  105.400;  653.000;  623.000
286.699; -136.725; -958.000; -912.000
286.838;  -81.350; -590.000; -591.000
286.978;  -95.300; -533.000; -537.000
287.117; -132.725;-1085.000; -950.000
287.256;  -35.500; -228.000; -211.000
287.395;  -47.400; -197.000; -378.000
287.535;  -47.200; -370.000; -298.000
287.674;  -81.700; -509.000; -484.000
287.813;   52.575;  661.000;  533.000
287.952; -126.100;-1010.000; -871.000
288.091; -136.350;-1049.000; -915.000
288.231;    2.575;   13.000;   15.000
288.370; -174.725;-1217.000;-1200.000
288.509;  -89.025; -728.000; -645.000
288.648;  -99.550; -770.000; -548.000
288.787;  -29.825; -243.000;  -87.000
288.926;  -63.750; -454.000; -475.000
289.065;  119.700;  859.000;  672.000
289.204;  -70.050; -377.000; -217.000
289.344;  -97.775; -791.000; -690.000
289.483;   24.475;  416.000;  304.000
289.622;  -26.025; -291.000; -149.000
289.761;  -13.400; -309.000; -166.000
289.900;  -99.300; -785.000; -626.000
290.039;  -13.725;  -12.000;  -95.000
290.178;  -32.600; -274.000; -180.000
290.317;  -78.675; -618.000; -479.000
290.456;  -67.000; -463.000; -451.000
290.595; -139.250; -961.000; -833.000
290.734; -143.500; -904.000; -891.000
290.873;  -85.700; -456.000; -420.000
291.011; -112.950; -833.000; -843.000
291.150; -107.575; -770.000; -682.000
291.289;  -20.600; -343.000; -110.000
291.428;  -95.050; -599.000; -480.000
291.567;  -63.175; -370.000; -442.000
291.706;   -5.450;  109.000;  154.000
291.845;  -79.100; -597.000; -505.000
291.984; -170.550;-1234.000;-1061.000
292.122;   72.400;  602.000;  582.000
292.261;   51.800;  620.000;  463.000
292.400;   17.175; -144.000;  211.000
292.539; -123.300; -959.000; -813.000
292.678;  -36.525; -325.000; -300.000
292.816; -157.400;-1136.000; -965.000
292.955;  -87.975; -844.000; -684.000
293.094;  -22.125; -173.000; -337.000
293.233;  -56.400; -556.000; -400.000
293.371;  -23.500; -225.000;  -84.000
293.510; -115.525; -866.000; -780.000
293.649; -126.375; -959.000; -924.000
293.787;  -57.225;-1083.000;-1012.000
293.926;    6.925; -113.000;  -32.000
294.065;  -46.150; -379.000; -290.000
294.203;   57.000;  298.000;  406.000
294.342;   17.350;   74.000;  156.000
294.481; 5403.225;51180.000; -836.000
294.619;  -45.800; -425.000; -582.000
294.758; -134.525;-1230.000;-1137.000
294.896;   95.400; -125.000;    5.000
295.035; -125.350;-1040.000;-1006.000
295.174; -117.550;-1082.000; -954.000
295.312;  -45.675; -323.000; -203.000
295.451;    1.975; -307.000; -428.000
295.589;  -47.125; -389.000; -518.000
295.728;   17.175; -292.000; -165.000
295.866;    0.600;  -36.000;  -51.000
296.005;  -63.075; -584.000; -341.000
296.143;  -70.025; -558.000; -596.000
296.282;  -87.000; -957.000; -881.000
296.420;  -86.600; -657.000; -557.000
296.559;  -86.900; -892.000; -633.000
296.697;   47.600; -847.000; -665.000
296.835;   74.525;-1141.000;-1002.000
296.974;   61.075;  -23.000;   39.000
297.112;   22.175; -443.000; -504.000
297.251;  -56.650; -815.000; -755.000
297.389;   95.825; -576.000; -438.000
297.527;   32.700; -145.000;  -83.000
297.666;  -45.500; -486.000; -438.000
297.804;  -55.650; -404.000; -264.000
297.942;    1.475; -136.000; -161.000
298.081;   -2.225; -183.000;   63.000
298.219;   74.075;  -17.000;  -19.000
298.357;   52.950; -144.000;  -71.000
298.495;   58.075; -810.000; -812.000
298.634;   83.450;  245.000;  219.000
298.772;   79.200; -220.000; -338.000
298.910;  -29.400; -309.000; -182.000
299.048;   -6.900; -130.000; -153.000
299.187;  -29.475; -350.000; -250.000
299.325;   25.450;   52.000;  122.000
299.463;   65.750; -389.000; -299.000
299.601;  116.625; -327.000; -271.000
299.739;  -84.125; -908.000; -883.000
299.877;  -77.025; -791.000; -703.000
300.016;  -33.900;-1095.000; -935.000
300.154;  193.725;  -19.000; -161.000
300.292;   79.050; -428.000; -348.000
300.430;   39.750; -408.000; -291.000
300.568;  -94.300; -940.000; -874.000
300.706;  -44.500; -366.000; -469.000
300.844;  -51.550;-1108.000; -979.000
300.982;  148.625;  246.000;  282.000
301.120; -110.200; -965.000; -866.000
301.258;  -68.375; -812.000; -705.000
301.396;   36.500;  104.000;  -41.000
301.534;   94.200; -218.000; -293.000
301.672;   15.750; -664.000; -521.000
301.810;   55.750; -613.000; -545.000
301.948;  118.100;   53.000;  149.000
302.086;  671.650; -250.000;  -32.000
302.224; 1047.550; -610.000; -585.000
302.362;   71.550; -558.000; -622.000
302.500;  -15.025; -923.000; -893.000
302.638;  123.350;  128.000;  245.000
302.776;    4.700; -352.000; -408.000
302.913;   30.825;  447.000;  236.000
303.051;    9.900;  -86.000;  -23.000
303.189;   62.550;   90.000;  118.000
303.327;  -45.900; -341.000; -256.000
303.465;  -82.000; -832.000; -588.000
303.603; -103.950; -805.000; -604.000
303.740;  120.700;  417.000;  241.000
303.878;   28.075; -800.000; -759.000
304.016;  -89.975; -915.000; -790.000
304.154; -123.725;-1123.000;-1152.000
304.291;  -34.125; -505.000; -554.000
304.429;    9.300;  102.000;   74.000
304.567; -124.200; -908.000; -893.000
304.705;  -41.350; -408.000; -515.000
304.842;  123.250; -616.000; -540.000
304.980;   76.825;  215.000;   35.000
305.118;   69.250; -367.000; -365.000
305.255;  -63.375; -945.000; -927.000
305.393;   55.350;  178.000;  239.000
305.531; -101.850;-1173.000; -956.000
305.668;  -80.950; -663.000; -582.000
305.806;  119.075; -358.000; -439.000
305.943;  121.350; -629.000; -637.000
306.081;   49.725; -378.000; -267.000
306.219;  -90.500; -863.000; -748.000
306.356;   -4.300;  158.000;   27.000
306.494;  113.200;  981.000;  761.000
306.631;    6.625;  -11.000;  -55.000
306.769;   -1.950; -613.000; -485.000
306.906;  -15.450; -284.000; -258.000
307.044;  -65.475; -473.000; -488.000
307.181;  -61.000; -410.000; -332.000
307.319;   11.850;  112.000;   87.000
307.456; -175.300;-1191.000;-1153.000
307.594;  -95.175; -980.000; -727.000
307.731;   -7.700; -371.000; -164.000
307.868;    0.300;  -15.000;   20.000
308.006; -125.500; -961.000; -847.000
308.143;  -70.250; -618.000; -330.000
308.281;  153.600;  -37.000; -254.000
308.418;  -13.775; -748.000; -640.000
308.555;  -63.675; -400.000; -250.000
308.693;  -80.575; -577.000; -573.000
308.830; -107.300; -712.000; -657.000
308.967;  -16.800; -215.000;  -95.000
309.105;  -47.500; -507.000; -396.000
309.242;   26.225; -468.000; -367.000
309.379;  271.625; -577.000; -655.000
309.517;  -69.525; -936.000; -948.000
309.654; -102.300; -910.000; -734.000
309.791;  -64.300; -662.000; -580.000
309.928; -103.125; -977.000; -914.000
310.065;  189.950;  819.000;  697.000
310.203;   15.875; -825.000; -850.000
310.340;   -2.500; -465.000; -321.000
310.477;  -76.800; -412.000; -516.000
310.614;  -73.675; -383.000; -473.000
310.751;  -66.025; -427.000; -518.000
310.889;  -23.100;    1.000;   11.000
311.026; -148.800;-1161.000; -939.000
311.163;  -51.450; -386.000; -380.000
311.300;  -62.925; -512.000; -479.000
311.437;  -78.975; -658.000; -619.000
311.574; -161.600;-1226.000; -985.000
311.711;  -49.275; -595.000; -433.000
311.848;  -36.800; -380.000; -388.000
311.985;   12.375;  270.000;   93.000
312.122; -118.150; -932.000; -762.000
312.259; -125.075; -941.000; -994.000
312.396;  -84.250; -508.000; -551.000
312.533;  -93.825; -812.000; -790.000
312.670; -124.200;-1070.000; -898.000
312.807;  -33.625; -352.000; -367.000
312.944;  -78.225; -513.000; -611.000
313.081;  -37.500; -150.000; -415.000
313.218; -103.100;-1111.000; -867.000
313.355;   14.175; -531.000; -449.000
313.492;   11.525; -455.000; -292.000
313.629;  134.550;  815.000;  735.000
313.766; -157.550;-1176.000;-1008.000
313.902;  -14.800; -186.000;   21.000
314.039;  -54.450; -372.000; -289.000
314.176;   32.175;  286.000;  192.000
314.313;  -72.250; -569.000; -473.000
314.450;  -75.275; -788.000; -684.000
314.587;  -59.225; -468.000; -480.000
314.723;   13.250;  -78.000;  130.000
314.860;   40.600;  318.000;  332.000
314.997;   32.675;  223.000;  142.000
315.134;  -38.200; -385.000; -368.000
315.270;  -31.775; -480.000; -496.000
315.407; -122.200;-1094.000; -967.000
315.544;  -42.225; -657.000; -538.000
315.681;  -60.150; -681.000; -565.000
315.817;   36.675; -133.000; -176.000
315.954;   30.075; -613.000; -392.000
316.091; -125.150;-1045.000;-1023.000
316.227;  -28.150;  -71.000; -179.000
316.364;    0.350;   23.000;    6.000
316.500;  -41.350; -113.000; -300.000
316.637;  -36.900; -181.000; -302.000
316.774;  -88.750; -625.000; -358.000
316.910;  -97.025; -598.000; -629.000
317.047;  -71.875; -487.000; -351.000
317.183;  -43.775; -435.000; -566.000
317.320;  -16.325; -367.000; -321.000
317.456;  -80.975; -733.000; -805.000
317.593;  -75.675; -598.000; -641.000
317.729;   12.300;  168.000;  -67.000
317.866; -204.300;-1434.000;-1285.000
318.002;  -92.200; -708.000; -948.000
318.139;  -81.575; -883.000; -867.000
318.275; -107.175;-1003.000; -738.000
318.412;  -57.900; -517.000; -336.000
318.548;  -15.375; -751.000; -720.000
318.685;  -93.500; -985.000; -888.000
318.821; -104.175; -762.000; -735.000
318.957;  -26.675;   34.000;  -23.000
319.094;   43.250;  297.000;  154.000
319.230;  -65.200; -756.000; -742.000
319.367;  151.425; -471.000; -520.000
319.503;   62.525; -538.000; -436.000
319.639;  -77.550; -877.000; -793.000
319.775;  -49.725; -750.000; -685.000
319.912;  -46.575; -424.000; -519.000
320.048;  -84.500;-1184.000;-1184.000
320.184;   59.025;   59.000;   70.000
320.321;  -62.025; -497.000; -467.000
320.457;   57.750;  475.000;  662.000
320.593;  -68.875; -375.000; -382.000
320.729; -117.975; -732.000; -734.000
320.866;  -75.300; -577.000; -635.000
321.002;  -76.925; -759.000; -809.000
321.138;   -8.100; -135.000; -211.000
321.274;   76.725; -148.000; -115.000
321.410;  -28.175; -585.000; -353.000
321.546;  -11.900;-1011.000; -911.000
321.683;   65.350;  400.000;  185.000
321.819;   -2.525;  -48.000; -117.000
321.955;  -98.375; -743.000; -722.000
322.091;  -45.950; -585.000; -540.000
322.227;  -15.650; -382.000; -202.000
322.363;  -15.800; -320.000; -215.000
322.499;  -54.300; -343.000; -331.000
322.635;  177.600;  636.000;  443.000
322.771;   32.975; -139.000;   12.000
322.907;  101.350;  129.000;  327.000
323.043;  -25.675; -115.000; -206.000
323.179;  -39.600; -394.000; -363.000
323.315;   38.125; -401.000; -371.000
323.451;  118.900; -328.000; -236.000
323.587;   68.125;  -60.000;  -77.000
323.723;   31.250; -682.000; -601.000
323.859;   -4.225; -258.000;  -76.000
323.995;  -28.500; -467.000; -409.000
324.131; -118.950; -967.000; -892.000
324.267;  -32.325; -254.000; -276.000
324.402; -129.925; -960.000; -983.000
324.538;  -21.550; -279.000; -104.000
324.674;   29.150;  164.000;   77.000
324.810;  152.600;  226.000;  308.000
324.946;   13.750; -810.000; -658.000
325.082;  -65.550; -568.000; -475.000
325.217;   -8.200;  -62.000;   16.000
325.353;  -98.525; -764.000; -659.000
325.489;  -88.525; -540.000; -506.000
325.625;  -71.250; -579.000; -525.000
325.760;   53.500;  517.000;  376.000
325.896;  -42.300; -515.000; -702.000
326.032;  -51.900; -403.000; -352.000
326.168;  -61.975; -462.000; -369.000
326.303;  -55.150; -352.000; -461.000
326.439;  -28.475; -336.000; -276.000
326.575;   16.400; -190.000;  -29.000
326.710;    4.675; -156.000;  -30.000
326.846;  -28.800;  146.000;  103.000
326.982;  -83.575; -530.000; -548.000
327.117;  -57.975; -481.000; -442.000
327.253;  -90.000; -745.000; -742.000
327.388; -131.100;-1137.000;-1153.000
327.524;  -41.750; -811.000; -578.000
327.659;  -25.150;  -58.000;  -22.000
327.795;  -10.375;   69.000;   45.000
327.931;  -92.575; -723.000; -499.000
328.066;  -26.250; -417.000; -276.000
328.202;  -18.975;   12.000; -129.000
328.337;  118.325;  957.000;  713.000
328.473;   39.350;  -12.000;  -74.000
328.608;  -14.300; -256.000; -267.000
328.743;  -72.850; -799.000; -664.000
328.879;   21.975;  214.000;  114.000
329.014;  -36.825; -102.000; -122.000
329.150;  -81.225; -358.000; -483.000
329.285;  -66.475; -465.000; -466.000
329.421;  -55.175; -548.000; -246.000
329.556;  -11.750;  -36.000;   85.000
329.691; -105.725; -633.000; -615.000
329.827;  -89.950; -626.000; -480.000
329.962;  -43.225;  131.000; -301.000
330.097;  -98.825; -673.000; -585.000
330.233;  -41.800; -410.000; -223.000
330.368; -116.450; -839.000; -628.000
330.503;  -11.275;    3.000;   98.000
330.638;   22.025;  -93.000; -125.000
330.774;  -48.175; -609.000; -530.000
330.909;  -43.400; -434.000; -244.000
331.044; -101.550; -714.000; -708.000
331.179; -173.025;-1217.000;-1109.000
331.315;   10.300;   77.000;   20.000
331.450;   41.425;  157.000;  285.000
331.585;  -81.875; -805.000; -706.000
331.720;  -88.700; -510.000; -460.000
331.855;    0.225;  -35.000; -102.000
331.990;  213.850;   62.000;  138.000
332.126;  132.125; -110.000;   71.000
332.261;  -26.225; -379.000; -265.000
332.396;  -13.750; -135.000; -242.000
332.531;  -98.300;-1074.000;-1031.000
332.666;   28.150; -519.000; -363.000
332.801; -104.350; -726.000; -807.000
332.936;  -23.625; -192.000; -122.000
333.071; -115.375; -870.000; -817.000
333.206;   19.250;  307.000;  379.000
333.341;   30.400;  344.000;  418.000
333.476;  -73.500; -627.000; -623.000
333.611;  -32.550; -251.000; -173.000
333.746;  -41.725; -381.000; -464.000
333.881; -103.300; -973.000; -935.000
334.016; -126.675; -936.000; -917.000
334.151; -116.325; -746.000; -702.000
334.286;   30.250;  152.000;  186.000
334.421;  -12.700; -125.000; -178.000
334.556;  -78.350; -611.000; -567.000
334.690;  -76.725; -631.000; -577.000
334.825;   60.900;  381.000;   83.000
334.960;  -49.700; -285.000; -413.000
335.095;    4.925;  135.000;  -91.000
335.230;  -90.325; -722.000; -738.000
335.365; -119.000;-1084.000; -990.000
335.499; -134.000;-1108.000;-1037.000
335.634;   26.125;    9.000;  534.000
335.769;  -97.075; -755.000; -720.000
335.904;  -41.725; -603.000; -561.000
336.038;  -31.600; -735.000; -657.000
336.173; -111.950;-1206.000;-1194.000
336.308;   10.000; -116.000; -189.000
336.443;   28.175; -544.000; -634.000
336.577;  -59.125; -936.000; -787.000
336.712;   80.975;   -4.000;  -12.000
336.847;  -22.825; -724.000; -607.000
336.981;   77.375; -272.000; -208.000
337.116;  327.425;  615.000;  501.000
337.250;  182.750; -434.000; -421.000
337.385;  230.250; -297.000; -208.000
337.520;   71.075; -632.000; -603.000
337.654;  -38.800; -215.000; -126.000
337.789; -114.350; -989.000; -933.000
337.923;  -20.775; -104.000; -205.000
338.058;  -78.250; -673.000; -738.000
338.192;  -27.650; -611.000; -488.000
338.327;  -13.050;  -18.000; -155.000
338.461;  -63.500; -299.000; -469.000
338.596;  -91.750; -780.000; -638.000
338.730; -101.750; -767.000; -803.000
338.865;   74.375;  -46.000; -140.000
338.999;  -50.100; -846.000; -702.000
339.134;  -39.525; -634.000; -536.000
339.268;   19.600; -741.000; -603.000
339.403;  339.075; -740.000; -775.000
339.537;   92.100; -894.000; -820.000
339.671; -104.225; -829.000; -813.000
339.806;  -65.125; -556.000; -512.000
339.940;    5.000; -261.000; -235.000
340.074;  -85.525; -685.000; -510.000
340.209;  -45.975; -351.000; -230.000
340.343;  -88.600; -517.000; -573.000
340.477;  165.350;  998.000; 1036.000
340.612;  -63.725;-1033.000; -900.000
340.746;  119.250; -199.000; -243.000
340.880;  -71.625; -924.000; -785.000
341.014;  -17.450;  -45.000; -154.000
341.149; -122.125; -756.000; -718.000
341.283; -117.575; -839.000; -754.000
341.417;  -87.725;-1124.000; -938.000
341.551;  175.350; -768.000; -708.000
341.685;  -24.125; -633.000; -611.000
341.820;  -50.775; -562.000; -493.000
341.954;  -43.925; -218.000; -349.000
342.088; -144.275;-1102.000;-1019.000
342.222;   55.500;  565.000;  618.000
342.356;  -52.375; -395.000; -335.000
342.490;  -89.750; -880.000; -841.000
342.624;  -20.175; -339.000; -242.000
342.758;    0.725; -364.000; -312.000
342.892;  -57.950; -710.000; -585.000
343.026;  -42.375;  -58.000; -116.000
343.160;  -63.350; -426.000; -376.000
343.294;  -74.675; -474.000; -337.000
343.428;  -10.525; -488.000; -448.000
343.562;  -10.125; -172.000;  -23.000
343.696;  -11.100; -385.000; -314.000
343.830;  -24.300; -362.000; -356.000
343.964;   23.625; -231.000; -168.000
344.098; 1024.750;  199.000;   70.000
344.232;  851.900; -266.000; -127.000
344.366;   92.350; -567.000; -453.000
344.500;   78.075; -665.000; -744.000
344.634;   44.825; -324.000; -164.000
344.768;  -11.950; -531.000; -341.000
344.902;   42.750;  278.000;  256.000
345.035;  -78.950; -556.000; -496.000
345.169; -139.900; -933.000; -656.000
345.303;  -45.850; -308.000; -482.000
345.437;  -63.350; -826.000; -717.000
345.571;  -68.975; -675.000; -594.000
345.704;  -69.025; -309.000; -532.000
345.838;  -26.750; -331.000; -284.000
345.972;  -27.425; -543.000; -495.000
346.106;  154.375; -179.000; -190.000
346.239;  409.250; -312.000; -243.000
346.373;    5.650; -343.000; -302.000
346.507; -139.450; -950.000; -962.000
346.640;  160.025;  -30.000;   13.000
346.774;  -38.850; -650.000; -797.000
346.908;   -5.000; -138.000;  -11.000
347.041;  -82.575; -646.000; -593.000
347.175;    0.900;  259.000;   27.000
347.309;  -65.900; -698.000; -628.000
347.442;  -94.875; -883.000; -732.000
347.576;  300.700;  670.000;  668.000
347.709;  217.450; -123.000;  -52.000
347.843;  -80.350; -933.000; -825.000
347.976;   42.125;  235.000;  294.000
348.110; -175.225;-1268.000;-1186.000
348.243; -103.900; -679.000; -772.000
348.377;    4.875;  -26.000;   60.000
348.510;   70.925;  403.000;  540.000
348.644;  -35.050;  -37.000; -159.000
348.777;   -1.000;  180.000;  191.000
348.911;  -62.125; -142.000; -112.000
349.044;  196.050;  471.000;  448.000
349.178;  184.325;-1069.000;-1006.000
349.311;  108.525;  141.000;  255.000
349.444;  -14.300; -927.000; -813.000
349.578;  -20.425; -347.000; -200.000
349.711;  -89.575; -959.000; -862.000
349.845;   14.400; -661.000; -591.000
349.978; -125.575;-1224.000;-1137.000
350.111;  -76.000; -546.000; -612.000
350.244;  -79.175; -596.000; -700.000
350.378;   19.000; -392.000; -393.000
350.511;  -46.425; -393.000; -426.000
350.644; -116.500; -808.000; -806.000
350.778;   14.200;  168.000;  104.000
350.911;    3.825;  134.000;  140.000
351.044;  -90.300; -685.000; -615.000
351.177;   -8.350; -321.000; -281.000
351.310;  -25.725;    3.000; -131.000
351.444;  -66.750; -888.000; -788.000
351.577;  144.075;  140.000;   90.000
351.710;  109.975;  593.000;  417.000
351.843;  -33.775; -165.000;  -77.000
351.976;   -2.050;  149.000;  -79.000
352.109;  -78.100; -621.000; -612.000
352.242;  -17.400; -464.000; -419.000
352.376;  -60.825; -580.000; -636.000
352.509;  208.900; -437.000; -356.000
352.642;   21.025; -654.000; -604.000
352.775;   60.000; -141.000;  -98.000
352.908; -110.975; -933.000; -904.000
353.041; -113.425; -814.000; -824.000
353.174;  -67.100; -551.000; -424.000
353.307;  -93.025; -753.000; -764.000
353.440;   73.300;  541.000;  453.000
353.573;  -95.625; -957.000;-1008.000
353.706;  -37.625; -384.000; -558.000
353.839;  -17.850; -264.000; -220.000
353.971;  -89.925; -657.000; -512.000
354.104;  -78.750; -896.000; -835.000
354.237;  -28.525; -627.000; -662.000
354.370;  -80.900; -846.000; -879.000
354.503; -173.750;-1231.000;-1308.000
354.636;  -14.800; -529.000; -348.000
354.769; -104.550; -937.000; -860.000
354.902;  -18.625; -230.000; -139.000
355.034;  -18.650; -164.000; -220.000
355.167;  -12.725; -262.000; -162.000
355.300;  -94.200;-1061.000; -880.000
355.433;  907.450;  -71.000;  -14.000
355.565; 1408.600; -402.000; -384.000
355.698;  348.825; -356.000; -296.000
355.831;    9.850; -882.000; -801.000
355.964;  102.550; -285.000; -170.000
356.096;  -70.025; -856.000; -843.000
356.229;   21.850; -523.000; -530.000
356.362;  295.750; -373.000; -266.000
356.494;  573.225; -229.000; -162.000
356.627;  519.975;  269.000;  377.000
356.760;  652.900;  120.000;   53.000
356.892;  892.275; -286.000; -601.000
357.025;  718.825;  403.000;  389.000
357.157;  672.300; -167.000; -179.000
357.290;  589.575; -856.000; -713.000
357.423;  174.425; -667.000; -556.000
357.555;  131.775; -217.000; -228.000
357.688;  153.875; -483.000; -364.000
357.820;  481.275; -870.000; -877.000
357.953; 3969.275; -563.000; -589.000
358.085;  887.625; -632.000; -612.000
358.218; 1379.400;-1131.000; -932.000
358.350;  236.000;  -58.000;  312.000
358.483; -113.150;-1300.000;-1187.000
358.615;   14.475;-1182.000;-1078.000
358.747;  -27.625;-1187.000;-1058.000
358.880;   53.000; -810.000; -744.000
359.012;   -1.625; -376.000; -202.000
359.145;  -30.200; -480.000; -511.000
359.277;   71.225; -962.000; -913.000
359.409; 3327.550;  536.000;  231.000
359.542;  859.000; -738.000; -688.000
359.674;   84.200;   46.000;   13.000
359.806;  -58.125; -565.000; -438.000
359.939;  -43.100; -617.000; -516.000
360.071;  -17.825; -583.000; -579.000
360.203;  -30.350; -411.000; -364.000
360.335;   59.525;  164.000;  -16.000
360.468;  215.625; -249.000; -307.000
360.600; 2629.225; -547.000; -454.000
360.732; 2609.950; -546.000; -423.000
360.864;  339.425;-1216.000;-1044.000
360.996;  348.750; -516.000; -554.000
361.129;   74.550; -389.000; -598.000
361.261;   26.525;  110.000; -113.000
361.393;  -17.500; -252.000; -214.000
361.525;   32.925;   94.000;  244.000
361.657;  -37.150; -821.000; -703.000
361.789;   19.950; -139.000; -155.000
361.921;  295.325; -642.000; -593.000
362.053;  293.275;  524.000;  541.000
362.185;   47.750;  288.000;   72.000
362.318;  -70.825; -709.000; -705.000
362.450;  149.525;  294.000;  444.000
362.582;  168.025; -913.000; -870.000
362.714;  -30.450; -353.000; -332.000
362.846;  -76.000; -606.000; -490.000
362.978; -136.750; -941.000; -811.000
363.109;   70.875; -161.000; -260.000
363.241;  481.650; -739.000; -749.000
363.373;  414.000; -649.000; -564.000
363.505;  596.100; -186.000;  -91.000
363.637;  144.225; -787.000; -601.000
363.769; -106.325;-1067.000;-1080.000
363.901;  -71.825; -596.000; -654.000
364.033; -101.125;-1103.000;-1062.000
364.165;    1.600; -283.000; -283.000
364.296;   59.925; -316.000; -177.000
364.428;   51.075;-1344.000;-1220.000
364.560;  -69.250; -679.000; -661.000
364.692;  -58.200; -738.000; -835.000
364.824;  310.275; -588.000; -456.000
364.955;  439.775; -402.000; -564.000
365.087;  789.875;-1097.000; -852.000
365.219;   -2.000; -686.000; -816.000
365.351;  -64.475; -526.000; -572.000
365.482;   51.575;  300.000;  240.000
365.614;  -36.700; -402.000; -314.000
365.746;  -87.775; -729.000; -752.000
365.877; -114.700; -706.000; -672.000
366.009;  238.025;  -35.000;  -62.000
366.141;  -84.625;-1249.000;-1134.000
366.272;  -99.650; -803.000; -719.000
366.404; -116.900;-1005.000; -874.000
366.535;  -14.525; -139.000;  -12.000
366.667; -101.900; -644.000; -649.000
366.799;   44.675;  353.000;  203.000
366.930; -109.525; -862.000; -996.000
367.062;  114.625; -639.000; -613.000
367.193;  122.775; -872.000; -842.000
367.325;  -60.850; -580.000; -684.000
367.456;   96.575; -246.000;   31.000
367.588;  143.075; -371.000; -318.000
367.719;   15.325;  -44.000;  -45.000
367.851;  -16.825; -222.000; -241.000
367.982;  -50.300; -875.000; -732.000
368.113;  130.675; -475.000; -358.000
368.245; -121.275; -960.000; -841.000
368.376;  -15.100; -254.000; -302.000
368.508;  -27.175; -188.000; -263.000
368.639; -137.950;-1166.000;-1034.000
368.770;   -8.050; -670.000; -589.000
368.902;  -51.725; -836.000; -926.000
369.033;  -95.325; -906.000; -855.000
369.164;  -45.100; -720.000; -653.000
369.296;  -98.950; -452.000; -601.000
369.427;    5.450; -209.000; -144.000
369.558;  -45.225; -593.000; -377.000
369.689;  -71.125; -721.000; -569.000
369.821; -123.625; -951.000; -845.000
369.952;   -2.775;   42.000; -108.000
370.083;  -34.675; -229.000; -108.000
370.214;  -84.475; -735.000; -650.000
370.345;    7.175;   65.000;   81.000
370.477;  -76.950; -810.000; -790.000
370.608;  272.600; -328.000; -264.000
370.739;  -38.650;-1233.000;-1292.000
370.870;   -9.100;-1102.000; -923.000
371.001;  119.750; -378.000; -467.000
371.132;  -76.875; -754.000; -735.000
371.263;  -16.900;  -42.000; -148.000
371.394; -136.225; -841.000; -748.000
371.525;   43.425;  345.000;  225.000
371.657;  -89.825; -808.000; -670.000
371.788;   68.150;  103.000;  199.000
371.919;  187.100; -384.000; -304.000
372.050; 4051.200;  -91.000; -156.000
372.181; 1208.650; -188.000; -294.000
372.311;  421.825;   42.000; -127.000
372.442;   50.450; -457.000; -451.000
372.573;  -11.525; -444.000; -340.000
372.704; -111.250;-1008.000; -980.000
372.835;   95.150; -228.000; -289.000
372.966;  -51.175; -646.000; -554.000
373.097;  -69.300; -575.000; -711.000
373.228;  -32.925; -717.000; -542.000
373.359;  180.475; -824.000; -536.000
373.490; 1057.550; -881.000; -727.000
373.620; 1317.875;-1001.000; -803.000
373.751; 2069.575; -332.000; -396.000
373.882;  922.050; -663.000; -733.000
374.013;   86.000; -449.000; -262.000
374.143;  -34.150; -581.000; -659.000
374.274;  -88.450; -987.000; -908.000
374.405;  202.000; -388.000; -276.000
374.536;  517.100; -526.000; -387.000
374.666; 1311.825; -759.000; -807.000
374.797;  275.550; -817.000; -868.000
374.928; 1007.625; -710.000; -560.000
375.058; 1014.825; -535.000; -500.000
375.189;  100.825;  -59.000;  -93.000
375.320; -107.725; -928.000;-1034.000
375.450;  -41.075; -625.000; -616.000
375.581;  -47.100; -526.000; -436.000
375.712;  -31.000; -574.000; -250.000
375.842;  376.725; -438.000; -415.000
375.973;  269.250; -554.000; -513.000
376.103;  -22.100; -665.000; -648.000
376.234;  -80.650; -531.000; -552.000
376.364;  -17.025; -944.000; -867.000
376.495;  380.750;  925.000;  529.000
376.625;    5.275; -472.000; -485.000
376.756;   81.900; -709.000; -678.000
376.886;  -80.750;-1178.000;-1026.000
377.017;   48.825;-1048.000;-1061.000
377.147;  307.075; -786.000; -782.000
377.278;   67.700;  174.000;  228.000
377.408; -122.125; -801.000; -815.000
377.538; -108.775; -707.000; -693.000
377.669;  -64.525; -537.000; -613.000
377.799;  -78.125; -645.000; -635.000
377.929;  -39.175; -610.000; -428.000
378.060; -122.275; -781.000; -847.000
378.190;  -56.675; -726.000; -531.000
378.320;  -53.300; -401.000; -406.000
378.451;    2.400; -131.000;  -22.000
378.581;   11.175;  -67.000; -110.000
378.711;  168.725; 1035.000;  866.000
378.841;   -7.100; -533.000; -675.000
378.972;  -51.075; -871.000; -751.000
379.102;   18.025; -652.000; -579.000
379.232;   -4.150; -126.000;  -73.000
379.362; -100.550;-1001.000; -885.000
379.492;   31.000; -373.000; -424.000
379.623;  116.875;    0.000;  111.000
379.753;  -97.525;-1107.000; -974.000
379.883;  217.100;   59.000;  156.000
380.013;   21.800;-1081.000;-1017.000
380.143;  -81.500;-1097.000;-1056.000
380.273;  -90.975; -985.000; -861.000
380.403;    9.050; -344.000; -257.000
380.533;   -4.300; -651.000; -664.000
380.663;   89.000;  173.000;  128.000
380.793;  -79.925;-1027.000;-1074.000
380.923;   -6.800; -103.000;  -34.000
381.053; -106.025; -613.000; -623.000
381.183;  -29.825; -106.000; -248.000
381.313;   56.050; -656.000; -470.000
381.443;   59.550; -692.000; -473.000
381.573;  248.550; -402.000; -409.000
381.703;  341.400;-1249.000;-1095.000
381.833; -112.425;-1454.000;-1336.000
381.963;  111.400; -134.000;  -87.000
382.093; 1547.775; -925.000; -909.000
382.223;  492.225; -713.000; -602.000
382.353;   -3.350; -801.000; -608.000
382.482;  465.475;-1091.000; -964.000
382.612;  869.750; -872.000; -644.000
382.742;  486.600; -695.000; -622.000
382.872;  319.700; -565.000; -551.000
383.002;   75.375;  347.000; -132.000
383.131;  -11.600; -226.000; -160.000
383.261;  -30.550; -706.000; -768.000
383.391;  285.975; -552.000; -377.000
383.521; 2903.275;  451.000;  263.000
383.650;  651.300; -947.000; -904.000
383.780;  -23.950; -783.000; -656.000
383.910;  112.600;  880.000;  802.000
384.039;   39.600; -794.000; -656.000
384.169;  267.125;-1205.000;-1017.000
384.299;   -9.425; -650.000; -662.000
384.428;  -78.350; -764.000; -680.000
384.558;  -32.850; -308.000; -275.000
384.687;  -43.250; -414.000; -334.000
384.817;   23.100;   75.000;   -2.000
384.947;   25.950; -234.000; -141.000
385.076;  302.100;  982.000;  912.000
385.206;  116.975;  369.000;  480.000
385.335;  -31.650; -549.000; -417.000
385.465;  -74.700; -655.000; -663.000
385.594;  155.700;  -53.000;  -44.000
385.724;  522.450; -868.000; -838.000
385.853;  151.725; -296.000; -270.000
385.982; 1558.675; -743.000; -787.000
386.112; 2455.100;-1052.000; -871.000
386.241;  175.725; -307.000; -312.000
386.371;   26.775; -174.000;  -87.000
386.500;   22.425; -825.000; -789.000
386.629;   20.775; -874.000; -817.000
386.759;   64.400;  -43.000;   68.000
386.888;    2.400; -170.000; -250.000
387.017;  -57.400; -648.000; -620.000
387.147;  -83.875; -771.000; -798.000
387.276;   10.475; -410.000; -397.000
387.405;   34.725; -398.000; -342.000
387.535;  -36.500; -452.000; -361.000
387.664;  -58.800; -692.000; -620.000
387.793;   68.075; -198.000; -113.000
387.922;  605.200;  255.000;  200.000
388.052;   47.000; -576.000; -423.000
388.181;   39.800; -342.000; -472.000
388.310;   52.125; -889.000; -710.000
388.439;  -21.275; -749.000; -742.000
388.568;  209.475;  365.000;  244.000
388.697; 1223.925; -756.000; -653.000
388.826;  265.000; -768.000; -666.000
388.956;   78.500; -285.000; -307.000
389.085;  -31.475; -347.000; -287.000
389.214; -118.750; -842.000; -872.000
389.343;  -55.300; -645.000; -413.000
389.472;  384.900;  126.000;  149.000
389.601;  509.950;   91.000;    0.000
389.730;   22.875; -568.000; -687.000
389.859;   83.750;  226.000;   46.000
389.988;  228.125; -423.000; -408.000
390.117;  163.700; -168.000; -146.000
390.246;   -0.525; -331.000; -320.000
390.375;  141.650; -673.000; -626.000
390.504;  -52.175; -703.000; -621.000
390.633;  -90.725; -672.000; -726.000
390.761;  -56.150; -732.000; -645.000
390.890;   41.675;   -4.000; -130.000
391.019;  -21.025; -421.000; -441.000
391.148; -122.050; -826.000; -855.000
391.277;  -63.925; -576.000; -493.000
391.406;  -57.950; -821.000; -805.000
391.534;   19.600;  574.000; -301.000
391.663;  -56.700; -583.000; -645.000
391.792;  -89.225; -673.000; -701.000
391.921;  128.775;   -3.000;   15.000
392.050;  231.100; -287.000; -228.000
392.178;  -29.275;-1206.000;-1061.000
392.307;  172.075; -758.000; -712.000
392.436;  101.225; -427.000; -641.000
392.564;   20.525;  166.000;   -6.000
392.693;  -86.375; -860.000; -682.000
392.822;  235.175; -529.000; -534.000
392.950;  117.500; -880.000; -714.000
393.079;  378.525; -188.000; -328.000
393.208;   32.700; -488.000; -511.000
393.336;   -2.325; -170.000; -145.000
393.465;  -55.475; -317.000; -199.000
393.593;    4.850;   62.000;   79.000
393.722; -144.875;-1121.000; -916.000
393.850;  -46.150; -188.000;  -61.000
393.979; -152.325; -926.000; -805.000
394.107;  -64.900; -517.000; -537.000
394.236;   -3.950; -570.000; -507.000
394.364;  213.100;  383.000;  206.000
394.493;  300.550; -911.000; -767.000
394.621;   -9.375; -955.000; -916.000
394.750;  645.550; -873.000; -923.000
394.878; 2758.000; -247.000; -149.000
395.007; 3740.025; -721.000; -807.000
395.135;  269.500; -790.000; -721.000
395.263;  -70.900;-1038.000;-1040.000
395.392;   -8.450;  -25.000; -107.000
395.520; -147.825; -818.000; -679.000
395.648;  -76.700; -865.000; -915.000
395.777;  -15.050; -366.000; -405.000
395.905;  -59.650; -449.000; -564.000
396.033;   21.350;  217.000;  172.000
396.162;  513.875; -399.000; -453.000
396.290;  477.225;  -17.000;   -2.000
396.418;  111.000; -555.000; -514.000
396.546;  -69.475; -571.000; -466.000
396.674;  -90.275; -850.000; -878.000
396.803;   12.700;  -72.000;  -23.000
396.931;  115.225; -179.000; -199.000
397.059;   89.225;-1026.000; -989.000
397.187; -103.175;-1026.000; -975.000
397.315; -126.525; -884.000; -649.000
397.443;  -94.875; -592.000; -443.000
397.572;  -89.575; -578.000; -424.000
397.700;    8.300; -607.000; -614.000
397.828;   13.375;  120.000;  -90.000
397.956;  -50.600; -508.000; -478.000
398.084;  -61.075; -767.000; -626.000
398.212;   48.775;  137.000;  124.000
398.340;   24.450;  -56.000;  159.000
398.468;   33.100; -390.000; -169.000
398.596; -138.275; -993.000; -953.000
398.724; -120.925; -762.000; -767.000
398.852; -153.775;-1024.000; -976.000
398.980;  -59.625; -560.000; -560.000
399.108;  -64.450; -982.000; -735.000
399.236;   38.750;   13.000;    8.000
399.363;    9.275;  222.000;  196.000
399.491;  -75.250; -404.000; -398.000
399.619; -122.275; -829.000; -800.000
399.747;  -97.950; -859.000; -771.000
399.875;   85.425;  220.000;  234.000
400.003;  -66.225; -359.000; -284.000
400.130;  -93.025; -421.000; -341.000
400.258;  -32.050;  -83.000;   38.000
400.386;  -49.025; -352.000; -168.000
400.514;  -31.925; -526.000; -587.000
400.641;  -74.125; -928.000; -802.000
400.769; -145.575; -979.000; -888.000
400.897; -112.550; -838.000; -793.000
401.025;  -21.150; -166.000; -152.000
401.152;    1.275;  220.000;   38.000
401.280;  -77.375; -430.000; -429.000
401.408; -118.075; -712.000; -576.000
401.535; -115.875; -735.000; -758.000
401.663; -194.350;-1134.000;-1054.000
401.790;  -88.200; -514.000; -525.000
401.918;   40.700;  436.000;  405.000
402.046;  -15.975;  134.000;  122.000
402.173;  -37.775;  -18.000;    7.000
402.301;  -81.750; -519.000; -397.000
402.428;   56.000;  528.000;  383.000
402.556; -144.325;-1188.000; -913.000
402.683;  -42.650;  -20.000;   -1.000
402.811;  -22.750;  -37.000; -206.000
402.938;   -8.500;   20.000;   27.000
403.066;  231.025; -574.000; -558.000
403.193;  398.125;  299.000;  239.000
403.321;  310.150; -396.000; -574.000
403.448;  387.900;   83.000;   27.000
403.575;  183.000;  -90.000;  -46.000
403.703;  -87.100; -732.000; -557.000
403.830;  -62.925; -531.000; -496.000
403.957; -147.325;-1117.000;-1023.000
404.085;   14.775;  -61.000; -172.000
404.212;  116.700;  -50.000;   63.000
404.339;  256.800; -566.000; -306.000
404.467; 5392.000; -612.000; -524.000
404.594; 3716.925; -287.000; -227.000
404.721;  915.250; -869.000; -764.000
404.848;   85.775; -113.000; -202.000
404.976; -107.700; -856.000; -783.000
405.103;  -25.900;  -14.000;  -82.000
405.230;    0.100;  190.000;  226.000
405.357;   35.500;  117.000;   44.000
405.484;  257.725;  -49.000;    5.000
405.612;   39.100; -548.000; -563.000
405.739;  -62.300; -488.000; -243.000
405.866;   84.025;  669.000;  385.000
405.993;  -36.000; -398.000; -102.000
406.120; -128.150; -801.000; -887.000
406.247;  -63.700; -323.000; -342.000
406.374;  495.025;  540.000;  629.000
406.501;  144.275; -632.000; -702.000
406.628;  -70.175; -621.000; -589.000
406.755; -100.400; -803.000; -620.000
406.882;  -28.275; -228.000; -277.000
407.009; -119.350; -719.000; -628.000
407.136;   69.125; -480.000; -401.000
407.263;  168.000; -939.000; -829.000
407.390;  -76.525; -692.000; -614.000
407.517; -173.975;-1139.000;-1187.000
407.644;  -56.875; -332.000; -256.000
407.771; -138.900; -249.000; -287.000
407.898;   12.650;  168.000;  328.000
408.025;  -48.650; -421.000; -313.000
408.151;  -12.850;   82.000;  153.000
408.278;  -66.150; -267.000; -216.000
408.405; -115.400; -931.000; -899.000
408.532;  -53.875; -549.000; -542.000
408.659; -123.000; -677.000; -648.000
408.785; -206.975;-1298.000;-1170.000
408.912;  -75.000; -412.000; -296.000
409.039; -111.500; -610.000; -686.000
409.166; -115.225; -591.000; -555.000
409.292; -119.350; -571.000; -534.000
409.419; -117.325; -665.000; -649.000
409.546;  -85.850; -431.000; -192.000
409.672; -111.550; -713.000; -545.000
409.799;  -20.550;  -36.000;   34.000
409.926;  -46.875; -180.000; -179.000
410.052; -171.550;-1127.000;-1091.000
410.179;  -63.075; -368.000; -392.000
410.305;  -92.325; -375.000; -493.000
410.432;  -45.975; -220.000; -333.000
410.558;  -94.500; -305.000; -380.000
410.685; -102.175; -688.000; -431.000
410.812;  -97.000; -409.000; -588.000
410.938; -141.250; -964.000; -808.000
411.065;  -87.475; -671.000; -645.000
411.191;  -23.600; -189.000; -174.000
411.317; -113.550; -823.000; -742.000
411.444;  -63.300; -317.000; -246.000
411.570;  -77.200; -339.000; -294.000
411.697; -132.775; -758.000; -752.000
411.823; -169.175; -989.000; -999.000
411.949;  -26.600;  -56.000;   17.000
412.076; -109.475; -539.000; -519.000
412.202; -102.525; -758.000; -757.000
412.329; -133.150; -798.000; -752.000
412.455; -119.450; -821.000; -657.000
412.581;  -31.000;  -15.000;  172.000
412.707;  -55.975; -540.000; -457.000
412.834;    8.625;  156.000;  219.000
412.960;  -91.525; -785.000; -784.000
413.086;  -86.225; -743.000; -701.000
413.212;  171.375;  604.000;  578.000
413.339;  -47.050; -685.000; -701.000
413.465;   13.600; -364.000; -310.000
413.591;  -86.050; -757.000; -474.000
413.717;  -50.700; -358.000; -366.000
413.843; -136.725; -839.000; -861.000
413.969;  -60.050;  -47.000; -292.000
414.096; -101.025; -679.000; -679.000
414.222;   -0.425;  -33.000;   85.000
414.348;  -28.975; -652.000; -385.000
414.474;  104.825;   38.000;  -52.000
414.600;   -4.800; -126.000; -144.000
414.726;   -8.000;  -96.000;  -55.000
414.852;  -52.625; -365.000; -342.000
414.978;   27.700;  104.000;  -18.000
415.104;   37.475;   38.000;   80.000
415.230;   19.825; -329.000; -330.000
415.356;   27.400; -409.000; -514.000
415.482;  199.075;   13.000;  -35.000
415.608;  251.250; -247.000; -323.000
415.734;  912.275;   67.000;   38.000
415.860;19322.475; -875.000; -767.000
415.986;13814.200; -685.000; -607.000
416.111; 1158.500; -798.000; -652.000
416.237;  238.975; -424.000; -571.000
416.363; 1053.450; -765.000; -733.000
416.489; 3886.800; -324.000; -251.000
416.615;  404.400; -707.000; -742.000
416.741;  -38.200; -677.000; -784.000
416.866; -100.000; -673.000; -736.000
416.992; -115.650; -801.000; -818.000
417.118;  -28.600;  -41.000;  -80.000
417.244;  -61.500; -798.000; -531.000
417.369;  -90.950; -801.000; -612.000
417.495;   -5.775; -325.000; -254.000
417.621;  -83.975;-1015.000; -803.000
417.746;    8.350; -579.000; -572.000
417.872;   41.950; -254.000; -144.000
417.998;   54.900; -515.000; -530.000
418.123;  986.875;-1073.000; -845.000
418.249; 5031.500; -512.000; -601.000
418.374;  662.150; -916.000; -824.000
418.500;  102.325; -383.000; -482.000
418.626;  102.425;   70.000;  -59.000
418.751;  119.250; -549.000; -448.000
418.877;  188.400; -637.000; -643.000
419.002; 1675.950; -688.000; -560.000
419.128;11871.575; -930.000; -721.000
419.253; 2852.800; -967.000; -837.000
419.379;  374.950; -391.000; -338.000
419.504;  378.750;  325.000;  415.000
419.629;  482.575; -393.000; -212.000
419.755; 3317.750; -317.000; -254.000
419.880;19435.875;  -98.000;   67.000
420.006;10697.800; -280.000; -221.000
420.131;27871.575; -662.000; -775.000
420.256; 3965.475; -315.000; -316.000
420.382;  521.150; -665.000; -687.000
420.507;   54.900; -649.000; -778.000
420.632;  158.100; -337.000; -339.000
420.758;  303.075; -251.000; -425.000
420.883;  -81.000; -876.000; -672.000
421.008;  -88.600; -775.000; -619.000
421.133;  -79.275; -509.000; -467.000
421.259;  -37.000; -325.000; -259.000
421.384; -104.100; -834.000; -693.000
421.509;  -32.800;-1052.000; -862.000
421.634; 1398.500; -936.000; -820.000
421.759;  607.175; -359.000; -327.000
421.885;  -40.850; -717.000; -656.000
422.010;  -74.350; -673.000; -542.000
422.135; -146.025; -695.000; -727.000
422.260;   20.825;  340.000;  280.000
422.385;  -45.700;   12.000;  -98.000
422.510;    4.950;  151.000;  -26.000
422.635;   31.550;  -87.000;  -43.000
422.760;  113.075; -766.000; -791.000
422.885;   43.350;  -57.000;  -80.000
423.010;  -26.250; -112.000; -169.000
423.135; -100.225; -481.000; -561.000
423.260;    2.025; -150.000; -245.000
423.385;   72.300;  476.000;  222.000
423.510;   40.275;   71.000;  -22.000
423.635;   85.275;  133.000;   45.000
423.760;   64.600;  383.000;  328.000
423.885;   79.375;  336.000;  391.000
424.010;   18.100;  -68.000;  -13.000
424.135;  -20.375;    5.000;  -33.000
424.259;  -92.775; -654.000; -457.000
424.384;  -61.725; -279.000; -272.000
424.509;  -31.275; -260.000; -186.000
424.634;  -92.525; -761.000; -623.000
424.759;  -31.300; -688.000; -544.000
424.883;  -12.925; -506.000; -527.000
425.008;  140.775; -502.000; -410.000
425.133; 1889.625; -679.000; -653.000
425.258;  873.275; -517.000; -381.000
425.382; 1144.050; -867.000; -774.000
425.507; 2913.525; -487.000; -543.000
425.632;  449.875; -802.000; -663.000
425.756;  423.250; -256.000; -146.000
425.881; 5991.575; -831.000; -857.000
426.006;15952.925; -604.000; -355.000
426.130; 2503.225; -696.000; -508.000
426.255;  321.500; -611.000; -491.000
426.379;  138.425; -189.000; -577.000
426.504;  359.950;  660.000;  544.000
426.629; 3928.775; -519.000; -466.000
426.753; 2672.825;   64.000;  -46.000
426.878;  302.150; -252.000; -288.000
427.002;  122.850; -651.000; -668.000
427.127; 1522.450;  -35.000; -158.000
427.251;10780.500;  372.000;  401.000
427.375; 3043.475; -191.000; -173.000
427.500; 2550.925; -616.000; -610.000
427.624;  863.925; -234.000; -400.000
427.749;  103.800; -216.000; -225.000
427.873;  -29.300; -499.000; -412.000
427.997;  -44.600; -222.000; -230.000
428.122;   84.500;  795.000;  703.000
428.246;   72.850;  433.000;  434.000
428.371; -125.175; -869.000; -773.000
428.495; -113.600; -624.000; -646.000
428.619;  -35.075; -186.000; -117.000
428.743;   22.050;   65.000;  132.000
428.868;   26.700; -732.000; -643.000
428.992; 1564.375; -219.000; -326.000
429.116;  630.275; -329.000; -357.000
429.240;  322.625;  419.000;  426.000
429.365;  -23.800; -454.000; -574.000
429.489;  -33.700; -638.000; -647.000
429.613;   30.575; -236.000; -177.000
429.737;   31.225; -563.000; -432.000
429.861;  266.850; -247.000; -133.000
429.985; 5369.650; -425.000; -305.000
430.109; 5755.000; -770.000; -908.000
430.234;  655.125;   76.000;  -50.000
430.358;   57.900; -250.000; -160.000
430.482;  -67.625; -672.000; -564.000
430.606;  -72.350; -655.000; -375.000
430.730;   26.325; -437.000; -388.000
430.854;  149.775; -909.000; -835.000
430.978;  -62.250; -795.000; -764.000
431.102;  -75.850; -499.000; -422.000
431.226; -124.200; -874.000; -815.000
431.350;   18.200;  345.000;  422.000
431.474;  -67.275; -661.000; -373.000
431.597; -141.775;-1060.000; -848.000
431.721;  -76.150; -276.000; -267.000
431.845; -138.750; -704.000; -472.000
431.969;  -67.775; -304.000; -349.000
432.093;  -96.050; -395.000; -317.000
432.217;  -29.025;   32.000;   82.000
432.341;  -89.325; -523.000; -518.000
432.464;    0.375;   96.000;   40.000
432.588;  245.375; -401.000; -329.000
432.712;  114.375;  -52.000;  -52.000
432.836;   43.900;  213.000;  263.000
432.959;  -16.525; -372.000; -311.000
433.083;   76.275;   11.000;    2.000
433.207;  350.225;  285.000;  930.000
433.330; 4812.900; -391.000; -200.000
433.454; 5843.925; -654.000; -638.000
433.578; 3375.775;  583.000;  278.000
433.701;  620.500; -623.000; -675.000
433.825;  163.000; -292.000; -299.000
433.949;  218.375;   28.000;  -72.000
434.072;   94.725; -410.000; -323.000
434.196;  -12.375; -309.000; -117.000
434.319; 3766.950;25482.000;25124.000
434.443;  724.450; -656.000; -603.000
434.566; 2503.450;  281.000;   62.000
434.690;  396.650; -637.000; -383.000
434.813;   52.375; -251.000; -173.000
434.937;  -76.875; -569.000; -696.000
435.060;  -24.675; -423.000; -332.000
435.184;  388.575; -492.000; -217.000
435.307;  206.225;  159.000;  102.000
435.431;    0.250;  -40.000;   24.000
435.554;  -85.000; -399.000; -240.000
435.677; -102.850; -350.000; -258.000
435.801;  -46.325;  -25.000;   49.000
435.924;   -4.325;    1.000;  -67.000
436.048; -103.000;-1019.000; -732.000
436.171;  -57.950; -240.000;  -66.000
436.294;  -40.025; -248.000; -229.000
436.417;   69.500; -963.000; -849.000
436.541;  -96.950; -814.000; -840.000
436.664;  -45.300; -242.000; -316.000
436.787;  -26.800;   13.000;  113.000
436.910; -104.225; -792.000; -422.000
437.034;    4.400;  142.000;  143.000
437.157;   77.825;  -11.000;    0.000
437.280;  -40.650; -392.000; -292.000
437.403;  -74.000; -982.000; -869.000
437.526;  812.550; -903.000; -865.000
437.649; 2776.525; -505.000; -332.000
437.772;  429.900; -692.000; -540.000
437.896;  139.450;  700.000;  544.000
438.019;  -96.625; -758.000; -503.000
438.142;  -78.425; -596.000; -506.000
438.265;  -14.050; -639.000; -670.000
438.388;  680.275; -520.000; -410.000
438.511;  122.950; -597.000; -394.000
438.634;  -34.625; -247.000; -125.000
438.757; -131.325; -693.000; -619.000
438.880;  -19.675;  -34.000;  -57.000
439.003;  -73.975; -417.000; -437.000
439.126;  -65.700; -287.000; -167.000
439.248;  -77.725;  -98.000; -139.000
439.371;  -47.175;    9.000;  -53.000
439.494;   26.775;  510.000;  439.000
439.617;  -51.725;   65.000;  -88.000
439.740; -173.175; -968.000; -816.000
439.863; -139.375; -755.000; -595.000
439.986; -129.900; -476.000; -431.000
440.108;  -56.250; -161.000; -112.000
440.231; -157.750; -950.000; -836.000
440.354;  -34.725;  -64.000; -150.000
440.477;   55.625; -566.000; -542.000
440.599;   16.650; -200.000; -225.000
440.722; -124.925; -709.000; -586.000
440.845;   75.575;  751.000;  928.000
440.968; -129.925; -415.000; -311.000
441.090;  -68.800; -199.000;  -33.000
441.213; -173.200;-1021.000; -825.000
441.336;  -57.425; -159.000;   -5.000
441.458;  -77.325; -549.000; -396.000
441.581;  -74.475; -628.000; -629.000
441.703;  -69.225; -152.000;   13.000
441.826; -121.175; -557.000; -400.000
441.948;  -52.225;   56.000;   51.000
442.071;   18.300;  555.000;  424.000
442.193; -121.850; -531.000; -485.000
442.316;   19.700;  152.000;   97.000
442.438;   33.825; -233.000;  -10.000
442.561;   55.800;  272.000;  262.000
442.683;  668.850; -809.000; -522.000
442.806; 1412.175;   -8.000;   74.000
442.928;   60.600; -859.000; -604.000
443.051;  -73.225; -577.000; -373.000
443.173; -102.500; -341.000; -339.000
443.295;  -89.200; -263.000; -371.000
443.418;  -65.775; -321.000;  -29.000
443.540;  -13.300; -106.000;   -4.000
443.662; -119.450; -563.000; -465.000
443.785;  -19.025;  335.000;  199.000
443.907; -101.800; -362.000; -208.000
444.029; -125.650; -767.000; -494.000
444.152; -145.250; -644.000; -554.000
444.274;  -31.475;  -18.000;  -24.000
444.396; -114.075; -461.000; -221.000
444.518; -142.500; -691.000; -454.000
444.640; -110.325; -268.000; -111.000
444.763;  -20.275;  388.000;  249.000
444.885; -116.300; -432.000; -392.000
445.007;  -27.575;   35.000;   86.000
445.129; -112.800; -610.000; -515.000
445.251;  -87.400; -372.000; -439.000
445.373; -137.225; -537.000; -386.000
445.495;    1.550;  242.000;  350.000
445.617;   54.375;  853.000;  753.000
445.739;  -69.075; -215.000;  -97.000
445.861;  -34.500; -245.000; -112.000
445.984;  -19.550; -267.000; -101.000
446.105;  258.475; -418.000; -251.000
446.227;  751.550; -176.000;  -19.000
446.349;   24.275; -358.000; -249.000
446.471;  -97.900; -615.000; -448.000
446.593;  -62.825; -316.000;   19.000
446.715;   -2.850;  -67.000;   41.000
446.837;   67.300;  697.000;  832.000
446.959; -109.525; -457.000; -478.000
447.081; -137.850; -628.000; -518.000
447.203;   53.900;  862.000;  834.000
447.325;  -90.375; -270.000;   42.000
447.446;   -4.600;  286.000;  530.000
447.568; -145.775; -921.000; -803.000
447.690;  -78.250; -236.000; -245.000
447.812; -152.900; -798.000; -519.000
447.933;  -40.150;  155.000;  127.000
448.055;  -84.175; -306.000; -261.000
448.177;  160.450;   31.000;   79.000
448.299;  115.450; -935.000; -727.000
448.420;   19.550;  -25.000;  159.000
448.542;  -44.825;   -3.000;   33.000
448.664;  -20.425;  109.000;  322.000
448.785;  -22.075;  265.000;   83.000
448.907;  -79.800; -614.000; -353.000
449.028;  -19.850; -771.000; -471.000
449.150;   51.225;  492.000;  589.000
449.272; -187.650;-1044.000; -913.000
449.393;   27.325;  612.000;  694.000
449.515; -144.325; -634.000; -581.000
449.636;  -66.900; -264.000; -155.000
449.758;   73.375;  763.000;  622.000
449.879; -106.700; -498.000; -396.000
450.001;  -93.625; -149.000;  -49.000
450.122;  -40.550;  -95.000;  162.000
450.244;  -35.500;   37.000;  364.000
450.365;  -90.375; -495.000; -301.000
450.486;  -40.775;   80.000;  268.000
450.608;  -26.525;  393.000;  326.000
450.729;   47.300;  578.000;  645.000
450.850;   -9.300; -574.000; -466.000
450.972;  676.725; -552.000; -389.000
451.093; 4541.675;  190.000;  588.000
451.214; 1916.050; -516.000; -337.000
451.336;  334.925;  773.000;  579.000
451.457;   53.400;  264.000;  393.000
451.578;  -46.875; -118.000;  -74.000
451.699; -112.400; -546.000; -540.000
451.821;  -69.250; -284.000;  -50.000
451.942;  -16.175;  278.000;  285.000
452.063;   32.825;  228.000;  419.000
452.184;  510.775;  -54.000;  -49.000
452.305; 1020.400;  103.000;  170.000
452.427;   99.425; -549.000; -301.000
452.548;  -18.225;   23.000;   79.000
452.669;  -51.950; -257.000;  -89.000
452.790;  -46.725;    3.000;  -18.000
452.911;   -9.075;  195.000;  259.000
453.032;  -47.650; -289.000;  -60.000
453.153;  -44.350;  -29.000;   81.000
453.274;   67.175;  737.000;  868.000
453.395;  -54.300;  -51.000;  175.000
453.516;  123.575; 1317.000; 1388.000
453.637;  -62.575; -205.000; -150.000
453.758;  -56.625;   15.000;   69.000
453.879; -124.025; -462.000; -250.000
454.000;   76.450; 1086.000;  948.000
454.121; -123.650; -554.000; -326.000
454.242; -120.325; -599.000; -383.000
454.362;  -55.600;  -99.000;  114.000
454.483;  -39.600; -309.000; -229.000
454.604;   56.375;  512.000;  580.000
454.725; -124.875; -627.000; -555.000
454.846; -132.050; -474.000; -406.000
454.967;  -31.525;  230.000;  539.000
455.087;  -46.275;  179.000;  153.000
455.208;   16.900;  554.000;  856.000
455.329;  -59.875;  -22.000;   82.000
455.450;   24.550;  473.000;  633.000
455.570;  -82.125; -234.000; -211.000
455.691;  -44.150;  201.000;  407.000
455.812; -113.350; -270.000;  -92.000
455.932;  -74.950;  107.000;  -97.000
456.053;  -88.875;   36.000;   24.000
456.173; -119.875; -433.000; -355.000
456.294; -127.475; -476.000; -303.000
456.415;  -84.075;  -73.000;   70.000
456.535;  -21.975;  297.000;  273.000
456.656;  -45.925;  132.000;  240.000
456.776;  -77.700;    3.000;  298.000
456.897;  -11.050;  308.000;  513.000
457.017;  -77.925; -153.000;   -3.000
457.138; -107.300; -402.000; -249.000
457.258;  -30.275;  263.000;  224.000
457.379;  -11.675;  509.000;  521.000
457.499;  -17.175;  443.000;  432.000
457.620; -137.400; -407.000; -231.000
457.740; -111.625; -132.000;  -11.000
457.860;  -50.500;   87.000;   44.000
457.981;  -41.375;  132.000;  124.000
458.101;  -76.925;  -89.000;   40.000
458.221;  -25.750;  336.000;  402.000
458.342;  -63.525;   -4.000;  -37.000
458.462;   17.675;  617.000;  352.000
458.582;  -42.075; -302.000; -294.000
458.703;    5.000;  303.000;  154.000
458.823;  -28.125;   22.000;  163.000
458.943;    7.450;  341.000;  467.000
459.063;  -23.200; 1124.000;  192.000
459.183;  -31.675;  328.000;  313.000
459.304;    9.500;  315.000;  517.000
459.424;  -65.800; -246.000;  -89.000
459.544;  314.825;  388.000;  764.000
459.664;  768.625;  499.000;  506.000
459.784;  306.150; 1004.000; 1175.000
459.904;   63.500;  867.000;  744.000
460.024;   61.450;  867.000;  684.000
460.144;   18.100;  449.000;  554.000
460.264;  -11.275;  515.000;  327.000
460.385;  -91.425; -145.000; -119.000
460.505;   32.025;  905.000;  858.000
460.625; -115.400;  -17.000;  -68.000
460.745;  -22.250;  396.000;  541.000
460.864;  -65.925;  153.000;  469.000
460.984;    2.900;  499.000;  573.000
461.104;  137.025; 1656.000; 1775.000
461.224;   15.775;  657.000;  650.000
461.344;  -23.800;  431.000;  360.000
461.464;  -25.300;  258.000;  513.000
461.584;  -19.100;  283.000;  466.000
461.704;  -46.200;   58.000;  108.000
461.824;  -59.225;  238.000;  259.000
461.943;  -27.500;  191.000;  130.000
462.063;  -67.725;    2.000;  324.000
462.183;   31.550;  639.000;  717.000
462.303;  109.000; 1678.000; 1230.000
462.422;   33.900;  781.000;  840.000
462.542;  -42.100;  271.000;  391.000
462.662;   28.675;  353.000;  380.000
462.782;  243.625;  833.000;  572.000
462.901;  461.975;  545.000;  717.000
463.021;  273.250; 1702.000; 1638.000
463.141;    4.175;  337.000;  770.000
463.260;   -5.450;  614.000;  474.000
463.380;    6.775;  902.000;  884.000
463.499;  -50.625;  342.000;  332.000
463.619;  -23.600;  581.000;  559.000
463.738;   94.000; 1644.000;  903.000
463.858;   12.600;  657.000;  811.000
463.978;  -49.325;  542.000;  396.000
464.097;   54.975;  921.000; 1114.000
464.217;  110.300; 1196.000; 1143.000
464.336;  113.150; 1068.000; 1130.000
464.455;  -43.950;  328.000;  659.000
464.575;   36.600;  597.000;  602.000
464.694;  166.500; 1204.000; 1179.000
464.814;  137.775; 1190.000; 1138.000
464.933;   75.325; 1095.000; 1027.000
465.052;   95.375; 1412.000; 1054.000
465.172;   77.475;  922.000;  799.000
465.291;  154.875; 1376.000; 1320.000
465.410;    9.800;  462.000;  735.000
465.530;   81.975; 1355.000; 1310.000
465.649;   66.150; 1209.000; 1273.000
465.768;  143.450; 1673.000; 1508.000
465.888;   38.400;  941.000; 1174.000
466.007;   98.825; 1335.000; 1440.000
466.126;    2.775;  721.000;  641.000
466.245;   42.950; 1176.000; 1187.000
466.364;   15.500;  950.000; 1060.000
466.484;   59.425; 1024.000; 1213.000
466.603;   32.700; 1101.000; 1222.000
466.722;  114.325; 1490.000; 1769.000
466.841;   78.275; 1151.000; 1401.000
466.960;   47.375; 1069.000;  972.000
467.079;  125.650; 1971.000; 1786.000
467.198;   38.750; 1238.000; 1181.000
467.317;   75.525; 1768.000; 1162.000
467.436;   66.575; 1709.000; 1261.000
467.555;  127.150; 1796.000; 1746.000
467.674;   64.625; 1227.000; 1329.000
467.793;   52.875; 1376.000; 1374.000
467.912;   93.300; 1658.000; 1539.000
468.031;  129.050; 2038.000; 1930.000
468.150;  140.400; 1842.000; 1837.000
468.269;  210.500; 2313.000; 2090.000
468.388;  188.450; 2168.000; 2339.000
468.507;  236.850; 2884.000; 2903.000
468.626;  237.225; 2555.000; 2541.000
468.744;  132.600; 2018.000; 2174.000
468.863;  186.800; 2312.000; 2523.000
468.982;   90.050; 1503.000; 1555.000
469.101;  230.000; 2788.000; 2692.000
469.220;  139.575; 2333.000; 2176.000
469.338;  261.075; 2935.000; 3051.000
469.457;  206.025; 2719.000; 2545.000
469.576;  341.975; 3953.000; 3784.000
469.695;  225.250; 2877.000; 3066.000
469.813;  423.125; 4148.000; 4192.000
469.932;  395.225; 4255.000; 4485.000
470.051;  413.625; 4075.000; 4161.000
470.169;  820.475; 4470.000; 4338.000
470.288; 1428.400; 4700.000; 4809.000
470.406;  851.325; 5059.000; 5194.000
470.525;  630.800; 6101.000; 5787.000
470.644;  640.900; 6847.000; 6794.000
470.762;  822.725; 8397.000; 7873.000
470.881;  920.575; 8651.000; 8464.000
470.999; 1052.600; 9685.000; 9151.000
471.118; 1124.375;11174.000;10711.000

