
Integration time [ms]: 200.000
Averaging Nr. [scans]: 10
Smoothing Nr. [pixels]: 0
Data measured with spectrometer [name]: 2101012U2
Wave   ;Sample   ;Dark     ;Reference
[nm]   ;[counts] ;[counts] ;[counts] 

197.733;  110.200;  516.000;  404.000
197.879; -168.600; -610.000; -634.000
198.025; -102.200; -475.000; -420.000
198.171; -139.200; -602.000; -612.000
198.317;  -80.100; -401.000; -316.000
198.463; -131.000; -655.000; -404.000
198.609;   38.400;  181.000; -137.000
198.755; -176.900; -644.000; -410.000
198.901; -127.100; -505.000; -424.000
199.047; -121.300; -615.000; -488.000
199.193;  -54.400; -230.000; -468.000
199.339; -103.600; -222.000; -369.000
199.485;  104.300;  330.000;  271.000
199.631;   73.900;  227.000;  310.000
199.777;  -76.900; -466.000; -398.000
199.923; -134.800; -610.000; -424.000
200.069;   -1.800; -141.000;  -58.000
200.215;  136.200;  128.000;  453.000
200.361;   70.100;  243.000;  477.000
200.507; -102.500; -600.000; -373.000
200.653;  -34.300; -371.000; -194.000
200.798;  -57.700; -215.000; -125.000
200.944;  -29.100; -146.000;  -41.000
201.090;   97.100;   61.000;  222.000
201.236;   31.500; -116.000; -158.000
201.382;  277.800;  874.000;  903.000
201.528;   23.400;  -58.000;  -48.000
201.674;  -79.200; -386.000; -293.000
201.819; -106.300; -540.000; -439.000
201.965; -147.400; -699.000; -447.000
202.111;  -52.200; -273.000; -226.000
202.257;  -14.500; -250.000; -238.000
202.402;   10.400;   13.000;  -36.000
202.548;  -48.500; -169.000; -116.000
202.694;  221.700;  410.000; -183.000
202.840; -139.500; -603.000; -531.000
202.985; -162.400; -681.000; -639.000
203.131; -225.900; -832.000; -666.000
203.277;  -23.800; -199.000; -262.000
203.423;  -90.900; -434.000; -520.000
203.568; -104.400; -462.000; -237.000
203.714; -110.700; -535.000; -542.000
203.860; -170.600; -682.000; -641.000
204.005;   37.600;  112.000;  167.000
204.151;  134.900;  561.000;  556.000
204.296;  -69.400; -354.000; -221.000
204.442; -157.100; -600.000; -547.000
204.588; -182.300; -592.000; -579.000
204.733;   24.400;  178.000;  168.000
204.879; -265.700;-1018.000; -822.000
205.025;   34.000;  -99.000;  126.000
205.170;    5.800;  -17.000;   94.000
205.316;  159.300;  438.000;  661.000
205.461; -143.800; -698.000; -554.000
205.607;  183.700;  609.000;  665.000
205.752; -131.900; -626.000; -551.000
205.898; -108.700; -501.000; -391.000
206.043; -124.500; -578.000; -506.000
206.189; -105.400; -243.000; -285.000
206.334;  186.000;  554.000;  606.000
206.480;  180.800;  409.000;  239.000
206.625; -134.700; -529.000; -552.000
206.771;  -97.800; -451.000; -373.000
206.916;  -40.100; -210.000; -537.000
207.062; -139.400; -545.000; -591.000
207.207; -143.000; -546.000; -443.000
207.353;   94.700;  185.000;  460.000
207.498;   -4.600;  196.000;   85.000
207.643;  -62.400; -501.000; -370.000
207.789; -265.200;-1069.000; -910.000
207.934; -186.500; -665.000; -713.000
208.080;  -24.600; -154.000;   66.000
208.225;   -8.800;  -22.000;  -57.000
208.370; -148.200; -727.000; -619.000
208.516; -141.500; -741.000; -487.000
208.661;  -19.600; -127.000;  -69.000
208.806;  -37.200; -165.000; -171.000
208.952; -246.200;-1044.000; -731.000
209.097;  183.000;  378.000;  349.000
209.242;  -75.800; -307.000; -382.000
209.387;  129.600;  392.000;  350.000
209.533;  -77.500; -321.000; -350.000
209.678;  191.200;  472.000;  543.000
209.823; -102.500; -408.000; -310.000
209.969; -195.300; -860.000; -757.000
210.114; -219.500; -907.000; -719.000
210.259; -228.600; -939.000; -889.000
210.404;   13.400; -171.000;  103.000
210.549;   11.900;  108.000;    3.000
210.695;  -42.000;   -3.000;  -95.000
210.840;   78.100;   94.000;   67.000
210.985; -111.300; -484.000; -303.000
211.130;  155.600;  268.000;  406.000
211.275;   36.200;  207.000;  199.000
211.420;  -78.100; -300.000; -289.000
211.566; -135.100; -536.000; -489.000
211.711;   66.200;  218.000;  157.000
211.856; -113.200; -545.000; -519.000
212.001;   49.500;  151.000;   44.000
212.146;   31.900;  153.000;   49.000
212.291;  -20.700; -210.000; -186.000
212.436;  -53.400; -280.000;   -6.000
212.581; -171.300; -685.000; -653.000
212.726; -151.100; -487.000; -538.000
212.871; -101.900; -552.000; -217.000
213.016; -288.100;-1172.000;-1029.000
213.161;  140.300;  406.000;  291.000
213.306; -157.100; -435.000; -577.000
213.451; -203.400; -778.000; -689.000
213.596;  -61.700; -455.000; -347.000
213.741; -122.100; -448.000; -538.000
213.886; -167.400; -498.000; -517.000
214.031;  -26.200; -294.000; -124.000
214.176;  -94.200; -408.000; -341.000
214.321;  -18.500; -296.000; -157.000
214.466;   -5.500; -163.000;  -43.000
214.611;   10.500;  -61.000;  -10.000
214.756; -222.500; -948.000; -858.000
214.901;  -48.100; -388.000; -226.000
215.046; -225.500; -797.000; -825.000
215.191;   70.100;  128.000;   35.000
215.336;   -5.900; -157.000;  -19.000
215.480; -128.000; -684.000; -505.000
215.625;   23.700; -175.000;  -19.000
215.770; -173.500; -757.000; -662.000
215.915;  -18.200;   -5.000;  -97.000
216.060;  -32.000; -113.000;  -21.000
216.205; -220.400; -731.000; -779.000
216.349; -116.900; -470.000; -533.000
216.494; -263.200; -939.000; -867.000
216.639; -214.400; -823.000; -888.000
216.784; -185.400; -577.000; -525.000
216.929;  139.100;  392.000;  281.000
217.073;   -2.400; -244.000;  -31.000
217.218;   58.200;   78.000;  -47.000
217.363; -167.900; -656.000; -618.000
217.507; -151.200; -623.000; -588.000
217.652; -254.100; -845.000; -874.000
217.797; -188.600; -708.000; -659.000
217.942; -232.600; -856.000; -720.000
218.086;  160.500;  608.000;  539.000
218.231;   -8.200; -174.000;  -26.000
218.376;  -47.100; -337.000; -229.000
218.520;    8.800;  -41.000;   96.000
218.665;  -61.000; -338.000; -204.000
218.810;  -67.800; -275.000; -233.000
218.954;   34.500;  201.000;   35.000
219.099; -205.400; -713.000; -963.000
219.243; -151.600; -589.000; -554.000
219.388;  -32.700; -264.000; -136.000
219.532;  -17.200; -116.000; -116.000
219.677; -145.000; -564.000; -521.000
219.822;   15.900;   33.000;   89.000
219.966;   33.100;   17.000;  -99.000
220.111;  -27.200; -328.000;  -40.000
220.255; -165.400; -797.000; -750.000
220.400;    7.700; -180.000; -146.000
220.544; -104.200; -516.000; -450.000
220.689; -116.100; -422.000; -451.000
220.833;    9.300; -123.000;  -58.000
220.978;  -82.800; -393.000; -563.000
221.122;   77.600;  319.000;  307.000
221.267; -236.700; -906.000; -837.000
221.411;  -91.400; -478.000; -394.000
221.555;    0.600; -104.000;  -23.000
221.700;  -81.100; -329.000; -222.000
221.844;  100.500;  255.000;  272.000
221.989;  -69.700; -328.000; -311.000
222.133;  -60.800; -289.000; -307.000
222.277;    9.400;    5.000;   78.000
222.422;   47.300;  227.000;  113.000
222.566; -106.600; -381.000; -214.000
222.711;  -97.500; -414.000; -479.000
222.855; -132.000; -643.000; -586.000
222.999; -161.700; -642.000; -717.000
223.144;  -71.500; -195.000; -194.000
223.288;  115.700;  423.000;  251.000
223.432;   18.100;  184.000;  230.000
223.576;   33.100;  152.000;  -21.000
223.721;  108.400;  364.000;  273.000
223.865; -108.200; -472.000; -475.000
224.009;  508.800; 1673.000; 1631.000
224.153; -131.100; -660.000; -671.000
224.298; -139.300; -531.000; -489.000
224.442;    1.300;  -74.000;  -33.000
224.586;  -13.600; -169.000; -106.000
224.730; -181.300; -858.000; -670.000
224.875; -204.800; -739.000; -688.000
225.019;   31.200;  102.000;  188.000
225.163;  153.700;  208.000;  341.000
225.307;   76.000;   97.000;  -91.000
225.451;  121.300;  360.000;  481.000
225.595;   96.100;  264.000;  176.000
225.739;  -37.600; -170.000;  -94.000
225.884;    5.200;   86.000;    5.000
226.028; -194.500; -760.000; -626.000
226.172;  -45.000; -260.000; -273.000
226.316; -212.200; -941.000; -902.000
226.460; -138.000; -645.000; -493.000
226.604;  -90.400; -406.000; -400.000
226.748; -193.900; -836.000; -733.000
226.892;  -39.500; -227.000; -181.000
227.036;  -78.400; -537.000; -447.000
227.180; -115.500; -551.000; -375.000
227.324; -104.400; -561.000; -580.000
227.468; -219.300; -819.000; -717.000
227.612;   36.400;  242.000;  -28.000
227.756; -213.700; -845.000; -698.000
227.900;  130.300;  342.000;  441.000
228.044; -104.300; -509.000; -290.000
228.188;  125.100;  448.000;  568.000
228.332; -162.600; -546.000; -472.000
228.476;  -41.900; -223.000; -149.000
228.620;  -50.500; -210.000; -150.000
228.764;  165.100;  431.000;  349.000
228.908;   -0.800; -155.000;   30.000
229.052; -111.000; -615.000; -528.000
229.195;   -3.800; -172.000;   13.000
229.339;  -43.500; -235.000; -305.000
229.483;  -26.600;    5.000; -162.000
229.627;   13.000; -156.000;  139.000
229.771;  -74.200; -218.000; -294.000
229.915;   30.400;  230.000;   79.000
230.059; -192.300; -648.000; -663.000
230.202;  -62.900; -370.000; -317.000
230.346;  -47.800; -107.000;  107.000
230.490; -129.400; -489.000; -521.000
230.634; -220.700; -736.000; -553.000
230.777;  191.400;  478.000;  509.000
230.921; -109.900; -450.000; -359.000
231.065;  -73.900; -246.000; -286.000
231.209;   73.900;  261.000;  265.000
231.352;   54.100;   54.000;   40.000
231.496;   29.700;  568.000;  188.000
231.640; -168.300; -693.000; -621.000
231.783;  157.600;  546.000;  525.000
231.927;  -50.200; -294.000; -365.000
232.071; -256.700; -962.000; -736.000
232.214; -198.000; -980.000; -764.000
232.358; -181.500; -683.000; -599.000
232.502;   45.600;  -19.000;    7.000
232.645; -264.200;-1090.000; -927.000
232.789;  -34.100; -257.000; -218.000
232.933;  -85.900; -407.000; -224.000
233.076; -240.100;-1038.000; -897.000
233.220; -181.100; -752.000; -777.000
233.363; -148.800; -669.000; -477.000
233.507;  127.200;  371.000;  129.000
233.650; -196.000; -764.000; -834.000
233.794;  122.400;  438.000;  461.000
233.938; -105.100; -530.000; -362.000
234.081;  -47.900;  -93.000;   31.000
234.225; -117.300; -631.000; -539.000
234.368; -233.500; -773.000; -723.000
234.512;  -77.300; -385.000; -299.000
234.655; -155.400; -582.000; -555.000
234.798;  -95.900; -493.000; -466.000
234.942; -228.100; -884.000;-1002.000
235.085; -158.200; -651.000; -443.000
235.229; -137.400; -405.000; -410.000
235.372;  -81.900; -247.000; -191.000
235.516;  -99.900; -397.000; -321.000
235.659;   79.800;   92.000;  121.000
235.802;   -3.400;  -38.000;  -22.000
235.946;   57.700;  335.000;  215.000
236.089;   86.900;  126.000;  250.000
236.233;  121.000;  275.000;  298.000
236.376;  -62.200; -235.000; -378.000
236.519;  -95.800; -297.000; -319.000
236.663;  -22.700; -215.000; -117.000
236.806; -276.200;-1029.000; -999.000
236.949;  173.600;  543.000;  431.000
237.092;  159.800;  412.000;  391.000
237.236; -184.100; -589.000; -502.000
237.379;  157.200;  352.000;  428.000
237.522; -221.800; -879.000; -768.000
237.666;    8.500; -271.000;   18.000
237.809; -210.900; -851.000; -823.000
237.952;  108.300;  469.000;  271.000
238.095; -110.400; -447.000; -442.000
238.238;  214.700;  688.000;  700.000
238.382;   33.300;  166.000;  103.000
238.525; -145.700; -598.000; -511.000
238.668; -259.100;-1060.000; -985.000
238.811; -138.500; -638.000; -643.000
238.954; -101.700; -483.000; -334.000
239.097;  195.300;  617.000;  664.000
239.241;   77.100;  394.000;  326.000
239.384;  -80.900; -254.000; -214.000
239.527;  -98.900; -424.000; -224.000
239.670; -279.400; -994.000;-1091.000
239.813; -204.500; -696.000; -658.000
239.956;  206.700;  579.000;  473.000
240.099; -234.400; -778.000; -725.000
240.242;  128.200;  428.000;  432.000
240.385;  139.300;  466.000;  450.000
240.528; -143.100; -706.000; -473.000
240.671;   62.000;  189.000;  134.000
240.814;  -62.700; -441.000; -158.000
240.957; -163.500; -767.000; -578.000
241.100; -149.200; -779.000; -755.000
241.243; -273.700;-1234.000; -893.000
241.386; -130.500; -508.000; -379.000
241.529; -164.000; -735.000; -547.000
241.672;  -98.000; -566.000; -495.000
241.815; -231.400; -832.000; -808.000
241.958;  -40.100; -125.000; -182.000
242.101; -143.400; -545.000; -390.000
242.244;  -60.900; -270.000; -325.000
242.387;  -47.200; -304.000; -246.000
242.530;  150.500;  470.000;  134.000
242.673;  -64.000; -381.000; -309.000
242.815; -222.600; -925.000; -899.000
242.958; -132.000; -482.000; -381.000
243.101;   57.100;  132.000;  187.000
243.244; -153.200; -564.000; -521.000
243.387; -110.200; -313.000; -316.000
243.530; -180.800; -657.000; -674.000
243.672;   10.200;   43.000;  -92.000
243.815;  -96.400; -355.000; -283.000
243.958;   27.300;   98.000;  -26.000
244.101;    7.600;   59.000;  -16.000
244.243;   -4.900;  -47.000;  101.000
244.386; -206.000; -761.000; -630.000
244.529;  -35.700; -132.000; -139.000
244.672; -306.400;-1154.000; -951.000
244.814; -218.800; -621.000; -794.000
244.957; -119.100; -380.000; -304.000
245.100; -118.800; -489.000; -489.000
245.242; -107.000; -387.000; -374.000
245.385;   21.200;  -59.000;  -39.000
245.528; -245.700; -871.000; -705.000
245.670;  215.400;  612.000;  634.000
245.813; -162.900; -599.000; -547.000
245.956;  -14.700; -324.000; -275.000
246.098; -139.700; -508.000; -650.000
246.241;   16.000;  194.000;   48.000
246.383;   -8.000; -119.000;  -73.000
246.526; -160.700; -454.000; -525.000
246.669; -226.500; -889.000; -780.000
246.811;   39.900;  172.000;   -1.000
246.954; -139.200; -512.000; -426.000
247.096;   23.600;  -84.000;   -6.000
247.239; -115.000; -482.000; -445.000
247.381; -124.400; -647.000; -488.000
247.524;  196.300;  645.000;  679.000
247.666;    1.600;   58.000;   11.000
247.809; -242.100; -887.000; -691.000
247.951;  -13.500;  -75.000;  138.000
248.094;  120.000;  432.000;  308.000
248.236; -317.700;-1262.000;-1238.000
248.378;   36.400; -356.000;  -81.000
248.521;  -20.000; -334.000; -337.000
248.663;  -57.900; -236.000; -267.000
248.806;  -21.700; -300.000; -266.000
248.948; -150.100; -886.000; -763.000
249.090;  -68.500; -428.000; -398.000
249.233;  -65.900; -344.000; -381.000
249.375; -112.400; -474.000; -451.000
249.518;    5.700;  -83.000; -133.000
249.660;    5.500; -103.000;    3.000
249.802; -340.900;-1303.000;-1189.000
249.945; -115.200; -612.000; -540.000
250.087; -214.100; -834.000; -768.000
250.229;  -98.200; -362.000; -480.000
250.371; -120.300; -494.000; -439.000
250.514;  -76.500; -310.000; -244.000
250.656; -119.900;   69.000;  102.000
250.798; -253.700; -849.000; -800.000
250.940;  -85.700; -322.000; -322.000
251.083;  -22.700; -335.000; -111.000
251.225;  139.200;  338.000;  310.000
251.367;  -48.900; -274.000; -373.000
251.509;  -52.900; -265.000; -210.000
251.651; -166.900; -731.000; -671.000
251.794;  144.400;  538.000;  632.000
251.936; -197.800; -821.000; -747.000
252.078; -113.100; -540.000; -461.000
252.220; -120.700; -645.000; -477.000
252.362;  179.600;  344.000;  462.000
252.504; -111.600; -677.000; -584.000
252.646; -214.000; -875.000; -722.000
252.788;   26.500;   14.000; -128.000
252.931;  -73.900; -257.000; -253.000
253.073;  -85.400; -376.000; -317.000
253.215;   14.000;  141.000;  122.000
253.357;  -16.200;   82.000; -153.000
253.499;  -87.300; -374.000; -234.000
253.641; -184.100; -749.000; -594.000
253.783; -160.500; -609.000; -527.000
253.925; -162.700; -586.000; -591.000
254.067; -214.400; -744.000; -667.000
254.209;  -38.500; -391.000; -259.000
254.351; -268.900; -865.000; -883.000
254.493; -103.300; -441.000; -417.000
254.635; -214.200; -936.000; -818.000
254.777; -159.000; -752.000; -687.000
254.918; -128.500; -512.000; -430.000
255.060; -102.400; -551.000; -395.000
255.202; -121.400; -473.000; -261.000
255.344; -134.000; -658.000; -455.000
255.486; -123.800; -471.000; -406.000
255.628; -204.000; -780.000; -781.000
255.770; -159.900; -676.000; -536.000
255.912; -131.200; -559.000; -468.000
256.053; -140.300; -730.000; -508.000
256.195;  330.900; 1008.000;  903.000
256.337; -177.700; -861.000; -595.000
256.479;  168.200;  532.000;  416.000
256.621;  -39.700; -394.000; -212.000
256.762; -163.600; -789.000; -742.000
256.904;  167.900;  485.000;  487.000
257.046;  -55.300; -381.000; -271.000
257.188;  -68.900; -351.000; -264.000
257.329; -126.500; -525.000; -464.000
257.471; -220.800; -939.000; -807.000
257.613; -101.000; -584.000; -498.000
257.755; -280.300;-1073.000; -982.000
257.896;  119.000;  286.000;  392.000
258.038; -103.200; -403.000; -352.000
258.180;  -69.300; -354.000; -279.000
258.321; -144.600; -581.000; -457.000
258.463;   35.400;  -71.000;  133.000
258.605; -118.800; -562.000; -570.000
258.746; -199.700; -886.000; -772.000
258.888; -274.700;-1026.000;-1020.000
259.029;   54.700;  121.000;   -8.000
259.171; -179.700; -614.000; -550.000
259.313;   18.300;  -49.000;  -47.000
259.454; -105.300; -536.000; -414.000
259.596; -122.400; -483.000; -390.000
259.737; -158.400; -590.000; -474.000
259.879;  100.600;  217.000;  311.000
260.020;  255.500;  901.000;  636.000
260.162;  -23.500; -146.000; -253.000
260.303; -191.300; -768.000; -687.000
260.445; -161.900; -609.000; -613.000
260.586;   85.900;  392.000;  157.000
260.728;  -39.600; -360.000; -248.000
260.869; -130.000; -350.000; -343.000
261.011;  200.700;  706.000;  537.000
261.152;  -92.200; -479.000; -319.000
261.293; -145.500; -576.000; -595.000
261.435;  -44.600; -219.000; -184.000
261.576;  -70.300; -455.000; -325.000
261.718;  176.700;  420.000;  470.000
261.859; -234.400; -940.000; -949.000
262.000; -222.500; -951.000;-1016.000
262.142;  -17.800;  -52.000;  -60.000
262.283; -227.200; -808.000; -691.000
262.424; -164.300; -666.000; -625.000
262.566; -254.600;-1161.000; -983.000
262.707; -223.200; -840.000; -830.000
262.848; -229.900; -769.000; -726.000
262.990;  -68.400; -362.000; -345.000
263.131;  172.300;  650.000;  681.000
263.272;   15.400;  -61.000;  -41.000
263.413; -162.700; -589.000; -561.000
263.555; -111.100; -669.000; -143.000
263.696; -164.800; -550.000; -641.000
263.837; -112.000; -449.000; -551.000
263.978;   24.700;   -5.000;  -77.000
264.119;  -65.100; -283.000; -264.000
264.261; -216.000; -847.000; -630.000
264.402;   -0.200;   33.000;   40.000
264.543; -114.700; -509.000; -524.000
264.684;    1.000;   61.000;  -50.000
264.825; -118.200; -816.000; -538.000
264.966;   17.900;  -84.000;  -67.000
265.107; -185.800; -646.000; -670.000
265.248; -238.800; -825.000; -812.000
265.390;   22.600;  152.000;   -9.000
265.531;  -23.700; -238.000; -107.000
265.672; -162.400; -557.000; -630.000
265.813;  163.700;  563.000;  439.000
265.954; -258.200; -959.000; -940.000
266.095;  -21.100; -372.000; -322.000
266.236; -168.500; -686.000; -548.000
266.377;  -72.200; -243.000; -297.000
266.518; -141.500; -619.000; -547.000
266.659;   82.300;  170.000;  268.000
266.800;   53.800;   83.000;   85.000
266.941; -141.200; -487.000; -478.000
267.082;   40.800;  354.000;   99.000
267.223;  -85.400; -344.000; -273.000
267.364; -231.200; -892.000; -686.000
267.504;   17.200;    3.000;  135.000
267.645;   58.800;  160.000;   67.000
267.786;  -60.300; -147.000;  -86.000
267.927; -135.200; -473.000; -379.000
268.068;    4.900; -186.000;  -61.000
268.209;  -87.400; -175.000; -413.000
268.350; -113.700; -388.000; -532.000
268.490; -157.900; -648.000; -521.000
268.631;   89.200;  127.000;  225.000
268.772; -191.000; -874.000; -647.000
268.913;  -80.800; -328.000; -476.000
269.054;    4.900; -117.000;   12.000
269.194;  -72.400; -418.000; -402.000
269.335; -275.800;-1137.000;-1074.000
269.476;  -38.300;   33.000;  -35.000
269.617;  -67.000; -347.000; -392.000
269.757; -148.500; -713.000; -646.000
269.898; -183.800; -856.000; -613.000
270.039; -113.600; -415.000; -405.000
270.180; -257.100; -952.000; -816.000
270.320;  -50.500; -190.000; -250.000
270.461;  -51.600; -277.000; -249.000
270.602;  -46.100; -186.000; -156.000
270.742; -224.400; -868.000; -943.000
270.883;  -94.600; -442.000; -390.000
271.023;  -97.400; -358.000; -357.000
271.164; -123.400; -607.000; -528.000
271.305; -153.300; -666.000; -654.000
271.445; -177.400; -722.000; -683.000
271.586; -114.400; -462.000; -283.000
271.726;  -98.300; -397.000; -322.000
271.867; -119.700; -594.000; -534.000
272.008;  341.600; -473.000; -285.000
272.148;  283.700;  462.000;  468.000
272.289;   29.700; -113.000; -181.000
272.429;   64.800;   19.000;  185.000
272.570; -151.500; -633.000; -737.000
272.710; -179.800; -825.000; -775.000
272.851;  -20.800;  113.000; -130.000
272.991; -301.900;-1173.000;-1077.000
273.131; -113.900; -419.000; -459.000
273.272; -166.200; -683.000; -723.000
273.412;   31.200; -143.000;  -31.000
273.553;  -83.000; -488.000; -507.000
273.693;  310.700;  913.000;  858.000
273.834; -163.300; -894.000; -692.000
273.974; -118.100; -664.000; -615.000
274.114; -175.700; -772.000; -560.000
274.255;  148.300;  414.000;  373.000
274.395;   36.900; -180.000; -125.000
274.535;  119.900;  199.000;  350.000
274.676;   54.800;  225.000;   94.000
274.816;   23.100;  110.000;   34.000
274.956; -124.700; -624.000; -690.000
275.097; -123.700;-1014.000; -922.000
275.237; -204.600; -913.000; -803.000
275.377; -155.300; -778.000; -689.000
275.517; -274.000; -878.000; -937.000
275.658; -108.500; -590.000; -555.000
275.798;  -84.500; -606.000; -413.000
275.938;   47.100;  215.000;  323.000
276.078; -136.800; -626.000; -395.000
276.218;   54.600;   99.000;  104.000
276.359; -236.600;-1026.000;-1024.000
276.499; -135.400; -605.000; -446.000
276.639;  -40.500; -305.000; -151.000
276.779;  -63.800; -475.000; -357.000
276.919; -193.700; -783.000; -624.000
277.059;  -22.600; -261.000; -212.000
277.199;  -72.000; -357.000; -259.000
277.340;  119.900;  287.000;  175.000
277.480; -203.600; -840.000; -693.000
277.620;   64.700;  192.000;   16.000
277.760; -412.300;-1533.000;-1294.000
277.900;   44.900;  113.000;   33.000
278.040;   81.600;  137.000;  159.000
278.180;  103.800;  270.000;  170.000
278.320;   24.700;   21.000;   56.000
278.460; -101.100; -443.000; -469.000
278.600; -150.300; -708.000; -598.000
278.740;  123.200;  448.000;  224.000
278.880;  -79.200; -768.000; -791.000
279.020;   48.800; -194.000; -144.000
279.160; -169.700; -672.000; -595.000
279.300; -230.200; -926.000; -873.000
279.440; -128.500; -709.000; -622.000
279.579;  -69.300;-1014.000; -929.000
279.719;  -64.700; -410.000; -394.000
279.859;  159.700;   -4.000;   41.000
279.999;   35.700; -208.000;  101.000
280.139;  -22.800; -435.000; -387.000
280.279; -125.800; -708.000; -745.000
280.419;   -1.900; -229.000; -147.000
280.559;  -53.800; -259.000; -180.000
280.698; -126.200; -790.000; -639.000
280.838; -170.000; -778.000; -800.000
280.978; -162.600; -846.000; -790.000
281.118; -214.900; -811.000; -704.000
281.257;   33.400;   24.000;    6.000
281.397; -233.800;-1094.000; -960.000
281.537; -180.600; -599.000; -712.000
281.677;   19.500; -150.000; -101.000
281.816; -146.000; -700.000; -630.000
281.956;  -40.700; -193.000; -257.000
282.096; -100.800; -539.000; -396.000
282.235; -165.700; -672.000; -638.000
282.375;  -27.900; -243.000;  -98.000
282.515; -168.700; -715.000; -707.000
282.654;   85.300;   29.000;  106.000
282.794;  108.500;  388.000;  244.000
282.934;  -82.100; -530.000; -491.000
283.073; -231.200;-1030.000; -857.000
283.213;  -64.200; -460.000; -467.000
283.353;  -20.100; -408.000; -349.000
283.492;   -0.900; -264.000; -296.000
283.632;  -38.800; -254.000; -168.000
283.771; -143.900; -859.000; -730.000
283.911;  -50.100; -369.000; -260.000
284.050; -227.900; -794.000; -748.000
284.190; -290.500;-1229.000;-1096.000
284.329; -272.500;-1055.000; -964.000
284.469;  -97.800; -516.000; -591.000
284.608;  -94.600; -559.000; -598.000
284.748; -142.300; -614.000; -570.000
284.887;   37.700;  -87.000;  -20.000
285.027; -228.100; -844.000; -892.000
285.166;  -27.800; -192.000; -249.000
285.306;   72.900; -116.000;  -33.000
285.445;  -49.100; -229.000; -343.000
285.584; -165.900; -630.000; -494.000
285.724;  -60.100; -282.000; -322.000
285.863; -178.200; -857.000; -507.000
286.002;  -87.100; -366.000; -276.000
286.142; -167.700; -715.000; -622.000
286.281; -133.000; -525.000; -493.000
286.420; -128.000; -554.000; -417.000
286.560;  236.200;  653.000;  623.000
286.699; -262.600; -958.000; -912.000
286.838; -123.100; -590.000; -591.000
286.978; -130.800; -533.000; -537.000
287.117; -257.000;-1085.000; -950.000
287.256;  -15.600; -228.000; -211.000
287.395;  -45.500; -197.000; -378.000
287.535;  -45.900; -370.000; -298.000
287.674; -123.200; -509.000; -484.000
287.813;  180.800;  661.000;  533.000
287.952; -257.200;-1010.000; -871.000
288.091; -272.300;-1049.000; -915.000
288.231;   52.600;   13.000;   15.000
288.370; -334.600;-1217.000;-1200.000
288.509; -148.900; -728.000; -645.000
288.648; -151.500; -770.000; -548.000
288.787;   -1.700; -243.000;  -87.000
288.926;  -70.100; -454.000; -475.000
289.065;  285.900;  859.000;  672.000
289.204;  -69.000; -377.000; -217.000
289.344; -148.300; -791.000; -690.000
289.483;   93.900;  416.000;  304.000
289.622;  -16.800; -291.000; -149.000
289.761;   -3.800; -309.000; -166.000
289.900; -215.800; -785.000; -626.000
290.039;   11.000;  -12.000;  -95.000
290.178;  -56.300; -274.000; -180.000
290.317; -147.700; -618.000; -479.000
290.456;  -96.800; -463.000; -451.000
290.595; -233.100; -961.000; -833.000
290.734; -227.300; -904.000; -891.000
290.873;  -80.900; -456.000; -420.000
291.011; -187.200; -833.000; -843.000
291.150; -188.100; -770.000; -682.000
291.289;  -35.300; -343.000; -110.000
291.428; -167.400; -599.000; -480.000
291.567;  -59.700; -370.000; -442.000
291.706;   42.900;  109.000;  154.000
291.845; -197.000; -597.000; -505.000
291.984; -298.200;-1234.000;-1061.000
292.122;  193.300;  602.000;  582.000
292.261;  144.100;  620.000;  463.000
292.400;   57.300; -144.000;  211.000
292.539; -213.800; -959.000; -813.000
292.678;  -18.300; -325.000; -300.000
292.816; -290.900;-1136.000; -965.000
292.955; -141.000; -844.000; -684.000
293.094;  -33.600; -173.000; -337.000
293.233;  -70.400; -556.000; -400.000
293.371;  -34.900; -225.000;  -84.000
293.510; -176.500; -866.000; -780.000
293.649; -236.800; -959.000; -924.000
293.787; -107.500;-1083.000;-1012.000
293.926;   -0.300; -113.000;  -32.000
294.065;  -49.800; -379.000; -290.000
294.203;  144.800;  298.000;  406.000
294.342;   49.300;   74.000;  156.000
294.481;12813.000;51180.000; -836.000
294.619;  -31.500; -425.000; -582.000
294.758; -268.000;-1230.000;-1137.000
294.896;  137.700; -125.000;    5.000
295.035; -222.900;-1040.000;-1006.000
295.174; -214.100;-1082.000; -954.000
295.312;  -50.500; -323.000; -203.000
295.451;   19.600; -307.000; -428.000
295.589; -103.700; -389.000; -518.000
295.728;   98.100; -292.000; -165.000
295.866;   86.000;  -36.000;  -51.000
296.005; -114.700; -584.000; -341.000
296.143;  -97.100; -558.000; -596.000
296.282; -174.400; -957.000; -881.000
296.420; -117.700; -657.000; -557.000
296.559; -123.600; -892.000; -633.000
296.697;   65.600; -847.000; -665.000
296.835;  139.700;-1141.000;-1002.000
296.974;   76.200;  -23.000;   39.000
297.112;   74.500; -443.000; -504.000
297.251; -124.700; -815.000; -755.000
297.389;  173.700; -576.000; -438.000
297.527;   96.200; -145.000;  -83.000
297.666; -101.200; -486.000; -438.000
297.804;  -70.100; -404.000; -264.000
297.942;   12.200; -136.000; -161.000
298.081;   43.400; -183.000;   63.000
298.219;  176.600;  -17.000;  -19.000
298.357;  125.200; -144.000;  -71.000
298.495;   76.200; -810.000; -812.000
298.634;  175.200;  245.000;  219.000
298.772;  154.500; -220.000; -338.000
298.910;  -47.600; -309.000; -182.000
299.048;   32.700; -130.000; -153.000
299.187;  -10.400; -350.000; -250.000
299.325;  100.700;   52.000;  122.000
299.463;  114.400; -389.000; -299.000
299.601;  258.800; -327.000; -271.000
299.739; -181.000; -908.000; -883.000
299.877; -134.500; -791.000; -703.000
300.016;  -77.400;-1095.000; -935.000
300.154;  330.400;  -19.000; -161.000
300.292;   98.200; -428.000; -348.000
300.430;   66.200; -408.000; -291.000
300.568; -145.900; -940.000; -874.000
300.706;  -60.200; -366.000; -469.000
300.844; -131.600;-1108.000; -979.000
300.982;  236.100;  246.000;  282.000
301.120; -168.000; -965.000; -866.000
301.258;  -94.000; -812.000; -705.000
301.396;  137.000;  104.000;  -41.000
301.534;  177.300; -218.000; -293.000
301.672;    1.600; -664.000; -521.000
301.810;   62.200; -613.000; -545.000
301.948;  309.400;   53.000;  149.000
302.086; 1108.800; -250.000;  -32.000
302.224; 1824.100; -610.000; -585.000
302.362;  107.800; -558.000; -622.000
302.500;  -36.900; -923.000; -893.000
302.638;  275.300;  128.000;  245.000
302.776;   43.100; -352.000; -408.000
302.913;  110.600;  447.000;  236.000
303.051;   15.800;  -86.000;  -23.000
303.189;  188.900;   90.000;  118.000
303.327;  -21.100; -341.000; -256.000
303.465; -146.900; -832.000; -588.000
303.603; -172.700; -805.000; -604.000
303.740;  223.100;  417.000;  241.000
303.878;   52.800; -800.000; -759.000
304.016; -136.100; -915.000; -790.000
304.154; -242.400;-1123.000;-1152.000
304.291;  -50.900; -505.000; -554.000
304.429;   78.700;  102.000;   74.000
304.567; -209.600; -908.000; -893.000
304.705;  -55.600; -408.000; -515.000
304.842;  228.700; -616.000; -540.000
304.980;  152.700;  215.000;   35.000
305.118;  110.100; -367.000; -365.000
305.255;  -89.100; -945.000; -927.000
305.393;  158.500;  178.000;  239.000
305.531; -178.100;-1173.000; -956.000
305.668; -106.500; -663.000; -582.000
305.806;  200.500; -358.000; -439.000
305.943;  213.000; -629.000; -637.000
306.081;  177.500; -378.000; -267.000
306.219; -177.700; -863.000; -748.000
306.356;   33.900;  158.000;   27.000
306.494;  288.000;  981.000;  761.000
306.631;   59.600;  -11.000;  -55.000
306.769;   68.900; -613.000; -485.000
306.906;   16.500; -284.000; -258.000
307.044; -104.100; -473.000; -488.000
307.181;  -72.900; -410.000; -332.000
307.319;   61.600;  112.000;   87.000
307.456; -330.200;-1191.000;-1153.000
307.594; -155.100; -980.000; -727.000
307.731;   17.500; -371.000; -164.000
307.868;   46.300;  -15.000;   20.000
308.006; -218.500; -961.000; -847.000
308.143; -106.400; -618.000; -330.000
308.281;  435.200;  -37.000; -254.000
308.418;   82.700; -748.000; -640.000
308.555; -109.400; -400.000; -250.000
308.693;  -89.700; -577.000; -573.000
308.830; -141.400; -712.000; -657.000
308.967;    4.400; -215.000;  -95.000
309.105;  -39.800; -507.000; -396.000
309.242;  179.900; -468.000; -367.000
309.379;  842.300; -577.000; -655.000
309.517;  -39.800; -936.000; -948.000
309.654; -192.500; -910.000; -734.000
309.791; -104.900; -662.000; -580.000
309.928; -173.700; -977.000; -914.000
310.065;  423.600;  819.000;  697.000
310.203;   24.800; -825.000; -850.000
310.340;   16.800; -465.000; -321.000
310.477; -117.900; -412.000; -516.000
310.614;  -76.700; -383.000; -473.000
310.751;  -83.100; -427.000; -518.000
310.889;   -7.400;    1.000;   11.000
311.026; -248.800;-1161.000; -939.000
311.163;  -63.400; -386.000; -380.000
311.300; -120.500; -512.000; -479.000
311.437; -115.100; -658.000; -619.000
311.574; -262.000;-1226.000; -985.000
311.711; -112.800; -595.000; -433.000
311.848;  -34.900; -380.000; -388.000
311.985;   84.300;  270.000;   93.000
312.122; -196.900; -932.000; -762.000
312.259; -199.000; -941.000; -994.000
312.396; -122.500; -508.000; -551.000
312.533; -143.700; -812.000; -790.000
312.670; -216.200;-1070.000; -898.000
312.807;  -52.900; -352.000; -367.000
312.944; -121.900; -513.000; -611.000
313.081;  -24.200; -150.000; -415.000
313.218; -183.500;-1111.000; -867.000
313.355;   69.800; -531.000; -449.000
313.492;   47.100; -455.000; -292.000
313.629;  320.600;  815.000;  735.000
313.766; -281.300;-1176.000;-1008.000
313.902;   -0.800; -186.000;   21.000
314.039;  -50.700; -372.000; -289.000
314.176;   79.800;  286.000;  192.000
314.313; -113.900; -569.000; -473.000
314.450; -121.400; -788.000; -684.000
314.587;  -66.800; -468.000; -480.000
314.723;   55.400;  -78.000;  130.000
314.860;  151.600;  318.000;  332.000
314.997;   97.000;  223.000;  142.000
315.134;    6.700; -385.000; -368.000
315.270;  -32.800; -480.000; -496.000
315.407; -211.200;-1094.000; -967.000
315.544;  -66.500; -657.000; -538.000
315.681; -115.000; -681.000; -565.000
315.817;   88.100; -133.000; -176.000
315.954;   67.800; -613.000; -392.000
316.091; -210.500;-1045.000;-1023.000
316.227;   16.400;  -71.000; -179.000
316.364;   36.600;   23.000;    6.000
316.500;  -72.100; -113.000; -300.000
316.637;  -70.600; -181.000; -302.000
316.774; -148.100; -625.000; -358.000
316.910; -147.200; -598.000; -629.000
317.047;  -72.500; -487.000; -351.000
317.183;  -68.000; -435.000; -566.000
317.320;    0.100; -367.000; -321.000
317.456; -108.200; -733.000; -805.000
317.593; -158.000; -598.000; -641.000
317.729;   31.800;  168.000;  -67.000
317.866; -361.400;-1434.000;-1285.000
318.002; -156.300; -708.000; -948.000
318.139; -151.900; -883.000; -867.000
318.275; -171.900;-1003.000; -738.000
318.412;  -52.000; -517.000; -336.000
318.548;  -43.700; -751.000; -720.000
318.685; -161.600; -985.000; -888.000
318.821; -131.400; -762.000; -735.000
318.957;   14.300;   34.000;  -23.000
319.094;  157.400;  297.000;  154.000
319.230;  -62.100; -756.000; -742.000
319.367;  269.300; -471.000; -520.000
319.503;  185.000; -538.000; -436.000
319.639; -164.300; -877.000; -793.000
319.775;  -98.100; -750.000; -685.000
319.912; -103.600; -424.000; -519.000
320.048; -142.900;-1184.000;-1184.000
320.184;  180.200;   59.000;   70.000
320.321;  -82.900; -497.000; -467.000
320.457;  163.800;  475.000;  662.000
320.593;  -95.800; -375.000; -382.000
320.729; -175.400; -732.000; -734.000
320.866;  -99.200; -577.000; -635.000
321.002; -110.200; -759.000; -809.000
321.138;   16.900; -135.000; -211.000
321.274;  189.400; -148.000; -115.000
321.410;   -9.500; -585.000; -353.000
321.546;  -54.700;-1011.000; -911.000
321.683;  149.300;  400.000;  185.000
321.819;   62.900;  -48.000; -117.000
321.955; -163.000; -743.000; -722.000
322.091;  -43.300; -585.000; -540.000
322.227;   23.300; -382.000; -202.000
322.363;   -0.100; -320.000; -215.000
322.499;  -32.800; -343.000; -331.000
322.635;  360.300;  636.000;  443.000
322.771;  110.200; -139.000;   12.000
322.907;  231.100;  129.000;  327.000
323.043;    8.600; -115.000; -206.000
323.179;  -26.200; -394.000; -363.000
323.315;   75.100; -401.000; -371.000
323.451;  227.800; -328.000; -236.000
323.587;  160.600;  -60.000;  -77.000
323.723;   37.000; -682.000; -601.000
323.859;  -29.000; -258.000;  -76.000
323.995;  -29.100; -467.000; -409.000
324.131; -201.700; -967.000; -892.000
324.267;  -67.300; -254.000; -276.000
324.402; -221.300; -960.000; -983.000
324.538;  -13.300; -279.000; -104.000
324.674;   99.500;  164.000;   77.000
324.810;  378.100;  226.000;  308.000
324.946;  110.300; -810.000; -658.000
325.082; -129.100; -568.000; -475.000
325.217;    0.600;  -62.000;   16.000
325.353; -188.400; -764.000; -659.000
325.489; -126.700; -540.000; -506.000
325.625;  -78.700; -579.000; -525.000
325.760;  125.900;  517.000;  376.000
325.896;  -17.800; -515.000; -702.000
326.032;  -36.700; -403.000; -352.000
326.168; -106.900; -462.000; -369.000
326.303;  -78.800; -352.000; -461.000
326.439;    5.300; -336.000; -276.000
326.575;   36.000; -190.000;  -29.000
326.710;   24.000; -156.000;  -30.000
326.846;   18.400;  146.000;  103.000
326.982; -169.800; -530.000; -548.000
327.117;  -89.500; -481.000; -442.000
327.253; -139.200; -745.000; -742.000
327.388; -192.000;-1137.000;-1153.000
327.524;  -26.100; -811.000; -578.000
327.659;    2.600;  -58.000;  -22.000
327.795;   36.500;   69.000;   45.000
327.931; -128.200; -723.000; -499.000
328.066;  -31.700; -417.000; -276.000
328.202;   11.500;   12.000; -129.000
328.337;  273.800;  957.000;  713.000
328.473;   18.800;  -12.000;  -74.000
328.608;    4.200; -256.000; -267.000
328.743; -136.300; -799.000; -664.000
328.879;   65.200;  214.000;  114.000
329.014;  -33.400; -102.000; -122.000
329.150; -132.100; -358.000; -483.000
329.285; -112.200; -465.000; -466.000
329.421;  -59.700; -548.000; -246.000
329.556;    6.900;  -36.000;   85.000
329.691; -166.300; -633.000; -615.000
329.827; -136.100; -626.000; -480.000
329.962;  -27.900;  131.000; -301.000
330.097; -124.700; -673.000; -585.000
330.233;  -64.300; -410.000; -223.000
330.368; -192.800; -839.000; -628.000
330.503;    7.900;    3.000;   98.000
330.638;   97.000;  -93.000; -125.000
330.774;  -78.800; -609.000; -530.000
330.909;   -4.700; -434.000; -244.000
331.044; -132.800; -714.000; -708.000
331.179; -276.600;-1217.000;-1109.000
331.315;   54.100;   77.000;   20.000
331.450;   63.300;  157.000;  285.000
331.585; -106.200; -805.000; -706.000
331.720; -144.100; -510.000; -460.000
331.855;   16.900;  -35.000; -102.000
331.990;  483.000;   62.000;  138.000
332.126;  244.900; -110.000;   71.000
332.261;   -8.800; -379.000; -265.000
332.396;   45.600; -135.000; -242.000
332.531; -190.200;-1074.000;-1031.000
332.666;   87.400; -519.000; -363.000
332.801; -173.000; -726.000; -807.000
332.936;   31.700; -192.000; -122.000
333.071; -280.200; -870.000; -817.000
333.206;   89.900;  307.000;  379.000
333.341;   96.700;  344.000;  418.000
333.476; -141.500; -627.000; -623.000
333.611;  -31.900; -251.000; -173.000
333.746;  -65.100; -381.000; -464.000
333.881; -201.800; -973.000; -935.000
334.016; -225.300; -936.000; -917.000
334.151; -212.000; -746.000; -702.000
334.286;   82.700;  152.000;  186.000
334.421;   34.900; -125.000; -178.000
334.556; -116.900; -611.000; -567.000
334.690; -133.200; -631.000; -577.000
334.825;  176.300;  381.000;   83.000
334.960;  -55.400; -285.000; -413.000
335.095;   75.700;  135.000;  -91.000
335.230; -147.500; -722.000; -738.000
335.365; -218.700;-1084.000; -990.000
335.499; -234.300;-1108.000;-1037.000
335.634;   90.500;    9.000;  534.000
335.769; -148.000; -755.000; -720.000
335.904;  -67.200; -603.000; -561.000
336.038;  -70.400; -735.000; -657.000
336.173; -212.400;-1206.000;-1194.000
336.308;   45.400; -116.000; -189.000
336.443;   27.000; -544.000; -634.000
336.577; -101.000; -936.000; -787.000
336.712;  154.700;   -4.000;  -12.000
336.847;  -30.300; -724.000; -607.000
336.981;  138.900; -272.000; -208.000
337.116;  579.300;  615.000;  501.000
337.250;  295.400; -434.000; -421.000
337.385;  422.600; -297.000; -208.000
337.520;  174.600; -632.000; -603.000
337.654;  -28.100; -215.000; -126.000
337.789; -215.900; -989.000; -933.000
337.923;  -10.900; -104.000; -205.000
338.058; -172.200; -673.000; -738.000
338.192;  -17.400; -611.000; -488.000
338.327;   34.600;  -18.000; -155.000
338.461;  -83.400; -299.000; -469.000
338.596; -132.700; -780.000; -638.000
338.730; -168.900; -767.000; -803.000
338.865;  179.200;  -46.000; -140.000
338.999;  -86.300; -846.000; -702.000
339.134;  -40.900; -634.000; -536.000
339.268;   49.800; -741.000; -603.000
339.403;  636.700; -740.000; -775.000
339.537;  217.800; -894.000; -820.000
339.671; -165.000; -829.000; -813.000
339.806;  -87.700; -556.000; -512.000
339.940;   43.400; -261.000; -235.000
340.074; -134.000; -685.000; -510.000
340.209;  -37.600; -351.000; -230.000
340.343; -145.900; -517.000; -573.000
340.477;  356.200;  998.000; 1036.000
340.612;  -95.100;-1033.000; -900.000
340.746;  313.200; -199.000; -243.000
340.880; -123.100; -924.000; -785.000
341.014;   14.600;  -45.000; -154.000
341.149; -166.300; -756.000; -718.000
341.283; -193.400; -839.000; -754.000
341.417; -154.000;-1124.000; -938.000
341.551;  288.400; -768.000; -708.000
341.685;  -55.300; -633.000; -611.000
341.820;  -99.700; -562.000; -493.000
341.954;  -86.000; -218.000; -349.000
342.088; -277.100;-1102.000;-1019.000
342.222;  137.800;  565.000;  618.000
342.356;  -81.300; -395.000; -335.000
342.490; -148.700; -880.000; -841.000
342.624;  -15.500; -339.000; -242.000
342.758;   44.600; -364.000; -312.000
342.892;  -64.100; -710.000; -585.000
343.026;  -32.200;  -58.000; -116.000
343.160; -101.800; -426.000; -376.000
343.294; -111.300; -474.000; -337.000
343.428;   -5.100; -488.000; -448.000
343.562;   69.100; -172.000;  -23.000
343.696;  -13.800; -385.000; -314.000
343.830;   14.500; -362.000; -356.000
343.964;   77.600; -231.000; -168.000
344.098; 1738.300;  199.000;   70.000
344.232; 1468.200; -266.000; -127.000
344.366;  218.800; -567.000; -453.000
344.500;  144.000; -665.000; -744.000
344.634;  131.700; -324.000; -164.000
344.768;   47.200; -531.000; -341.000
344.902;  134.000;  278.000;  256.000
345.035;  -70.900; -556.000; -496.000
345.169; -221.700; -933.000; -656.000
345.303;   -3.000; -308.000; -482.000
345.437; -111.200; -826.000; -717.000
345.571;  -94.800; -675.000; -594.000
345.704;  -82.900; -309.000; -532.000
345.838;   32.900; -331.000; -284.000
345.972;  -12.900; -543.000; -495.000
346.106;  323.300; -179.000; -190.000
346.239;  808.000; -312.000; -243.000
346.373;   41.200; -343.000; -302.000
346.507; -241.500; -950.000; -962.000
346.640;  318.800;  -30.000;   13.000
346.774;  -33.200; -650.000; -797.000
346.908;   20.600; -138.000;  -11.000
347.041;  -99.700; -646.000; -593.000
347.175;   79.800;  259.000;   27.000
347.309;  -93.200; -698.000; -628.000
347.442; -157.800; -883.000; -732.000
347.576;  637.900;  670.000;  668.000
347.709;  385.300; -123.000;  -52.000
347.843; -152.000; -933.000; -825.000
347.976;  165.300;  235.000;  294.000
348.110; -305.900;-1268.000;-1186.000
348.243; -170.100; -679.000; -772.000
348.377;   64.300;  -26.000;   60.000
348.510;  186.200;  403.000;  540.000
348.644;  -15.700;  -37.000; -159.000
348.777;   78.200;  180.000;  191.000
348.911;  -45.700; -142.000; -112.000
349.044;  364.500;  471.000;  448.000
349.178;  317.300;-1069.000;-1006.000
349.311;  296.200;  141.000;  255.000
349.444;    0.800; -927.000; -813.000
349.578;   39.900; -347.000; -200.000
349.711; -116.600; -959.000; -862.000
349.845;   27.800; -661.000; -591.000
349.978; -227.500;-1224.000;-1137.000
350.111; -110.300; -546.000; -612.000
350.244; -119.600; -596.000; -700.000
350.378;   36.800; -392.000; -393.000
350.511;  -85.100; -393.000; -426.000
350.644; -166.400; -808.000; -806.000
350.778;   86.600;  168.000;  104.000
350.911;   61.500;  134.000;  140.000
351.044; -124.600; -685.000; -615.000
351.177;    5.400; -321.000; -281.000
351.310;   19.000;    3.000; -131.000
351.444; -107.200; -888.000; -788.000
351.577;  255.800;  140.000;   90.000
351.710;  261.800;  593.000;  417.000
351.843;  -22.100; -165.000;  -77.000
351.976;   22.700;  149.000;  -79.000
352.109; -159.500; -621.000; -612.000
352.242;  -20.000; -464.000; -419.000
352.376;  -90.300; -580.000; -636.000
352.509;  319.500; -437.000; -356.000
352.642;   42.400; -654.000; -604.000
352.775;  134.900; -141.000;  -98.000
352.908; -191.400; -933.000; -904.000
353.041; -152.200; -814.000; -824.000
353.174; -103.600; -551.000; -424.000
353.307; -122.000; -753.000; -764.000
353.440;  158.200;  541.000;  453.000
353.573; -193.100; -957.000;-1008.000
353.706;    4.600; -384.000; -558.000
353.839;    2.100; -264.000; -220.000
353.971; -129.000; -657.000; -512.000
354.104; -158.500; -896.000; -835.000
354.237;  -47.100; -627.000; -662.000
354.370; -104.500; -846.000; -879.000
354.503; -329.000;-1231.000;-1308.000
354.636;  -46.900; -529.000; -348.000
354.769; -236.100; -937.000; -860.000
354.902;   18.000; -230.000; -139.000
355.034;   11.300; -164.000; -220.000
355.167;    2.000; -262.000; -162.000
355.300; -172.200;-1061.000; -880.000
355.433; 1798.100;  -71.000;  -14.000
355.565; 2610.000; -402.000; -384.000
355.698;  695.500; -356.000; -296.000
355.831;   42.300; -882.000; -801.000
355.964;  204.500; -285.000; -170.000
356.096; -136.500; -856.000; -843.000
356.229;   26.500; -523.000; -530.000
356.362;  596.800; -373.000; -266.000
356.494; 1074.200; -229.000; -162.000
356.627;  940.600;  269.000;  377.000
356.760; 1202.800;  120.000;   53.000
356.892; 1652.100; -286.000; -601.000
357.025; 1302.200;  403.000;  389.000
357.157; 1187.200; -167.000; -179.000
357.290; 1155.200; -856.000; -713.000
357.423;  335.500; -667.000; -556.000
357.555;  265.500; -217.000; -228.000
357.688;  269.400; -483.000; -364.000
357.820;  790.100; -870.000; -877.000
357.953; 6732.600; -563.000; -589.000
358.085; 1461.400; -632.000; -612.000
358.218; 2244.000;-1131.000; -932.000
358.350;  448.300;  -58.000;  312.000
358.483; -190.800;-1300.000;-1187.000
358.615;  -16.200;-1182.000;-1078.000
358.747;  -57.800;-1187.000;-1058.000
358.880;   72.200; -810.000; -744.000
359.012;   68.800; -376.000; -202.000
359.145;  -47.100; -480.000; -511.000
359.277;  160.500; -962.000; -913.000
359.409; 5565.800;  536.000;  231.000
359.542; 1431.100; -738.000; -688.000
359.674;  176.500;   46.000;   13.000
359.806; -101.700; -565.000; -438.000
359.939;  -19.900; -617.000; -516.000
360.071;   -3.600; -583.000; -579.000
360.203;   13.600; -411.000; -364.000
360.335;  184.500;  164.000;  -16.000
360.468;  357.400; -249.000; -307.000
360.600; 4433.600; -547.000; -454.000
360.732; 4805.700; -546.000; -423.000
360.864;  621.900;-1216.000;-1044.000
360.996;  579.900; -516.000; -554.000
361.129;  116.300; -389.000; -598.000
361.261;  123.400;  110.000; -113.000
361.393;   -8.800; -252.000; -214.000
361.525;  115.700;   94.000;  244.000
361.657;  -45.900; -821.000; -703.000
361.789;   79.900; -139.000; -155.000
361.921;  485.600; -642.000; -593.000
362.053;  550.400;  524.000;  541.000
362.185;  171.500;  288.000;   72.000
362.318; -116.100; -709.000; -705.000
362.450;  273.400;  294.000;  444.000
362.582;  267.300; -913.000; -870.000
362.714;   -8.900; -353.000; -332.000
362.846; -120.100; -606.000; -490.000
362.978; -229.900; -941.000; -811.000
363.109;  170.000; -161.000; -260.000
363.241;  858.400; -739.000; -749.000
363.373;  745.500; -649.000; -564.000
363.505; 1145.200; -186.000;  -91.000
363.637;  295.300; -787.000; -601.000
363.769; -196.100;-1067.000;-1080.000
363.901;  -65.600; -596.000; -654.000
364.033; -210.000;-1103.000;-1062.000
364.165;   74.800; -283.000; -283.000
364.296;  251.700; -316.000; -177.000
364.428;   86.900;-1344.000;-1220.000
364.560; -106.500; -679.000; -661.000
364.692;  -60.000; -738.000; -835.000
364.824;  526.300; -588.000; -456.000
364.955;  837.000; -402.000; -564.000
365.087; 1498.800;-1097.000; -852.000
365.219;   81.600; -686.000; -816.000
365.351;  -73.200; -526.000; -572.000
365.482;  176.300;  300.000;  240.000
365.614;  -63.200; -402.000; -314.000
365.746; -148.200; -729.000; -752.000
365.877; -133.000; -706.000; -672.000
366.009;  457.200;  -35.000;  -62.000
366.141; -141.100;-1249.000;-1134.000
366.272; -165.300; -803.000; -719.000
366.404; -169.000;-1005.000; -874.000
366.535;    4.600; -139.000;  -12.000
366.667; -142.200; -644.000; -649.000
366.799;  112.700;  353.000;  203.000
366.930; -195.100; -862.000; -996.000
367.062;  239.200; -639.000; -613.000
367.193;  240.500; -872.000; -842.000
367.325;  -78.600; -580.000; -684.000
367.456;  144.700; -246.000;   31.000
367.588;  323.800; -371.000; -318.000
367.719;  102.800;  -44.000;  -45.000
367.851;   32.800; -222.000; -241.000
367.982;  -39.000; -875.000; -732.000
368.113;  242.800; -475.000; -358.000
368.245; -186.200; -960.000; -841.000
368.376;  -15.200; -254.000; -302.000
368.508;   16.400; -188.000; -263.000
368.639; -261.300;-1166.000;-1034.000
368.770;    1.500; -670.000; -589.000
368.902;  -67.300; -836.000; -926.000
369.033; -172.100; -906.000; -855.000
369.164;  -74.000; -720.000; -653.000
369.296; -150.200; -452.000; -601.000
369.427;   55.800; -209.000; -144.000
369.558;  -45.100; -593.000; -377.000
369.689; -104.600; -721.000; -569.000
369.821; -201.100; -951.000; -845.000
369.952;   35.700;   42.000; -108.000
370.083;  -30.600; -229.000; -108.000
370.214;  -95.600; -735.000; -650.000
370.345;   45.500;   65.000;   81.000
370.477; -154.200; -810.000; -790.000
370.608;  487.600; -328.000; -264.000
370.739;  -68.800;-1233.000;-1292.000
370.870;  -25.600;-1102.000; -923.000
371.001;  225.500; -378.000; -467.000
371.132; -115.800; -754.000; -735.000
371.263;   29.900;  -42.000; -148.000
371.394; -208.800; -841.000; -748.000
371.525;  118.600;  345.000;  225.000
371.657; -146.700; -808.000; -670.000
371.788;  227.200;  103.000;  199.000
371.919;  319.000; -384.000; -304.000
372.050; 6815.600;  -91.000; -156.000
372.181; 1942.900; -188.000; -294.000
372.311;  776.400;   42.000; -127.000
372.442;   95.900; -457.000; -451.000
372.573;  -14.500; -444.000; -340.000
372.704; -198.500;-1008.000; -980.000
372.835;  231.700; -228.000; -289.000
372.966;  -94.400; -646.000; -554.000
373.097;  -92.800; -575.000; -711.000
373.228;  -31.400; -717.000; -542.000
373.359;  328.300; -824.000; -536.000
373.490; 1758.800; -881.000; -727.000
373.620; 2157.200;-1001.000; -803.000
373.751; 3463.600; -332.000; -396.000
373.882; 1455.000; -663.000; -733.000
374.013;  173.200; -449.000; -262.000
374.143;  -30.200; -581.000; -659.000
374.274; -157.900; -987.000; -908.000
374.405;  378.100; -388.000; -276.000
374.536;  877.400; -526.000; -387.000
374.666; 2104.900; -759.000; -807.000
374.797;  464.800; -817.000; -868.000
374.928; 1653.200; -710.000; -560.000
375.058; 1689.700; -535.000; -500.000
375.189;  228.900;  -59.000;  -93.000
375.320; -130.100; -928.000;-1034.000
375.450;  -54.900; -625.000; -616.000
375.581;  -21.700; -526.000; -436.000
375.712;   -3.300; -574.000; -250.000
375.842;  631.300; -438.000; -415.000
375.973;  407.800; -554.000; -513.000
376.103;  -31.900; -665.000; -648.000
376.234; -137.800; -531.000; -552.000
376.364;  -63.200; -944.000; -867.000
376.495;  676.700;  925.000;  529.000
376.625;   60.700; -472.000; -485.000
376.756;  148.500; -709.000; -678.000
376.886; -113.400;-1178.000;-1026.000
377.017;  122.700;-1048.000;-1061.000
377.147;  606.300; -786.000; -782.000
377.278;  166.600;  174.000;  228.000
377.408; -186.200; -801.000; -815.000
377.538; -168.700; -707.000; -693.000
377.669; -130.100; -537.000; -613.000
377.799; -119.300; -645.000; -635.000
377.929;  -85.400; -610.000; -428.000
378.060; -205.600; -781.000; -847.000
378.190;  -97.700; -726.000; -531.000
378.320;  -52.900; -401.000; -406.000
378.451;   22.600; -131.000;  -22.000
378.581;   37.500;  -67.000; -110.000
378.711;  372.400; 1035.000;  866.000
378.841;   -3.000; -533.000; -675.000
378.972;  -91.600; -871.000; -751.000
379.102;   46.800; -652.000; -579.000
379.232;   11.200; -126.000;  -73.000
379.362; -183.500;-1001.000; -885.000
379.492;   80.700; -373.000; -424.000
379.623;  246.600;    0.000;  111.000
379.753; -174.300;-1107.000; -974.000
379.883;  496.700;   59.000;  156.000
380.013;   29.200;-1081.000;-1017.000
380.143; -137.100;-1097.000;-1056.000
380.273; -138.100; -985.000; -861.000
380.403;   33.500; -344.000; -257.000
380.533;  -11.300; -651.000; -664.000
380.663;  179.600;  173.000;  128.000
380.793; -165.500;-1027.000;-1074.000
380.923;    9.200; -103.000;  -34.000
381.053; -139.200; -613.000; -623.000
381.183;    7.800; -106.000; -248.000
381.313;  117.200; -656.000; -470.000
381.443;  109.700; -692.000; -473.000
381.573;  477.300; -402.000; -409.000
381.703;  574.500;-1249.000;-1095.000
381.833; -208.100;-1454.000;-1336.000
381.963;  238.300; -134.000;  -87.000
382.093; 2645.200; -925.000; -909.000
382.223;  769.600; -713.000; -602.000
382.353;   -1.700; -801.000; -608.000
382.482;  773.900;-1091.000; -964.000
382.612; 1525.600; -872.000; -644.000
382.742;  830.700; -695.000; -622.000
382.872;  561.400; -565.000; -551.000
383.002;  162.900;  347.000; -132.000
383.131;   55.400; -226.000; -160.000
383.261;  -33.000; -706.000; -768.000
383.391;  568.800; -552.000; -377.000
383.521; 5593.200;  451.000;  263.000
383.650; 1194.600; -947.000; -904.000
383.780;    0.200; -783.000; -656.000
383.910;  313.000;  880.000;  802.000
384.039;   77.000; -794.000; -656.000
384.169;  408.000;-1205.000;-1017.000
384.299;  -10.400; -650.000; -662.000
384.428;  -98.900; -764.000; -680.000
384.558;  -28.400; -308.000; -275.000
384.687;   -6.800; -414.000; -334.000
384.817;  107.300;   75.000;   -2.000
384.947;  125.900; -234.000; -141.000
385.076;  613.000;  982.000;  912.000
385.206;  251.600;  369.000;  480.000
385.335;  -11.800; -549.000; -417.000
385.465;  -99.600; -655.000; -663.000
385.594;  333.300;  -53.000;  -44.000
385.724;  843.300; -868.000; -838.000
385.853;  305.000; -296.000; -270.000
385.982; 2679.100; -743.000; -787.000
386.112; 4009.300;-1052.000; -871.000
386.241;  305.500; -307.000; -312.000
386.371;  136.500; -174.000;  -87.000
386.500;   75.000; -825.000; -789.000
386.629;   72.300; -874.000; -817.000
386.759;  173.000;  -43.000;   68.000
386.888;   36.900; -170.000; -250.000
387.017;  -61.000; -648.000; -620.000
387.147;  -99.900; -771.000; -798.000
387.276;   34.500; -410.000; -397.000
387.405;  104.500; -398.000; -342.000
387.535;  -26.400; -452.000; -361.000
387.664;  -87.900; -692.000; -620.000
387.793;  190.100; -198.000; -113.000
387.922; 1110.900;  255.000;  200.000
388.052;   95.100; -576.000; -423.000
388.181;  108.800; -342.000; -472.000
388.310;   50.000; -889.000; -710.000
388.439;  -71.600; -749.000; -742.000
388.568;  455.700;  365.000;  244.000
388.697; 2010.700; -756.000; -653.000
388.826;  453.200; -768.000; -666.000
388.956;  177.300; -285.000; -307.000
389.085;    1.100; -347.000; -287.000
389.214; -148.900; -842.000; -872.000
389.343;  -56.500; -645.000; -413.000
389.472;  739.100;  126.000;  149.000
389.601; 1011.100;   91.000;    0.000
389.730;   78.800; -568.000; -687.000
389.859;  181.500;  226.000;   46.000
389.988;  415.600; -423.000; -408.000
390.117;  321.200; -168.000; -146.000
390.246;   32.000; -331.000; -320.000
390.375;  262.900; -673.000; -626.000
390.504;  -62.500; -703.000; -621.000
390.633; -136.600; -672.000; -726.000
390.761;  -49.600; -732.000; -645.000
390.890;  171.400;   -4.000; -130.000
391.019;  -15.200; -421.000; -441.000
391.148; -200.100; -826.000; -855.000
391.277;  -77.800; -576.000; -493.000
391.406; -112.700; -821.000; -805.000
391.534;  101.200;  574.000; -301.000
391.663;  -47.200; -583.000; -645.000
391.792;  -88.500; -673.000; -701.000
391.921;  263.200;   -3.000;   15.000
392.050;  413.600; -287.000; -228.000
392.178;  -45.400;-1206.000;-1061.000
392.307;  326.300; -758.000; -712.000
392.436;  169.400; -427.000; -641.000
392.564;  105.000;  166.000;   -6.000
392.693; -107.800; -860.000; -682.000
392.822;  426.400; -529.000; -534.000
392.950;  213.000; -880.000; -714.000
393.079;  651.600; -188.000; -328.000
393.208;   73.100; -488.000; -511.000
393.336;   31.800; -170.000; -145.000
393.465;  -34.400; -317.000; -199.000
393.593;   63.000;   62.000;   79.000
393.722; -238.900;-1121.000; -916.000
393.850;  -24.300; -188.000;  -61.000
393.979; -262.500; -926.000; -805.000
394.107;  -35.500; -517.000; -537.000
394.236;   16.700; -570.000; -507.000
394.364;  600.200;  383.000;  206.000
394.493;  928.800; -911.000; -767.000
394.621;   57.100; -955.000; -916.000
394.750; 1257.800; -873.000; -923.000
394.878; 5240.500; -247.000; -149.000
395.007; 6652.900; -721.000; -807.000
395.135;  460.000; -790.000; -721.000
395.263; -113.000;-1038.000;-1040.000
395.392;   98.300;  -25.000; -107.000
395.520; -122.500; -818.000; -679.000
395.648; -102.300; -865.000; -915.000
395.777;   37.400; -366.000; -405.000
395.905;  -21.900; -449.000; -564.000
396.033;  114.900;  217.000;  172.000
396.162; 1580.300; -399.000; -453.000
396.290; 1337.800;  -17.000;   -2.000
396.418;  282.200; -555.000; -514.000
396.546; -113.900; -571.000; -466.000
396.674; -149.600; -850.000; -878.000
396.803;   75.900;  -72.000;  -23.000
396.931;  234.500; -179.000; -199.000
397.059;  143.000;-1026.000; -989.000
397.187; -177.800;-1026.000; -975.000
397.315; -229.100; -884.000; -649.000
397.443; -138.300; -592.000; -443.000
397.572;  -97.800; -578.000; -424.000
397.700;   26.400; -607.000; -614.000
397.828;  104.400;  120.000;  -90.000
397.956;  -42.500; -508.000; -478.000
398.084;  -79.700; -767.000; -626.000
398.212;  127.500;  137.000;  124.000
398.340;   87.300;  -56.000;  159.000
398.468;  127.400; -390.000; -169.000
398.596; -209.900; -993.000; -953.000
398.724; -210.500; -762.000; -767.000
398.852; -256.400;-1024.000; -976.000
398.980;  -34.600; -560.000; -560.000
399.108;  -29.300; -982.000; -735.000
399.236;  132.800;   13.000;    8.000
399.363;  105.800;  222.000;  196.000
399.491;  -66.700; -404.000; -398.000
399.619; -166.700; -829.000; -800.000
399.747; -154.700; -859.000; -771.000
399.875;  221.000;  220.000;  234.000
400.003;  -44.000; -359.000; -284.000
400.130; -126.400; -421.000; -341.000
400.258;  -26.000;  -83.000;   38.000
400.386;  -98.800; -352.000; -168.000
400.514;  -50.200; -526.000; -587.000
400.641;  -94.100; -928.000; -802.000
400.769; -215.000; -979.000; -888.000
400.897; -135.300; -838.000; -793.000
401.025;   63.800; -166.000; -152.000
401.152;   59.000;  220.000;   38.000
401.280;  -73.000; -430.000; -429.000
401.408; -152.400; -712.000; -576.000
401.535; -163.700; -735.000; -758.000
401.663; -315.400;-1134.000;-1054.000
401.790; -112.600; -514.000; -525.000
401.918;  190.800;  436.000;  405.000
402.046;   60.100;  134.000;  122.000
402.173;  -22.600;  -18.000;    7.000
402.301;  -77.100; -519.000; -397.000
402.428;  138.300;  528.000;  383.000
402.556; -248.600;-1188.000; -913.000
402.683;    2.100;  -20.000;   -1.000
402.811;   23.400;  -37.000; -206.000
402.938;   55.700;   20.000;   27.000
403.066;  379.300; -574.000; -558.000
403.193;  658.400;  299.000;  239.000
403.321;  490.100; -396.000; -574.000
403.448;  628.500;   83.000;   27.000
403.575;  323.900;  -90.000;  -46.000
403.703; -158.900; -732.000; -557.000
403.830;  -72.400; -531.000; -496.000
403.957; -239.800;-1117.000;-1023.000
404.085;   93.800;  -61.000; -172.000
404.212;  251.000;  -50.000;   63.000
404.339;  512.600; -566.000; -306.000
404.467;10150.200; -612.000; -524.000
404.594; 6547.500; -287.000; -227.000
404.721; 1569.500; -869.000; -764.000
404.848;  194.200; -113.000; -202.000
404.976; -136.000; -856.000; -783.000
405.103;   18.800;  -14.000;  -82.000
405.230;   65.000;  190.000;  226.000
405.357;   81.700;  117.000;   44.000
405.484;  558.600;  -49.000;    5.000
405.612;  108.200; -548.000; -563.000
405.739;  -64.700; -488.000; -243.000
405.866;  227.100;  669.000;  385.000
405.993;  -12.600; -398.000; -102.000
406.120; -214.500; -801.000; -887.000
406.247;  -38.600; -323.000; -342.000
406.374;  910.800;  540.000;  629.000
406.501;  234.200; -632.000; -702.000
406.628;  -99.000; -621.000; -589.000
406.755; -102.900; -803.000; -620.000
406.882;  -22.000; -228.000; -277.000
407.009; -140.200; -719.000; -628.000
407.136;  163.500; -480.000; -401.000
407.263;  319.800; -939.000; -829.000
407.390; -113.400; -692.000; -614.000
407.517; -245.900;-1139.000;-1187.000
407.644;  -58.900; -332.000; -256.000
407.771;  -72.500; -249.000; -287.000
407.898;   92.200;  168.000;  328.000
408.025;  -76.400; -421.000; -313.000
408.151;   29.800;   82.000;  153.000
408.278;  -76.400; -267.000; -216.000
408.405; -158.500; -931.000; -899.000
408.532;  -70.800; -549.000; -542.000
408.659; -183.400; -677.000; -648.000
408.785; -316.600;-1298.000;-1170.000
408.912;  -56.500; -412.000; -296.000
409.039; -152.300; -610.000; -686.000
409.166; -113.900; -591.000; -555.000
409.292; -167.700; -571.000; -534.000
409.419; -178.700; -665.000; -649.000
409.546; -116.900; -431.000; -192.000
409.672; -145.900; -713.000; -545.000
409.799;   40.400;  -36.000;   34.000
409.926;   -3.900; -180.000; -179.000
410.052; -300.600;-1127.000;-1091.000
410.179;  -40.100; -368.000; -392.000
410.305;  -85.800; -375.000; -493.000
410.432;  -43.800; -220.000; -333.000
410.558; -133.900; -305.000; -380.000
410.685; -191.400; -688.000; -431.000
410.812; -121.100; -409.000; -588.000
410.938; -218.200; -964.000; -808.000
411.065; -135.800; -671.000; -645.000
411.191;   -7.200; -189.000; -174.000
411.317; -173.000; -823.000; -742.000
411.444;  -57.300; -317.000; -246.000
411.570; -110.300; -339.000; -294.000
411.697; -196.800; -758.000; -752.000
411.823; -301.100; -989.000; -999.000
411.949;    7.000;  -56.000;   17.000
412.076; -165.800; -539.000; -519.000
412.202; -200.100; -758.000; -757.000
412.329; -204.600; -798.000; -752.000
412.455; -176.500; -821.000; -657.000
412.581;   12.900;  -15.000;  172.000
412.707;  -76.900; -540.000; -457.000
412.834;  102.100;  156.000;  219.000
412.960; -127.000; -785.000; -784.000
413.086; -127.500; -743.000; -701.000
413.212;  369.100;  604.000;  578.000
413.339;  -73.600; -685.000; -701.000
413.465;   60.500; -364.000; -310.000
413.591; -112.100; -757.000; -474.000
413.717;  -11.200; -358.000; -366.000
413.843; -233.000; -839.000; -861.000
413.969;  -56.400;  -47.000; -292.000
414.096; -104.400; -679.000; -679.000
414.222;   61.600;  -33.000;   85.000
414.348;   20.500; -652.000; -385.000
414.474;  217.100;   38.000;  -52.000
414.600;   52.000; -126.000; -144.000
414.726;   18.000;  -96.000;  -55.000
414.852;  -40.600; -365.000; -342.000
414.978;  115.900;  104.000;  -18.000
415.104;  140.200;   38.000;   80.000
415.230;  120.400; -329.000; -330.000
415.356;  116.800; -409.000; -514.000
415.482;  436.800;   13.000;  -35.000
415.608;  553.600; -247.000; -323.000
415.734; 1811.400;   67.000;   38.000
415.860;36368.400; -875.000; -767.000
415.986;23809.100; -685.000; -607.000
416.111; 2003.000; -798.000; -652.000
416.237;  432.700; -424.000; -571.000
416.363; 2243.600; -765.000; -733.000
416.489; 7075.900; -324.000; -251.000
416.615;  750.300; -707.000; -742.000
416.741;  -46.000; -677.000; -784.000
416.866; -132.000; -673.000; -736.000
416.992; -196.500; -801.000; -818.000
417.118;   28.900;  -41.000;  -80.000
417.244;  -89.000; -798.000; -531.000
417.369;  -96.000; -801.000; -612.000
417.495;   62.600; -325.000; -254.000
417.621; -115.900;-1015.000; -803.000
417.746;   57.000; -579.000; -572.000
417.872;  187.800; -254.000; -144.000
417.998;  125.500; -515.000; -530.000
418.123; 2060.700;-1073.000; -845.000
418.249; 9272.100; -512.000; -601.000
418.374; 1196.000; -916.000; -824.000
418.500;  240.900; -383.000; -482.000
418.626;  274.800;   70.000;  -59.000
418.751;  279.200; -549.000; -448.000
418.877;  383.800; -637.000; -643.000
419.002; 3450.600; -688.000; -560.000
419.128;21961.900; -930.000; -721.000
419.253; 4812.800; -967.000; -837.000
419.379;  664.000; -391.000; -338.000
419.504;  766.500;  325.000;  415.000
419.629;  934.100; -393.000; -212.000
419.755; 6669.700; -317.000; -254.000
419.880;35907.300;  -98.000;   67.000
420.006;20346.700; -280.000; -221.000
420.131;49378.300; -662.000; -775.000
420.256; 6440.000; -315.000; -316.000
420.382;  901.500; -665.000; -687.000
420.507;  129.100; -649.000; -778.000
420.632;  304.200; -337.000; -339.000
420.758;  498.700; -251.000; -425.000
420.883; -116.900; -876.000; -672.000
421.008; -114.400; -775.000; -619.000
421.133; -106.100; -509.000; -467.000
421.259;  -21.100; -325.000; -259.000
421.384; -133.100; -834.000; -693.000
421.509;  -42.900;-1052.000; -862.000
421.634; 2366.300; -936.000; -820.000
421.759;  917.500; -359.000; -327.000
421.885;  -34.100; -717.000; -656.000
422.010;  -72.900; -673.000; -542.000
422.135; -241.200; -695.000; -727.000
422.260;  128.300;  340.000;  280.000
422.385;   -8.700;   12.000;  -98.000
422.510;   85.200;  151.000;  -26.000
422.635;  132.200;  -87.000;  -43.000
422.760;  244.100; -766.000; -791.000
422.885;  174.000;  -57.000;  -80.000
423.010;   -0.200; -112.000; -169.000
423.135; -127.800; -481.000; -561.000
423.260;   70.900; -150.000; -245.000
423.385;  230.400;  476.000;  222.000
423.510;  126.700;   71.000;  -22.000
423.635;  227.800;  133.000;   45.000
423.760;  194.900;  383.000;  328.000
423.885;  208.200;  336.000;  391.000
424.010;   59.100;  -68.000;  -13.000
424.135;   25.500;    5.000;  -33.000
424.259;  -80.900; -654.000; -457.000
424.384;  -46.800; -279.000; -272.000
424.509;   24.500; -260.000; -186.000
424.634; -114.600; -761.000; -623.000
424.759;  -18.100; -688.000; -544.000
424.883;   43.100; -506.000; -527.000
425.008;  371.900; -502.000; -410.000
425.133; 3700.200; -679.000; -653.000
425.258; 1582.300; -517.000; -381.000
425.382; 2060.700; -867.000; -774.000
425.507; 4717.500; -487.000; -543.000
425.632;  801.800; -802.000; -663.000
425.756;  867.900; -256.000; -146.000
425.881;12122.300; -831.000; -857.000
426.006;29243.000; -604.000; -355.000
426.130; 4293.800; -696.000; -508.000
426.255;  609.200; -611.000; -491.000
426.379;  313.100; -189.000; -577.000
426.504;  746.200;  660.000;  544.000
426.629; 7479.900; -519.000; -466.000
426.753; 4571.400;   64.000;  -46.000
426.878;  571.400; -252.000; -288.000
427.002;  384.600; -651.000; -668.000
427.127; 3055.500;  -35.000; -158.000
427.251;20054.900;  372.000;  401.000
427.375; 5128.900; -191.000; -173.000
427.500; 4312.800; -616.000; -610.000
427.624; 1375.000; -234.000; -400.000
427.749;  228.000; -216.000; -225.000
427.873;    6.700; -499.000; -412.000
427.997;  -12.700; -222.000; -230.000
428.122;  210.800;  795.000;  703.000
428.246;  255.400;  433.000;  434.000
428.371; -185.900; -869.000; -773.000
428.495; -147.900; -624.000; -646.000
428.619;   18.600; -186.000; -117.000
428.743;  106.100;   65.000;  132.000
428.868;  105.500; -732.000; -643.000
428.992; 2706.800; -219.000; -326.000
429.116; 1056.500; -329.000; -357.000
429.240;  538.300;  419.000;  426.000
429.365;   21.700; -454.000; -574.000
429.489;  -11.600; -638.000; -647.000
429.613;  104.400; -236.000; -177.000
429.737;  144.600; -563.000; -432.000
429.861;  560.700; -247.000; -133.000
429.985;10206.200; -425.000; -305.000
430.109;10182.300; -770.000; -908.000
430.234; 1207.400;   76.000;  -50.000
430.358;  158.900; -250.000; -160.000
430.482; -102.200; -672.000; -564.000
430.606;  -63.100; -655.000; -375.000
430.730;   97.800; -437.000; -388.000
430.854;  268.200; -909.000; -835.000
430.978;  -92.000; -795.000; -764.000
431.102;  -84.800; -499.000; -422.000
431.226; -154.000; -874.000; -815.000
431.350;  162.200;  345.000;  422.000
431.474; -103.900; -661.000; -373.000
431.597; -217.000;-1060.000; -848.000
431.721;  -89.700; -276.000; -267.000
431.845; -173.600; -704.000; -472.000
431.969;  -97.100; -304.000; -349.000
432.093; -107.100; -395.000; -317.000
432.217;   37.200;   32.000;   82.000
432.341; -111.900; -523.000; -518.000
432.464;  100.800;   96.000;   40.000
432.588;  438.300; -401.000; -329.000
432.712;  240.900;  -52.000;  -52.000
432.836;  187.300;  213.000;  263.000
432.959;   37.600; -372.000; -311.000
433.083;  226.900;   11.000;    2.000
433.207;  749.800;  285.000;  930.000
433.330; 9384.300; -391.000; -200.000
433.454;10378.400; -654.000; -638.000
433.578; 6272.600;  583.000;  278.000
433.701; 1045.400; -623.000; -675.000
433.825;  281.000; -292.000; -299.000
433.949;  396.300;   28.000;  -72.000
434.072;  163.200; -410.000; -323.000
434.196;   37.200; -309.000; -117.000
434.319; 8080.600;25482.000;25124.000
434.443; 1553.400; -656.000; -603.000
434.566; 4645.500;  281.000;   62.000
434.690;  732.400; -637.000; -383.000
434.813;  144.000; -251.000; -173.000
434.937;  -84.300; -569.000; -696.000
435.060;   -3.000; -423.000; -332.000
435.184;  707.400; -492.000; -217.000
435.307;  381.700;  159.000;  102.000
435.431;   78.900;  -40.000;   24.000
435.554;  -97.900; -399.000; -240.000
435.677;  -84.400; -350.000; -258.000
435.801;    2.600;  -25.000;   49.000
435.924;   50.000;    1.000;  -67.000
436.048; -141.500;-1019.000; -732.000
436.171;  -77.600; -240.000;  -66.000
436.294;    7.600; -248.000; -229.000
436.417;  200.600; -963.000; -849.000
436.541; -140.400; -814.000; -840.000
436.664;    0.400; -242.000; -316.000
436.787;   41.800;   13.000;  113.000
436.910; -147.300; -792.000; -422.000
437.034;  100.100;  142.000;  143.000
437.157;  183.300;  -11.000;    0.000
437.280;  -20.700; -392.000; -292.000
437.403;  -93.300; -982.000; -869.000
437.526; 1421.200; -903.000; -865.000
437.649; 4427.500; -505.000; -332.000
437.772;  594.800; -692.000; -540.000
437.896;  362.700;  700.000;  544.000
438.019; -136.800; -758.000; -503.000
438.142;  -95.600; -596.000; -506.000
438.265;   40.300; -639.000; -670.000
438.388; 1160.800; -520.000; -410.000
438.511;  189.900; -597.000; -394.000
438.634;  -36.000; -247.000; -125.000
438.757; -190.700; -693.000; -619.000
438.880;   48.700;  -34.000;  -57.000
439.003;  -67.400; -417.000; -437.000
439.126;  -65.000; -287.000; -167.000
439.248;  -67.200;  -98.000; -139.000
439.371;    8.500;    9.000;  -53.000
439.494;  137.600;  510.000;  439.000
439.617;  -33.400;   65.000;  -88.000
439.740; -300.500; -968.000; -816.000
439.863; -226.600; -755.000; -595.000
439.986; -184.400; -476.000; -431.000
440.108;  -23.100; -161.000; -112.000
440.231; -236.900; -950.000; -836.000
440.354;  -18.300;  -64.000; -150.000
440.477;  158.700; -566.000; -542.000
440.599;   71.600; -200.000; -225.000
440.722; -149.700; -709.000; -586.000
440.845;  202.700;  751.000;  928.000
440.968; -158.200; -415.000; -311.000
441.090;  -69.300; -199.000;  -33.000
441.213; -249.700;-1021.000; -825.000
441.336;  -24.200; -159.000;   -5.000
441.458;  -61.700; -549.000; -396.000
441.581; -105.100; -628.000; -629.000
441.703;  -71.200; -152.000;   13.000
441.826; -173.800; -557.000; -400.000
441.948;  -12.300;   56.000;   51.000
442.071;  138.000;  555.000;  424.000
442.193; -182.200; -531.000; -485.000
442.316;   94.300;  152.000;   97.000
442.438;  119.600; -233.000;  -10.000
442.561;  218.300;  272.000;  262.000
442.683; 1155.800; -809.000; -522.000
442.806; 2288.300;   -8.000;   74.000
442.928;   45.700; -859.000; -604.000
443.051;  -80.400; -577.000; -373.000
443.173; -111.800; -341.000; -339.000
443.295; -114.800; -263.000; -371.000
443.418;  -58.400; -321.000;  -29.000
443.540;   28.700; -106.000;   -4.000
443.662; -178.400; -563.000; -465.000
443.785;   46.900;  335.000;  199.000
443.907; -159.000; -362.000; -208.000
444.029; -186.100; -767.000; -494.000
444.152; -226.200; -644.000; -554.000
444.274;   17.500;  -18.000;  -24.000
444.396; -158.600; -461.000; -221.000
444.518; -197.200; -691.000; -454.000
444.640; -163.400; -268.000; -111.000
444.763;   16.900;  388.000;  249.000
444.885; -171.000; -432.000; -392.000
445.007;   -3.700;   35.000;   86.000
445.129; -158.000; -610.000; -515.000
445.251; -146.600; -372.000; -439.000
445.373; -217.500; -537.000; -386.000
445.495;   58.200;  242.000;  350.000
445.617;  214.600;  853.000;  753.000
445.739;  -65.500; -215.000;  -97.000
445.861;   27.300; -245.000; -112.000
445.984;  -13.000; -267.000; -101.000
446.105;  492.200; -418.000; -251.000
446.227; 1205.400; -176.000;  -19.000
446.349;   45.600; -358.000; -249.000
446.471; -123.400; -615.000; -448.000
446.593;  -76.500; -316.000;   19.000
446.715;   83.600;  -67.000;   41.000
446.837;  224.500;  697.000;  832.000
446.959; -131.000; -457.000; -478.000
447.081; -212.700; -628.000; -518.000
447.203;  193.700;  862.000;  834.000
447.325; -105.300; -270.000;   42.000
447.446;   58.600;  286.000;  530.000
447.568; -233.600; -921.000; -803.000
447.690;  -93.200; -236.000; -245.000
447.812; -228.500; -798.000; -519.000
447.933;   -1.300;  155.000;  127.000
448.055;  -56.600; -306.000; -261.000
448.177;  383.100;   31.000;   79.000
448.299;  193.600; -935.000; -727.000
448.420;   99.500;  -25.000;  159.000
448.542;  -14.100;   -3.000;   33.000
448.664;   43.300;  109.000;  322.000
448.785;   11.300;  265.000;   83.000
448.907;  -80.400; -614.000; -353.000
449.028;   -5.800; -771.000; -471.000
449.150;  213.300;  492.000;  589.000
449.272; -251.300;-1044.000; -913.000
449.393;  159.700;  612.000;  694.000
449.515; -237.900; -634.000; -581.000
449.636;  -35.200; -264.000; -155.000
449.758;  233.700;  763.000;  622.000
449.879;  -99.100; -498.000; -396.000
450.001; -111.900; -149.000;  -49.000
450.122;   19.400;  -95.000;  162.000
450.244;   26.900;   37.000;  364.000
450.365;  -91.600; -495.000; -301.000
450.486;    0.500;   80.000;  268.000
450.608;  122.600;  393.000;  326.000
450.729;  224.000;  578.000;  645.000
450.850;   44.900; -574.000; -466.000
450.972; 1452.700; -552.000; -389.000
451.093; 8757.400;  190.000;  588.000
451.214; 3351.600; -516.000; -337.000
451.336;  724.600;  773.000;  579.000
451.457;  177.000;  264.000;  393.000
451.578;   12.800; -118.000;  -74.000
451.699; -156.100; -546.000; -540.000
451.821;  -45.300; -284.000;  -50.000
451.942;   67.300;  278.000;  285.000
452.063;  161.800;  228.000;  419.000
452.184; 1114.600;  -54.000;  -49.000
452.305; 1937.200;  103.000;  170.000
452.427;  242.000; -549.000; -301.000
452.548;   28.900;   23.000;   79.000
452.669;  -23.300; -257.000;  -89.000
452.790;  -19.400;    3.000;  -18.000
452.911;   99.600;  195.000;  259.000
453.032;  -87.800; -289.000;  -60.000
453.153;   -8.900;  -29.000;   81.000
453.274;  180.200;  737.000;  868.000
453.395;  -16.600;  -51.000;  175.000
453.516;  360.100; 1317.000; 1388.000
453.637;  -34.500; -205.000; -150.000
453.758;  -14.500;   15.000;   69.000
453.879; -146.100; -462.000; -250.000
454.000;  242.400; 1086.000;  948.000
454.121; -169.000; -554.000; -326.000
454.242; -168.900; -599.000; -383.000
454.362;  -10.300;  -99.000;  114.000
454.483;   19.600; -309.000; -229.000
454.604;  199.500;  512.000;  580.000
454.725; -182.400; -627.000; -555.000
454.846; -138.100; -474.000; -406.000
454.967;   25.200;  230.000;  539.000
455.087;   17.800;  179.000;  153.000
455.208;  108.600;  554.000;  856.000
455.329;  -43.700;  -22.000;   82.000
455.450;  155.900;  473.000;  633.000
455.570; -119.900; -234.000; -211.000
455.691;   14.800;  201.000;  407.000
455.812; -138.300; -270.000;  -92.000
455.932;  -32.100;  107.000;  -97.000
456.053;  -97.600;   36.000;   24.000
456.173; -165.500; -433.000; -355.000
456.294; -186.900; -476.000; -303.000
456.415;  -72.800;  -73.000;   70.000
456.535;   20.400;  297.000;  273.000
456.656;  -29.600;  132.000;  240.000
456.776;  -34.900;    3.000;  298.000
456.897;   68.300;  308.000;  513.000
457.017; -104.700; -153.000;   -3.000
457.138; -119.700; -402.000; -249.000
457.258;   28.000;  263.000;  224.000
457.379;   81.200;  509.000;  521.000
457.499;   30.500;  443.000;  432.000
457.620; -180.200; -407.000; -231.000
457.740;  -90.400; -132.000;  -11.000
457.860;  -18.800;   87.000;   44.000
457.981;  -20.900;  132.000;  124.000
458.101; -106.000;  -89.000;   40.000
458.221;   39.300;  336.000;  402.000
458.342;  -59.600;   -4.000;  -37.000
458.462;  123.600;  617.000;  352.000
458.582;  -17.900; -302.000; -294.000
458.703;   68.000;  303.000;  154.000
458.823;   -1.700;   22.000;  163.000
458.943;  117.200;  341.000;  467.000
459.063;   54.300; 1124.000;  192.000
459.183;   53.300;  328.000;  313.000
459.304;   92.400;  315.000;  517.000
459.424;  -89.700; -246.000;  -89.000
459.544;  722.000;  388.000;  764.000
459.664; 1536.700;  499.000;  506.000
459.784;  601.900; 1004.000; 1175.000
459.904;  209.300;  867.000;  744.000
460.024;  236.600;  867.000;  684.000
460.144;   88.200;  449.000;  554.000
460.264;   89.900;  515.000;  327.000
460.385;  -74.600; -145.000; -119.000
460.505;  176.800;  905.000;  858.000
460.625;  -86.900;  -17.000;  -68.000
460.745;   25.500;  396.000;  541.000
460.864;  -43.900;  153.000;  469.000
460.984;   99.200;  499.000;  573.000
461.104;  364.400; 1656.000; 1775.000
461.224;  127.500;  657.000;  650.000
461.344;    8.200;  431.000;  360.000
461.464;    6.200;  258.000;  513.000
461.584;   45.500;  283.000;  466.000
461.704;  -19.600;   58.000;  108.000
461.824;  -48.600;  238.000;  259.000
461.943;   11.500;  191.000;  130.000
462.063;  -81.400;    2.000;  324.000
462.183;  132.400;  639.000;  717.000
462.303;  264.500; 1678.000; 1230.000
462.422;  135.700;  781.000;  840.000
462.542;   38.700;  271.000;  391.000
462.662;  144.600;  353.000;  380.000
462.782;  556.100;  833.000;  572.000
462.901;  945.300;  545.000;  717.000
463.021;  625.800; 1702.000; 1638.000
463.141;   61.300;  337.000;  770.000
463.260;   41.800;  614.000;  474.000
463.380;   77.600;  902.000;  884.000
463.499;   25.300;  342.000;  332.000
463.619;  -25.400;  581.000;  559.000
463.738;  359.700; 1644.000;  903.000
463.858;   98.500;  657.000;  811.000
463.978;   15.200;  542.000;  396.000
464.097;  181.900;  921.000; 1114.000
464.217;  298.600; 1196.000; 1143.000
464.336;  283.100; 1068.000; 1130.000
464.455;   15.000;  328.000;  659.000
464.575;  175.900;  597.000;  602.000
464.694;  422.600; 1204.000; 1179.000
464.814;  318.500; 1190.000; 1138.000
464.933;  258.000; 1095.000; 1027.000
465.052;  265.000; 1412.000; 1054.000
465.172;  261.300;  922.000;  799.000
465.291;  311.400; 1376.000; 1320.000
465.410;   83.600;  462.000;  735.000
465.530;  248.500; 1355.000; 1310.000
465.649;  228.800; 1209.000; 1273.000
465.768;  350.500; 1673.000; 1508.000
465.888;  231.500;  941.000; 1174.000
466.007;  302.300; 1335.000; 1440.000
466.126;   85.800;  721.000;  641.000
466.245;  168.300; 1176.000; 1187.000
466.364;   96.500;  950.000; 1060.000
466.484;  158.700; 1024.000; 1213.000
466.603;  175.000; 1101.000; 1222.000
466.722;  330.700; 1490.000; 1769.000
466.841;  248.100; 1151.000; 1401.000
466.960;  156.000; 1069.000;  972.000
467.079;  365.500; 1971.000; 1786.000
467.198;  169.800; 1238.000; 1181.000
467.317;  268.700; 1768.000; 1162.000
467.436;  255.200; 1709.000; 1261.000
467.555;  331.500; 1796.000; 1746.000
467.674;  212.100; 1227.000; 1329.000
467.793;  175.800; 1376.000; 1374.000
467.912;  290.100; 1658.000; 1539.000
468.031;  346.600; 2038.000; 1930.000
468.150;  375.300; 1842.000; 1837.000
468.269;  469.200; 2313.000; 2090.000
468.388;  433.600; 2168.000; 2339.000
468.507;  574.200; 2884.000; 2903.000
468.626;  648.600; 2555.000; 2541.000
468.744;  375.300; 2018.000; 2174.000
468.863;  489.300; 2312.000; 2523.000
468.982;  275.000; 1503.000; 1555.000
469.101;  529.400; 2788.000; 2692.000
469.220;  413.700; 2333.000; 2176.000
469.338;  577.700; 2935.000; 3051.000
469.457;  476.400; 2719.000; 2545.000
469.576;  772.700; 3953.000; 3784.000
469.695;  602.200; 2877.000; 3066.000
469.813;  977.000; 4148.000; 4192.000
469.932;  970.500; 4255.000; 4485.000
470.051;  984.000; 4075.000; 4161.000
470.169; 1772.900; 4470.000; 4338.000
470.288; 2788.300; 4700.000; 4809.000
470.406; 1720.000; 5059.000; 5194.000
470.525; 1343.700; 6101.000; 5787.000
470.644; 1373.300; 6847.000; 6794.000
470.762; 1866.800; 8397.000; 7873.000
470.881; 1956.500; 8651.000; 8464.000
470.999; 2195.500; 9685.000; 9151.000
471.118; 2304.300;11174.000;10711.000

