
Integration time [ms]: 100.000
Averaging Nr. [scans]: 40
Smoothing Nr. [pixels]: 0
Data measured with spectrometer [name]: 2101012U2
Wave   ;Sample   ;Dark     ;Reference
[nm]   ;[counts] ;[counts] ;[counts] 

197.733;   58.750;  516.000;  404.000
197.879;  -73.500; -610.000; -634.000
198.025;  -56.500; -475.000; -420.000
198.171;  -77.350; -602.000; -612.000
198.317;  -35.525; -401.000; -316.000
198.463;  -56.300; -655.000; -404.000
198.609;   27.675;  181.000; -137.000
198.755;  -73.275; -644.000; -410.000
198.901;  -51.500; -505.000; -424.000
199.047;  -57.700; -615.000; -488.000
199.193;  -33.850; -230.000; -468.000
199.339;  -41.000; -222.000; -369.000
199.485;   39.175;  330.000;  271.000
199.631;   15.625;  227.000;  310.000
199.777;  -42.775; -466.000; -398.000
199.923;  -55.175; -610.000; -424.000
200.069;   -1.850; -141.000;  -58.000
200.215;   50.500;  128.000;  453.000
200.361;   44.150;  243.000;  477.000
200.507;  -59.950; -600.000; -373.000
200.653;  -15.650; -371.000; -194.000
200.798;  -25.450; -215.000; -125.000
200.944;   -5.875; -146.000;  -41.000
201.090;   38.900;   61.000;  222.000
201.236;    1.550; -116.000; -158.000
201.382;  118.750;  874.000;  903.000
201.528;   -5.500;  -58.000;  -48.000
201.674;  -37.500; -386.000; -293.000
201.819;  -60.700; -540.000; -439.000
201.965;  -65.900; -699.000; -447.000
202.111;  -19.925; -273.000; -226.000
202.257;  -38.775; -250.000; -238.000
202.402;    8.800;   13.000;  -36.000
202.548;  -34.750; -169.000; -116.000
202.694;   81.850;  410.000; -183.000
202.840;  -60.275; -603.000; -531.000
202.985;  -74.400; -681.000; -639.000
203.131;  -97.650; -832.000; -666.000
203.277;  -29.350; -199.000; -262.000
203.423;  -61.675; -434.000; -520.000
203.568;  -27.600; -462.000; -237.000
203.714;  -67.400; -535.000; -542.000
203.860;  -79.825; -682.000; -641.000
204.005;    9.750;  112.000;  167.000
204.151;   55.400;  561.000;  556.000
204.296;  -45.600; -354.000; -221.000
204.442;  -64.075; -600.000; -547.000
204.588;  -66.375; -592.000; -579.000
204.733;   14.125;  178.000;  168.000
204.879; -125.450;-1018.000; -822.000
205.025;   -3.625;  -99.000;  126.000
205.170;   -6.900;  -17.000;   94.000
205.316;   72.250;  438.000;  661.000
205.461;  -71.475; -698.000; -554.000
205.607;   80.475;  609.000;  665.000
205.752;  -68.875; -626.000; -551.000
205.898;  -62.000; -501.000; -391.000
206.043;  -65.375; -578.000; -506.000
206.189;  -39.425; -243.000; -285.000
206.334;   60.600;  554.000;  606.000
206.480;   71.200;  409.000;  239.000
206.625;  -77.425; -529.000; -552.000
206.771;  -40.875; -451.000; -373.000
206.916;  -35.850; -210.000; -537.000
207.062;  -69.675; -545.000; -591.000
207.207;  -60.300; -546.000; -443.000
207.353;   45.225;  185.000;  460.000
207.498;    5.525;  196.000;   85.000
207.643;  -44.200; -501.000; -370.000
207.789; -121.975;-1069.000; -910.000
207.934;  -75.550; -665.000; -713.000
208.080;  -29.825; -154.000;   66.000
208.225;   -3.825;  -22.000;  -57.000
208.370;  -80.025; -727.000; -619.000
208.516;  -62.775; -741.000; -487.000
208.661;  -15.950; -127.000;  -69.000
208.806;  -11.000; -165.000; -171.000
208.952; -121.275;-1044.000; -731.000
209.097;   67.200;  378.000;  349.000
209.242;  -45.850; -307.000; -382.000
209.387;   66.975;  392.000;  350.000
209.533;  -64.350; -321.000; -350.000
209.678;   75.400;  472.000;  543.000
209.823;  -47.550; -408.000; -310.000
209.969; -106.550; -860.000; -757.000
210.114; -107.700; -907.000; -719.000
210.259;  -99.225; -939.000; -889.000
210.404;  -14.775; -171.000;  103.000
210.549;   13.750;  108.000;    3.000
210.695;  -23.900;   -3.000;  -95.000
210.840;   33.825;   94.000;   67.000
210.985;  -67.000; -484.000; -303.000
211.130;   56.250;  268.000;  406.000
211.275;   18.425;  207.000;  199.000
211.420;  -52.825; -300.000; -289.000
211.566;  -78.075; -536.000; -489.000
211.711;   15.125;  218.000;  157.000
211.856;  -66.875; -545.000; -519.000
212.001;   14.400;  151.000;   44.000
212.146;   25.250;  153.000;   49.000
212.291;  -21.525; -210.000; -186.000
212.436;  -22.500; -280.000;   -6.000
212.581;  -78.075; -685.000; -653.000
212.726;  -66.150; -487.000; -538.000
212.871;  -48.725; -552.000; -217.000
213.016; -137.775;-1172.000;-1029.000
213.161;   57.475;  406.000;  291.000
213.306;  -72.300; -435.000; -577.000
213.451;  -90.650; -778.000; -689.000
213.596;  -42.125; -455.000; -347.000
213.741;  -48.975; -448.000; -538.000
213.886;  -57.625; -498.000; -517.000
214.031;  -27.675; -294.000; -124.000
214.176;  -55.200; -408.000; -341.000
214.321;  -33.025; -296.000; -157.000
214.466;  -24.300; -163.000;  -43.000
214.611;  -15.900;  -61.000;  -10.000
214.756; -106.425; -948.000; -858.000
214.901;  -25.625; -388.000; -226.000
215.046; -117.900; -797.000; -825.000
215.191;   18.000;  128.000;   35.000
215.336;   -3.725; -157.000;  -19.000
215.480;  -74.825; -684.000; -505.000
215.625;  -22.300; -175.000;  -19.000
215.770;  -79.900; -757.000; -662.000
215.915;  -24.825;   -5.000;  -97.000
216.060;   -2.000; -113.000;  -21.000
216.205; -110.700; -731.000; -779.000
216.349;  -61.200; -470.000; -533.000
216.494; -127.625; -939.000; -867.000
216.639; -102.200; -823.000; -888.000
216.784;  -88.150; -577.000; -525.000
216.929;   44.850;  392.000;  281.000
217.073;  -12.825; -244.000;  -31.000
217.218;    8.425;   78.000;  -47.000
217.363;  -79.675; -656.000; -618.000
217.507;  -84.725; -623.000; -588.000
217.652; -118.375; -845.000; -874.000
217.797;  -85.825; -708.000; -659.000
217.942; -107.850; -856.000; -720.000
218.086;   66.000;  608.000;  539.000
218.231;  -31.400; -174.000;  -26.000
218.376;  -37.200; -337.000; -229.000
218.520;    1.450;  -41.000;   96.000
218.665;  -27.750; -338.000; -204.000
218.810;  -47.250; -275.000; -233.000
218.954;   14.150;  201.000;   35.000
219.099; -113.300; -713.000; -963.000
219.243;  -68.575; -589.000; -554.000
219.388;  -38.300; -264.000; -136.000
219.532;   -3.900; -116.000; -116.000
219.677;  -67.575; -564.000; -521.000
219.822;    0.875;   33.000;   89.000
219.966;   -1.700;   17.000;  -99.000
220.111;  -32.850; -328.000;  -40.000
220.255;  -84.925; -797.000; -750.000
220.400;  -16.950; -180.000; -146.000
220.544;  -65.575; -516.000; -450.000
220.689;  -43.925; -422.000; -451.000
220.833;  -26.700; -123.000;  -58.000
220.978;  -35.875; -393.000; -563.000
221.122;   14.775;  319.000;  307.000
221.267; -110.950; -906.000; -837.000
221.411;  -74.725; -478.000; -394.000
221.555;   -7.825; -104.000;  -23.000
221.700;  -26.450; -329.000; -222.000
221.844;   36.175;  255.000;  272.000
221.989;  -53.650; -328.000; -311.000
222.133;  -26.825; -289.000; -307.000
222.277;  -27.750;    5.000;   78.000
222.422;   26.050;  227.000;  113.000
222.566;  -25.550; -381.000; -214.000
222.711;  -55.425; -414.000; -479.000
222.855;  -82.350; -643.000; -586.000
222.999;  -73.050; -642.000; -717.000
223.144;  -34.900; -195.000; -194.000
223.288;   51.000;  423.000;  251.000
223.432;   27.700;  184.000;  230.000
223.576;   12.575;  152.000;  -21.000
223.721;   45.125;  364.000;  273.000
223.865;  -57.675; -472.000; -475.000
224.009;  231.050; 1673.000; 1631.000
224.153;  -69.075; -660.000; -671.000
224.298;  -64.200; -531.000; -489.000
224.442;  -21.875;  -74.000;  -33.000
224.586;  -13.950; -169.000; -106.000
224.730;  -84.425; -858.000; -670.000
224.875;  -93.200; -739.000; -688.000
225.019;    6.925;  102.000;  188.000
225.163;   48.475;  208.000;  341.000
225.307;   23.350;   97.000;  -91.000
225.451;   36.825;  360.000;  481.000
225.595;   23.575;  264.000;  176.000
225.739;  -17.575; -170.000;  -94.000
225.884;    8.450;   86.000;    5.000
226.028;  -96.700; -760.000; -626.000
226.172;  -42.825; -260.000; -273.000
226.316; -112.775; -941.000; -902.000
226.460;  -64.025; -645.000; -493.000
226.604;  -61.600; -406.000; -400.000
226.748;  -95.050; -836.000; -733.000
226.892;  -44.975; -227.000; -181.000
227.036;  -43.200; -537.000; -447.000
227.180;  -56.225; -551.000; -375.000
227.324;  -56.675; -561.000; -580.000
227.468; -108.075; -819.000; -717.000
227.612;    5.200;  242.000;  -28.000
227.756;  -97.325; -845.000; -698.000
227.900;   45.550;  342.000;  441.000
228.044;  -55.975; -509.000; -290.000
228.188;   50.050;  448.000;  568.000
228.332;  -80.400; -546.000; -472.000
228.476;  -17.775; -223.000; -149.000
228.620;  -35.550; -210.000; -150.000
228.764;   55.325;  431.000;  349.000
228.908;  -41.325; -155.000;   30.000
229.052;  -71.900; -615.000; -528.000
229.195;  -24.975; -172.000;   13.000
229.339;  -20.425; -235.000; -305.000
229.483;  -33.075;    5.000; -162.000
229.627;   -7.200; -156.000;  139.000
229.771;  -44.775; -218.000; -294.000
229.915;    1.850;  230.000;   79.000
230.059;  -77.850; -648.000; -663.000
230.202;  -45.975; -370.000; -317.000
230.346;  -26.675; -107.000;  107.000
230.490;  -60.225; -489.000; -521.000
230.634; -103.275; -736.000; -553.000
230.777;   65.250;  478.000;  509.000
230.921;  -55.250; -450.000; -359.000
231.065;  -39.850; -246.000; -286.000
231.209;   27.125;  261.000;  265.000
231.352;   24.650;   54.000;   40.000
231.496;   19.350;  568.000;  188.000
231.640;  -70.425; -693.000; -621.000
231.783;   60.400;  546.000;  525.000
231.927;  -36.250; -294.000; -365.000
232.071; -126.250; -962.000; -736.000
232.214; -100.975; -980.000; -764.000
232.358;  -87.000; -683.000; -599.000
232.502;   -5.075;  -19.000;    7.000
232.645; -120.575;-1090.000; -927.000
232.789;  -28.800; -257.000; -218.000
232.933;  -39.450; -407.000; -224.000
233.076; -112.100;-1038.000; -897.000
233.220; -108.600; -752.000; -777.000
233.363;  -86.725; -669.000; -477.000
233.507;   40.175;  371.000;  129.000
233.650;  -86.600; -764.000; -834.000
233.794;   44.050;  438.000;  461.000
233.938;  -58.100; -530.000; -362.000
234.081;  -16.375;  -93.000;   31.000
234.225;  -70.900; -631.000; -539.000
234.368; -100.925; -773.000; -723.000
234.512;  -30.425; -385.000; -299.000
234.655;  -77.000; -582.000; -555.000
234.798;  -65.775; -493.000; -466.000
234.942; -111.300; -884.000;-1002.000
235.085;  -68.575; -651.000; -443.000
235.229;  -68.375; -405.000; -410.000
235.372;  -44.350; -247.000; -191.000
235.516;  -72.900; -397.000; -321.000
235.659;   15.750;   92.000;  121.000
235.802;  -20.900;  -38.000;  -22.000
235.946;   25.925;  335.000;  215.000
236.089;   31.225;  126.000;  250.000
236.233;   49.450;  275.000;  298.000
236.376;  -54.700; -235.000; -378.000
236.519;  -44.700; -297.000; -319.000
236.663;  -31.775; -215.000; -117.000
236.806; -127.325;-1029.000; -999.000
236.949;   47.775;  543.000;  431.000
237.092;   40.550;  412.000;  391.000
237.236;  -73.975; -589.000; -502.000
237.379;   63.025;  352.000;  428.000
237.522; -112.575; -879.000; -768.000
237.666;  -20.875; -271.000;   18.000
237.809; -117.050; -851.000; -823.000
237.952;   19.075;  469.000;  271.000
238.095;  -75.525; -447.000; -442.000
238.238;   91.700;  688.000;  700.000
238.382;    3.000;  166.000;  103.000
238.525;  -69.675; -598.000; -511.000
238.668; -128.575;-1060.000; -985.000
238.811;  -76.450; -638.000; -643.000
238.954;  -68.450; -483.000; -334.000
239.097;   84.250;  617.000;  664.000
239.241;   12.525;  394.000;  326.000
239.384;  -39.375; -254.000; -214.000
239.527;  -55.725; -424.000; -224.000
239.670; -145.250; -994.000;-1091.000
239.813; -102.925; -696.000; -658.000
239.956;   71.850;  579.000;  473.000
240.099; -109.275; -778.000; -725.000
240.242;   53.250;  428.000;  432.000
240.385;   31.400;  466.000;  450.000
240.528;  -72.175; -706.000; -473.000
240.671;   17.775;  189.000;  134.000
240.814;  -39.425; -441.000; -158.000
240.957; -100.225; -767.000; -578.000
241.100;  -62.425; -779.000; -755.000
241.243; -142.900;-1234.000; -893.000
241.386;  -62.425; -508.000; -379.000
241.529;  -83.475; -735.000; -547.000
241.672;  -63.275; -566.000; -495.000
241.815; -118.275; -832.000; -808.000
241.958;  -26.825; -125.000; -182.000
242.101;  -77.925; -545.000; -390.000
242.244;  -36.100; -270.000; -325.000
242.387;  -43.225; -304.000; -246.000
242.530;   45.850;  470.000;  134.000
242.673;  -48.525; -381.000; -309.000
242.815; -109.350; -925.000; -899.000
242.958;  -71.600; -482.000; -381.000
243.101;    8.850;  132.000;  187.000
243.244;  -74.675; -564.000; -521.000
243.387;  -46.200; -313.000; -316.000
243.530;  -80.950; -657.000; -674.000
243.672;   -6.125;   43.000;  -92.000
243.815;  -58.775; -355.000; -283.000
243.958;   -0.600;   98.000;  -26.000
244.101;   -5.450;   59.000;  -16.000
244.243;   -4.775;  -47.000;  101.000
244.386; -103.825; -761.000; -630.000
244.529;   -8.775; -132.000; -139.000
244.672; -145.900;-1154.000; -951.000
244.814; -104.450; -621.000; -794.000
244.957;  -46.750; -380.000; -304.000
245.100;  -67.425; -489.000; -489.000
245.242;  -62.150; -387.000; -374.000
245.385;  -19.350;  -59.000;  -39.000
245.528; -113.650; -871.000; -705.000
245.670;   87.050;  612.000;  634.000
245.813;  -78.075; -599.000; -547.000
245.956;  -30.100; -324.000; -275.000
246.098;  -84.900; -508.000; -650.000
246.241;    4.250;  194.000;   48.000
246.383;   -7.625; -119.000;  -73.000
246.526;  -69.575; -454.000; -525.000
246.669; -104.800; -889.000; -780.000
246.811;   15.825;  172.000;   -1.000
246.954;  -64.175; -512.000; -426.000
247.096;  -11.275;  -84.000;   -6.000
247.239;  -69.675; -482.000; -445.000
247.381;  -84.075; -647.000; -488.000
247.524;   65.325;  645.000;  679.000
247.666;   -1.650;   58.000;   11.000
247.809; -118.125; -887.000; -691.000
247.951;  -16.500;  -75.000;  138.000
248.094;   19.725;  432.000;  308.000
248.236; -156.450;-1262.000;-1238.000
248.378;  -53.250; -356.000;  -81.000
248.521;  -39.625; -334.000; -337.000
248.663;  -46.575; -236.000; -267.000
248.806;  -30.975; -300.000; -266.000
248.948; -118.575; -886.000; -763.000
249.090;  -68.525; -428.000; -398.000
249.233;  -71.550; -344.000; -381.000
249.375;  -60.100; -474.000; -451.000
249.518;  -13.475;  -83.000; -133.000
249.660;  -18.850; -103.000;    3.000
249.802; -164.600;-1303.000;-1189.000
249.945;  -77.825; -612.000; -540.000
250.087; -110.650; -834.000; -768.000
250.229;  -56.150; -362.000; -480.000
250.371;  -81.350; -494.000; -439.000
250.514;  -52.525; -310.000; -244.000
250.656;  -10.800;   69.000;  102.000
250.798; -114.450; -849.000; -800.000
250.940;  -62.900; -322.000; -322.000
251.083;  -20.900; -335.000; -111.000
251.225;   27.075;  338.000;  310.000
251.367;  -51.350; -274.000; -373.000
251.509;  -46.150; -265.000; -210.000
251.651;  -95.725; -731.000; -671.000
251.794;   35.725;  538.000;  632.000
251.936; -107.350; -821.000; -747.000
252.078;  -81.600; -540.000; -461.000
252.220;  -75.925; -645.000; -477.000
252.362;   45.675;  344.000;  462.000
252.504;  -82.300; -677.000; -584.000
252.646; -112.000; -875.000; -722.000
252.788;   -9.825;   14.000; -128.000
252.931;  -58.700; -257.000; -253.000
253.073;  -46.675; -376.000; -317.000
253.215;  -17.650;  141.000;  122.000
253.357;  -21.975;   82.000; -153.000
253.499;  -54.975; -374.000; -234.000
253.641;  -83.800; -749.000; -594.000
253.783; -101.300; -609.000; -527.000
253.925;  -85.225; -586.000; -591.000
254.067; -103.075; -744.000; -667.000
254.209;  -24.325; -391.000; -259.000
254.351; -131.925; -865.000; -883.000
254.493;  -58.975; -441.000; -417.000
254.635; -129.400; -936.000; -818.000
254.777;  -95.875; -752.000; -687.000
254.918;  -62.875; -512.000; -430.000
255.060;  -64.625; -551.000; -395.000
255.202;  -67.825; -473.000; -261.000
255.344;  -82.575; -658.000; -455.000
255.486;  -72.825; -471.000; -406.000
255.628; -114.775; -780.000; -781.000
255.770;  -90.625; -676.000; -536.000
255.912;  -54.475; -559.000; -468.000
256.053;  -89.650; -730.000; -508.000
256.195;  154.250; 1008.000;  903.000
256.337;  -96.475; -861.000; -595.000
256.479;   65.300;  532.000;  416.000
256.621;  -50.200; -394.000; -212.000
256.762;  -86.825; -789.000; -742.000
256.904;   35.375;  485.000;  487.000
257.046;  -40.875; -381.000; -271.000
257.188;  -51.025; -351.000; -264.000
257.329;  -63.150; -525.000; -464.000
257.471; -100.150; -939.000; -807.000
257.613;  -67.175; -584.000; -498.000
257.755; -145.175;-1073.000; -982.000
257.896;   26.025;  286.000;  392.000
258.038;  -73.350; -403.000; -352.000
258.180;  -43.900; -354.000; -279.000
258.321;  -88.600; -581.000; -457.000
258.463;   -6.925;  -71.000;  133.000
258.605;  -86.550; -562.000; -570.000
258.746; -104.925; -886.000; -772.000
258.888; -152.050;-1026.000;-1020.000
259.029;   15.125;  121.000;   -8.000
259.171;  -91.475; -614.000; -550.000
259.313;  -13.300;  -49.000;  -47.000
259.454;  -63.100; -536.000; -414.000
259.596;  -63.625; -483.000; -390.000
259.737;  -72.250; -590.000; -474.000
259.879;   35.975;  217.000;  311.000
260.020;   73.325;  901.000;  636.000
260.162;  -27.250; -146.000; -253.000
260.303; -110.000; -768.000; -687.000
260.445;  -83.950; -609.000; -613.000
260.586;   19.625;  392.000;  157.000
260.728;  -34.625; -360.000; -248.000
260.869;  -66.525; -350.000; -343.000
261.011;   75.350;  706.000;  537.000
261.152;  -64.025; -479.000; -319.000
261.293;  -75.850; -576.000; -595.000
261.435;  -44.425; -219.000; -184.000
261.576;  -44.500; -455.000; -325.000
261.718;   41.800;  420.000;  470.000
261.859; -125.200; -940.000; -949.000
262.000; -126.625; -951.000;-1016.000
262.142;   -6.400;  -52.000;  -60.000
262.283; -103.500; -808.000; -691.000
262.424;  -77.725; -666.000; -625.000
262.566; -150.375;-1161.000; -983.000
262.707; -117.625; -840.000; -830.000
262.848; -117.900; -769.000; -726.000
262.990;  -33.300; -362.000; -345.000
263.131;   70.700;  650.000;  681.000
263.272;   -4.375;  -61.000;  -41.000
263.413;  -86.675; -589.000; -561.000
263.555;  -63.550; -669.000; -143.000
263.696;  -86.725; -550.000; -641.000
263.837;  -50.450; -449.000; -551.000
263.978;  -17.875;   -5.000;  -77.000
264.119;  -47.450; -283.000; -264.000
264.261; -110.400; -847.000; -630.000
264.402;  -10.750;   33.000;   40.000
264.543;  -74.525; -509.000; -524.000
264.684;   -8.250;   61.000;  -50.000
264.825;  -83.650; -816.000; -538.000
264.966;   -5.600;  -84.000;  -67.000
265.107; -120.375; -646.000; -670.000
265.248; -120.175; -825.000; -812.000
265.390;  -14.850;  152.000;   -9.000
265.531;  -25.825; -238.000; -107.000
265.672;  -83.875; -557.000; -630.000
265.813;   60.750;  563.000;  439.000
265.954; -134.325; -959.000; -940.000
266.095;  -24.400; -372.000; -322.000
266.236;  -95.275; -686.000; -548.000
266.377;  -41.300; -243.000; -297.000
266.518;  -69.625; -619.000; -547.000
266.659;   17.275;  170.000;  268.000
266.800;    0.450;   83.000;   85.000
266.941;  -66.000; -487.000; -478.000
267.082;   10.325;  354.000;   99.000
267.223;  -51.450; -344.000; -273.000
267.364; -112.650; -892.000; -686.000
267.504;   -7.850;    3.000;  135.000
267.645;  -10.625;  160.000;   67.000
267.786;  -24.625; -147.000;  -86.000
267.927;  -76.100; -473.000; -379.000
268.068;  -21.950; -186.000;  -61.000
268.209;  -51.675; -175.000; -413.000
268.350;  -67.250; -388.000; -532.000
268.490;  -97.550; -648.000; -521.000
268.631;   15.875;  127.000;  225.000
268.772; -104.500; -874.000; -647.000
268.913;  -44.225; -328.000; -476.000
269.054;  -23.700; -117.000;   12.000
269.194;  -42.250; -418.000; -402.000
269.335; -146.925;-1137.000;-1074.000
269.476;  -23.300;   33.000;  -35.000
269.617;  -56.775; -347.000; -392.000
269.757;  -84.225; -713.000; -646.000
269.898; -105.850; -856.000; -613.000
270.039;  -57.650; -415.000; -405.000
270.180; -129.400; -952.000; -816.000
270.320;  -26.225; -190.000; -250.000
270.461;  -53.600; -277.000; -249.000
270.602;  -15.950; -186.000; -156.000
270.742; -119.425; -868.000; -943.000
270.883;  -59.600; -442.000; -390.000
271.023;  -57.150; -358.000; -357.000
271.164;  -69.550; -607.000; -528.000
271.305; -104.900; -666.000; -654.000
271.445;  -91.675; -722.000; -683.000
271.586;  -70.550; -462.000; -283.000
271.726;  -44.875; -397.000; -322.000
271.867;  -80.800; -594.000; -534.000
272.008;   14.600; -473.000; -285.000
272.148;   61.875;  462.000;  468.000
272.289;  -17.825; -113.000; -181.000
272.429;   -0.350;   19.000;  185.000
272.570; -101.525; -633.000; -737.000
272.710; -100.075; -825.000; -775.000
272.851;  -30.175;  113.000; -130.000
272.991; -160.600;-1173.000;-1077.000
273.131;  -69.550; -419.000; -459.000
273.272;  -99.725; -683.000; -723.000
273.412;   -3.100; -143.000;  -31.000
273.553;  -66.250; -488.000; -507.000
273.693;  105.075;  913.000;  858.000
273.834; -114.700; -894.000; -692.000
273.974;  -82.775; -664.000; -615.000
274.114;  -85.650; -772.000; -560.000
274.255;   40.050;  414.000;  373.000
274.395;  -37.350; -180.000; -125.000
274.535;   19.400;  199.000;  350.000
274.676;   16.800;  225.000;   94.000
274.816;   -6.300;  110.000;   34.000
274.956;  -89.025; -624.000; -690.000
275.097; -101.325;-1014.000; -922.000
275.237; -111.600; -913.000; -803.000
275.377; -109.600; -778.000; -689.000
275.517; -137.750; -878.000; -937.000
275.658;  -50.225; -590.000; -555.000
275.798;  -81.400; -606.000; -413.000
275.938;   22.750;  215.000;  323.000
276.078;  -83.175; -626.000; -395.000
276.218;    6.200;   99.000;  104.000
276.359; -114.500;-1026.000;-1024.000
276.499;  -86.975; -605.000; -446.000
276.639;  -33.000; -305.000; -151.000
276.779;  -52.175; -475.000; -357.000
276.919; -105.600; -783.000; -624.000
277.059;  -14.600; -261.000; -212.000
277.199;  -48.025; -357.000; -259.000
277.340;   26.325;  287.000;  175.000
277.480; -107.825; -840.000; -693.000
277.620;   20.825;  192.000;   16.000
277.760; -179.200;-1533.000;-1294.000
277.900;    8.725;  113.000;   33.000
278.040;    1.125;  137.000;  159.000
278.180;   12.650;  270.000;  170.000
278.320;   -7.650;   21.000;   56.000
278.460;  -62.400; -443.000; -469.000
278.600;  -82.225; -708.000; -598.000
278.740;   60.550;  448.000;  224.000
278.880; -111.200; -768.000; -791.000
279.020;  -20.025; -194.000; -144.000
279.160;  -85.050; -672.000; -595.000
279.300; -108.175; -926.000; -873.000
279.440;  -98.850; -709.000; -622.000
279.579;  -96.625;-1014.000; -929.000
279.719;  -61.700; -410.000; -394.000
279.859;   24.400;   -4.000;   41.000
279.999;  -24.225; -208.000;  101.000
280.139;  -38.575; -435.000; -387.000
280.279;  -95.850; -708.000; -745.000
280.419;  -23.550; -229.000; -147.000
280.559;  -33.375; -259.000; -180.000
280.698;  -78.525; -790.000; -639.000
280.838;  -99.775; -778.000; -800.000
280.978;  -93.225; -846.000; -790.000
281.118; -103.700; -811.000; -704.000
281.257;    3.175;   24.000;    6.000
281.397; -136.875;-1094.000; -960.000
281.537;  -92.500; -599.000; -712.000
281.677;   -9.675; -150.000; -101.000
281.816;  -72.425; -700.000; -630.000
281.956;  -29.050; -193.000; -257.000
282.096;  -45.625; -539.000; -396.000
282.235;  -69.800; -672.000; -638.000
282.375;   13.700; -243.000;  -98.000
282.515;  -70.125; -715.000; -707.000
282.654;   39.400;   29.000;  106.000
282.794;   59.925;  388.000;  244.000
282.934;  -10.375; -530.000; -491.000
283.073;  -89.350;-1030.000; -857.000
283.213;  -32.800; -460.000; -467.000
283.353;  -56.700; -408.000; -349.000
283.492;  -29.450; -264.000; -296.000
283.632;  -37.600; -254.000; -168.000
283.771;  -76.000; -859.000; -730.000
283.911;  -48.425; -369.000; -260.000
284.050;  -70.975; -794.000; -748.000
284.190; -156.325;-1229.000;-1096.000
284.329; -128.125;-1055.000; -964.000
284.469;  -79.800; -516.000; -591.000
284.608;  -48.525; -559.000; -598.000
284.748;  -63.250; -614.000; -570.000
284.887;    1.125;  -87.000;  -20.000
285.027; -119.950; -844.000; -892.000
285.166;  -34.575; -192.000; -249.000
285.306;  -15.875; -116.000;  -33.000
285.445;  -38.475; -229.000; -343.000
285.584;  -90.700; -630.000; -494.000
285.724;  -31.925; -282.000; -322.000
285.863; -104.525; -857.000; -507.000
286.002;  -47.525; -366.000; -276.000
286.142;  -99.200; -715.000; -622.000
286.281;  -65.550; -525.000; -493.000
286.420;  -79.025; -554.000; -417.000
286.560;   87.575;  653.000;  623.000
286.699; -131.100; -958.000; -912.000
286.838;  -74.925; -590.000; -591.000
286.978;  -83.875; -533.000; -537.000
287.117; -121.800;-1085.000; -950.000
287.256;  -26.425; -228.000; -211.000
287.395;  -50.375; -197.000; -378.000
287.535;  -63.875; -370.000; -298.000
287.674;  -72.675; -509.000; -484.000
287.813;   39.325;  661.000;  533.000
287.952; -112.750;-1010.000; -871.000
288.091; -126.375;-1049.000; -915.000
288.231;    3.050;   13.000;   15.000
288.370; -159.800;-1217.000;-1200.000
288.509;  -81.050; -728.000; -645.000
288.648;  -70.575; -770.000; -548.000
288.787;  -34.325; -243.000;  -87.000
288.926;  -66.800; -454.000; -475.000
289.065;  103.100;  859.000;  672.000
289.204;  -55.075; -377.000; -217.000
289.344;  -88.400; -791.000; -690.000
289.483;   16.300;  416.000;  304.000
289.622;  -25.350; -291.000; -149.000
289.761;   -5.750; -309.000; -166.000
289.900;  -81.625; -785.000; -626.000
290.039;  -11.900;  -12.000;  -95.000
290.178;  -43.175; -274.000; -180.000
290.317;  -77.100; -618.000; -479.000
290.456;  -57.025; -463.000; -451.000
290.595; -125.675; -961.000; -833.000
290.734; -122.975; -904.000; -891.000
290.873;  -80.550; -456.000; -420.000
291.011;  -97.400; -833.000; -843.000
291.150; -101.300; -770.000; -682.000
291.289;  -26.100; -343.000; -110.000
291.428;  -84.700; -599.000; -480.000
291.567;  -55.700; -370.000; -442.000
291.706;   -6.125;  109.000;  154.000
291.845;  -79.550; -597.000; -505.000
291.984; -149.850;-1234.000;-1061.000
292.122;   72.650;  602.000;  582.000
292.261;   39.800;  620.000;  463.000
292.400;    9.925; -144.000;  211.000
292.539; -119.450; -959.000; -813.000
292.678;  -34.700; -325.000; -300.000
292.816; -148.900;-1136.000; -965.000
292.955;  -83.100; -844.000; -684.000
293.094;  -36.300; -173.000; -337.000
293.233;  -53.350; -556.000; -400.000
293.371;  -20.075; -225.000;  -84.000
293.510; -107.850; -866.000; -780.000
293.649; -124.650; -959.000; -924.000
293.787; -123.850;-1083.000;-1012.000
293.926;  -16.775; -113.000;  -32.000
294.065;  -47.700; -379.000; -290.000
294.203;   31.175;  298.000;  406.000
294.342;   43.675;   74.000;  156.000
294.481; 5246.950;51180.000; -836.000
294.619;  -36.475; -425.000; -582.000
294.758; -143.725;-1230.000;-1137.000
294.896;   17.225; -125.000;    5.000
295.035; -136.950;-1040.000;-1006.000
295.174; -132.500;-1082.000; -954.000
295.312;  -42.300; -323.000; -203.000
295.451;  -40.700; -307.000; -428.000
295.589;  -63.950; -389.000; -518.000
295.728;    7.025; -292.000; -165.000
295.866;    3.725;  -36.000;  -51.000
296.005;  -60.775; -584.000; -341.000
296.143;  -62.900; -558.000; -596.000
296.282;  -88.425; -957.000; -881.000
296.420;  -68.625; -657.000; -557.000
296.559;  -60.025; -892.000; -633.000
296.697;  -45.750; -847.000; -665.000
296.835;  -37.150;-1141.000;-1002.000
296.974;   71.675;  -23.000;   39.000
297.112;    7.175; -443.000; -504.000
297.251;  -36.475; -815.000; -755.000
297.389;    0.725; -576.000; -438.000
297.527;   29.550; -145.000;  -83.000
297.666;  -38.575; -486.000; -438.000
297.804;  -41.200; -404.000; -264.000
297.942;   16.500; -136.000; -161.000
298.081;   -5.375; -183.000;   63.000
298.219;    2.000;  -17.000;  -19.000
298.357;  -13.825; -144.000;  -71.000
298.495;  -84.375; -810.000; -812.000
298.634;    5.000;  245.000;  219.000
298.772;  -27.500; -220.000; -338.000
298.910;  -45.825; -309.000; -182.000
299.048;  -22.450; -130.000; -153.000
299.187;  -43.275; -350.000; -250.000
299.325;   -6.675;   52.000;  122.000
299.463;  -42.400; -389.000; -299.000
299.601;   -9.250; -327.000; -271.000
299.739; -130.425; -908.000; -883.000
299.877;  -80.850; -791.000; -703.000
300.016; -116.950;-1095.000; -935.000
300.154;   16.800;  -19.000; -161.000
300.292;  -49.925; -428.000; -348.000
300.430;  -38.975; -408.000; -291.000
300.568; -118.925; -940.000; -874.000
300.706;  -52.575; -366.000; -469.000
300.844; -129.075;-1108.000; -979.000
300.982;   55.675;  246.000;  282.000
301.120; -120.900; -965.000; -866.000
301.258;  -80.975; -812.000; -705.000
301.396;   24.425;  104.000;  -41.000
301.534;  -24.125; -218.000; -293.000
301.672;  -75.350; -664.000; -521.000
301.810;  -64.500; -613.000; -545.000
301.948;   21.050;   53.000;  149.000
302.086;  118.075; -250.000;  -32.000
302.224;   97.175; -610.000; -585.000
302.362;  -71.375; -558.000; -622.000
302.500;  -99.650; -923.000; -893.000
302.638;   33.350;  128.000;  245.000
302.776;  -33.300; -352.000; -408.000
302.913;   42.825;  447.000;  236.000
303.051;  -32.650;  -86.000;  -23.000
303.189;   19.300;   90.000;  118.000
303.327;  -58.075; -341.000; -256.000
303.465;  -84.750; -832.000; -588.000
303.603;  -82.425; -805.000; -604.000
303.740;   44.425;  417.000;  241.000
303.878;  -91.650; -800.000; -759.000
304.016; -107.375; -915.000; -790.000
304.154; -146.425;-1123.000;-1152.000
304.291;  -69.125; -505.000; -554.000
304.429;    1.850;  102.000;   74.000
304.567; -121.100; -908.000; -893.000
304.705;  -50.675; -408.000; -515.000
304.842;  -54.100; -616.000; -540.000
304.980;   16.975;  215.000;   35.000
305.118;  -30.400; -367.000; -365.000
305.255; -110.525; -945.000; -927.000
305.393;   26.500;  178.000;  239.000
305.531; -129.725;-1173.000; -956.000
305.668;  -74.950; -663.000; -582.000
305.806;  -26.825; -358.000; -439.000
305.943;  -33.300; -629.000; -637.000
306.081;  -15.100; -378.000; -267.000
306.219;  -94.775; -863.000; -748.000
306.356;   36.850;  158.000;   27.000
306.494;  166.725;  981.000;  761.000
306.631;   42.725;  -11.000;  -55.000
306.769;   40.875; -613.000; -485.000
306.906;   41.700; -284.000; -258.000
307.044;   -2.525; -473.000; -488.000
307.181;  -25.650; -410.000; -332.000
307.319;   38.150;  112.000;   87.000
307.456; -135.575;-1191.000;-1153.000
307.594;  -92.400; -980.000; -727.000
307.731;  -12.400; -371.000; -164.000
307.868;   15.325;  -15.000;   20.000
308.006; -100.375; -961.000; -847.000
308.143;  -39.050; -618.000; -330.000
308.281;   32.175;  -37.000; -254.000
308.418;  -42.200; -748.000; -640.000
308.555;  -35.625; -400.000; -250.000
308.693;  -38.650; -577.000; -573.000
308.830;  -53.325; -712.000; -657.000
308.967;   28.650; -215.000;  -95.000
309.105;   42.700; -507.000; -396.000
309.242;   27.675; -468.000; -367.000
309.379;   41.500; -577.000; -655.000
309.517;  -46.900; -936.000; -948.000
309.654;  -33.650; -910.000; -734.000
309.791;  -23.050; -662.000; -580.000
309.928;  -59.425; -977.000; -914.000
310.065;  175.075;  819.000;  697.000
310.203;  -47.125; -825.000; -850.000
310.340;   26.575; -465.000; -321.000
310.477;  -56.500; -412.000; -516.000
310.614;  -27.425; -383.000; -473.000
310.751;   -5.150; -427.000; -518.000
310.889;   12.625;    1.000;   11.000
311.026;  -91.875;-1161.000; -939.000
311.163;  -10.825; -386.000; -380.000
311.300;  -25.650; -512.000; -479.000
311.437;  -23.900; -658.000; -619.000
311.574; -109.775;-1226.000; -985.000
311.711;  -29.800; -595.000; -433.000
311.848;   22.775; -380.000; -388.000
311.985;   77.550;  270.000;   93.000
312.122;  -70.050; -932.000; -762.000
312.259;  -37.975; -941.000; -994.000
312.396;   14.750; -508.000; -551.000
312.533;   17.175; -812.000; -790.000
312.670;  -45.925;-1070.000; -898.000
312.807;   58.775; -352.000; -367.000
312.944;   11.125; -513.000; -611.000
313.081;   50.650; -150.000; -415.000
313.218;  -31.525;-1111.000; -867.000
313.355;   28.125; -531.000; -449.000
313.492;   29.925; -455.000; -292.000
313.629;  136.825;  815.000;  735.000
313.766;  -92.225;-1176.000;-1008.000
313.902;   17.850; -186.000;   21.000
314.039;  -25.250; -372.000; -289.000
314.176;   62.500;  286.000;  192.000
314.313;  -37.775; -569.000; -473.000
314.450;  -39.900; -788.000; -684.000
314.587;  -40.050; -468.000; -480.000
314.723;   42.025;  -78.000;  130.000
314.860;   74.325;  318.000;  332.000
314.997;   47.900;  223.000;  142.000
315.134;   -7.050; -385.000; -368.000
315.270;   -7.125; -480.000; -496.000
315.407;  -97.600;-1094.000; -967.000
315.544;  -23.650; -657.000; -538.000
315.681;  -44.000; -681.000; -565.000
315.817;   55.700; -133.000; -176.000
315.954;   36.850; -613.000; -392.000
316.091;  -96.250;-1045.000;-1023.000
316.227;   11.500;  -71.000; -179.000
316.364;    3.725;   23.000;    6.000
316.500;  -18.575; -113.000; -300.000
316.637;   -6.075; -181.000; -302.000
316.774;  -60.950; -625.000; -358.000
316.910;  -57.850; -598.000; -629.000
317.047;  -34.675; -487.000; -351.000
317.183;  -30.800; -435.000; -566.000
317.320;   41.275; -367.000; -321.000
317.456;   -3.775; -733.000; -805.000
317.593;  -62.250; -598.000; -641.000
317.729;   10.425;  168.000;  -67.000
317.866; -181.025;-1434.000;-1285.000
318.002;  -80.875; -708.000; -948.000
318.139;  -99.075; -883.000; -867.000
318.275; -104.075;-1003.000; -738.000
318.412;  -62.450; -517.000; -336.000
318.548;  -69.725; -751.000; -720.000
318.685;  -85.875; -985.000; -888.000
318.821;  -75.225; -762.000; -735.000
318.957;  -30.250;   34.000;  -23.000
319.094;   34.525;  297.000;  154.000
319.230;  -73.700; -756.000; -742.000
319.367;  -17.000; -471.000; -520.000
319.503;  -27.925; -538.000; -436.000
319.639;  -71.800; -877.000; -793.000
319.775;  -87.525; -750.000; -685.000
319.912;  -49.250; -424.000; -519.000
320.048;  -70.800;-1184.000;-1184.000
320.184;  100.825;   59.000;   70.000
320.321;  -50.575; -497.000; -467.000
320.457;   91.225;  475.000;  662.000
320.593;  -54.600; -375.000; -382.000
320.729;  -87.025; -732.000; -734.000
320.866;  -73.050; -577.000; -635.000
321.002;  -90.750; -759.000; -809.000
321.138;  -37.100; -135.000; -211.000
321.274;   11.975; -148.000; -115.000
321.410;  -63.125; -585.000; -353.000
321.546; -106.725;-1011.000; -911.000
321.683;   32.950;  400.000;  185.000
321.819;   -9.750;  -48.000; -117.000
321.955; -107.675; -743.000; -722.000
322.091;  -60.825; -585.000; -540.000
322.227;  -31.225; -382.000; -202.000
322.363;  -32.175; -320.000; -215.000
322.499;  -56.500; -343.000; -331.000
322.635;   97.025;  636.000;  443.000
322.771;  -14.925; -139.000;   12.000
322.907;   50.850;  129.000;  327.000
323.043;  -41.500; -115.000; -206.000
323.179;  -43.825; -394.000; -363.000
323.315;  -51.075; -401.000; -371.000
323.451;   30.200; -328.000; -236.000
323.587;   57.425;  -60.000;  -77.000
323.723;  -50.275; -682.000; -601.000
323.859;  -17.025; -258.000;  -76.000
323.995;  -49.875; -467.000; -409.000
324.131; -109.075; -967.000; -892.000
324.267;  -28.100; -254.000; -276.000
324.402; -114.475; -960.000; -983.000
324.538;  -23.500; -279.000; -104.000
324.674;   -4.375;  164.000;   77.000
324.810;   32.600;  226.000;  308.000
324.946;  -49.350; -810.000; -658.000
325.082;  -59.250; -568.000; -475.000
325.217;  -15.125;  -62.000;   16.000
325.353;  -86.525; -764.000; -659.000
325.489;  -75.475; -540.000; -506.000
325.625;  -53.625; -579.000; -525.000
325.760;  100.550;  517.000;  376.000
325.896;   35.775; -515.000; -702.000
326.032;  -37.475; -403.000; -352.000
326.168;  -46.825; -462.000; -369.000
326.303;  -55.625; -352.000; -461.000
326.439;   -8.425; -336.000; -276.000
326.575;   -2.650; -190.000;  -29.000
326.710;  -23.825; -156.000;  -30.000
326.846;   -2.475;  146.000;  103.000
326.982;  -80.025; -530.000; -548.000
327.117;  -64.000; -481.000; -442.000
327.253;  -52.550; -745.000; -742.000
327.388; -130.750;-1137.000;-1153.000
327.524;  -84.700; -811.000; -578.000
327.659;  -24.525;  -58.000;  -22.000
327.795;  -10.650;   69.000;   45.000
327.931;  -67.200; -723.000; -499.000
328.066;   -6.850; -417.000; -276.000
328.202;   -1.925;   12.000; -129.000
328.337;   90.300;  957.000;  713.000
328.473;   42.025;  -12.000;  -74.000
328.608;   -4.675; -256.000; -267.000
328.743;  -97.675; -799.000; -664.000
328.879;   13.225;  214.000;  114.000
329.014;  -16.950; -102.000; -122.000
329.150;  -60.900; -358.000; -483.000
329.285;  -65.250; -465.000; -466.000
329.421;  -17.925; -548.000; -246.000
329.556;   16.425;  -36.000;   85.000
329.691;  -66.025; -633.000; -615.000
329.827;  -41.550; -626.000; -480.000
329.962;    2.900;  131.000; -301.000
330.097;  -29.375; -673.000; -585.000
330.233;  -13.050; -410.000; -223.000
330.368;  -84.825; -839.000; -628.000
330.503;    7.025;    3.000;   98.000
330.638;   -8.125;  -93.000; -125.000
330.774;  -71.025; -609.000; -530.000
330.909;  -35.250; -434.000; -244.000
331.044;  -78.100; -714.000; -708.000
331.179; -159.925;-1217.000;-1109.000
331.315;   12.325;   77.000;   20.000
331.450;   12.375;  157.000;  285.000
331.585;  -84.675; -805.000; -706.000
331.720;  -79.375; -510.000; -460.000
331.855;    7.975;  -35.000; -102.000
331.990;  450.525;   62.000;  138.000
332.126;  232.600; -110.000;   71.000
332.261;   20.075; -379.000; -265.000
332.396;   26.100; -135.000; -242.000
332.531;  -39.075;-1074.000;-1031.000
332.666;  107.800; -519.000; -363.000
332.801;  -84.025; -726.000; -807.000
332.936;  -31.250; -192.000; -122.000
333.071; -119.850; -870.000; -817.000
333.206;   11.675;  307.000;  379.000
333.341;   35.075;  344.000;  418.000
333.476;  -58.225; -627.000; -623.000
333.611;  -32.725; -251.000; -173.000
333.746;  -39.925; -381.000; -464.000
333.881; -108.975; -973.000; -935.000
334.016; -112.400; -936.000; -917.000
334.151; -127.300; -746.000; -702.000
334.286;   16.950;  152.000;  186.000
334.421;   -8.575; -125.000; -178.000
334.556;  -86.975; -611.000; -567.000
334.690;  -86.000; -631.000; -577.000
334.825;   55.525;  381.000;   83.000
334.960;  -65.550; -285.000; -413.000
335.095;   16.300;  135.000;  -91.000
335.230;  -84.200; -722.000; -738.000
335.365; -126.900;-1084.000; -990.000
335.499; -124.325;-1108.000;-1037.000
335.634;   19.000;    9.000;  534.000
335.769;  -92.325; -755.000; -720.000
335.904;  -59.750; -603.000; -561.000
336.038;  -36.700; -735.000; -657.000
336.173; -105.075;-1206.000;-1194.000
336.308;    7.525; -116.000; -189.000
336.443;   44.200; -544.000; -634.000
336.577;  -64.700; -936.000; -787.000
336.712;   50.025;   -4.000;  -12.000
336.847;  -39.800; -724.000; -607.000
336.981;   33.200; -272.000; -208.000
337.116;  222.325;  615.000;  501.000
337.250;   80.550; -434.000; -421.000
337.385;  478.375; -297.000; -208.000
337.520;  255.800; -632.000; -603.000
337.654;   -9.450; -215.000; -126.000
337.789; -123.275; -989.000; -933.000
337.923;  -27.275; -104.000; -205.000
338.058;  -99.425; -673.000; -738.000
338.192;  -56.475; -611.000; -488.000
338.327;    0.275;  -18.000; -155.000
338.461;  -58.525; -299.000; -469.000
338.596;  -79.875; -780.000; -638.000
338.730;  -86.975; -767.000; -803.000
338.865;  188.800;  -46.000; -140.000
338.999;   32.400; -846.000; -702.000
339.134;   22.625; -634.000; -536.000
339.268;   58.725; -741.000; -603.000
339.403;  581.575; -740.000; -775.000
339.537;  295.475; -894.000; -820.000
339.671;  -67.925; -829.000; -813.000
339.806;  -14.900; -556.000; -512.000
339.940;   49.675; -261.000; -235.000
340.074; -100.300; -685.000; -510.000
340.209;  -36.625; -351.000; -230.000
340.343;  -87.475; -517.000; -573.000
340.477;  144.500;  998.000; 1036.000
340.612;   27.200;-1033.000; -900.000
340.746;  258.025; -199.000; -243.000
340.880;  -87.975; -924.000; -785.000
341.014;  -16.450;  -45.000; -154.000
341.149;  -99.200; -756.000; -718.000
341.283;  -90.925; -839.000; -754.000
341.417; -123.700;-1124.000; -938.000
341.551;  -51.075; -768.000; -708.000
341.685;  -51.600; -633.000; -611.000
341.820;  -35.900; -562.000; -493.000
341.954;  -65.175; -218.000; -349.000
342.088; -138.275;-1102.000;-1019.000
342.222;   49.625;  565.000;  618.000
342.356;  -53.450; -395.000; -335.000
342.490; -117.250; -880.000; -841.000
342.624;  -52.375; -339.000; -242.000
342.758;  -53.825; -364.000; -312.000
342.892;  -74.475; -710.000; -585.000
343.026;  -30.775;  -58.000; -116.000
343.160;  -45.050; -426.000; -376.000
343.294;  -65.050; -474.000; -337.000
343.428;  -48.775; -488.000; -448.000
343.562;  -31.275; -172.000;  -23.000
343.696;  -42.225; -385.000; -314.000
343.830;  -48.675; -362.000; -356.000
343.964;  -15.975; -231.000; -168.000
344.098;  174.725;  199.000;   70.000
344.232;  146.125; -266.000; -127.000
344.366;   70.000; -567.000; -453.000
344.500;  -47.150; -665.000; -744.000
344.634;  -44.475; -324.000; -164.000
344.768;  -62.825; -531.000; -341.000
344.902;   20.650;  278.000;  256.000
345.035;  -74.100; -556.000; -496.000
345.169; -112.125; -933.000; -656.000
345.303;  -41.550; -308.000; -482.000
345.437;  -92.725; -826.000; -717.000
345.571;  -43.775; -675.000; -594.000
345.704;  -54.425; -309.000; -532.000
345.838;  -20.950; -331.000; -284.000
345.972;  -47.600; -543.000; -495.000
346.106;  270.100; -179.000; -190.000
346.239;  480.175; -312.000; -243.000
346.373;  -17.275; -343.000; -302.000
346.507; -116.225; -950.000; -962.000
346.640;   17.750;  -30.000;   13.000
346.774;  -80.750; -650.000; -797.000
346.908;  -17.775; -138.000;  -11.000
347.041;  -92.400; -646.000; -593.000
347.175;    8.125;  259.000;   27.000
347.309;  -87.975; -698.000; -628.000
347.442;  -95.450; -883.000; -732.000
347.576;  108.600;  670.000;  668.000
347.709;   47.500; -123.000;  -52.000
347.843; -107.650; -933.000; -825.000
347.976;   57.050;  235.000;  294.000
348.110; -159.800;-1268.000;-1186.000
348.243;  -71.175; -679.000; -772.000
348.377;   30.475;  -26.000;   60.000
348.510;   66.975;  403.000;  540.000
348.644;  -27.425;  -37.000; -159.000
348.777;   30.850;  180.000;  191.000
348.911;  -30.825; -142.000; -112.000
349.044;   93.750;  471.000;  448.000
349.178;  -38.525;-1069.000;-1006.000
349.311;  120.350;  141.000;  255.000
349.444;   53.225; -927.000; -813.000
349.578;   -6.850; -347.000; -200.000
349.711; -135.775; -959.000; -862.000
349.845;  -59.725; -661.000; -591.000
349.978; -153.750;-1224.000;-1137.000
350.111;  -68.000; -546.000; -612.000
350.244; -100.850; -596.000; -700.000
350.378;  -45.575; -392.000; -393.000
350.511;  -64.275; -393.000; -426.000
350.644;  -95.200; -808.000; -806.000
350.778;   22.350;  168.000;  104.000
350.911;   17.125;  134.000;  140.000
351.044;  -83.050; -685.000; -615.000
351.177;  -38.150; -321.000; -281.000
351.310;  -12.125;    3.000; -131.000
351.444; -103.300; -888.000; -788.000
351.577;   30.850;  140.000;   90.000
351.710;   76.350;  593.000;  417.000
351.843;  -24.450; -165.000;  -77.000
351.976;  -16.400;  149.000;  -79.000
352.109;  -87.275; -621.000; -612.000
352.242;  -37.200; -464.000; -419.000
352.376;  -81.225; -580.000; -636.000
352.509;  -16.450; -437.000; -356.000
352.642; -125.425; -654.000; -604.000
352.775;   -0.525; -141.000;  -98.000
352.908; -118.400; -933.000; -904.000
353.041; -103.350; -814.000; -824.000
353.174;  -50.425; -551.000; -424.000
353.307;  -84.500; -753.000; -764.000
353.440;   53.925;  541.000;  453.000
353.573; -100.275; -957.000;-1008.000
353.706;  -50.225; -384.000; -558.000
353.839;  -30.075; -264.000; -220.000
353.971;  -91.850; -657.000; -512.000
354.104;  -98.875; -896.000; -835.000
354.237;  -66.350; -627.000; -662.000
354.370;  -94.025; -846.000; -879.000
354.503; -155.300;-1231.000;-1308.000
354.636;   -7.450; -529.000; -348.000
354.769;  -91.500; -937.000; -860.000
354.902;  -18.725; -230.000; -139.000
355.034;   -5.075; -164.000; -220.000
355.167;    2.725; -262.000; -162.000
355.300;  -53.925;-1061.000; -880.000
355.433; 1482.200;  -71.000;  -14.000
355.565; 2364.875; -402.000; -384.000
355.698;  637.125; -356.000; -296.000
355.831;   -9.500; -882.000; -801.000
355.964;   43.950; -285.000; -170.000
356.096;  -58.600; -856.000; -843.000
356.229;   32.925; -523.000; -530.000
356.362;  557.275; -373.000; -266.000
356.494;  976.175; -229.000; -162.000
356.627;  307.225;  269.000;  377.000
356.760;  914.675;  120.000;   53.000
356.892; 1571.075; -286.000; -601.000
357.025;  304.725;  403.000;  389.000
357.157;  188.575; -167.000; -179.000
357.290; 1246.500; -856.000; -713.000
357.423;  396.775; -667.000; -556.000
357.555;   84.525; -217.000; -228.000
357.688;   85.475; -483.000; -364.000
357.820;   69.850; -870.000; -877.000
357.953;  730.825; -563.000; -589.000
358.085;  109.550; -632.000; -612.000
358.218;   42.700;-1131.000; -932.000
358.350;   47.650;  -58.000;  312.000
358.483; -147.500;-1300.000;-1187.000
358.615;  -98.775;-1182.000;-1078.000
358.747; -131.000;-1187.000;-1058.000
358.880;  -27.200; -810.000; -744.000
359.012;  -20.525; -376.000; -202.000
359.145;  -32.500; -480.000; -511.000
359.277;  -67.875; -962.000; -913.000
359.409;  697.300;  536.000;  231.000
359.542;   98.600; -738.000; -688.000
359.674;    8.925;   46.000;   13.000
359.806;  -67.750; -565.000; -438.000
359.939;  -33.425; -617.000; -516.000
360.071;   58.150; -583.000; -579.000
360.203;  -20.350; -411.000; -364.000
360.335;   26.450;  164.000;  -16.000
360.468;   77.175; -249.000; -307.000
360.600;  914.775; -547.000; -454.000
360.732; 4316.000; -546.000; -423.000
360.864;  719.900;-1216.000;-1044.000
360.996;   68.250; -516.000; -554.000
361.129;  -31.850; -389.000; -598.000
361.261;    1.400;  110.000; -113.000
361.393;  -25.350; -252.000; -214.000
361.525;    6.300;   94.000;  244.000
361.657; -103.300; -821.000; -703.000
361.789;  -13.475; -139.000; -155.000
361.921;  -51.300; -642.000; -593.000
362.053;   84.275;  524.000;  541.000
362.185;   -5.475;  288.000;   72.000
362.318;  -92.150; -709.000; -705.000
362.450;   42.950;  294.000;  444.000
362.582;  -85.175; -913.000; -870.000
362.714;  -54.000; -353.000; -332.000
362.846;  -78.450; -606.000; -490.000
362.978; -121.425; -941.000; -811.000
363.109;   -9.125; -161.000; -260.000
363.241;  124.625; -739.000; -749.000
363.373;  681.650; -649.000; -564.000
363.505; 1101.425; -186.000;  -91.000
363.637;  242.675; -787.000; -601.000
363.769; -120.925;-1067.000;-1080.000
363.901;  -57.800; -596.000; -654.000
364.033; -137.350;-1103.000;-1062.000
364.165;  -21.475; -283.000; -283.000
364.296;  110.050; -316.000; -177.000
364.428;  233.775;-1344.000;-1220.000
364.560;  -37.950; -679.000; -661.000
364.692;  -62.850; -738.000; -835.000
364.824;  -11.200; -588.000; -456.000
364.955;  532.200; -402.000; -564.000
365.087; 1796.600;-1097.000; -852.000
365.219;  133.475; -686.000; -816.000
365.351;  -58.275; -526.000; -572.000
365.482;   14.575;  300.000;  240.000
365.614;  -54.550; -402.000; -314.000
365.746;  -89.125; -729.000; -752.000
365.877;  -82.400; -706.000; -672.000
366.009;  449.550;  -35.000;  -62.000
366.141;    9.025;-1249.000;-1134.000
366.272;  -92.300; -803.000; -719.000
366.404;  -96.950;-1005.000; -874.000
366.535;    0.475; -139.000;  -12.000
366.667;  -98.025; -644.000; -649.000
366.799;   37.650;  353.000;  203.000
366.930; -118.975; -862.000; -996.000
367.062;  219.025; -639.000; -613.000
367.193;  375.450; -872.000; -842.000
367.325;  -23.500; -580.000; -684.000
367.456;    6.825; -246.000;   31.000
367.588;  300.975; -371.000; -318.000
367.719;   75.325;  -44.000;  -45.000
367.851;  -18.925; -222.000; -241.000
367.982; -110.250; -875.000; -732.000
368.113;  -14.450; -475.000; -358.000
368.245; -133.125; -960.000; -841.000
368.376;  -38.350; -254.000; -302.000
368.508;  -32.725; -188.000; -263.000
368.639; -139.175;-1166.000;-1034.000
368.770;  -80.925; -670.000; -589.000
368.902;  -99.875; -836.000; -926.000
369.033;  -93.900; -906.000; -855.000
369.164;   -0.875; -720.000; -653.000
369.296;  -80.300; -452.000; -601.000
369.427;   -3.575; -209.000; -144.000
369.558;  -41.325; -593.000; -377.000
369.689;  -63.975; -721.000; -569.000
369.821; -103.100; -951.000; -845.000
369.952;   16.775;   42.000; -108.000
370.083;  -38.150; -229.000; -108.000
370.214;  -84.500; -735.000; -650.000
370.345;  -13.600;   65.000;   81.000
370.477;  -87.650; -810.000; -790.000
370.608;   17.825; -328.000; -264.000
370.739; -120.625;-1233.000;-1292.000
370.870; -107.375;-1102.000; -923.000
371.001;  -13.750; -378.000; -467.000
371.132;  -76.000; -754.000; -735.000
371.263;  -11.075;  -42.000; -148.000
371.394; -114.725; -841.000; -748.000
371.525;   24.525;  345.000;  225.000
371.657; -111.925; -808.000; -670.000
371.788;   35.725;  103.000;  199.000
371.919;    2.925; -384.000; -304.000
372.050;  747.825;  -91.000; -156.000
372.181;  231.275; -188.000; -294.000
372.311;   65.400;   42.000; -127.000
372.442;  -55.650; -457.000; -451.000
372.573;  -33.650; -444.000; -340.000
372.704; -138.475;-1008.000; -980.000
372.835;  -34.575; -228.000; -289.000
372.966;  -69.725; -646.000; -554.000
373.097;  -76.775; -575.000; -711.000
373.228;  -93.325; -717.000; -542.000
373.359;  -54.375; -824.000; -536.000
373.490;   59.725; -881.000; -727.000
373.620;  109.300;-1001.000; -803.000
373.751;  263.225; -332.000; -396.000
373.882;  120.200; -663.000; -733.000
374.013;  -39.425; -449.000; -262.000
374.143;  -71.725; -581.000; -659.000
374.274; -134.925; -987.000; -908.000
374.405;   52.050; -388.000; -276.000
374.536;   70.450; -526.000; -387.000
374.666;  133.275; -759.000; -807.000
374.797;  -45.100; -817.000; -868.000
374.928;   74.575; -710.000; -560.000
375.058;   94.200; -535.000; -500.000
375.189;   -8.650;  -59.000;  -93.000
375.320; -122.225; -928.000;-1034.000
375.450;  -59.700; -625.000; -616.000
375.581;  -48.725; -526.000; -436.000
375.712;  -34.400; -574.000; -250.000
375.842;  -15.925; -438.000; -415.000
375.973;  -41.925; -554.000; -513.000
376.103;  -79.750; -665.000; -648.000
376.234;  -67.875; -531.000; -552.000
376.364; -111.300; -944.000; -867.000
376.495;  134.450;  925.000;  529.000
376.625;  -45.050; -472.000; -485.000
376.756;  -60.400; -709.000; -678.000
376.886; -118.625;-1178.000;-1026.000
377.017;  192.675;-1048.000;-1061.000
377.147;  715.925; -786.000; -782.000
377.278;  119.700;  174.000;  228.000
377.408;  -90.025; -801.000; -815.000
377.538;  -74.575; -707.000; -693.000
377.669;  -58.550; -537.000; -613.000
377.799;  -78.650; -645.000; -635.000
377.929;  -77.775; -610.000; -428.000
378.060; -102.175; -781.000; -847.000
378.190;    6.650; -726.000; -531.000
378.320;   -9.425; -401.000; -406.000
378.451;    5.525; -131.000;  -22.000
378.581;    4.650;  -67.000; -110.000
378.711;  108.725; 1035.000;  866.000
378.841;  -56.725; -533.000; -675.000
378.972; -101.500; -871.000; -751.000
379.102;  -42.275; -652.000; -579.000
379.232;  -12.725; -126.000;  -73.000
379.362; -115.325;-1001.000; -885.000
379.492;  -59.625; -373.000; -424.000
379.623;   61.225;    0.000;  111.000
379.753;  -91.525;-1107.000; -974.000
379.883;   69.800;   59.000;  156.000
380.013;  -97.825;-1081.000;-1017.000
380.143; -101.450;-1097.000;-1056.000
380.273;  -86.850; -985.000; -861.000
380.403;   12.575; -344.000; -257.000
380.533;  -40.350; -651.000; -664.000
380.663;   48.950;  173.000;  128.000
380.793; -114.500;-1027.000;-1074.000
380.923;    2.700; -103.000;  -34.000
381.053;  -53.250; -613.000; -623.000
381.183;   -2.725; -106.000; -248.000
381.313;  -45.150; -656.000; -470.000
381.443;  -22.625; -692.000; -473.000
381.573;  -15.250; -402.000; -409.000
381.703;  -75.675;-1249.000;-1095.000
381.833; -158.450;-1454.000;-1336.000
381.963;   45.075; -134.000;  -87.000
382.093;  221.750; -925.000; -909.000
382.223;   65.200; -713.000; -602.000
382.353;  -55.000; -801.000; -608.000
382.482;  -13.275;-1091.000; -964.000
382.612;   80.850; -872.000; -644.000
382.742;   41.650; -695.000; -622.000
382.872;   -1.200; -565.000; -551.000
383.002;   48.650;  347.000; -132.000
383.131;  -11.350; -226.000; -160.000
383.261;   -1.075; -706.000; -768.000
383.391;  350.250; -552.000; -377.000
383.521; 5241.475;  451.000;  263.000
383.650; 1668.975; -947.000; -904.000
383.780;   75.625; -783.000; -656.000
383.910;  117.850;  880.000;  802.000
384.039;  -61.850; -794.000; -656.000
384.169; -100.150;-1205.000;-1017.000
384.299;  -59.850; -650.000; -662.000
384.428;  -91.375; -764.000; -680.000
384.558;  -18.000; -308.000; -275.000
384.687;  -49.325; -414.000; -334.000
384.817;   12.850;   75.000;   -2.000
384.947;  -16.675; -234.000; -141.000
385.076;  180.375;  982.000;  912.000
385.206;   74.975;  369.000;  480.000
385.335;  -35.400; -549.000; -417.000
385.465;  -67.650; -655.000; -663.000
385.594;   21.425;  -53.000;  -44.000
385.724;   -4.925; -868.000; -838.000
385.853;    4.125; -296.000; -270.000
385.982;  180.050; -743.000; -787.000
386.112;  366.400;-1052.000; -871.000
386.241;   -5.650; -307.000; -312.000
386.371;  -13.600; -174.000;  -87.000
386.500;  -57.150; -825.000; -789.000
386.629;   10.150; -874.000; -817.000
386.759;  102.325;  -43.000;   68.000
386.888;   24.400; -170.000; -250.000
387.017;  -65.125; -648.000; -620.000
387.147;  -61.225; -771.000; -798.000
387.276;  -37.425; -410.000; -397.000
387.405;  -27.725; -398.000; -342.000
387.535;  -68.275; -452.000; -361.000
387.664;  -46.550; -692.000; -620.000
387.793;  -19.625; -198.000; -113.000
387.922;   95.025;  255.000;  200.000
388.052;  -37.825; -576.000; -423.000
388.181;  -24.350; -342.000; -472.000
388.310;  -54.625; -889.000; -710.000
388.439;  -59.325; -749.000; -742.000
388.568;   46.475;  365.000;  244.000
388.697;  115.900; -756.000; -653.000
388.826;  -33.075; -768.000; -666.000
388.956;  -11.950; -285.000; -307.000
389.085;  -30.475; -347.000; -287.000
389.214;  -77.525; -842.000; -872.000
389.343;  -28.350; -645.000; -413.000
389.472;  605.075;  126.000;  149.000
389.601;  680.175;   91.000;    0.000
389.730;   12.175; -568.000; -687.000
389.859;   67.675;  226.000;   46.000
389.988;   37.675; -423.000; -408.000
390.117;   39.725; -168.000; -146.000
390.246;  -13.675; -331.000; -320.000
390.375;  -36.400; -673.000; -626.000
390.504;  -54.650; -703.000; -621.000
390.633;  -74.050; -672.000; -726.000
390.761;  -57.825; -732.000; -645.000
390.890;   29.075;   -4.000; -130.000
391.019;  -21.400; -421.000; -441.000
391.148;  -76.500; -826.000; -855.000
391.277;  -41.825; -576.000; -493.000
391.406;  -71.425; -821.000; -805.000
391.534;   53.300;  574.000; -301.000
391.663;  -49.400; -583.000; -645.000
391.792;  -65.550; -673.000; -701.000
391.921;   15.675;   -3.000;   15.000
392.050;   21.125; -287.000; -228.000
392.178;  -92.750;-1206.000;-1061.000
392.307;  -35.425; -758.000; -712.000
392.436;  -45.150; -427.000; -641.000
392.564;   27.700;  166.000;   -6.000
392.693;  -65.450; -860.000; -682.000
392.822;    7.425; -529.000; -534.000
392.950;  -39.450; -880.000; -714.000
393.079;   48.725; -188.000; -328.000
393.208;  -33.275; -488.000; -511.000
393.336;   23.050; -170.000; -145.000
393.465;  -17.525; -317.000; -199.000
393.593;   34.200;   62.000;   79.000
393.722; -114.475;-1121.000; -916.000
393.850;    8.775; -188.000;  -61.000
393.979; -108.625; -926.000; -805.000
394.107;  -15.125; -517.000; -537.000
394.236;  -24.575; -570.000; -507.000
394.364;  107.725;  383.000;  206.000
394.493;   40.975; -911.000; -767.000
394.621;   40.050; -955.000; -916.000
394.750; 1261.275; -873.000; -923.000
394.878; 4651.450; -247.000; -149.000
395.007; 6855.450; -721.000; -807.000
395.135;  673.575; -790.000; -721.000
395.263;   -0.125;-1038.000;-1040.000
395.392;   48.125;  -25.000; -107.000
395.520; -110.175; -818.000; -679.000
395.648;  -98.500; -865.000; -915.000
395.777;  -47.300; -366.000; -405.000
395.905;  -56.150; -449.000; -564.000
396.033;   -2.300;  217.000;  172.000
396.162;   17.675; -399.000; -453.000
396.290;   27.600;  -17.000;   -2.000
396.418;  -47.950; -555.000; -514.000
396.546;  -77.325; -571.000; -466.000
396.674; -102.025; -850.000; -878.000
396.803;  -10.575;  -72.000;  -23.000
396.931;  -30.475; -179.000; -199.000
397.059; -134.050;-1026.000; -989.000
397.187; -126.925;-1026.000; -975.000
397.315; -107.800; -884.000; -649.000
397.443;  -81.800; -592.000; -443.000
397.572;  -80.150; -578.000; -424.000
397.700;  -74.250; -607.000; -614.000
397.828;  -27.400;  120.000;  -90.000
397.956;  -20.525; -508.000; -478.000
398.084;   -7.675; -767.000; -626.000
398.212;    4.250;  137.000;  124.000
398.340;  -11.850;  -56.000;  159.000
398.468;  -55.750; -390.000; -169.000
398.596; -140.475; -993.000; -953.000
398.724; -108.250; -762.000; -767.000
398.852; -143.600;-1024.000; -976.000
398.980;  -80.750; -560.000; -560.000
399.108;  -91.350; -982.000; -735.000
399.236;    7.775;   13.000;    8.000
399.363;   -2.450;  222.000;  196.000
399.491;  -43.600; -404.000; -398.000
399.619; -109.875; -829.000; -800.000
399.747; -100.475; -859.000; -771.000
399.875;   30.175;  220.000;  234.000
400.003;  -54.775; -359.000; -284.000
400.130;  -86.175; -421.000; -341.000
400.258;  -25.875;  -83.000;   38.000
400.386;  -52.475; -352.000; -168.000
400.514;  -83.075; -526.000; -587.000
400.641; -127.750; -928.000; -802.000
400.769; -129.900; -979.000; -888.000
400.897; -131.325; -838.000; -793.000
401.025;  -29.125; -166.000; -152.000
401.152;    5.425;  220.000;   38.000
401.280;  -61.650; -430.000; -429.000
401.408;  -83.675; -712.000; -576.000
401.535;  -81.825; -735.000; -758.000
401.663; -155.250;-1134.000;-1054.000
401.790;  -85.050; -514.000; -525.000
401.918;   53.100;  436.000;  405.000
402.046;    5.700;  134.000;  122.000
402.173;   -7.100;  -18.000;    7.000
402.301;  -34.375; -519.000; -397.000
402.428;   57.550;  528.000;  383.000
402.556; -106.650;-1188.000; -913.000
402.683;    5.625;  -20.000;   -1.000
402.811;   16.725;  -37.000; -206.000
402.938;   19.450;   20.000;   27.000
403.066;    0.175; -574.000; -558.000
403.193;   83.500;  299.000;  239.000
403.321;   65.325; -396.000; -574.000
403.448;  120.725;   83.000;   27.000
403.575;   78.850;  -90.000;  -46.000
403.703;  -42.200; -732.000; -557.000
403.830;   11.950; -531.000; -496.000
403.957;  -79.075;-1117.000;-1023.000
404.085;   75.050;  -61.000; -172.000
404.212;  170.150;  -50.000;   63.000
404.339;  521.175; -566.000; -306.000
404.467; 9315.650; -612.000; -524.000
404.594; 5810.100; -287.000; -227.000
404.721; 1030.975; -869.000; -764.000
404.848;  159.475; -113.000; -202.000
404.976;  -35.400; -856.000; -783.000
405.103;   38.500;  -14.000;  -82.000
405.230;   38.800;  190.000;  226.000
405.357;   96.325;  117.000;   44.000
405.484;  473.400;  -49.000;    5.000
405.612;  164.600; -548.000; -563.000
405.739;  -20.600; -488.000; -243.000
405.866;  103.525;  669.000;  385.000
405.993;  -11.775; -398.000; -102.000
406.120; -109.600; -801.000; -887.000
406.247;  -50.500; -323.000; -342.000
406.374;   99.475;  540.000;  629.000
406.501;  -59.175; -632.000; -702.000
406.628;  -69.500; -621.000; -589.000
406.755;  -81.575; -803.000; -620.000
406.882;  -26.925; -228.000; -277.000
407.009;  -63.900; -719.000; -628.000
407.136;  -20.225; -480.000; -401.000
407.263;   -9.650; -939.000; -829.000
407.390;  -49.325; -692.000; -614.000
407.517; -138.600;-1139.000;-1187.000
407.644;  -28.350; -332.000; -256.000
407.771;  -60.300; -249.000; -287.000
407.898;   37.400;  168.000;  328.000
408.025;  -59.875; -421.000; -313.000
408.151;   21.750;   82.000;  153.000
408.278;  -43.850; -267.000; -216.000
408.405; -109.125; -931.000; -899.000
408.532;  -73.525; -549.000; -542.000
408.659;  -84.200; -677.000; -648.000
408.785; -170.725;-1298.000;-1170.000
408.912;  -33.025; -412.000; -296.000
409.039;  -73.875; -610.000; -686.000
409.166;  -80.175; -591.000; -555.000
409.292;  -76.375; -571.000; -534.000
409.419; -101.925; -665.000; -649.000
409.546;  -56.800; -431.000; -192.000
409.672;  -86.275; -713.000; -545.000
409.799;  -25.000;  -36.000;   34.000
409.926;  -27.825; -180.000; -179.000
410.052; -156.275;-1127.000;-1091.000
410.179;  -61.350; -368.000; -392.000
410.305;  -61.075; -375.000; -493.000
410.432;    2.875; -220.000; -333.000
410.558;  -71.975; -305.000; -380.000
410.685;  -74.125; -688.000; -431.000
410.812;  -77.275; -409.000; -588.000
410.938; -123.225; -964.000; -808.000
411.065;  -76.300; -671.000; -645.000
411.191;  -27.325; -189.000; -174.000
411.317; -118.775; -823.000; -742.000
411.444;  -56.975; -317.000; -246.000
411.570;  -60.600; -339.000; -294.000
411.697; -102.575; -758.000; -752.000
411.823; -150.075; -989.000; -999.000
411.949;  -25.025;  -56.000;   17.000
412.076; -104.550; -539.000; -519.000
412.202;  -86.075; -758.000; -757.000
412.329; -121.725; -798.000; -752.000
412.455;  -75.825; -821.000; -657.000
412.581;  -21.325;  -15.000;  172.000
412.707;  -80.600; -540.000; -457.000
412.834;   -6.300;  156.000;  219.000
412.960; -105.525; -785.000; -784.000
413.086;  -88.300; -743.000; -701.000
413.212;  145.175;  604.000;  578.000
413.339;  -67.325; -685.000; -701.000
413.465;  -53.875; -364.000; -310.000
413.591; -107.950; -757.000; -474.000
413.717;  -58.475; -358.000; -366.000
413.843; -114.375; -839.000; -861.000
413.969;  -51.525;  -47.000; -292.000
414.096;  -86.700; -679.000; -679.000
414.222;   10.300;  -33.000;   85.000
414.348;  -70.325; -652.000; -385.000
414.474;   14.825;   38.000;  -52.000
414.600;    0.400; -126.000; -144.000
414.726;   15.300;  -96.000;  -55.000
414.852;  -13.625; -365.000; -342.000
414.978;   66.725;  104.000;  -18.000
415.104;   65.100;   38.000;   80.000
415.230;   68.800; -329.000; -330.000
415.356;   73.800; -409.000; -514.000
415.482;  251.000;   13.000;  -35.000
415.608;  451.225; -247.000; -323.000
415.734; 1392.025;   67.000;   38.000
415.860;28184.450; -875.000; -767.000
415.986;23976.550; -685.000; -607.000
416.111; 2286.000; -798.000; -652.000
416.237;  517.900; -424.000; -571.000
416.363; 1743.725; -765.000; -733.000
416.489; 7113.425; -324.000; -251.000
416.615; 1015.050; -707.000; -742.000
416.741;  101.350; -677.000; -784.000
416.866;  -29.825; -673.000; -736.000
416.992;  -61.000; -801.000; -818.000
417.118;   22.150;  -41.000;  -80.000
417.244;  -27.100; -798.000; -531.000
417.369;  -35.150; -801.000; -612.000
417.495;   35.750; -325.000; -254.000
417.621;  -36.400;-1015.000; -803.000
417.746;   58.450; -579.000; -572.000
417.872;  132.500; -254.000; -144.000
417.998;  173.650; -515.000; -530.000
418.123; 1626.675;-1073.000; -845.000
418.249; 8955.975; -512.000; -601.000
418.374; 1642.825; -916.000; -824.000
418.500;  301.400; -383.000; -482.000
418.626;  241.200;   70.000;  -59.000
418.751;  225.650; -549.000; -448.000
418.877;  386.575; -637.000; -643.000
419.002; 2688.675; -688.000; -560.000
419.128;20234.825; -930.000; -721.000
419.253; 5995.350; -967.000; -837.000
419.379;  885.800; -391.000; -338.000
419.504;  654.250;  325.000;  415.000
419.629;  900.250; -393.000; -212.000
419.755; 5498.475; -317.000; -254.000
419.880;36223.250;  -98.000;   67.000
420.006;18290.300; -280.000; -221.000
420.131;45227.050; -662.000; -775.000
420.256; 7642.175; -315.000; -316.000
420.382; 1090.850; -665.000; -687.000
420.507;  232.175; -649.000; -778.000
420.632;   80.400; -337.000; -339.000
420.758;   56.625; -251.000; -425.000
420.883;  -68.175; -876.000; -672.000
421.008;  -66.150; -775.000; -619.000
421.133;  -54.175; -509.000; -467.000
421.259;  -11.350; -325.000; -259.000
421.384;  -84.525; -834.000; -693.000
421.509;  -89.650;-1052.000; -862.000
421.634;   67.325; -936.000; -820.000
421.759;   42.550; -359.000; -327.000
421.885;  -68.925; -717.000; -656.000
422.010;  -58.150; -673.000; -542.000
422.135; -125.575; -695.000; -727.000
422.260;   47.100;  340.000;  280.000
422.385;   -8.000;   12.000;  -98.000
422.510;   34.250;  151.000;  -26.000
422.635;   -4.850;  -87.000;  -43.000
422.760;  -16.825; -766.000; -791.000
422.885;   48.075;  -57.000;  -80.000
423.010;    3.000; -112.000; -169.000
423.135;  -58.000; -481.000; -561.000
423.260;  -27.250; -150.000; -245.000
423.385;   45.225;  476.000;  222.000
423.510;   22.100;   71.000;  -22.000
423.635;    6.200;  133.000;   45.000
423.760;   88.375;  383.000;  328.000
423.885;   58.100;  336.000;  391.000
424.010;   18.400;  -68.000;  -13.000
424.135;  -11.325;    5.000;  -33.000
424.259;  -48.550; -654.000; -457.000
424.384;  -24.875; -279.000; -272.000
424.509;    2.600; -260.000; -186.000
424.634;  -75.275; -761.000; -623.000
424.759;  -11.350; -688.000; -544.000
424.883;   24.325; -506.000; -527.000
425.008;  220.800; -502.000; -410.000
425.133; 2961.700; -679.000; -653.000
425.258; 1634.150; -517.000; -381.000
425.382;  373.850; -867.000; -774.000
425.507;  699.000; -487.000; -543.000
425.632;  359.275; -802.000; -663.000
425.756;  756.875; -256.000; -146.000
425.881;10236.975; -831.000; -857.000
426.006;32539.100; -604.000; -355.000
426.130; 5560.575; -696.000; -508.000
426.255;  761.575; -611.000; -491.000
426.379;  301.600; -189.000; -577.000
426.504;  549.875;  660.000;  544.000
426.629; 5835.950; -519.000; -466.000
426.753; 4749.475;   64.000;  -46.000
426.878;  610.700; -252.000; -288.000
427.002;  348.875; -651.000; -668.000
427.127; 2107.125;  -35.000; -158.000
427.251;17921.350;  372.000;  401.000
427.375; 6046.675; -191.000; -173.000
427.500; 1047.650; -616.000; -610.000
427.624;  294.325; -234.000; -400.000
427.749;  128.300; -216.000; -225.000
427.873;   23.300; -499.000; -412.000
427.997;  -16.300; -222.000; -230.000
428.122;   81.900;  795.000;  703.000
428.246;   51.775;  433.000;  434.000
428.371; -122.725; -869.000; -773.000
428.495;  -85.850; -624.000; -646.000
428.619;  -16.575; -186.000; -117.000
428.743;   18.300;   65.000;  132.000
428.868;  -86.750; -732.000; -643.000
428.992;  250.075; -219.000; -326.000
429.116;   96.750; -329.000; -357.000
429.240;  125.375;  419.000;  426.000
429.365;  -22.475; -454.000; -574.000
429.489;  -30.700; -638.000; -647.000
429.613;   54.425; -236.000; -177.000
429.737;  129.800; -563.000; -432.000
429.861;  430.200; -247.000; -133.000
429.985; 8117.225; -425.000; -305.000
430.109;10682.900; -770.000; -908.000
430.234; 1390.300;   76.000;  -50.000
430.358;  212.275; -250.000; -160.000
430.482;   32.750; -672.000; -564.000
430.606;  -27.550; -655.000; -375.000
430.730;  -12.200; -437.000; -388.000
430.854;  -42.750; -909.000; -835.000
430.978;  -18.900; -795.000; -764.000
431.102;  -28.775; -499.000; -422.000
431.226;  -48.925; -874.000; -815.000
431.350;   81.550;  345.000;  422.000
431.474;  -49.850; -661.000; -373.000
431.597; -129.400;-1060.000; -848.000
431.721;  -42.725; -276.000; -267.000
431.845;  -98.650; -704.000; -472.000
431.969;  -45.350; -304.000; -349.000
432.093;  -65.000; -395.000; -317.000
432.217;   17.775;   32.000;   82.000
432.341;  -50.600; -523.000; -518.000
432.464;   23.500;   96.000;   40.000
432.588;  -14.750; -401.000; -329.000
432.712;   42.525;  -52.000;  -52.000
432.836;  115.450;  213.000;  263.000
432.959;   63.575; -372.000; -311.000
433.083;  229.300;   11.000;    2.000
433.207;  636.675;  285.000;  930.000
433.330; 7862.550; -391.000; -200.000
433.454;11201.400; -654.000; -638.000
433.578; 6149.650;  583.000;  278.000
433.701; 1386.225; -623.000; -675.000
433.825;  199.125; -292.000; -299.000
433.949;   68.750;   28.000;  -72.000
434.072;   32.100; -410.000; -323.000
434.196;   24.800; -309.000; -117.000
434.319; 3441.675;25482.000;25124.000
434.443;  911.000; -656.000; -603.000
434.566; 4280.400;  281.000;   62.000
434.690; 1008.425; -637.000; -383.000
434.813;  240.275; -251.000; -173.000
434.937;   17.250; -569.000; -696.000
435.060;  -35.450; -423.000; -332.000
435.184;  -11.575; -492.000; -217.000
435.307;   22.825;  159.000;  102.000
435.431;   -7.800;  -40.000;   24.000
435.554;  -50.700; -399.000; -240.000
435.677;  -65.300; -350.000; -258.000
435.801;  -14.975;  -25.000;   49.000
435.924;  -11.750;    1.000;  -67.000
436.048; -128.375;-1019.000; -732.000
436.171;  -35.775; -240.000;  -66.000
436.294;   23.525; -248.000; -229.000
436.417;  264.900; -963.000; -849.000
436.541;   -1.125; -814.000; -840.000
436.664;   -8.875; -242.000; -316.000
436.787;    4.875;   13.000;  113.000
436.910;  -75.550; -792.000; -422.000
437.034;   12.775;  142.000;  143.000
437.157;   52.575;  -11.000;    0.000
437.280;  -42.200; -392.000; -292.000
437.403; -115.075; -982.000; -869.000
437.526;  -17.475; -903.000; -865.000
437.649;  243.625; -505.000; -332.000
437.772;  -31.875; -692.000; -540.000
437.896;   66.625;  700.000;  544.000
438.019;  -75.975; -758.000; -503.000
438.142;  -72.025; -596.000; -506.000
438.265; -100.825; -639.000; -670.000
438.388;    1.850; -520.000; -410.000
438.511;  -46.375; -597.000; -394.000
438.634;  -44.975; -247.000; -125.000
438.757; -108.525; -693.000; -619.000
438.880;  -22.175;  -34.000;  -57.000
439.003;  -76.175; -417.000; -437.000
439.126;  -31.450; -287.000; -167.000
439.248;  -36.400;  -98.000; -139.000
439.371;  -22.875;    9.000;  -53.000
439.494;   38.775;  510.000;  439.000
439.617;  -38.550;   65.000;  -88.000
439.740; -158.150; -968.000; -816.000
439.863; -121.025; -755.000; -595.000
439.986;  -94.700; -476.000; -431.000
440.108;   -4.875; -161.000; -112.000
440.231; -141.300; -950.000; -836.000
440.354;  -40.100;  -64.000; -150.000
440.477; -101.300; -566.000; -542.000
440.599;  -65.175; -200.000; -225.000
440.722; -108.700; -709.000; -586.000
440.845;   66.725;  751.000;  928.000
440.968;  -91.750; -415.000; -311.000
441.090;  -54.200; -199.000;  -33.000
441.213; -139.250;-1021.000; -825.000
441.336;  -36.275; -159.000;   -5.000
441.458;  -78.325; -549.000; -396.000
441.581; -108.225; -628.000; -629.000
441.703;  -57.050; -152.000;   13.000
441.826;  -90.100; -557.000; -400.000
441.948;  -43.075;   56.000;   51.000
442.071;   37.825;  555.000;  424.000
442.193; -100.325; -531.000; -485.000
442.316;   24.225;  152.000;   97.000
442.438;   90.675; -233.000;  -10.000
442.561;   90.375;  272.000;  262.000
442.683;   40.850; -809.000; -522.000
442.806;  143.600;   -8.000;   74.000
442.928; -115.175; -859.000; -604.000
443.051;  -60.375; -577.000; -373.000
443.173;  -76.025; -341.000; -339.000
443.295;  -87.150; -263.000; -371.000
443.418;  -63.500; -321.000;  -29.000
443.540;  -27.000; -106.000;   -4.000
443.662; -126.275; -563.000; -465.000
443.785;  -11.275;  335.000;  199.000
443.907;  -84.525; -362.000; -208.000
444.029; -117.650; -767.000; -494.000
444.152; -126.325; -644.000; -554.000
444.274;  -43.150;  -18.000;  -24.000
444.396; -110.925; -461.000; -221.000
444.518; -117.550; -691.000; -454.000
444.640;  -85.350; -268.000; -111.000
444.763;  -13.800;  388.000;  249.000
444.885; -118.175; -432.000; -392.000
445.007;  -21.675;   35.000;   86.000
445.129; -108.450; -610.000; -515.000
445.251;  -89.325; -372.000; -439.000
445.373; -123.175; -537.000; -386.000
445.495;  -14.900;  242.000;  350.000
445.617;   25.050;  853.000;  753.000
445.739;  -75.100; -215.000;  -97.000
445.861;  -57.175; -245.000; -112.000
445.984;  -60.150; -267.000; -101.000
446.105;  -26.675; -418.000; -251.000
446.227;   53.500; -176.000;  -19.000
446.349;  -78.425; -358.000; -249.000
446.471; -112.100; -615.000; -448.000
446.593;  -84.525; -316.000;   19.000
446.715;  -26.650;  -67.000;   41.000
446.837;   52.650;  697.000;  832.000
446.959; -103.200; -457.000; -478.000
447.081; -132.225; -628.000; -518.000
447.203;   59.650;  862.000;  834.000
447.325;  -83.500; -270.000;   42.000
447.446;   -2.750;  286.000;  530.000
447.568; -153.775; -921.000; -803.000
447.690;  -84.600; -236.000; -245.000
447.812; -126.250; -798.000; -519.000
447.933;   -9.025;  155.000;  127.000
448.055;  -49.350; -306.000; -261.000
448.177;   26.125;   31.000;   79.000
448.299;  -94.175; -935.000; -727.000
448.420;  -11.250;  -25.000;  159.000
448.542;  -38.975;   -3.000;   33.000
448.664;   -5.425;  109.000;  322.000
448.785;  -27.475;  265.000;   83.000
448.907;  -97.200; -614.000; -353.000
449.028;  -87.075; -771.000; -471.000
449.150;   74.300;  492.000;  589.000
449.272; -151.125;-1044.000; -913.000
449.393;   65.100;  612.000;  694.000
449.515; -119.950; -634.000; -581.000
449.636;  -45.600; -264.000; -155.000
449.758;   70.425;  763.000;  622.000
449.879;  -58.025; -498.000; -396.000
450.001;  -36.400; -149.000;  -49.000
450.122;    3.800;  -95.000;  162.000
450.244;   33.525;   37.000;  364.000
450.365;  -32.125; -495.000; -301.000
450.486;   23.700;   80.000;  268.000
450.608;   95.725;  393.000;  326.000
450.729;  144.450;  578.000;  645.000
450.850;  154.150; -574.000; -466.000
450.972; 1285.950; -552.000; -389.000
451.093; 8282.525;  190.000;  588.000
451.214; 4465.300; -516.000; -337.000
451.336;  797.075;  773.000;  579.000
451.457;  150.725;  264.000;  393.000
451.578;   -4.900; -118.000;  -74.000
451.699;  -79.900; -546.000; -540.000
451.821;  -27.850; -284.000;  -50.000
451.942;   30.325;  278.000;  285.000
452.063;   85.600;  228.000;  419.000
452.184;  872.400;  -54.000;  -49.000
452.305; 1845.600;  103.000;  170.000
452.427;  412.525; -549.000; -301.000
452.548;   44.050;   23.000;   79.000
452.669;  -43.450; -257.000;  -89.000
452.790;  -19.650;    3.000;  -18.000
452.911;    4.750;  195.000;  259.000
453.032;  -40.850; -289.000;  -60.000
453.153;  -36.300;  -29.000;   81.000
453.274;   72.425;  737.000;  868.000
453.395;  -32.375;  -51.000;  175.000
453.516;  121.425; 1317.000; 1388.000
453.637;  -81.325; -205.000; -150.000
453.758;  -48.450;   15.000;   69.000
453.879;  -94.850; -462.000; -250.000
454.000;   78.100; 1086.000;  948.000
454.121;  -99.150; -554.000; -326.000
454.242;  -78.825; -599.000; -383.000
454.362;  -33.925;  -99.000;  114.000
454.483;   32.400; -309.000; -229.000
454.604;  106.925;  512.000;  580.000
454.725;  -92.325; -627.000; -555.000
454.846; -109.650; -474.000; -406.000
454.967;  -11.100;  230.000;  539.000
455.087;  -18.475;  179.000;  153.000
455.208;   30.275;  554.000;  856.000
455.329;  -34.000;  -22.000;   82.000
455.450;   92.900;  473.000;  633.000
455.570;  -30.550; -234.000; -211.000
455.691;  -15.925;  201.000;  407.000
455.812;  -79.550; -270.000;  -92.000
455.932;  -32.850;  107.000;  -97.000
456.053;  -59.925;   36.000;   24.000
456.173;  -83.750; -433.000; -355.000
456.294; -102.300; -476.000; -303.000
456.415;  -39.650;  -73.000;   70.000
456.535;  -28.775;  297.000;  273.000
456.656;  -12.800;  132.000;  240.000
456.776;  -49.250;    3.000;  298.000
456.897;   25.300;  308.000;  513.000
457.017;  -49.625; -153.000;   -3.000
457.138;  -92.025; -402.000; -249.000
457.258;  -22.950;  263.000;  224.000
457.379;    0.575;  509.000;  521.000
457.499;  -14.800;  443.000;  432.000
457.620;  -95.900; -407.000; -231.000
457.740;  -79.800; -132.000;  -11.000
457.860;  -39.550;   87.000;   44.000
457.981;   -5.250;  132.000;  124.000
458.101;  -25.350;  -89.000;   40.000
458.221;   11.025;  336.000;  402.000
458.342;  -33.450;   -4.000;  -37.000
458.462;   58.750;  617.000;  352.000
458.582;   42.925; -302.000; -294.000
458.703;   81.400;  303.000;  154.000
458.823;   30.875;   22.000;  163.000
458.943;   71.650;  341.000;  467.000
459.063;   46.200; 1124.000;  192.000
459.183;   -0.975;  328.000;  313.000
459.304;   15.775;  315.000;  517.000
459.424;  -13.950; -246.000;  -89.000
459.544;  498.550;  388.000;  764.000
459.664; 1409.225;  499.000;  506.000
459.784;  556.700; 1004.000; 1175.000
459.904;  111.800;  867.000;  744.000
460.024;   70.275;  867.000;  684.000
460.144;   -0.825;  449.000;  554.000
460.264;  -13.225;  515.000;  327.000
460.385;  -77.675; -145.000; -119.000
460.505;   47.325;  905.000;  858.000
460.625;  -76.350;  -17.000;  -68.000
460.745;  -10.225;  396.000;  541.000
460.864;  -12.625;  153.000;  469.000
460.984;   89.675;  499.000;  573.000
461.104;  183.850; 1656.000; 1775.000
461.224;   37.325;  657.000;  650.000
461.344;  -24.900;  431.000;  360.000
461.464;  -31.300;  258.000;  513.000
461.584;  -27.475;  283.000;  466.000
461.704;  -62.825;   58.000;  108.000
461.824;  -37.200;  238.000;  259.000
461.943;  -46.750;  191.000;  130.000
462.063;  -63.300;    2.000;  324.000
462.183;   31.850;  639.000;  717.000
462.303;   93.200; 1678.000; 1230.000
462.422;   26.525;  781.000;  840.000
462.542;  -27.650;  271.000;  391.000
462.662;   48.775;  353.000;  380.000
462.782;  344.875;  833.000;  572.000
462.901;  783.350;  545.000;  717.000
463.021;  417.350; 1702.000; 1638.000
463.141;   27.625;  337.000;  770.000
463.260;   -2.775;  614.000;  474.000
463.380;   16.125;  902.000;  884.000
463.499;  -15.550;  342.000;  332.000
463.619;  -14.950;  581.000;  559.000
463.738;   98.175; 1644.000;  903.000
463.858;   39.075;  657.000;  811.000
463.978;  -34.725;  542.000;  396.000
464.097;   54.825;  921.000; 1114.000
464.217;  166.250; 1196.000; 1143.000
464.336;  174.500; 1068.000; 1130.000
464.455;   -9.850;  328.000;  659.000
464.575;   20.900;  597.000;  602.000
464.694;  129.825; 1204.000; 1179.000
464.814;  154.825; 1190.000; 1138.000
464.933;   96.850; 1095.000; 1027.000
465.052;  101.450; 1412.000; 1054.000
465.172;   91.850;  922.000;  799.000
465.291;  117.650; 1376.000; 1320.000
465.410;   22.250;  462.000;  735.000
465.530;   86.275; 1355.000; 1310.000
465.649;   60.475; 1209.000; 1273.000
465.768;  142.875; 1673.000; 1508.000
465.888;   85.075;  941.000; 1174.000
466.007;  114.100; 1335.000; 1440.000
466.126;   12.775;  721.000;  641.000
466.245;   62.250; 1176.000; 1187.000
466.364;   37.050;  950.000; 1060.000
466.484;   77.650; 1024.000; 1213.000
466.603;   51.575; 1101.000; 1222.000
466.722;  109.325; 1490.000; 1769.000
466.841;   67.825; 1151.000; 1401.000
466.960;   45.950; 1069.000;  972.000
467.079;  133.925; 1971.000; 1786.000
467.198;   76.375; 1238.000; 1181.000
467.317;   86.725; 1768.000; 1162.000
467.436;   98.550; 1709.000; 1261.000
467.555;  131.150; 1796.000; 1746.000
467.674;   82.300; 1227.000; 1329.000
467.793;   60.075; 1376.000; 1374.000
467.912;  105.725; 1658.000; 1539.000
468.031;  151.650; 2038.000; 1930.000
468.150;  143.700; 1842.000; 1837.000
468.269;  191.575; 2313.000; 2090.000
468.388;  209.800; 2168.000; 2339.000
468.507;  267.800; 2884.000; 2903.000
468.626;  245.650; 2555.000; 2541.000
468.744;  165.900; 2018.000; 2174.000
468.863;  216.700; 2312.000; 2523.000
468.982;   98.750; 1503.000; 1555.000
469.101;  242.500; 2788.000; 2692.000
469.220;  155.075; 2333.000; 2176.000
469.338;  270.850; 2935.000; 3051.000
469.457;  211.675; 2719.000; 2545.000
469.576;  333.900; 3953.000; 3784.000
469.695;  261.650; 2877.000; 3066.000
469.813;  425.125; 4148.000; 4192.000
469.932;  414.825; 4255.000; 4485.000
470.051;  441.100; 4075.000; 4161.000
470.169; 1053.125; 4470.000; 4338.000
470.288; 2068.850; 4700.000; 4809.000
470.406; 1243.175; 5059.000; 5194.000
470.525;  685.400; 6101.000; 5787.000
470.644;  671.350; 6847.000; 6794.000
470.762;  823.000; 8397.000; 7873.000
470.881;  903.800; 8651.000; 8464.000
470.999; 1078.975; 9685.000; 9151.000
471.118; 1098.650;11174.000;10711.000

