
Integration time [ms]: 100.000
Averaging Nr. [scans]: 40
Smoothing Nr. [pixels]: 0
Data measured with spectrometer [name]: 2101012U2
Wave   ;Sample   ;Dark     ;Reference
[nm]   ;[counts] ;[counts] ;[counts] 

197.733;   54.850;  516.000;  404.000
197.879;  -71.250; -610.000; -634.000
198.025;  -43.825; -475.000; -420.000
198.171;  -65.875; -602.000; -612.000
198.317;  -30.725; -401.000; -316.000
198.463;  -57.000; -655.000; -404.000
198.609;   43.200;  181.000; -137.000
198.755;  -64.550; -644.000; -410.000
198.901;  -65.475; -505.000; -424.000
199.047;  -47.750; -615.000; -488.000
199.193;  -39.950; -230.000; -468.000
199.339;  -33.200; -222.000; -369.000
199.485;   31.600;  330.000;  271.000
199.631;   29.350;  227.000;  310.000
199.777;  -45.800; -466.000; -398.000
199.923;  -53.775; -610.000; -424.000
200.069;   -7.250; -141.000;  -58.000
200.215;   56.725;  128.000;  453.000
200.361;   42.375;  243.000;  477.000
200.507;  -46.925; -600.000; -373.000
200.653;  -19.200; -371.000; -194.000
200.798;  -15.725; -215.000; -125.000
200.944;   -8.075; -146.000;  -41.000
201.090;   44.975;   61.000;  222.000
201.236;    0.050; -116.000; -158.000
201.382;  133.950;  874.000;  903.000
201.528;   -5.500;  -58.000;  -48.000
201.674;  -45.000; -386.000; -293.000
201.819;  -57.700; -540.000; -439.000
201.965;  -69.650; -699.000; -447.000
202.111;  -30.700; -273.000; -226.000
202.257;  -28.725; -250.000; -238.000
202.402;    7.025;   13.000;  -36.000
202.548;  -26.950; -169.000; -116.000
202.694;   79.875;  410.000; -183.000
202.840;  -74.425; -603.000; -531.000
202.985;  -83.425; -681.000; -639.000
203.131;  -91.700; -832.000; -666.000
203.277;  -19.425; -199.000; -262.000
203.423;  -30.600; -434.000; -520.000
203.568;  -27.625; -462.000; -237.000
203.714;  -55.750; -535.000; -542.000
203.860;  -80.650; -682.000; -641.000
204.005;   21.075;  112.000;  167.000
204.151;   63.225;  561.000;  556.000
204.296;  -44.750; -354.000; -221.000
204.442;  -59.200; -600.000; -547.000
204.588;  -65.950; -592.000; -579.000
204.733;   21.400;  178.000;  168.000
204.879; -117.125;-1018.000; -822.000
205.025;   12.925;  -99.000;  126.000
205.170;   15.475;  -17.000;   94.000
205.316;   80.975;  438.000;  661.000
205.461;  -73.650; -698.000; -554.000
205.607;   77.100;  609.000;  665.000
205.752;  -66.925; -626.000; -551.000
205.898;  -37.575; -501.000; -391.000
206.043;  -51.725; -578.000; -506.000
206.189;  -30.600; -243.000; -285.000
206.334;   91.350;  554.000;  606.000
206.480;   70.625;  409.000;  239.000
206.625;  -61.200; -529.000; -552.000
206.771;  -44.350; -451.000; -373.000
206.916;  -30.250; -210.000; -537.000
207.062;  -65.425; -545.000; -591.000
207.207;  -55.375; -546.000; -443.000
207.353;   54.250;  185.000;  460.000
207.498;   30.925;  196.000;   85.000
207.643;  -46.800; -501.000; -370.000
207.789; -125.500;-1069.000; -910.000
207.934;  -89.925; -665.000; -713.000
208.080;  -11.900; -154.000;   66.000
208.225;   -5.000;  -22.000;  -57.000
208.370;  -71.050; -727.000; -619.000
208.516;  -78.375; -741.000; -487.000
208.661;  -24.550; -127.000;  -69.000
208.806;  -14.350; -165.000; -171.000
208.952; -112.025;-1044.000; -731.000
209.097;   61.500;  378.000;  349.000
209.242;  -42.200; -307.000; -382.000
209.387;   84.350;  392.000;  350.000
209.533;  -36.750; -321.000; -350.000
209.678;   76.625;  472.000;  543.000
209.823;  -49.375; -408.000; -310.000
209.969;  -99.275; -860.000; -757.000
210.114;  -82.150; -907.000; -719.000
210.259;  -99.500; -939.000; -889.000
210.404;    2.000; -171.000;  103.000
210.549;   11.375;  108.000;    3.000
210.695;   -8.375;   -3.000;  -95.000
210.840;   30.600;   94.000;   67.000
210.985;  -56.325; -484.000; -303.000
211.130;   63.575;  268.000;  406.000
211.275;   26.925;  207.000;  199.000
211.420;  -38.475; -300.000; -289.000
211.566;  -59.250; -536.000; -489.000
211.711;   23.300;  218.000;  157.000
211.856;  -58.475; -545.000; -519.000
212.001;    5.825;  151.000;   44.000
212.146;   33.875;  153.000;   49.000
212.291;  -15.625; -210.000; -186.000
212.436;  -29.225; -280.000;   -6.000
212.581;  -80.650; -685.000; -653.000
212.726;  -54.925; -487.000; -538.000
212.871;  -38.900; -552.000; -217.000
213.016; -134.150;-1172.000;-1029.000
213.161;   49.100;  406.000;  291.000
213.306;  -61.950; -435.000; -577.000
213.451;  -76.150; -778.000; -689.000
213.596;  -26.150; -455.000; -347.000
213.741;  -45.550; -448.000; -538.000
213.886;  -70.200; -498.000; -517.000
214.031;  -33.425; -294.000; -124.000
214.176;  -42.825; -408.000; -341.000
214.321;  -24.425; -296.000; -157.000
214.466;  -13.000; -163.000;  -43.000
214.611;  -13.675;  -61.000;  -10.000
214.756; -110.250; -948.000; -858.000
214.901;  -19.200; -388.000; -226.000
215.046; -107.175; -797.000; -825.000
215.191;   20.850;  128.000;   35.000
215.336;   -3.750; -157.000;  -19.000
215.480;  -58.975; -684.000; -505.000
215.625;  -12.375; -175.000;  -19.000
215.770;  -81.300; -757.000; -662.000
215.915;  -17.375;   -5.000;  -97.000
216.060;   -6.950; -113.000;  -21.000
216.205;  -97.375; -731.000; -779.000
216.349;  -64.500; -470.000; -533.000
216.494; -126.025; -939.000; -867.000
216.639; -113.025; -823.000; -888.000
216.784;  -71.375; -577.000; -525.000
216.929;   34.375;  392.000;  281.000
217.073;   -9.575; -244.000;  -31.000
217.218;    0.550;   78.000;  -47.000
217.363;  -82.100; -656.000; -618.000
217.507;  -81.000; -623.000; -588.000
217.652; -114.300; -845.000; -874.000
217.797;  -83.325; -708.000; -659.000
217.942; -100.350; -856.000; -720.000
218.086;   64.425;  608.000;  539.000
218.231;   -4.225; -174.000;  -26.000
218.376;  -42.575; -337.000; -229.000
218.520;    6.525;  -41.000;   96.000
218.665;  -17.475; -338.000; -204.000
218.810;  -32.400; -275.000; -233.000
218.954;   15.775;  201.000;   35.000
219.099; -103.125; -713.000; -963.000
219.243;  -68.750; -589.000; -554.000
219.388;  -25.950; -264.000; -136.000
219.532;   -8.050; -116.000; -116.000
219.677;  -67.550; -564.000; -521.000
219.822;    3.425;   33.000;   89.000
219.966;   19.000;   17.000;  -99.000
220.111;  -36.375; -328.000;  -40.000
220.255;  -82.125; -797.000; -750.000
220.400;  -30.250; -180.000; -146.000
220.544;  -56.250; -516.000; -450.000
220.689;  -41.400; -422.000; -451.000
220.833;  -17.675; -123.000;  -58.000
220.978;  -51.050; -393.000; -563.000
221.122;   16.925;  319.000;  307.000
221.267;  -97.900; -906.000; -837.000
221.411;  -66.025; -478.000; -394.000
221.555;   -5.200; -104.000;  -23.000
221.700;  -35.625; -329.000; -222.000
221.844;   21.875;  255.000;  272.000
221.989;  -37.850; -328.000; -311.000
222.133;  -26.575; -289.000; -307.000
222.277;    0.275;    5.000;   78.000
222.422;    9.675;  227.000;  113.000
222.566;  -37.750; -381.000; -214.000
222.711;  -52.950; -414.000; -479.000
222.855;  -81.025; -643.000; -586.000
222.999;  -84.900; -642.000; -717.000
223.144;  -30.425; -195.000; -194.000
223.288;   48.450;  423.000;  251.000
223.432;   31.525;  184.000;  230.000
223.576;   19.725;  152.000;  -21.000
223.721;   43.050;  364.000;  273.000
223.865;  -64.400; -472.000; -475.000
224.009;  242.700; 1673.000; 1631.000
224.153;  -84.125; -660.000; -671.000
224.298;  -57.500; -531.000; -489.000
224.442;  -39.100;  -74.000;  -33.000
224.586;  -10.700; -169.000; -106.000
224.730; -104.000; -858.000; -670.000
224.875; -107.600; -739.000; -688.000
225.019;   -0.625;  102.000;  188.000
225.163;   64.075;  208.000;  341.000
225.307;   10.775;   97.000;  -91.000
225.451;   49.325;  360.000;  481.000
225.595;   20.150;  264.000;  176.000
225.739;   -8.500; -170.000;  -94.000
225.884;   -2.550;   86.000;    5.000
226.028;  -82.125; -760.000; -626.000
226.172;  -38.425; -260.000; -273.000
226.316; -113.300; -941.000; -902.000
226.460;  -59.100; -645.000; -493.000
226.604;  -43.350; -406.000; -400.000
226.748;  -98.875; -836.000; -733.000
226.892;  -23.275; -227.000; -181.000
227.036;  -50.650; -537.000; -447.000
227.180;  -47.550; -551.000; -375.000
227.324;  -57.800; -561.000; -580.000
227.468; -104.225; -819.000; -717.000
227.612;    8.125;  242.000;  -28.000
227.756;  -81.050; -845.000; -698.000
227.900;   47.925;  342.000;  441.000
228.044;  -58.225; -509.000; -290.000
228.188;   45.850;  448.000;  568.000
228.332;  -72.800; -546.000; -472.000
228.476;  -21.850; -223.000; -149.000
228.620;  -31.375; -210.000; -150.000
228.764;   66.500;  431.000;  349.000
228.908;  -13.200; -155.000;   30.000
229.052;  -59.300; -615.000; -528.000
229.195;  -23.800; -172.000;   13.000
229.339;  -30.300; -235.000; -305.000
229.483;  -24.075;    5.000; -162.000
229.627;  -11.500; -156.000;  139.000
229.771;  -47.250; -218.000; -294.000
229.915;   14.000;  230.000;   79.000
230.059;  -85.400; -648.000; -663.000
230.202;  -29.225; -370.000; -317.000
230.346;  -18.150; -107.000;  107.000
230.490;  -58.150; -489.000; -521.000
230.634;  -89.400; -736.000; -553.000
230.777;   65.000;  478.000;  509.000
230.921;  -48.975; -450.000; -359.000
231.065;  -43.825; -246.000; -286.000
231.209;   30.725;  261.000;  265.000
231.352;   14.175;   54.000;   40.000
231.496;    0.050;  568.000;  188.000
231.640;  -68.200; -693.000; -621.000
231.783;   60.300;  546.000;  525.000
231.927;  -40.925; -294.000; -365.000
232.071; -104.175; -962.000; -736.000
232.214; -103.500; -980.000; -764.000
232.358;  -96.275; -683.000; -599.000
232.502;    8.075;  -19.000;    7.000
232.645; -117.150;-1090.000; -927.000
232.789;   -9.975; -257.000; -218.000
232.933;  -37.375; -407.000; -224.000
233.076; -116.400;-1038.000; -897.000
233.220;  -99.375; -752.000; -777.000
233.363;  -74.750; -669.000; -477.000
233.507;   57.275;  371.000;  129.000
233.650; -105.825; -764.000; -834.000
233.794;   37.300;  438.000;  461.000
233.938;  -55.225; -530.000; -362.000
234.081;  -24.200;  -93.000;   31.000
234.225;  -65.100; -631.000; -539.000
234.368; -103.750; -773.000; -723.000
234.512;  -27.225; -385.000; -299.000
234.655;  -80.750; -582.000; -555.000
234.798;  -72.100; -493.000; -466.000
234.942; -122.650; -884.000;-1002.000
235.085;  -77.000; -651.000; -443.000
235.229;  -70.500; -405.000; -410.000
235.372;  -48.325; -247.000; -191.000
235.516;  -52.175; -397.000; -321.000
235.659;   22.975;   92.000;  121.000
235.802;   -4.075;  -38.000;  -22.000
235.946;   35.975;  335.000;  215.000
236.089;   25.275;  126.000;  250.000
236.233;   40.475;  275.000;  298.000
236.376;  -47.675; -235.000; -378.000
236.519;  -58.300; -297.000; -319.000
236.663;  -27.650; -215.000; -117.000
236.806; -125.875;-1029.000; -999.000
236.949;   81.475;  543.000;  431.000
237.092;   55.475;  412.000;  391.000
237.236;  -82.600; -589.000; -502.000
237.379;   61.125;  352.000;  428.000
237.522; -118.100; -879.000; -768.000
237.666;  -15.200; -271.000;   18.000
237.809; -124.175; -851.000; -823.000
237.952;   24.475;  469.000;  271.000
238.095;  -64.150; -447.000; -442.000
238.238;   67.575;  688.000;  700.000
238.382;    5.625;  166.000;  103.000
238.525;  -71.200; -598.000; -511.000
238.668; -137.200;-1060.000; -985.000
238.811;  -81.800; -638.000; -643.000
238.954;  -57.725; -483.000; -334.000
239.097;   93.875;  617.000;  664.000
239.241;   10.925;  394.000;  326.000
239.384;  -37.425; -254.000; -214.000
239.527;  -63.325; -424.000; -224.000
239.670; -132.000; -994.000;-1091.000
239.813; -108.900; -696.000; -658.000
239.956;   67.225;  579.000;  473.000
240.099; -100.300; -778.000; -725.000
240.242;   56.900;  428.000;  432.000
240.385;   44.300;  466.000;  450.000
240.528;  -68.975; -706.000; -473.000
240.671;   15.700;  189.000;  134.000
240.814;  -37.625; -441.000; -158.000
240.957;  -91.975; -767.000; -578.000
241.100;  -80.700; -779.000; -755.000
241.243; -132.325;-1234.000; -893.000
241.386;  -65.425; -508.000; -379.000
241.529;  -82.825; -735.000; -547.000
241.672;  -56.725; -566.000; -495.000
241.815; -111.750; -832.000; -808.000
241.958;  -28.700; -125.000; -182.000
242.101;  -66.600; -545.000; -390.000
242.244;  -19.900; -270.000; -325.000
242.387;  -32.100; -304.000; -246.000
242.530;   48.075;  470.000;  134.000
242.673;  -39.525; -381.000; -309.000
242.815; -109.400; -925.000; -899.000
242.958;  -53.400; -482.000; -381.000
243.101;   17.625;  132.000;  187.000
243.244;  -74.275; -564.000; -521.000
243.387;  -55.475; -313.000; -316.000
243.530;  -86.500; -657.000; -674.000
243.672;   -1.000;   43.000;  -92.000
243.815;  -44.075; -355.000; -283.000
243.958;   -3.800;   98.000;  -26.000
244.101;   -5.025;   59.000;  -16.000
244.243;  -12.175;  -47.000;  101.000
244.386; -101.725; -761.000; -630.000
244.529;  -29.925; -132.000; -139.000
244.672; -136.450;-1154.000; -951.000
244.814;  -91.475; -621.000; -794.000
244.957;  -41.400; -380.000; -304.000
245.100;  -86.550; -489.000; -489.000
245.242;  -48.900; -387.000; -374.000
245.385;   -6.075;  -59.000;  -39.000
245.528; -110.575; -871.000; -705.000
245.670;   81.350;  612.000;  634.000
245.813;  -85.400; -599.000; -547.000
245.956;  -26.525; -324.000; -275.000
246.098;  -66.050; -508.000; -650.000
246.241;    3.325;  194.000;   48.000
246.383;  -20.650; -119.000;  -73.000
246.526;  -77.900; -454.000; -525.000
246.669; -116.350; -889.000; -780.000
246.811;   11.750;  172.000;   -1.000
246.954;  -63.775; -512.000; -426.000
247.096;  -17.925;  -84.000;   -6.000
247.239;  -66.900; -482.000; -445.000
247.381;  -74.225; -647.000; -488.000
247.524;   82.100;  645.000;  679.000
247.666;  -11.225;   58.000;   11.000
247.809; -107.800; -887.000; -691.000
247.951;  -17.075;  -75.000;  138.000
248.094;   20.100;  432.000;  308.000
248.236; -143.675;-1262.000;-1238.000
248.378;  -23.100; -356.000;  -81.000
248.521;  -43.750; -334.000; -337.000
248.663;  -50.250; -236.000; -267.000
248.806;  -30.425; -300.000; -266.000
248.948;  -93.050; -886.000; -763.000
249.090;  -59.925; -428.000; -398.000
249.233;  -63.175; -344.000; -381.000
249.375;  -61.400; -474.000; -451.000
249.518;  -23.200;  -83.000; -133.000
249.660;  -12.975; -103.000;    3.000
249.802; -162.750;-1303.000;-1189.000
249.945;  -66.425; -612.000; -540.000
250.087;  -95.300; -834.000; -768.000
250.229;  -46.000; -362.000; -480.000
250.371;  -73.275; -494.000; -439.000
250.514;  -55.625; -310.000; -244.000
250.656;  -66.900;   69.000;  102.000
250.798; -112.050; -849.000; -800.000
250.940;  -45.200; -322.000; -322.000
251.083;  -30.150; -335.000; -111.000
251.225;   61.450;  338.000;  310.000
251.367;  -36.450; -274.000; -373.000
251.509;  -28.600; -265.000; -210.000
251.651;  -94.975; -731.000; -671.000
251.794;   41.050;  538.000;  632.000
251.936;  -98.700; -821.000; -747.000
252.078;  -62.925; -540.000; -461.000
252.220;  -69.200; -645.000; -477.000
252.362;   43.775;  344.000;  462.000
252.504;  -77.125; -677.000; -584.000
252.646; -102.950; -875.000; -722.000
252.788;    9.825;   14.000; -128.000
252.931;  -51.325; -257.000; -253.000
253.073;  -53.900; -376.000; -317.000
253.215;   -1.900;  141.000;  122.000
253.357;  -25.725;   82.000; -153.000
253.499;  -36.675; -374.000; -234.000
253.641;  -80.750; -749.000; -594.000
253.783;  -77.175; -609.000; -527.000
253.925;  -89.550; -586.000; -591.000
254.067;  -96.800; -744.000; -667.000
254.209;  -40.525; -391.000; -259.000
254.351; -123.725; -865.000; -883.000
254.493;  -61.775; -441.000; -417.000
254.635; -122.925; -936.000; -818.000
254.777;  -78.100; -752.000; -687.000
254.918;  -55.975; -512.000; -430.000
255.060;  -56.575; -551.000; -395.000
255.202;  -56.925; -473.000; -261.000
255.344;  -93.975; -658.000; -455.000
255.486;  -62.100; -471.000; -406.000
255.628;  -92.675; -780.000; -781.000
255.770;  -75.525; -676.000; -536.000
255.912;  -58.875; -559.000; -468.000
256.053;  -83.625; -730.000; -508.000
256.195;  130.275; 1008.000;  903.000
256.337;  -83.200; -861.000; -595.000
256.479;   40.975;  532.000;  416.000
256.621;  -45.650; -394.000; -212.000
256.762;  -96.825; -789.000; -742.000
256.904;   38.525;  485.000;  487.000
257.046;  -39.250; -381.000; -271.000
257.188;  -42.125; -351.000; -264.000
257.329;  -86.625; -525.000; -464.000
257.471; -104.450; -939.000; -807.000
257.613;  -57.200; -584.000; -498.000
257.755; -134.675;-1073.000; -982.000
257.896;   29.000;  286.000;  392.000
258.038;  -49.775; -403.000; -352.000
258.180;  -36.425; -354.000; -279.000
258.321;  -90.100; -581.000; -457.000
258.463;  -11.775;  -71.000;  133.000
258.605;  -87.700; -562.000; -570.000
258.746; -104.725; -886.000; -772.000
258.888; -142.425;-1026.000;-1020.000
259.029;    9.300;  121.000;   -8.000
259.171;  -69.975; -614.000; -550.000
259.313;   -8.625;  -49.000;  -47.000
259.454;  -58.900; -536.000; -414.000
259.596;  -56.725; -483.000; -390.000
259.737;  -81.950; -590.000; -474.000
259.879;   36.700;  217.000;  311.000
260.020;   68.525;  901.000;  636.000
260.162;  -38.625; -146.000; -253.000
260.303;  -99.525; -768.000; -687.000
260.445;  -80.375; -609.000; -613.000
260.586;   26.125;  392.000;  157.000
260.728;  -44.850; -360.000; -248.000
260.869;  -64.975; -350.000; -343.000
261.011;   72.925;  706.000;  537.000
261.152;  -51.550; -479.000; -319.000
261.293;  -72.225; -576.000; -595.000
261.435;  -27.575; -219.000; -184.000
261.576;  -53.925; -455.000; -325.000
261.718;   37.700;  420.000;  470.000
261.859; -111.250; -940.000; -949.000
262.000; -115.825; -951.000;-1016.000
262.142;  -24.075;  -52.000;  -60.000
262.283; -105.525; -808.000; -691.000
262.424;  -86.325; -666.000; -625.000
262.566; -152.225;-1161.000; -983.000
262.707; -112.225; -840.000; -830.000
262.848; -108.150; -769.000; -726.000
262.990;  -38.075; -362.000; -345.000
263.131;   73.975;  650.000;  681.000
263.272;   -8.450;  -61.000;  -41.000
263.413;  -78.050; -589.000; -561.000
263.555;  -56.175; -669.000; -143.000
263.696;  -90.275; -550.000; -641.000
263.837;  -53.450; -449.000; -551.000
263.978;  -15.175;   -5.000;  -77.000
264.119;  -33.625; -283.000; -264.000
264.261; -109.075; -847.000; -630.000
264.402;   -3.925;   33.000;   40.000
264.543;  -70.775; -509.000; -524.000
264.684;   -8.600;   61.000;  -50.000
264.825;  -88.900; -816.000; -538.000
264.966;   -9.700;  -84.000;  -67.000
265.107;  -99.525; -646.000; -670.000
265.248; -106.400; -825.000; -812.000
265.390;  -14.150;  152.000;   -9.000
265.531;  -21.725; -238.000; -107.000
265.672;  -81.925; -557.000; -630.000
265.813;   58.625;  563.000;  439.000
265.954; -136.300; -959.000; -940.000
266.095;  -24.325; -372.000; -322.000
266.236;  -96.775; -686.000; -548.000
266.377;  -39.025; -243.000; -297.000
266.518;  -62.150; -619.000; -547.000
266.659;   24.625;  170.000;  268.000
266.800;    4.500;   83.000;   85.000
266.941;  -87.975; -487.000; -478.000
267.082;    6.475;  354.000;   99.000
267.223;  -51.975; -344.000; -273.000
267.364; -105.950; -892.000; -686.000
267.504;  -11.875;    3.000;  135.000
267.645;   -1.975;  160.000;   67.000
267.786;  -36.450; -147.000;  -86.000
267.927;  -85.700; -473.000; -379.000
268.068;  -21.250; -186.000;  -61.000
268.209;  -36.750; -175.000; -413.000
268.350;  -61.125; -388.000; -532.000
268.490;  -75.625; -648.000; -521.000
268.631;   22.675;  127.000;  225.000
268.772;  -90.900; -874.000; -647.000
268.913;  -41.300; -328.000; -476.000
269.054;   -7.500; -117.000;   12.000
269.194;  -35.175; -418.000; -402.000
269.335; -140.225;-1137.000;-1074.000
269.476;  -27.700;   33.000;  -35.000
269.617;  -46.800; -347.000; -392.000
269.757;  -93.925; -713.000; -646.000
269.898;  -86.950; -856.000; -613.000
270.039;  -65.650; -415.000; -405.000
270.180; -129.475; -952.000; -816.000
270.320;  -43.500; -190.000; -250.000
270.461;  -15.500; -277.000; -249.000
270.602;  -18.325; -186.000; -156.000
270.742; -121.125; -868.000; -943.000
270.883;  -62.275; -442.000; -390.000
271.023;  -64.850; -358.000; -357.000
271.164;  -78.100; -607.000; -528.000
271.305;  -83.575; -666.000; -654.000
271.445;  -89.550; -722.000; -683.000
271.586;  -66.150; -462.000; -283.000
271.726;  -57.500; -397.000; -322.000
271.867;  -61.400; -594.000; -534.000
272.008;   41.850; -473.000; -285.000
272.148;   80.900;  462.000;  468.000
272.289;   -8.500; -113.000; -181.000
272.429;    0.100;   19.000;  185.000
272.570;  -92.925; -633.000; -737.000
272.710;  -88.750; -825.000; -775.000
272.851;  -21.225;  113.000; -130.000
272.991; -144.575;-1173.000;-1077.000
273.131;  -65.075; -419.000; -459.000
273.272;  -97.925; -683.000; -723.000
273.412;  -11.775; -143.000;  -31.000
273.553;  -68.225; -488.000; -507.000
273.693;   99.675;  913.000;  858.000
273.834; -101.900; -894.000; -692.000
273.974;  -73.250; -664.000; -615.000
274.114; -102.850; -772.000; -560.000
274.255;   50.450;  414.000;  373.000
274.395;  -21.025; -180.000; -125.000
274.535;   29.175;  199.000;  350.000
274.676;   12.325;  225.000;   94.000
274.816;   -6.350;  110.000;   34.000
274.956;  -91.975; -624.000; -690.000
275.097;  -99.825;-1014.000; -922.000
275.237; -101.875; -913.000; -803.000
275.377;  -96.825; -778.000; -689.000
275.517; -135.425; -878.000; -937.000
275.658;  -71.500; -590.000; -555.000
275.798;  -60.925; -606.000; -413.000
275.938;   25.300;  215.000;  323.000
276.078;  -85.475; -626.000; -395.000
276.218;   -7.500;   99.000;  104.000
276.359; -125.225;-1026.000;-1024.000
276.499;  -72.325; -605.000; -446.000
276.639;  -37.275; -305.000; -151.000
276.779;  -44.475; -475.000; -357.000
276.919; -116.600; -783.000; -624.000
277.059;  -24.700; -261.000; -212.000
277.199;  -43.700; -357.000; -259.000
277.340;   26.125;  287.000;  175.000
277.480; -100.050; -840.000; -693.000
277.620;   24.200;  192.000;   16.000
277.760; -188.000;-1533.000;-1294.000
277.900;    0.600;  113.000;   33.000
278.040;    6.475;  137.000;  159.000
278.180;   11.525;  270.000;  170.000
278.320;    1.700;   21.000;   56.000
278.460;  -67.175; -443.000; -469.000
278.600;  -83.875; -708.000; -598.000
278.740;   41.400;  448.000;  224.000
278.880; -102.175; -768.000; -791.000
279.020;  -29.900; -194.000; -144.000
279.160;  -77.600; -672.000; -595.000
279.300; -121.300; -926.000; -873.000
279.440;  -87.700; -709.000; -622.000
279.579;  -69.675;-1014.000; -929.000
279.719;  -56.950; -410.000; -394.000
279.859;   29.925;   -4.000;   41.000
279.999;    4.850; -208.000;  101.000
280.139;  -52.150; -435.000; -387.000
280.279;  -89.200; -708.000; -745.000
280.419;  -18.450; -229.000; -147.000
280.559;  -27.675; -259.000; -180.000
280.698;  -82.375; -790.000; -639.000
280.838; -105.750; -778.000; -800.000
280.978;  -95.825; -846.000; -790.000
281.118;  -94.800; -811.000; -704.000
281.257;    9.350;   24.000;    6.000
281.397; -141.825;-1094.000; -960.000
281.537;  -90.675; -599.000; -712.000
281.677;  -15.375; -150.000; -101.000
281.816;  -76.825; -700.000; -630.000
281.956;  -26.375; -193.000; -257.000
282.096;  -67.650; -539.000; -396.000
282.235;  -98.325; -672.000; -638.000
282.375;  -15.450; -243.000;  -98.000
282.515;  -83.025; -715.000; -707.000
282.654;    8.850;   29.000;  106.000
282.794;   37.125;  388.000;  244.000
282.934;  -65.400; -530.000; -491.000
283.073; -118.900;-1030.000; -857.000
283.213;  -58.275; -460.000; -467.000
283.353;  -57.550; -408.000; -349.000
283.492;  -36.825; -264.000; -296.000
283.632;  -33.250; -254.000; -168.000
283.771;  -93.100; -859.000; -730.000
283.911;  -47.025; -369.000; -260.000
284.050; -110.575; -794.000; -748.000
284.190; -151.500;-1229.000;-1096.000
284.329; -138.275;-1055.000; -964.000
284.469;  -78.575; -516.000; -591.000
284.608;  -53.500; -559.000; -598.000
284.748;  -81.900; -614.000; -570.000
284.887;   -6.325;  -87.000;  -20.000
285.027; -115.725; -844.000; -892.000
285.166;  -42.300; -192.000; -249.000
285.306;   -1.875; -116.000;  -33.000
285.445;  -39.650; -229.000; -343.000
285.584;  -79.200; -630.000; -494.000
285.724;  -38.400; -282.000; -322.000
285.863; -111.650; -857.000; -507.000
286.002;  -49.600; -366.000; -276.000
286.142;  -99.175; -715.000; -622.000
286.281;  -71.325; -525.000; -493.000
286.420;  -70.125; -554.000; -417.000
286.560;   79.650;  653.000;  623.000
286.699; -129.550; -958.000; -912.000
286.838;  -88.875; -590.000; -591.000
286.978;  -76.175; -533.000; -537.000
287.117; -122.950;-1085.000; -950.000
287.256;  -28.725; -228.000; -211.000
287.395;  -52.725; -197.000; -378.000
287.535;  -45.325; -370.000; -298.000
287.674;  -65.175; -509.000; -484.000
287.813;   50.300;  661.000;  533.000
287.952; -124.925;-1010.000; -871.000
288.091; -125.000;-1049.000; -915.000
288.231;    0.025;   13.000;   15.000
288.370; -155.175;-1217.000;-1200.000
288.509;  -78.500; -728.000; -645.000
288.648;  -76.825; -770.000; -548.000
288.787;  -39.750; -243.000;  -87.000
288.926;  -59.175; -454.000; -475.000
289.065;   99.175;  859.000;  672.000
289.204;  -46.900; -377.000; -217.000
289.344;  -97.200; -791.000; -690.000
289.483;   21.000;  416.000;  304.000
289.622;  -39.300; -291.000; -149.000
289.761;  -21.550; -309.000; -166.000
289.900;  -92.525; -785.000; -626.000
290.039;  -14.550;  -12.000;  -95.000
290.178;  -40.075; -274.000; -180.000
290.317;  -76.575; -618.000; -479.000
290.456;  -58.825; -463.000; -451.000
290.595; -121.650; -961.000; -833.000
290.734; -136.575; -904.000; -891.000
290.873;  -57.800; -456.000; -420.000
291.011; -105.975; -833.000; -843.000
291.150; -109.250; -770.000; -682.000
291.289;  -27.350; -343.000; -110.000
291.428;  -89.375; -599.000; -480.000
291.567;  -63.225; -370.000; -442.000
291.706;    2.725;  109.000;  154.000
291.845;  -82.900; -597.000; -505.000
291.984; -153.150;-1234.000;-1061.000
292.122;   61.575;  602.000;  582.000
292.261;   49.475;  620.000;  463.000
292.400;   -3.900; -144.000;  211.000
292.539; -117.550; -959.000; -813.000
292.678;  -34.475; -325.000; -300.000
292.816; -143.025;-1136.000; -965.000
292.955;  -89.450; -844.000; -684.000
293.094;  -17.225; -173.000; -337.000
293.233;  -37.600; -556.000; -400.000
293.371;  -28.675; -225.000;  -84.000
293.510; -107.550; -866.000; -780.000
293.649; -114.450; -959.000; -924.000
293.787; -112.725;-1083.000;-1012.000
293.926;  -20.750; -113.000;  -32.000
294.065;  -50.100; -379.000; -290.000
294.203;   49.700;  298.000;  406.000
294.342;   24.175;   74.000;  156.000
294.481; 4989.875;51180.000; -836.000
294.619;  -42.000; -425.000; -582.000
294.758; -136.800;-1230.000;-1137.000
294.896;   10.400; -125.000;    5.000
295.035; -120.050;-1040.000;-1006.000
295.174; -124.675;-1082.000; -954.000
295.312;  -26.500; -323.000; -203.000
295.451;  -36.025; -307.000; -428.000
295.589;  -68.750; -389.000; -518.000
295.728;   11.025; -292.000; -165.000
295.866;   -8.800;  -36.000;  -51.000
296.005;  -64.525; -584.000; -341.000
296.143;  -68.125; -558.000; -596.000
296.282; -104.150; -957.000; -881.000
296.420;  -72.350; -657.000; -557.000
296.559;  -83.900; -892.000; -633.000
296.697;  -41.425; -847.000; -665.000
296.835;  -75.025;-1141.000;-1002.000
296.974;   26.475;  -23.000;   39.000
297.112;  -36.775; -443.000; -504.000
297.251;  -77.200; -815.000; -755.000
297.389;  -21.850; -576.000; -438.000
297.527;    2.100; -145.000;  -83.000
297.666;  -49.725; -486.000; -438.000
297.804;  -38.000; -404.000; -264.000
297.942;    8.700; -136.000; -161.000
298.081;   -6.125; -183.000;   63.000
298.219;   10.500;  -17.000;  -19.000
298.357;    0.575; -144.000;  -71.000
298.495;  -59.250; -810.000; -812.000
298.634;    2.600;  245.000;  219.000
298.772;  -12.200; -220.000; -338.000
298.910;  -47.650; -309.000; -182.000
299.048;  -17.450; -130.000; -153.000
299.187;  -33.025; -350.000; -250.000
299.325;   -5.775;   52.000;  122.000
299.463;  -22.850; -389.000; -299.000
299.601;   -1.950; -327.000; -271.000
299.739; -109.850; -908.000; -883.000
299.877;  -94.100; -791.000; -703.000
300.016;  -97.750;-1095.000; -935.000
300.154;   44.125;  -19.000; -161.000
300.292;  -27.000; -428.000; -348.000
300.430;  -32.300; -408.000; -291.000
300.568; -105.250; -940.000; -874.000
300.706;  -72.100; -366.000; -469.000
300.844; -117.425;-1108.000; -979.000
300.982;   62.025;  246.000;  282.000
301.120; -115.425; -965.000; -866.000
301.258;  -89.275; -812.000; -705.000
301.396;    0.550;  104.000;  -41.000
301.534;  -27.600; -218.000; -293.000
301.672;  -68.225; -664.000; -521.000
301.810;  -69.600; -613.000; -545.000
301.948;   40.575;   53.000;  149.000
302.086;  205.775; -250.000;  -32.000
302.224;  249.850; -610.000; -585.000
302.362;  -65.300; -558.000; -622.000
302.500;  -84.925; -923.000; -893.000
302.638;   25.400;  128.000;  245.000
302.776;  -21.200; -352.000; -408.000
302.913;   36.875;  447.000;  236.000
303.051;  -19.875;  -86.000;  -23.000
303.189;   13.300;   90.000;  118.000
303.327;  -28.775; -341.000; -256.000
303.465;  -87.125; -832.000; -588.000
303.603;  -84.850; -805.000; -604.000
303.740;   54.475;  417.000;  241.000
303.878;  -76.050; -800.000; -759.000
304.016; -101.000; -915.000; -790.000
304.154; -149.450;-1123.000;-1152.000
304.291;  -49.325; -505.000; -554.000
304.429;   15.950;  102.000;   74.000
304.567; -134.300; -908.000; -893.000
304.705;  -67.425; -408.000; -515.000
304.842;  -23.575; -616.000; -540.000
304.980;   13.700;  215.000;   35.000
305.118;  -20.675; -367.000; -365.000
305.255; -110.525; -945.000; -927.000
305.393;   37.100;  178.000;  239.000
305.531; -135.975;-1173.000; -956.000
305.668;  -78.175; -663.000; -582.000
305.806;    2.125; -358.000; -439.000
305.943;  -15.825; -629.000; -637.000
306.081;  -16.500; -378.000; -267.000
306.219; -104.825; -863.000; -748.000
306.356;   19.275;  158.000;   27.000
306.494;  144.525;  981.000;  761.000
306.631;   17.625;  -11.000;  -55.000
306.769;    9.475; -613.000; -485.000
306.906;    4.350; -284.000; -258.000
307.044;  -44.625; -473.000; -488.000
307.181;  -43.300; -410.000; -332.000
307.319;   32.950;  112.000;   87.000
307.456; -154.025;-1191.000;-1153.000
307.594;  -94.225; -980.000; -727.000
307.731;  -24.725; -371.000; -164.000
307.868;  -20.200;  -15.000;   20.000
308.006; -122.125; -961.000; -847.000
308.143;  -59.775; -618.000; -330.000
308.281;   48.975;  -37.000; -254.000
308.418;  -55.025; -748.000; -640.000
308.555;  -67.725; -400.000; -250.000
308.693;  -47.675; -577.000; -573.000
308.830;  -76.600; -712.000; -657.000
308.967;   -9.275; -215.000;  -95.000
309.105;   -4.350; -507.000; -396.000
309.242;    3.675; -468.000; -367.000
309.379;   55.075; -577.000; -655.000
309.517;  -71.000; -936.000; -948.000
309.654;  -73.625; -910.000; -734.000
309.791;  -58.025; -662.000; -580.000
309.928;  -89.050; -977.000; -914.000
310.065;  159.875;  819.000;  697.000
310.203;  -57.500; -825.000; -850.000
310.340;   -9.525; -465.000; -321.000
310.477;  -62.775; -412.000; -516.000
310.614;  -50.350; -383.000; -473.000
310.751;  -29.150; -427.000; -518.000
310.889;  -20.200;    1.000;   11.000
311.026; -125.275;-1161.000; -939.000
311.163;  -27.875; -386.000; -380.000
311.300;  -53.950; -512.000; -479.000
311.437;  -60.825; -658.000; -619.000
311.574; -124.825;-1226.000; -985.000
311.711;  -42.625; -595.000; -433.000
311.848;   -2.100; -380.000; -388.000
311.985;   35.225;  270.000;   93.000
312.122;  -96.200; -932.000; -762.000
312.259;  -93.550; -941.000; -994.000
312.396;  -36.125; -508.000; -551.000
312.533;  -62.375; -812.000; -790.000
312.670; -105.875;-1070.000; -898.000
312.807;  -18.275; -352.000; -367.000
312.944;  -47.775; -513.000; -611.000
313.081;   -2.675; -150.000; -415.000
313.218;  -69.350;-1111.000; -867.000
313.355;    2.950; -531.000; -449.000
313.492;    0.975; -455.000; -292.000
313.629;  128.225;  815.000;  735.000
313.766; -126.750;-1176.000;-1008.000
313.902;    3.100; -186.000;   21.000
314.039;  -17.300; -372.000; -289.000
314.176;   32.400;  286.000;  192.000
314.313;  -53.675; -569.000; -473.000
314.450;  -77.525; -788.000; -684.000
314.587;  -42.125; -468.000; -480.000
314.723;   13.000;  -78.000;  130.000
314.860;   48.300;  318.000;  332.000
314.997;   45.925;  223.000;  142.000
315.134;  -12.050; -385.000; -368.000
315.270;  -23.725; -480.000; -496.000
315.407;  -98.375;-1094.000; -967.000
315.544;  -15.000; -657.000; -538.000
315.681;  -37.550; -681.000; -565.000
315.817;   54.075; -133.000; -176.000
315.954;   41.675; -613.000; -392.000
316.091; -100.825;-1045.000;-1023.000
316.227;  -18.450;  -71.000; -179.000
316.364;   -0.300;   23.000;    6.000
316.500;  -36.725; -113.000; -300.000
316.637;  -40.800; -181.000; -302.000
316.774;  -64.275; -625.000; -358.000
316.910;  -76.000; -598.000; -629.000
317.047;  -59.050; -487.000; -351.000
317.183;  -66.075; -435.000; -566.000
317.320;   59.950; -367.000; -321.000
317.456;  -36.500; -733.000; -805.000
317.593;  -71.550; -598.000; -641.000
317.729;   -4.400;  168.000;  -67.000
317.866; -177.750;-1434.000;-1285.000
318.002;  -84.175; -708.000; -948.000
318.139;  -99.125; -883.000; -867.000
318.275;  -96.650;-1003.000; -738.000
318.412;  -65.525; -517.000; -336.000
318.548;  -74.325; -751.000; -720.000
318.685;  -85.250; -985.000; -888.000
318.821;  -81.625; -762.000; -735.000
318.957;  -11.000;   34.000;  -23.000
319.094;   19.500;  297.000;  154.000
319.230;  -74.600; -756.000; -742.000
319.367;    3.750; -471.000; -520.000
319.503;  -22.575; -538.000; -436.000
319.639;  -79.425; -877.000; -793.000
319.775;  -99.950; -750.000; -685.000
319.912;  -66.700; -424.000; -519.000
320.048;  -75.375;-1184.000;-1184.000
320.184;   97.025;   59.000;   70.000
320.321;  -47.925; -497.000; -467.000
320.457;   76.425;  475.000;  662.000
320.593;  -64.700; -375.000; -382.000
320.729;  -99.225; -732.000; -734.000
320.866;  -64.425; -577.000; -635.000
321.002;  -85.900; -759.000; -809.000
321.138;  -27.600; -135.000; -211.000
321.274;    7.125; -148.000; -115.000
321.410;  -54.275; -585.000; -353.000
321.546;  -91.975;-1011.000; -911.000
321.683;   22.425;  400.000;  185.000
321.819;  -23.075;  -48.000; -117.000
321.955; -102.650; -743.000; -722.000
322.091;  -66.025; -585.000; -540.000
322.227;  -32.650; -382.000; -202.000
322.363;  -46.025; -320.000; -215.000
322.499;  -59.600; -343.000; -331.000
322.635;   97.350;  636.000;  443.000
322.771;   -9.475; -139.000;   12.000
322.907;   55.500;  129.000;  327.000
323.043;  -34.325; -115.000; -206.000
323.179;  -50.650; -394.000; -363.000
323.315;  -39.750; -401.000; -371.000
323.451;   30.525; -328.000; -236.000
323.587;   51.950;  -60.000;  -77.000
323.723;  -58.725; -682.000; -601.000
323.859;  -19.025; -258.000;  -76.000
323.995;  -58.125; -467.000; -409.000
324.131; -105.850; -967.000; -892.000
324.267;  -37.725; -254.000; -276.000
324.402; -132.450; -960.000; -983.000
324.538;  -24.450; -279.000; -104.000
324.674;   14.425;  164.000;   77.000
324.810;   36.175;  226.000;  308.000
324.946;  -43.150; -810.000; -658.000
325.082;  -67.175; -568.000; -475.000
325.217;   -8.750;  -62.000;   16.000
325.353; -104.800; -764.000; -659.000
325.489;  -69.550; -540.000; -506.000
325.625;  -63.475; -579.000; -525.000
325.760;   87.625;  517.000;  376.000
325.896;   11.825; -515.000; -702.000
326.032;  -52.800; -403.000; -352.000
326.168;  -50.600; -462.000; -369.000
326.303;  -64.575; -352.000; -461.000
326.439;  -27.625; -336.000; -276.000
326.575;   17.975; -190.000;  -29.000
326.710;  -13.650; -156.000;  -30.000
326.846;   -6.325;  146.000;  103.000
326.982;  -90.950; -530.000; -548.000
327.117;  -62.700; -481.000; -442.000
327.253;  -72.025; -745.000; -742.000
327.388; -173.500;-1137.000;-1153.000
327.524;  -81.025; -811.000; -578.000
327.659;   -0.975;  -58.000;  -22.000
327.795;  -12.900;   69.000;   45.000
327.931;  -74.275; -723.000; -499.000
328.066;  -30.225; -417.000; -276.000
328.202;  -49.600;   12.000; -129.000
328.337;   91.125;  957.000;  713.000
328.473;   49.000;  -12.000;  -74.000
328.608;  -19.500; -256.000; -267.000
328.743;  -97.450; -799.000; -664.000
328.879;   12.050;  214.000;  114.000
329.014;  -20.200; -102.000; -122.000
329.150;  -75.550; -358.000; -483.000
329.285;  -77.125; -465.000; -466.000
329.421;  -39.250; -548.000; -246.000
329.556;   -1.750;  -36.000;   85.000
329.691;  -87.650; -633.000; -615.000
329.827;  -80.425; -626.000; -480.000
329.962;  -25.300;  131.000; -301.000
330.097;  -73.875; -673.000; -585.000
330.233;  -41.725; -410.000; -223.000
330.368; -113.375; -839.000; -628.000
330.503;  -17.350;    3.000;   98.000
330.638;   -9.725;  -93.000; -125.000
330.774;  -80.475; -609.000; -530.000
330.909;  -43.525; -434.000; -244.000
331.044; -101.975; -714.000; -708.000
331.179; -158.675;-1217.000;-1109.000
331.315;    5.625;   77.000;   20.000
331.450;   16.850;  157.000;  285.000
331.585;  -80.425; -805.000; -706.000
331.720;  -68.550; -510.000; -460.000
331.855;   -7.425;  -35.000; -102.000
331.990;  420.475;   62.000;  138.000
332.126;  204.425; -110.000;   71.000
332.261;   16.650; -379.000; -265.000
332.396;   15.025; -135.000; -242.000
332.531;  -47.175;-1074.000;-1031.000
332.666;   94.750; -519.000; -363.000
332.801;  -96.650; -726.000; -807.000
332.936;  -32.225; -192.000; -122.000
333.071; -134.950; -870.000; -817.000
333.206;   17.225;  307.000;  379.000
333.341;   28.900;  344.000;  418.000
333.476;  -72.200; -627.000; -623.000
333.611;  -20.325; -251.000; -173.000
333.746;  -57.075; -381.000; -464.000
333.881;  -90.100; -973.000; -935.000
334.016; -116.275; -936.000; -917.000
334.151; -117.725; -746.000; -702.000
334.286;   13.175;  152.000;  186.000
334.421;   -6.450; -125.000; -178.000
334.556;  -78.225; -611.000; -567.000
334.690;  -76.650; -631.000; -577.000
334.825;   59.700;  381.000;   83.000
334.960;  -47.575; -285.000; -413.000
335.095;    8.150;  135.000;  -91.000
335.230;  -74.750; -722.000; -738.000
335.365; -123.275;-1084.000; -990.000
335.499; -116.525;-1108.000;-1037.000
335.634;   13.175;    9.000;  534.000
335.769;  -76.450; -755.000; -720.000
335.904;  -55.425; -603.000; -561.000
336.038;  -26.425; -735.000; -657.000
336.173;  -98.050;-1206.000;-1194.000
336.308;   21.650; -116.000; -189.000
336.443;   79.875; -544.000; -634.000
336.577;  -31.275; -936.000; -787.000
336.712;   86.550;   -4.000;  -12.000
336.847;    5.325; -724.000; -607.000
336.981;   70.325; -272.000; -208.000
337.116;  307.025;  615.000;  501.000
337.250;  132.000; -434.000; -421.000
337.385;  453.300; -297.000; -208.000
337.520;  227.375; -632.000; -603.000
337.654;  -20.450; -215.000; -126.000
337.789; -123.125; -989.000; -933.000
337.923;  -38.175; -104.000; -205.000
338.058;  -92.975; -673.000; -738.000
338.192;  -58.325; -611.000; -488.000
338.327;  -12.325;  -18.000; -155.000
338.461;  -65.750; -299.000; -469.000
338.596; -100.100; -780.000; -638.000
338.730;  -78.650; -767.000; -803.000
338.865;  157.225;  -46.000; -140.000
338.999;    8.275; -846.000; -702.000
339.134;   -0.475; -634.000; -536.000
339.268;   59.350; -741.000; -603.000
339.403;  564.625; -740.000; -775.000
339.537;  270.050; -894.000; -820.000
339.671;  -89.575; -829.000; -813.000
339.806;  -21.725; -556.000; -512.000
339.940;   43.275; -261.000; -235.000
340.074;  -92.950; -685.000; -510.000
340.209;  -44.350; -351.000; -230.000
340.343;  -80.900; -517.000; -573.000
340.477;  116.525;  998.000; 1036.000
340.612;   11.325;-1033.000; -900.000
340.746;  218.550; -199.000; -243.000
340.880;  -96.975; -924.000; -785.000
341.014;  -37.000;  -45.000; -154.000
341.149; -121.575; -756.000; -718.000
341.283; -101.375; -839.000; -754.000
341.417; -113.850;-1124.000; -938.000
341.551;  -32.550; -768.000; -708.000
341.685;  -52.350; -633.000; -611.000
341.820;  -38.450; -562.000; -493.000
341.954;  -50.550; -218.000; -349.000
342.088; -144.000;-1102.000;-1019.000
342.222;   44.900;  565.000;  618.000
342.356;  -82.575; -395.000; -335.000
342.490; -108.400; -880.000; -841.000
342.624;  -60.950; -339.000; -242.000
342.758;  -57.675; -364.000; -312.000
342.892; -102.800; -710.000; -585.000
343.026;  -40.850;  -58.000; -116.000
343.160;  -66.300; -426.000; -376.000
343.294;  -73.200; -474.000; -337.000
343.428;  -60.650; -488.000; -448.000
343.562;  -22.550; -172.000;  -23.000
343.696;  -47.675; -385.000; -314.000
343.830;  -55.925; -362.000; -356.000
343.964;  -19.600; -231.000; -168.000
344.098;  314.500;  199.000;   70.000
344.232;  259.975; -266.000; -127.000
344.366;   59.425; -567.000; -453.000
344.500;  -37.900; -665.000; -744.000
344.634;  -26.750; -324.000; -164.000
344.768;  -58.275; -531.000; -341.000
344.902;   -0.175;  278.000;  256.000
345.035;  -85.025; -556.000; -496.000
345.169; -124.025; -933.000; -656.000
345.303;  -46.400; -308.000; -482.000
345.437;  -98.325; -826.000; -717.000
345.571;  -58.525; -675.000; -594.000
345.704;  -67.175; -309.000; -532.000
345.838;  -24.875; -331.000; -284.000
345.972;  -56.025; -543.000; -495.000
346.106;  260.850; -179.000; -190.000
346.239;  491.275; -312.000; -243.000
346.373;   -7.975; -343.000; -302.000
346.507; -129.825; -950.000; -962.000
346.640;   39.500;  -30.000;   13.000
346.774;  -85.300; -650.000; -797.000
346.908;  -33.275; -138.000;  -11.000
347.041; -105.250; -646.000; -593.000
347.175;   -2.675;  259.000;   27.000
347.309; -103.800; -698.000; -628.000
347.442; -112.625; -883.000; -732.000
347.576;  128.150;  670.000;  668.000
347.709;   52.325; -123.000;  -52.000
347.843; -115.100; -933.000; -825.000
347.976;   38.350;  235.000;  294.000
348.110; -158.025;-1268.000;-1186.000
348.243;  -92.550; -679.000; -772.000
348.377;   18.125;  -26.000;   60.000
348.510;   40.525;  403.000;  540.000
348.644;  -33.950;  -37.000; -159.000
348.777;   -9.875;  180.000;  191.000
348.911;  -53.275; -142.000; -112.000
349.044;   79.100;  471.000;  448.000
349.178;  -16.575;-1069.000;-1006.000
349.311;  102.625;  141.000;  255.000
349.444;   35.150; -927.000; -813.000
349.578;  -24.850; -347.000; -200.000
349.711; -110.950; -959.000; -862.000
349.845;  -69.425; -661.000; -591.000
349.978; -151.425;-1224.000;-1137.000
350.111;  -81.250; -546.000; -612.000
350.244;  -92.800; -596.000; -700.000
350.378;  -51.150; -392.000; -393.000
350.511;  -74.300; -393.000; -426.000
350.644; -106.150; -808.000; -806.000
350.778;   23.200;  168.000;  104.000
350.911;   -9.125;  134.000;  140.000
351.044;  -89.725; -685.000; -615.000
351.177;  -45.275; -321.000; -281.000
351.310;  -12.900;    3.000; -131.000
351.444; -103.175; -888.000; -788.000
351.577;   46.875;  140.000;   90.000
351.710;   73.625;  593.000;  417.000
351.843;  -35.775; -165.000;  -77.000
351.976;   -8.475;  149.000;  -79.000
352.109;  -88.825; -621.000; -612.000
352.242;  -49.775; -464.000; -419.000
352.376;  -74.075; -580.000; -636.000
352.509;   17.600; -437.000; -356.000
352.642;  -84.600; -654.000; -604.000
352.775;   12.000; -141.000;  -98.000
352.908; -112.000; -933.000; -904.000
353.041;  -99.425; -814.000; -824.000
353.174;  -62.300; -551.000; -424.000
353.307;  -84.000; -753.000; -764.000
353.440;   57.375;  541.000;  453.000
353.573; -101.475; -957.000;-1008.000
353.706;  -48.075; -384.000; -558.000
353.839;  -41.300; -264.000; -220.000
353.971;  -87.250; -657.000; -512.000
354.104; -111.450; -896.000; -835.000
354.237;  -68.700; -627.000; -662.000
354.370;  -82.625; -846.000; -879.000
354.503; -162.875;-1231.000;-1308.000
354.636;  -25.550; -529.000; -348.000
354.769; -101.125; -937.000; -860.000
354.902;  -27.125; -230.000; -139.000
355.034;   -4.525; -164.000; -220.000
355.167;   -6.525; -262.000; -162.000
355.300;  -46.425;-1061.000; -880.000
355.433; 1480.950;  -71.000;  -14.000
355.565; 2323.200; -402.000; -384.000
355.698;  612.100; -356.000; -296.000
355.831;    3.925; -882.000; -801.000
355.964;   26.450; -285.000; -170.000
356.096;  -61.675; -856.000; -843.000
356.229;    9.675; -523.000; -530.000
356.362;  534.975; -373.000; -266.000
356.494;  933.150; -229.000; -162.000
356.627;  345.650;  269.000;  377.000
356.760;  929.150;  120.000;   53.000
356.892; 1530.600; -286.000; -601.000
357.025;  353.850;  403.000;  389.000
357.157;  244.975; -167.000; -179.000
357.290; 1183.050; -856.000; -713.000
357.423;  366.950; -667.000; -556.000
357.555;  122.175; -217.000; -228.000
357.688;  144.725; -483.000; -364.000
357.820;  179.825; -870.000; -877.000
357.953; 1467.650; -563.000; -589.000
358.085;  252.025; -632.000; -612.000
358.218;  155.775;-1131.000; -932.000
358.350;   56.100;  -58.000;  312.000
358.483; -154.200;-1300.000;-1187.000
358.615; -115.150;-1182.000;-1078.000
358.747; -131.850;-1187.000;-1058.000
358.880;  -49.075; -810.000; -744.000
359.012;  -24.500; -376.000; -202.000
359.145;  -62.675; -480.000; -511.000
359.277;  -54.350; -962.000; -913.000
359.409; 1235.450;  536.000;  231.000
359.542;  256.400; -738.000; -688.000
359.674;   21.300;   46.000;   13.000
359.806;  -66.125; -565.000; -438.000
359.939;  -39.775; -617.000; -516.000
360.071;   45.650; -583.000; -579.000
360.203;  -23.375; -411.000; -364.000
360.335;   30.675;  164.000;  -16.000
360.468;   90.125; -249.000; -307.000
360.600; 1280.450; -547.000; -454.000
360.732; 4174.500; -546.000; -423.000
360.864;  641.900;-1216.000;-1044.000
360.996;   93.725; -516.000; -554.000
361.129;  -37.325; -389.000; -598.000
361.261;    5.025;  110.000; -113.000
361.393;  -53.400; -252.000; -214.000
361.525;   -4.950;   94.000;  244.000
361.657;  -98.475; -821.000; -703.000
361.789;  -36.250; -139.000; -155.000
361.921;  -21.525; -642.000; -593.000
362.053;   84.600;  524.000;  541.000
362.185;   13.200;  288.000;   72.000
362.318;  -99.625; -709.000; -705.000
362.450;   43.150;  294.000;  444.000
362.582;  -80.725; -913.000; -870.000
362.714;  -53.450; -353.000; -332.000
362.846;  -77.350; -606.000; -490.000
362.978; -123.825; -941.000; -811.000
363.109;  -19.375; -161.000; -260.000
363.241;  176.675; -739.000; -749.000
363.373;  648.600; -649.000; -564.000
363.505; 1062.950; -186.000;  -91.000
363.637;  234.250; -787.000; -601.000
363.769; -125.300;-1067.000;-1080.000
363.901;  -75.200; -596.000; -654.000
364.033; -135.300;-1103.000;-1062.000
364.165;  -25.250; -283.000; -283.000
364.296;  102.150; -316.000; -177.000
364.428;  184.750;-1344.000;-1220.000
364.560;  -55.575; -679.000; -661.000
364.692;  -70.425; -738.000; -835.000
364.824;    4.500; -588.000; -456.000
364.955;  491.150; -402.000; -564.000
365.087; 1645.175;-1097.000; -852.000
365.219;  113.475; -686.000; -816.000
365.351;  -52.825; -526.000; -572.000
365.482;   22.900;  300.000;  240.000
365.614;  -56.200; -402.000; -314.000
365.746; -110.675; -729.000; -752.000
365.877;  -65.475; -706.000; -672.000
366.009;  422.700;  -35.000;  -62.000
366.141;  -28.750;-1249.000;-1134.000
366.272; -103.900; -803.000; -719.000
366.404; -109.150;-1005.000; -874.000
366.535;  -17.850; -139.000;  -12.000
366.667; -103.725; -644.000; -649.000
366.799;   29.475;  353.000;  203.000
366.930; -131.725; -862.000; -996.000
367.062;  178.675; -639.000; -613.000
367.193;  356.825; -872.000; -842.000
367.325;  -34.425; -580.000; -684.000
367.456;    5.700; -246.000;   31.000
367.588;  276.400; -371.000; -318.000
367.719;   45.625;  -44.000;  -45.000
367.851;  -48.100; -222.000; -241.000
367.982;  -90.575; -875.000; -732.000
368.113;   -8.050; -475.000; -358.000
368.245; -146.250; -960.000; -841.000
368.376;  -40.600; -254.000; -302.000
368.508;  -60.250; -188.000; -263.000
368.639; -148.775;-1166.000;-1034.000
368.770;  -67.650; -670.000; -589.000
368.902; -106.675; -836.000; -926.000
369.033; -117.050; -906.000; -855.000
369.164;  -21.850; -720.000; -653.000
369.296;  -88.225; -452.000; -601.000
369.427;  -28.775; -209.000; -144.000
369.558;  -79.900; -593.000; -377.000
369.689;  -76.650; -721.000; -569.000
369.821; -128.450; -951.000; -845.000
369.952;  -20.625;   42.000; -108.000
370.083;  -40.825; -229.000; -108.000
370.214;  -95.725; -735.000; -650.000
370.345;  -17.600;   65.000;   81.000
370.477; -101.250; -810.000; -790.000
370.608;   45.975; -328.000; -264.000
370.739; -115.125;-1233.000;-1292.000
370.870; -111.050;-1102.000; -923.000
371.001;  -27.400; -378.000; -467.000
371.132;  -99.825; -754.000; -735.000
371.263;  -43.050;  -42.000; -148.000
371.394; -121.175; -841.000; -748.000
371.525;   15.600;  345.000;  225.000
371.657;  -98.875; -808.000; -670.000
371.788;   22.300;  103.000;  199.000
371.919;    8.150; -384.000; -304.000
372.050; 1274.325;  -91.000; -156.000
372.181;  395.675; -188.000; -294.000
372.311;  116.300;   42.000; -127.000
372.442;  -42.025; -457.000; -451.000
372.573;  -50.000; -444.000; -340.000
372.704; -131.600;-1008.000; -980.000
372.835;  -23.100; -228.000; -289.000
372.966;  -87.800; -646.000; -554.000
373.097;  -95.850; -575.000; -711.000
373.228;  -73.700; -717.000; -542.000
373.359;  -36.400; -824.000; -536.000
373.490;  180.775; -881.000; -727.000
373.620;  254.350;-1001.000; -803.000
373.751;  545.925; -332.000; -396.000
373.882;  237.650; -663.000; -733.000
374.013;  -11.975; -449.000; -262.000
374.143;  -61.175; -581.000; -659.000
374.274; -118.950; -987.000; -908.000
374.405;   68.300; -388.000; -276.000
374.536;  126.300; -526.000; -387.000
374.666;  311.500; -759.000; -807.000
374.797;    3.575; -817.000; -868.000
374.928;  199.025; -710.000; -560.000
375.058;  205.350; -535.000; -500.000
375.189;   -3.125;  -59.000;  -93.000
375.320; -107.325; -928.000;-1034.000
375.450;  -49.050; -625.000; -616.000
375.581;  -37.025; -526.000; -436.000
375.712;  -52.200; -574.000; -250.000
375.842;   14.075; -438.000; -415.000
375.973;  -16.575; -554.000; -513.000
376.103;  -94.975; -665.000; -648.000
376.234;  -88.725; -531.000; -552.000
376.364; -115.450; -944.000; -867.000
376.495;  145.725;  925.000;  529.000
376.625;  -60.800; -472.000; -485.000
376.756;  -56.550; -709.000; -678.000
376.886; -132.150;-1178.000;-1026.000
377.017;  154.275;-1048.000;-1061.000
377.147;  687.425; -786.000; -782.000
377.278;   77.250;  174.000;  228.000
377.408;  -95.200; -801.000; -815.000
377.538; -105.125; -707.000; -693.000
377.669;  -70.400; -537.000; -613.000
377.799; -109.650; -645.000; -635.000
377.929;  -71.375; -610.000; -428.000
378.060; -128.625; -781.000; -847.000
378.190;  -15.225; -726.000; -531.000
378.320;  -51.975; -401.000; -406.000
378.451;   -9.675; -131.000;  -22.000
378.581;  -20.300;  -67.000; -110.000
378.711;   99.900; 1035.000;  866.000
378.841;  -79.825; -533.000; -675.000
378.972; -104.250; -871.000; -751.000
379.102;  -64.175; -652.000; -579.000
379.232;  -39.000; -126.000;  -73.000
379.362; -108.775;-1001.000; -885.000
379.492;  -49.800; -373.000; -424.000
379.623;   30.025;    0.000;  111.000
379.753; -101.750;-1107.000; -974.000
379.883;   73.200;   59.000;  156.000
380.013;  -83.700;-1081.000;-1017.000
380.143; -113.925;-1097.000;-1056.000
380.273; -101.750; -985.000; -861.000
380.403;    7.225; -344.000; -257.000
380.533;  -47.025; -651.000; -664.000
380.663;   21.625;  173.000;  128.000
380.793; -140.675;-1027.000;-1074.000
380.923;  -35.700; -103.000;  -34.000
381.053;  -92.200; -613.000; -623.000
381.183;  -60.675; -106.000; -248.000
381.313;  -51.925; -656.000; -470.000
381.443;  -45.050; -692.000; -473.000
381.573;  -24.750; -402.000; -409.000
381.703;  -69.125;-1249.000;-1095.000
381.833; -175.275;-1454.000;-1336.000
381.963;   32.750; -134.000;  -87.000
382.093;  386.250; -925.000; -909.000
382.223;   91.450; -713.000; -602.000
382.353;  -80.750; -801.000; -608.000
382.482;   16.700;-1091.000; -964.000
382.612;  188.100; -872.000; -644.000
382.742;   83.475; -695.000; -622.000
382.872;  -17.200; -565.000; -551.000
383.002;   26.400;  347.000; -132.000
383.131;  -21.875; -226.000; -160.000
383.261;  -21.400; -706.000; -768.000
383.391;  334.825; -552.000; -377.000
383.521; 4992.850;  451.000;  263.000
383.650; 1528.075; -947.000; -904.000
383.780;   46.000; -783.000; -656.000
383.910;   94.650;  880.000;  802.000
384.039;  -81.025; -794.000; -656.000
384.169;  -82.550;-1205.000;-1017.000
384.299;  -96.175; -650.000; -662.000
384.428; -111.950; -764.000; -680.000
384.558;  -60.975; -308.000; -275.000
384.687;  -67.850; -414.000; -334.000
384.817;  -13.675;   75.000;   -2.000
384.947;  -36.450; -234.000; -141.000
385.076;  158.200;  982.000;  912.000
385.206;   60.675;  369.000;  480.000
385.335;  -50.725; -549.000; -417.000
385.465;  -88.775; -655.000; -663.000
385.594;   22.500;  -53.000;  -44.000
385.724;   50.125; -868.000; -838.000
385.853;    2.875; -296.000; -270.000
385.982;  351.225; -743.000; -787.000
386.112;  663.775;-1052.000; -871.000
386.241;   14.500; -307.000; -312.000
386.371;  -32.200; -174.000;  -87.000
386.500;  -47.200; -825.000; -789.000
386.629;    4.300; -874.000; -817.000
386.759;   89.725;  -43.000;   68.000
386.888;  -22.725; -170.000; -250.000
387.017;  -83.275; -648.000; -620.000
387.147; -100.000; -771.000; -798.000
387.276;  -48.850; -410.000; -397.000
387.405;  -43.150; -398.000; -342.000
387.535;  -59.100; -452.000; -361.000
387.664;  -73.100; -692.000; -620.000
387.793;  -12.850; -198.000; -113.000
387.922;  163.525;  255.000;  200.000
388.052;  -52.125; -576.000; -423.000
388.181;  -54.650; -342.000; -472.000
388.310;  -86.250; -889.000; -710.000
388.439;  -93.050; -749.000; -742.000
388.568;   53.925;  365.000;  244.000
388.697;  269.425; -756.000; -653.000
388.826;    0.450; -768.000; -666.000
388.956;  -25.025; -285.000; -307.000
389.085;  -58.700; -347.000; -287.000
389.214; -110.150; -842.000; -872.000
389.343;  -54.750; -645.000; -413.000
389.472;  561.175;  126.000;  149.000
389.601;  669.600;   91.000;    0.000
389.730;  -13.000; -568.000; -687.000
389.859;   39.000;  226.000;   46.000
389.988;   37.550; -423.000; -408.000
390.117;   43.350; -168.000; -146.000
390.246;  -46.100; -331.000; -320.000
390.375;  -50.525; -673.000; -626.000
390.504;  -88.275; -703.000; -621.000
390.633; -119.375; -672.000; -726.000
390.761;  -97.200; -732.000; -645.000
390.890;  -29.600;   -4.000; -130.000
391.019;  -66.125; -421.000; -441.000
391.148; -126.700; -826.000; -855.000
391.277;  -86.300; -576.000; -493.000
391.406; -106.400; -821.000; -805.000
391.534;    4.050;  574.000; -301.000
391.663;  -75.925; -583.000; -645.000
391.792;  -99.075; -673.000; -701.000
391.921;  -15.950;   -3.000;   15.000
392.050;   -2.125; -287.000; -228.000
392.178; -139.250;-1206.000;-1061.000
392.307;  -29.450; -758.000; -712.000
392.436;  -32.075; -427.000; -641.000
392.564;    4.675;  166.000;   -6.000
392.693; -100.700; -860.000; -682.000
392.822;    1.275; -529.000; -534.000
392.950;  -35.925; -880.000; -714.000
393.079;   70.625; -188.000; -328.000
393.208;  -41.750; -488.000; -511.000
393.336;  -30.800; -170.000; -145.000
393.465;  -54.300; -317.000; -199.000
393.593;   15.450;   62.000;   79.000
393.722; -138.300;-1121.000; -916.000
393.850;  -30.875; -188.000;  -61.000
393.979; -125.275; -926.000; -805.000
394.107;  -62.425; -517.000; -537.000
394.236;  -41.850; -570.000; -507.000
394.364;  106.725;  383.000;  206.000
394.493;   85.900; -911.000; -767.000
394.621;    4.600; -955.000; -916.000
394.750; 1220.975; -873.000; -923.000
394.878; 4533.725; -247.000; -149.000
395.007; 6755.500; -721.000; -807.000
395.135;  618.525; -790.000; -721.000
395.263;  -42.675;-1038.000;-1040.000
395.392;    0.800;  -25.000; -107.000
395.520; -118.675; -818.000; -679.000
395.648; -114.675; -865.000; -915.000
395.777;  -54.625; -366.000; -405.000
395.905;  -77.300; -449.000; -564.000
396.033;   -6.400;  217.000;  172.000
396.162;  111.100; -399.000; -453.000
396.290;  111.850;  -17.000;   -2.000
396.418;  -44.275; -555.000; -514.000
396.546;  -88.875; -571.000; -466.000
396.674; -112.400; -850.000; -878.000
396.803;  -16.600;  -72.000;  -23.000
396.931;  -27.550; -179.000; -199.000
397.059; -119.100;-1026.000; -989.000
397.187; -133.975;-1026.000; -975.000
397.315; -127.200; -884.000; -649.000
397.443;  -89.175; -592.000; -443.000
397.572;  -96.425; -578.000; -424.000
397.700;  -81.350; -607.000; -614.000
397.828;  -32.175;  120.000;  -90.000
397.956;  -26.725; -508.000; -478.000
398.084;  -23.575; -767.000; -626.000
398.212;   13.125;  137.000;  124.000
398.340;  -21.625;  -56.000;  159.000
398.468;  -52.775; -390.000; -169.000
398.596; -148.050; -993.000; -953.000
398.724; -120.200; -762.000; -767.000
398.852; -143.300;-1024.000; -976.000
398.980;  -78.200; -560.000; -560.000
399.108;  -97.075; -982.000; -735.000
399.236;  -11.000;   13.000;    8.000
399.363;   -4.200;  222.000;  196.000
399.491;  -62.225; -404.000; -398.000
399.619; -115.200; -829.000; -800.000
399.747; -105.900; -859.000; -771.000
399.875;   36.125;  220.000;  234.000
400.003;  -61.000; -359.000; -284.000
400.130;  -83.025; -421.000; -341.000
400.258;  -43.950;  -83.000;   38.000
400.386;  -68.475; -352.000; -168.000
400.514; -100.425; -526.000; -587.000
400.641; -135.775; -928.000; -802.000
400.769; -147.275; -979.000; -888.000
400.897; -119.500; -838.000; -793.000
401.025;  -40.025; -166.000; -152.000
401.152;   -2.625;  220.000;   38.000
401.280;  -66.825; -430.000; -429.000
401.408;  -96.650; -712.000; -576.000
401.535; -107.400; -735.000; -758.000
401.663; -179.200;-1134.000;-1054.000
401.790;  -83.825; -514.000; -525.000
401.918;   37.250;  436.000;  405.000
402.046;  -17.375;  134.000;  122.000
402.173;  -44.775;  -18.000;    7.000
402.301;  -80.575; -519.000; -397.000
402.428;   40.975;  528.000;  383.000
402.556; -140.625;-1188.000; -913.000
402.683;  -42.675;  -20.000;   -1.000
402.811;  -23.625;  -37.000; -206.000
402.938;   -0.600;   20.000;   27.000
403.066;   -5.700; -574.000; -558.000
403.193;  102.800;  299.000;  239.000
403.321;   64.875; -396.000; -574.000
403.448;  130.600;   83.000;   27.000
403.575;   52.625;  -90.000;  -46.000
403.703;  -99.700; -732.000; -557.000
403.830;  -51.175; -531.000; -496.000
403.957; -119.125;-1117.000;-1023.000
404.085;   30.450;  -61.000; -172.000
404.212;  131.350;  -50.000;   63.000
404.339;  462.400; -566.000; -306.000
404.467; 9119.800; -612.000; -524.000
404.594; 5707.200; -287.000; -227.000
404.721; 1008.125; -869.000; -764.000
404.848;  106.100; -113.000; -202.000
404.976;  -97.125; -856.000; -783.000
405.103;    3.350;  -14.000;  -82.000
405.230;   13.625;  190.000;  226.000
405.357;   51.875;  117.000;   44.000
405.484;  456.675;  -49.000;    5.000
405.612;  122.525; -548.000; -563.000
405.739;  -40.500; -488.000; -243.000
405.866;   77.900;  669.000;  385.000
405.993;  -45.550; -398.000; -102.000
406.120; -128.650; -801.000; -887.000
406.247;  -72.175; -323.000; -342.000
406.374;  128.450;  540.000;  629.000
406.501;  -66.450; -632.000; -702.000
406.628;  -99.100; -621.000; -589.000
406.755; -112.525; -803.000; -620.000
406.882;  -54.975; -228.000; -277.000
407.009; -112.350; -719.000; -628.000
407.136;  -45.850; -480.000; -401.000
407.263;  -47.775; -939.000; -829.000
407.390;  -93.175; -692.000; -614.000
407.517; -168.500;-1139.000;-1187.000
407.644;  -65.475; -332.000; -256.000
407.771;  -71.050; -249.000; -287.000
407.898;   -9.050;  168.000;  328.000
408.025;  -65.550; -421.000; -313.000
408.151;  -19.825;   82.000;  153.000
408.278;  -55.200; -267.000; -216.000
408.405; -120.425; -931.000; -899.000
408.532; -104.000; -549.000; -542.000
408.659; -121.550; -677.000; -648.000
408.785; -191.050;-1298.000;-1170.000
408.912;  -66.125; -412.000; -296.000
409.039;  -98.700; -610.000; -686.000
409.166;  -90.925; -591.000; -555.000
409.292; -107.475; -571.000; -534.000
409.419; -107.650; -665.000; -649.000
409.546;  -71.850; -431.000; -192.000
409.672; -113.500; -713.000; -545.000
409.799;  -32.725;  -36.000;   34.000
409.926;  -56.500; -180.000; -179.000
410.052; -170.775;-1127.000;-1091.000
410.179;  -81.850; -368.000; -392.000
410.305;  -79.275; -375.000; -493.000
410.432;  -25.475; -220.000; -333.000
410.558;  -83.350; -305.000; -380.000
410.685; -109.425; -688.000; -431.000
410.812;  -96.500; -409.000; -588.000
410.938; -136.700; -964.000; -808.000
411.065; -104.975; -671.000; -645.000
411.191;  -49.900; -189.000; -174.000
411.317; -118.700; -823.000; -742.000
411.444;  -75.075; -317.000; -246.000
411.570;  -79.550; -339.000; -294.000
411.697; -128.000; -758.000; -752.000
411.823; -168.675; -989.000; -999.000
411.949;  -43.800;  -56.000;   17.000
412.076; -114.175; -539.000; -519.000
412.202; -113.775; -758.000; -757.000
412.329; -125.750; -798.000; -752.000
412.455; -125.900; -821.000; -657.000
412.581;  -18.600;  -15.000;  172.000
412.707;  -96.825; -540.000; -457.000
412.834;   -2.700;  156.000;  219.000
412.960; -109.650; -785.000; -784.000
413.086; -109.250; -743.000; -701.000
413.212;  105.925;  604.000;  578.000
413.339;  -86.675; -685.000; -701.000
413.465;  -40.325; -364.000; -310.000
413.591; -100.900; -757.000; -474.000
413.717;  -45.525; -358.000; -366.000
413.843; -123.775; -839.000; -861.000
413.969;  -53.825;  -47.000; -292.000
414.096;  -98.075; -679.000; -679.000
414.222;  -19.825;  -33.000;   85.000
414.348;  -76.425; -652.000; -385.000
414.474;   16.425;   38.000;  -52.000
414.600;   -7.325; -126.000; -144.000
414.726;  -14.225;  -96.000;  -55.000
414.852;  -29.950; -365.000; -342.000
414.978;   34.425;  104.000;  -18.000
415.104;   62.775;   38.000;   80.000
415.230;   47.400; -329.000; -330.000
415.356;   72.150; -409.000; -514.000
415.482;  247.050;   13.000;  -35.000
415.608;  428.325; -247.000; -323.000
415.734; 1375.175;   67.000;   38.000
415.860;28414.300; -875.000; -767.000
415.986;23752.500; -685.000; -607.000
416.111; 2246.300; -798.000; -652.000
416.237;  498.700; -424.000; -571.000
416.363; 1698.900; -765.000; -733.000
416.489; 6910.975; -324.000; -251.000
416.615;  958.225; -707.000; -742.000
416.741;   62.700; -677.000; -784.000
416.866;  -63.275; -673.000; -736.000
416.992;  -90.925; -801.000; -818.000
417.118;  -14.425;  -41.000;  -80.000
417.244;  -74.825; -798.000; -531.000
417.369;  -78.875; -801.000; -612.000
417.495;  -17.575; -325.000; -254.000
417.621;  -78.000;-1015.000; -803.000
417.746;   -2.625; -579.000; -572.000
417.872;   80.325; -254.000; -144.000
417.998;  131.125; -515.000; -530.000
418.123; 1567.800;-1073.000; -845.000
418.249; 8789.250; -512.000; -601.000
418.374; 1560.950; -916.000; -824.000
418.500;  247.100; -383.000; -482.000
418.626;  203.425;   70.000;  -59.000
418.751;  175.900; -549.000; -448.000
418.877;  321.350; -637.000; -643.000
419.002; 2581.725; -688.000; -560.000
419.128;19859.725; -930.000; -721.000
419.253; 5806.900; -967.000; -837.000
419.379;  788.350; -391.000; -338.000
419.504;  604.675;  325.000;  415.000
419.629;  853.825; -393.000; -212.000
419.755; 5305.075; -317.000; -254.000
419.880;35263.400;  -98.000;   67.000
420.006;17761.625; -280.000; -221.000
420.131;44442.875; -662.000; -775.000
420.256; 7346.875; -315.000; -316.000
420.382; 1025.250; -665.000; -687.000
420.507;  182.225; -649.000; -778.000
420.632;   62.875; -337.000; -339.000
420.758;   81.300; -251.000; -425.000
420.883; -100.750; -876.000; -672.000
421.008;  -99.850; -775.000; -619.000
421.133;  -75.300; -509.000; -467.000
421.259;  -52.375; -325.000; -259.000
421.384; -113.950; -834.000; -693.000
421.509; -111.425;-1052.000; -862.000
421.634;  210.425; -936.000; -820.000
421.759;  113.925; -359.000; -327.000
421.885;  -78.200; -717.000; -656.000
422.010;  -96.275; -673.000; -542.000
422.135; -151.500; -695.000; -727.000
422.260;   11.525;  340.000;  280.000
422.385;  -30.500;   12.000;  -98.000
422.510;    4.650;  151.000;  -26.000
422.635;  -19.700;  -87.000;  -43.000
422.760;  -21.375; -766.000; -791.000
422.885;   28.325;  -57.000;  -80.000
423.010;  -39.000; -112.000; -169.000
423.135;  -77.050; -481.000; -561.000
423.260;  -33.075; -150.000; -245.000
423.385;   33.275;  476.000;  222.000
423.510;    2.575;   71.000;  -22.000
423.635;   15.150;  133.000;   45.000
423.760;   52.650;  383.000;  328.000
423.885;   48.575;  336.000;  391.000
424.010;    6.450;  -68.000;  -13.000
424.135;   -6.175;    5.000;  -33.000
424.259;  -63.600; -654.000; -457.000
424.384;  -42.475; -279.000; -272.000
424.509;  -27.850; -260.000; -186.000
424.634;  -86.150; -761.000; -623.000
424.759;  -32.075; -688.000; -544.000
424.883;   19.000; -506.000; -527.000
425.008;  210.150; -502.000; -410.000
425.133; 2941.400; -679.000; -653.000
425.258; 1619.825; -517.000; -381.000
425.382;  511.250; -867.000; -774.000
425.507; 1151.250; -487.000; -543.000
425.632;  408.300; -802.000; -663.000
425.756;  689.775; -256.000; -146.000
425.881; 9878.600; -831.000; -857.000
426.006;30983.275; -604.000; -355.000
426.130; 5234.250; -696.000; -508.000
426.255;  736.350; -611.000; -491.000
426.379;  291.150; -189.000; -577.000
426.504;  522.850;  660.000;  544.000
426.629; 5909.525; -519.000; -466.000
426.753; 4723.675;   64.000;  -46.000
426.878;  592.300; -252.000; -288.000
427.002;  331.750; -651.000; -668.000
427.127; 2124.650;  -35.000; -158.000
427.251;17566.300;  372.000;  401.000
427.375; 5853.325; -191.000; -173.000
427.500; 1328.575; -616.000; -610.000
427.624;  434.375; -234.000; -400.000
427.749;   95.825; -216.000; -225.000
427.873;    7.200; -499.000; -412.000
427.997;  -41.900; -222.000; -230.000
428.122;   77.075;  795.000;  703.000
428.246;   48.425;  433.000;  434.000
428.371; -129.500; -869.000; -773.000
428.495; -103.150; -624.000; -646.000
428.619;  -33.675; -186.000; -117.000
428.743;    7.150;   65.000;  132.000
428.868;  -67.750; -732.000; -643.000
428.992;  480.425; -219.000; -326.000
429.116;  203.250; -329.000; -357.000
429.240;  125.025;  419.000;  426.000
429.365;  -27.100; -454.000; -574.000
429.489;  -53.100; -638.000; -647.000
429.613;   44.275; -236.000; -177.000
429.737;  105.200; -563.000; -432.000
429.861;  398.800; -247.000; -133.000
429.985; 8090.575; -425.000; -305.000
430.109;10459.250; -770.000; -908.000
430.234; 1305.200;   76.000;  -50.000
430.358;  175.800; -250.000; -160.000
430.482;  -33.975; -672.000; -564.000
430.606;  -52.450; -655.000; -375.000
430.730;  -44.850; -437.000; -388.000
430.854;  -45.975; -909.000; -835.000
430.978;  -76.600; -795.000; -764.000
431.102;  -68.625; -499.000; -422.000
431.226; -106.450; -874.000; -815.000
431.350;   38.825;  345.000;  422.000
431.474;  -86.925; -661.000; -373.000
431.597; -153.175;-1060.000; -848.000
431.721;  -78.375; -276.000; -267.000
431.845; -118.325; -704.000; -472.000
431.969;  -83.550; -304.000; -349.000
432.093;  -84.400; -395.000; -317.000
432.217;   -9.925;   32.000;   82.000
432.341;  -78.725; -523.000; -518.000
432.464;  -10.925;   96.000;   40.000
432.588;    0.275; -401.000; -329.000
432.712;   18.125;  -52.000;  -52.000
432.836;   67.525;  213.000;  263.000
432.959;   34.525; -372.000; -311.000
433.083;  172.650;   11.000;    2.000
433.207;  568.100;  285.000;  930.000
433.330; 7724.925; -391.000; -200.000
433.454;10838.175; -654.000; -638.000
433.578; 6000.725;  583.000;  278.000
433.701; 1335.075; -623.000; -675.000
433.825;  165.750; -292.000; -299.000
433.949;   45.250;   28.000;  -72.000
434.072;   -4.150; -410.000; -323.000
434.196;  -10.975; -309.000; -117.000
434.319; 3501.300;25482.000;25124.000
434.443;  884.975; -656.000; -603.000
434.566; 4168.825;  281.000;   62.000
434.690;  927.600; -637.000; -383.000
434.813;  178.100; -251.000; -173.000
434.937;  -38.925; -569.000; -696.000
435.060;  -63.250; -423.000; -332.000
435.184;   -2.800; -492.000; -217.000
435.307;   19.775;  159.000;  102.000
435.431;  -22.475;  -40.000;   24.000
435.554;  -81.025; -399.000; -240.000
435.677;  -84.225; -350.000; -258.000
435.801;  -41.500;  -25.000;   49.000
435.924;  -31.300;    1.000;  -67.000
436.048; -149.175;-1019.000; -732.000
436.171;  -76.900; -240.000;  -66.000
436.294;   -2.600; -248.000; -229.000
436.417;  235.225; -963.000; -849.000
436.541;  -16.400; -814.000; -840.000
436.664;  -48.600; -242.000; -316.000
436.787;  -21.000;   13.000;  113.000
436.910; -106.950; -792.000; -422.000
437.034;   -9.575;  142.000;  143.000
437.157;   17.800;  -11.000;    0.000
437.280;  -70.025; -392.000; -292.000
437.403; -136.425; -982.000; -869.000
437.526;   29.050; -903.000; -865.000
437.649;  561.925; -505.000; -332.000
437.772;   16.125; -692.000; -540.000
437.896;   54.475;  700.000;  544.000
438.019;  -92.925; -758.000; -503.000
438.142;  -93.750; -596.000; -506.000
438.265;  -98.550; -639.000; -670.000
438.388;   28.825; -520.000; -410.000
438.511;  -52.950; -597.000; -394.000
438.634;  -64.000; -247.000; -125.000
438.757; -142.275; -693.000; -619.000
438.880;  -44.325;  -34.000;  -57.000
439.003;  -77.675; -417.000; -437.000
439.126;  -73.075; -287.000; -167.000
439.248;  -45.425;  -98.000; -139.000
439.371;  -55.375;    9.000;  -53.000
439.494;   12.700;  510.000;  439.000
439.617;  -53.775;   65.000;  -88.000
439.740; -173.250; -968.000; -816.000
439.863; -143.875; -755.000; -595.000
439.986; -100.900; -476.000; -431.000
440.108;  -54.575; -161.000; -112.000
440.231; -159.775; -950.000; -836.000
440.354;  -60.325;  -64.000; -150.000
440.477; -105.425; -566.000; -542.000
440.599;  -99.350; -200.000; -225.000
440.722; -121.425; -709.000; -586.000
440.845;   53.300;  751.000;  928.000
440.968; -106.800; -415.000; -311.000
441.090;  -70.475; -199.000;  -33.000
441.213; -155.625;-1021.000; -825.000
441.336;  -56.375; -159.000;   -5.000
441.458;  -86.675; -549.000; -396.000
441.581; -115.150; -628.000; -629.000
441.703;  -77.200; -152.000;   13.000
441.826; -114.325; -557.000; -400.000
441.948;  -42.525;   56.000;   51.000
442.071;   27.425;  555.000;  424.000
442.193; -115.750; -531.000; -485.000
442.316;   -5.425;  152.000;   97.000
442.438;   77.550; -233.000;  -10.000
442.561;   62.450;  272.000;  262.000
442.683;   55.800; -809.000; -522.000
442.806;  297.550;   -8.000;   74.000
442.928; -104.525; -859.000; -604.000
443.051;  -96.200; -577.000; -373.000
443.173;  -74.825; -341.000; -339.000
443.295;  -90.900; -263.000; -371.000
443.418;  -82.325; -321.000;  -29.000
443.540;  -41.650; -106.000;   -4.000
443.662; -120.125; -563.000; -465.000
443.785;  -13.375;  335.000;  199.000
443.907; -102.250; -362.000; -208.000
444.029; -117.750; -767.000; -494.000
444.152; -124.425; -644.000; -554.000
444.274;  -43.600;  -18.000;  -24.000
444.396; -120.500; -461.000; -221.000
444.518; -138.275; -691.000; -454.000
444.640;  -89.900; -268.000; -111.000
444.763;  -29.900;  388.000;  249.000
444.885; -103.400; -432.000; -392.000
445.007;  -32.575;   35.000;   86.000
445.129; -116.300; -610.000; -515.000
445.251; -112.225; -372.000; -439.000
445.373; -145.500; -537.000; -386.000
445.495;  -16.725;  242.000;  350.000
445.617;   27.850;  853.000;  753.000
445.739;  -70.425; -215.000;  -97.000
445.861;  -67.500; -245.000; -112.000
445.984;  -69.650; -267.000; -101.000
446.105;  -10.900; -418.000; -251.000
446.227;  120.650; -176.000;  -19.000
446.349;  -57.350; -358.000; -249.000
446.471; -112.375; -615.000; -448.000
446.593;  -75.825; -316.000;   19.000
446.715;  -42.900;  -67.000;   41.000
446.837;   38.575;  697.000;  832.000
446.959; -118.025; -457.000; -478.000
447.081; -130.325; -628.000; -518.000
447.203;   45.025;  862.000;  834.000
447.325;  -94.475; -270.000;   42.000
447.446;    3.125;  286.000;  530.000
447.568; -152.500; -921.000; -803.000
447.690;  -95.400; -236.000; -245.000
447.812; -131.475; -798.000; -519.000
447.933;  -29.050;  155.000;  127.000
448.055;  -67.650; -306.000; -261.000
448.177;   24.950;   31.000;   79.000
448.299;  -90.950; -935.000; -727.000
448.420;  -14.700;  -25.000;  159.000
448.542;  -46.900;   -3.000;   33.000
448.664;  -17.375;  109.000;  322.000
448.785;  -46.700;  265.000;   83.000
448.907; -107.275; -614.000; -353.000
449.028; -103.775; -771.000; -471.000
449.150;   36.350;  492.000;  589.000
449.272; -185.250;-1044.000; -913.000
449.393;   27.825;  612.000;  694.000
449.515; -144.675; -634.000; -581.000
449.636;  -75.225; -264.000; -155.000
449.758;   52.750;  763.000;  622.000
449.879;  -84.025; -498.000; -396.000
450.001;  -62.475; -149.000;  -49.000
450.122;  -22.475;  -95.000;  162.000
450.244;    4.200;   37.000;  364.000
450.365;  -66.800; -495.000; -301.000
450.486;  -10.925;   80.000;  268.000
450.608;   53.575;  393.000;  326.000
450.729;  116.925;  578.000;  645.000
450.850;   92.500; -574.000; -466.000
450.972; 1213.675; -552.000; -389.000
451.093; 8018.825;  190.000;  588.000
451.214; 4228.475; -516.000; -337.000
451.336;  735.800;  773.000;  579.000
451.457;  119.975;  264.000;  393.000
451.578;  -12.350; -118.000;  -74.000
451.699;  -96.325; -546.000; -540.000
451.821;  -59.225; -284.000;  -50.000
451.942;    7.150;  278.000;  285.000
452.063;   57.875;  228.000;  419.000
452.184;  835.500;  -54.000;  -49.000
452.305; 1809.100;  103.000;  170.000
452.427;  357.900; -549.000; -301.000
452.548;   22.275;   23.000;   79.000
452.669;  -67.475; -257.000;  -89.000
452.790;  -47.050;    3.000;  -18.000
452.911;  -12.550;  195.000;  259.000
453.032;  -78.650; -289.000;  -60.000
453.153;  -57.475;  -29.000;   81.000
453.274;   40.800;  737.000;  868.000
453.395;  -63.950;  -51.000;  175.000
453.516;   96.200; 1317.000; 1388.000
453.637; -104.325; -205.000; -150.000
453.758;  -62.025;   15.000;   69.000
453.879; -113.200; -462.000; -250.000
454.000;   70.400; 1086.000;  948.000
454.121; -119.825; -554.000; -326.000
454.242; -106.950; -599.000; -383.000
454.362;  -44.100;  -99.000;  114.000
454.483;  -19.625; -309.000; -229.000
454.604;   79.725;  512.000;  580.000
454.725; -118.525; -627.000; -555.000
454.846; -113.900; -474.000; -406.000
454.967;  -30.425;  230.000;  539.000
455.087;  -38.250;  179.000;  153.000
455.208;   15.000;  554.000;  856.000
455.329;  -48.150;  -22.000;   82.000
455.450;   57.375;  473.000;  633.000
455.570;  -54.100; -234.000; -211.000
455.691;  -34.550;  201.000;  407.000
455.812; -101.350; -270.000;  -92.000
455.932;  -58.225;  107.000;  -97.000
456.053;  -69.625;   36.000;   24.000
456.173; -102.000; -433.000; -355.000
456.294; -117.900; -476.000; -303.000
456.415;  -60.950;  -73.000;   70.000
456.535;  -27.825;  297.000;  273.000
456.656;  -55.750;  132.000;  240.000
456.776;  -59.175;    3.000;  298.000
456.897;   -7.225;  308.000;  513.000
457.017;  -65.025; -153.000;   -3.000
457.138; -102.775; -402.000; -249.000
457.258;  -38.400;  263.000;  224.000
457.379;   -6.450;  509.000;  521.000
457.499;  -25.850;  443.000;  432.000
457.620; -113.425; -407.000; -231.000
457.740;  -76.600; -132.000;  -11.000
457.860;  -47.775;   87.000;   44.000
457.981;  -40.700;  132.000;  124.000
458.101;  -59.400;  -89.000;   40.000
458.221;  -18.975;  336.000;  402.000
458.342;  -55.225;   -4.000;  -37.000
458.462;   64.850;  617.000;  352.000
458.582;   21.700; -302.000; -294.000
458.703;   61.600;  303.000;  154.000
458.823;   16.475;   22.000;  163.000
458.943;   64.000;  341.000;  467.000
459.063;   17.300; 1124.000;  192.000
459.183;   -8.550;  328.000;  313.000
459.304;   21.525;  315.000;  517.000
459.424;  -33.600; -246.000;  -89.000
459.544;  481.625;  388.000;  764.000
459.664; 1345.300;  499.000;  506.000
459.784;  533.925; 1004.000; 1175.000
459.904;   95.850;  867.000;  744.000
460.024;   50.650;  867.000;  684.000
460.144;  -19.350;  449.000;  554.000
460.264;   -1.700;  515.000;  327.000
460.385;  -91.925; -145.000; -119.000
460.505;   31.600;  905.000;  858.000
460.625;  -64.400;  -17.000;  -68.000
460.745;  -18.925;  396.000;  541.000
460.864;  -32.875;  153.000;  469.000
460.984;   42.500;  499.000;  573.000
461.104;  137.925; 1656.000; 1775.000
461.224;    5.750;  657.000;  650.000
461.344;  -29.850;  431.000;  360.000
461.464;  -44.950;  258.000;  513.000
461.584;  -24.775;  283.000;  466.000
461.704;  -64.325;   58.000;  108.000
461.824;  -48.250;  238.000;  259.000
461.943;  -51.300;  191.000;  130.000
462.063;  -79.225;    2.000;  324.000
462.183;   17.800;  639.000;  717.000
462.303;   88.900; 1678.000; 1230.000
462.422;   19.800;  781.000;  840.000
462.542;  -30.250;  271.000;  391.000
462.662;   32.625;  353.000;  380.000
462.782;  359.550;  833.000;  572.000
462.901;  749.525;  545.000;  717.000
463.021;  426.750; 1702.000; 1638.000
463.141;    2.175;  337.000;  770.000
463.260;   -6.775;  614.000;  474.000
463.380;   35.125;  902.000;  884.000
463.499;  -33.300;  342.000;  332.000
463.619;  -29.225;  581.000;  559.000
463.738;  103.075; 1644.000;  903.000
463.858;   11.200;  657.000;  811.000
463.978;  -36.825;  542.000;  396.000
464.097;   48.950;  921.000; 1114.000
464.217;  153.600; 1196.000; 1143.000
464.336;  155.850; 1068.000; 1130.000
464.455;  -17.675;  328.000;  659.000
464.575;    9.800;  597.000;  602.000
464.694;  125.875; 1204.000; 1179.000
464.814;  158.175; 1190.000; 1138.000
464.933;   96.625; 1095.000; 1027.000
465.052;   89.700; 1412.000; 1054.000
465.172;   74.125;  922.000;  799.000
465.291;  115.100; 1376.000; 1320.000
465.410;   12.125;  462.000;  735.000
465.530;   68.450; 1355.000; 1310.000
465.649;   64.050; 1209.000; 1273.000
465.768;  150.750; 1673.000; 1508.000
465.888;   70.675;  941.000; 1174.000
466.007;   77.700; 1335.000; 1440.000
466.126;   10.250;  721.000;  641.000
466.245;   42.175; 1176.000; 1187.000
466.364;   23.325;  950.000; 1060.000
466.484;   45.425; 1024.000; 1213.000
466.603;   36.575; 1101.000; 1222.000
466.722;   86.350; 1490.000; 1769.000
466.841;   57.525; 1151.000; 1401.000
466.960;   48.100; 1069.000;  972.000
467.079;  112.850; 1971.000; 1786.000
467.198;   45.225; 1238.000; 1181.000
467.317;   88.150; 1768.000; 1162.000
467.436;   61.975; 1709.000; 1261.000
467.555;  123.500; 1796.000; 1746.000
467.674;   61.000; 1227.000; 1329.000
467.793;   39.375; 1376.000; 1374.000
467.912;   71.850; 1658.000; 1539.000
468.031;  129.850; 2038.000; 1930.000
468.150;  141.000; 1842.000; 1837.000
468.269;  182.025; 2313.000; 2090.000
468.388;  179.400; 2168.000; 2339.000
468.507;  262.600; 2884.000; 2903.000
468.626;  233.625; 2555.000; 2541.000
468.744;  154.925; 2018.000; 2174.000
468.863;  199.975; 2312.000; 2523.000
468.982;  116.550; 1503.000; 1555.000
469.101;  207.200; 2788.000; 2692.000
469.220;  150.475; 2333.000; 2176.000
469.338;  246.450; 2935.000; 3051.000
469.457;  201.175; 2719.000; 2545.000
469.576;  333.800; 3953.000; 3784.000
469.695;  229.225; 2877.000; 3066.000
469.813;  418.325; 4148.000; 4192.000
469.932;  416.175; 4255.000; 4485.000
470.051;  445.050; 4075.000; 4161.000
470.169; 1047.400; 4470.000; 4338.000
470.288; 2061.075; 4700.000; 4809.000
470.406; 1199.425; 5059.000; 5194.000
470.525;  692.275; 6101.000; 5787.000
470.644;  663.725; 6847.000; 6794.000
470.762;  814.700; 8397.000; 7873.000
470.881;  918.050; 8651.000; 8464.000
470.999; 1089.025; 9685.000; 9151.000
471.118; 1126.375;11174.000;10711.000

