
Integration time [ms]: 100.000
Averaging Nr. [scans]: 40
Smoothing Nr. [pixels]: 0
Data measured with spectrometer [name]: 2101012U2
Wave   ;Sample   ;Dark     ;Reference
[nm]   ;[counts] ;[counts] ;[counts] 

197.733;   56.775;  516.000;  404.000
197.879;  -78.250; -610.000; -634.000
198.025;  -44.150; -475.000; -420.000
198.171;  -67.575; -602.000; -612.000
198.317;  -28.225; -401.000; -316.000
198.463;  -66.675; -655.000; -404.000
198.609;   33.975;  181.000; -137.000
198.755;  -75.375; -644.000; -410.000
198.901;  -66.150; -505.000; -424.000
199.047;  -86.750; -615.000; -488.000
199.193;  -27.900; -230.000; -468.000
199.339;  -46.825; -222.000; -369.000
199.485;   49.875;  330.000;  271.000
199.631;    7.850;  227.000;  310.000
199.777;  -49.875; -466.000; -398.000
199.923;  -63.725; -610.000; -424.000
200.069;    5.425; -141.000;  -58.000
200.215;   43.100;  128.000;  453.000
200.361;   55.650;  243.000;  477.000
200.507;  -68.150; -600.000; -373.000
200.653;  -10.575; -371.000; -194.000
200.798;  -39.750; -215.000; -125.000
200.944;    3.900; -146.000;  -41.000
201.090;   35.275;   61.000;  222.000
201.236;    4.625; -116.000; -158.000
201.382;  121.525;  874.000;  903.000
201.528;   14.275;  -58.000;  -48.000
201.674;  -76.350; -386.000; -293.000
201.819;  -67.150; -540.000; -439.000
201.965;  -92.425; -699.000; -447.000
202.111;  -22.275; -273.000; -226.000
202.257;  -42.450; -250.000; -238.000
202.402;   19.425;   13.000;  -36.000
202.548;  -30.750; -169.000; -116.000
202.694;   73.425;  410.000; -183.000
202.840;  -84.725; -603.000; -531.000
202.985;  -58.900; -681.000; -639.000
203.131; -105.475; -832.000; -666.000
203.277;  -31.775; -199.000; -262.000
203.423;  -55.100; -434.000; -520.000
203.568;  -39.425; -462.000; -237.000
203.714;  -57.550; -535.000; -542.000
203.860;  -80.075; -682.000; -641.000
204.005;   18.275;  112.000;  167.000
204.151;   77.900;  561.000;  556.000
204.296;  -71.375; -354.000; -221.000
204.442;  -56.925; -600.000; -547.000
204.588;  -81.600; -592.000; -579.000
204.733;   10.800;  178.000;  168.000
204.879; -127.550;-1018.000; -822.000
205.025;   16.775;  -99.000;  126.000
205.170;  -11.275;  -17.000;   94.000
205.316;   81.075;  438.000;  661.000
205.461;  -91.875; -698.000; -554.000
205.607;   78.400;  609.000;  665.000
205.752;  -75.000; -626.000; -551.000
205.898;  -44.425; -501.000; -391.000
206.043;  -64.975; -578.000; -506.000
206.189;  -39.750; -243.000; -285.000
206.334;   74.325;  554.000;  606.000
206.480;   80.300;  409.000;  239.000
206.625;  -88.475; -529.000; -552.000
206.771;  -40.500; -451.000; -373.000
206.916;  -43.150; -210.000; -537.000
207.062;  -72.025; -545.000; -591.000
207.207;  -58.225; -546.000; -443.000
207.353;   56.950;  185.000;  460.000
207.498;    3.175;  196.000;   85.000
207.643;  -35.500; -501.000; -370.000
207.789; -133.775;-1069.000; -910.000
207.934;  -91.925; -665.000; -713.000
208.080;  -22.600; -154.000;   66.000
208.225;    3.075;  -22.000;  -57.000
208.370;  -95.000; -727.000; -619.000
208.516;  -72.625; -741.000; -487.000
208.661;  -38.625; -127.000;  -69.000
208.806;  -14.475; -165.000; -171.000
208.952; -115.550;-1044.000; -731.000
209.097;   71.600;  378.000;  349.000
209.242;  -51.050; -307.000; -382.000
209.387;   62.700;  392.000;  350.000
209.533;  -65.425; -321.000; -350.000
209.678;   77.575;  472.000;  543.000
209.823;  -51.700; -408.000; -310.000
209.969;  -90.625; -860.000; -757.000
210.114; -104.975; -907.000; -719.000
210.259; -117.750; -939.000; -889.000
210.404;   -6.350; -171.000;  103.000
210.549;   12.000;  108.000;    3.000
210.695;  -22.875;   -3.000;  -95.000
210.840;   25.275;   94.000;   67.000
210.985;  -68.300; -484.000; -303.000
211.130;   67.450;  268.000;  406.000
211.275;    5.875;  207.000;  199.000
211.420;  -41.700; -300.000; -289.000
211.566;  -80.750; -536.000; -489.000
211.711;   28.825;  218.000;  157.000
211.856;  -70.975; -545.000; -519.000
212.001;    6.025;  151.000;   44.000
212.146;   22.200;  153.000;   49.000
212.291;  -10.625; -210.000; -186.000
212.436;  -36.450; -280.000;   -6.000
212.581;  -69.750; -685.000; -653.000
212.726;  -71.700; -487.000; -538.000
212.871;  -50.825; -552.000; -217.000
213.016; -139.375;-1172.000;-1029.000
213.161;   65.600;  406.000;  291.000
213.306;  -67.625; -435.000; -577.000
213.451;  -79.200; -778.000; -689.000
213.596;  -53.850; -455.000; -347.000
213.741;  -48.475; -448.000; -538.000
213.886;  -82.850; -498.000; -517.000
214.031;  -14.525; -294.000; -124.000
214.176;  -59.775; -408.000; -341.000
214.321;  -23.525; -296.000; -157.000
214.466;  -29.125; -163.000;  -43.000
214.611;   -5.850;  -61.000;  -10.000
214.756; -130.375; -948.000; -858.000
214.901;  -30.800; -388.000; -226.000
215.046; -124.950; -797.000; -825.000
215.191;   21.375;  128.000;   35.000
215.336;  -26.750; -157.000;  -19.000
215.480;  -59.200; -684.000; -505.000
215.625;  -16.950; -175.000;  -19.000
215.770;  -79.700; -757.000; -662.000
215.915;  -27.400;   -5.000;  -97.000
216.060;  -17.875; -113.000;  -21.000
216.205; -106.700; -731.000; -779.000
216.349;  -62.700; -470.000; -533.000
216.494; -131.625; -939.000; -867.000
216.639; -114.675; -823.000; -888.000
216.784;  -98.125; -577.000; -525.000
216.929;   63.350;  392.000;  281.000
217.073;  -24.975; -244.000;  -31.000
217.218;   13.875;   78.000;  -47.000
217.363;  -95.825; -656.000; -618.000
217.507;  -64.775; -623.000; -588.000
217.652; -119.825; -845.000; -874.000
217.797;  -86.725; -708.000; -659.000
217.942; -116.975; -856.000; -720.000
218.086;   84.675;  608.000;  539.000
218.231;  -22.025; -174.000;  -26.000
218.376;   -7.750; -337.000; -229.000
218.520;   12.375;  -41.000;   96.000
218.665;  -10.150; -338.000; -204.000
218.810;  -39.800; -275.000; -233.000
218.954;   14.300;  201.000;   35.000
219.099; -108.825; -713.000; -963.000
219.243;  -58.275; -589.000; -554.000
219.388;  -22.275; -264.000; -136.000
219.532;   -0.950; -116.000; -116.000
219.677;  -82.125; -564.000; -521.000
219.822;   16.475;   33.000;   89.000
219.966;    4.300;   17.000;  -99.000
220.111;  -22.225; -328.000;  -40.000
220.255;  -85.775; -797.000; -750.000
220.400;  -14.050; -180.000; -146.000
220.544;  -76.700; -516.000; -450.000
220.689;  -49.850; -422.000; -451.000
220.833;  -19.225; -123.000;  -58.000
220.978;  -35.250; -393.000; -563.000
221.122;   19.025;  319.000;  307.000
221.267; -118.650; -906.000; -837.000
221.411;  -75.275; -478.000; -394.000
221.555;   -3.375; -104.000;  -23.000
221.700;  -64.875; -329.000; -222.000
221.844;   21.825;  255.000;  272.000
221.989;  -49.925; -328.000; -311.000
222.133;  -26.375; -289.000; -307.000
222.277;  -10.100;    5.000;   78.000
222.422;   27.175;  227.000;  113.000
222.566;  -40.700; -381.000; -214.000
222.711;  -44.125; -414.000; -479.000
222.855;  -87.225; -643.000; -586.000
222.999;  -68.850; -642.000; -717.000
223.144;  -46.425; -195.000; -194.000
223.288;   53.650;  423.000;  251.000
223.432;   22.875;  184.000;  230.000
223.576;   29.700;  152.000;  -21.000
223.721;   36.300;  364.000;  273.000
223.865;  -49.375; -472.000; -475.000
224.009;  210.700; 1673.000; 1631.000
224.153;  -78.400; -660.000; -671.000
224.298;  -79.550; -531.000; -489.000
224.442;  -11.975;  -74.000;  -33.000
224.586;  -15.650; -169.000; -106.000
224.730;  -87.150; -858.000; -670.000
224.875; -116.800; -739.000; -688.000
225.019;   19.750;  102.000;  188.000
225.163;   45.375;  208.000;  341.000
225.307;   19.850;   97.000;  -91.000
225.451;   35.900;  360.000;  481.000
225.595;   39.400;  264.000;  176.000
225.739;  -17.950; -170.000;  -94.000
225.884;    8.075;   86.000;    5.000
226.028; -108.475; -760.000; -626.000
226.172;  -25.050; -260.000; -273.000
226.316; -125.275; -941.000; -902.000
226.460;  -52.475; -645.000; -493.000
226.604;  -53.200; -406.000; -400.000
226.748;  -76.275; -836.000; -733.000
226.892;  -34.525; -227.000; -181.000
227.036;  -42.800; -537.000; -447.000
227.180;  -55.725; -551.000; -375.000
227.324;  -58.950; -561.000; -580.000
227.468; -116.700; -819.000; -717.000
227.612;   15.125;  242.000;  -28.000
227.756; -100.875; -845.000; -698.000
227.900;   47.350;  342.000;  441.000
228.044;  -55.950; -509.000; -290.000
228.188;   65.600;  448.000;  568.000
228.332;  -95.550; -546.000; -472.000
228.476;  -29.000; -223.000; -149.000
228.620;  -44.175; -210.000; -150.000
228.764;   62.025;  431.000;  349.000
228.908;  -24.525; -155.000;   30.000
229.052;  -62.225; -615.000; -528.000
229.195;  -29.300; -172.000;   13.000
229.339;  -24.350; -235.000; -305.000
229.483;  -44.325;    5.000; -162.000
229.627;   -1.800; -156.000;  139.000
229.771;  -55.125; -218.000; -294.000
229.915;   10.900;  230.000;   79.000
230.059;  -98.875; -648.000; -663.000
230.202;  -30.450; -370.000; -317.000
230.346;  -28.125; -107.000;  107.000
230.490;  -46.525; -489.000; -521.000
230.634; -116.525; -736.000; -553.000
230.777;   85.600;  478.000;  509.000
230.921;  -76.900; -450.000; -359.000
231.065;  -47.450; -246.000; -286.000
231.209;   25.400;  261.000;  265.000
231.352;   24.775;   54.000;   40.000
231.496;   14.675;  568.000;  188.000
231.640;  -73.250; -693.000; -621.000
231.783;   58.550;  546.000;  525.000
231.927;  -38.625; -294.000; -365.000
232.071; -115.100; -962.000; -736.000
232.214; -109.200; -980.000; -764.000
232.358;  -96.850; -683.000; -599.000
232.502;   16.875;  -19.000;    7.000
232.645; -142.275;-1090.000; -927.000
232.789;  -25.000; -257.000; -218.000
232.933;  -52.700; -407.000; -224.000
233.076; -121.825;-1038.000; -897.000
233.220; -109.300; -752.000; -777.000
233.363;  -73.425; -669.000; -477.000
233.507;   42.050;  371.000;  129.000
233.650;  -81.300; -764.000; -834.000
233.794;   37.250;  438.000;  461.000
233.938;  -47.825; -530.000; -362.000
234.081;  -29.050;  -93.000;   31.000
234.225;  -61.475; -631.000; -539.000
234.368; -118.625; -773.000; -723.000
234.512;  -32.925; -385.000; -299.000
234.655;  -89.400; -582.000; -555.000
234.798;  -70.350; -493.000; -466.000
234.942; -137.350; -884.000;-1002.000
235.085;  -57.150; -651.000; -443.000
235.229;  -73.975; -405.000; -410.000
235.372;  -33.750; -247.000; -191.000
235.516;  -78.250; -397.000; -321.000
235.659;   29.725;   92.000;  121.000
235.802;  -26.850;  -38.000;  -22.000
235.946;   31.900;  335.000;  215.000
236.089;   13.100;  126.000;  250.000
236.233;   50.500;  275.000;  298.000
236.376;  -41.975; -235.000; -378.000
236.519;  -49.775; -297.000; -319.000
236.663;  -15.800; -215.000; -117.000
236.806; -119.700;-1029.000; -999.000
236.949;   35.300;  543.000;  431.000
237.092;   58.525;  412.000;  391.000
237.236;  -80.125; -589.000; -502.000
237.379;   61.825;  352.000;  428.000
237.522; -119.575; -879.000; -768.000
237.666;  -24.975; -271.000;   18.000
237.809; -112.250; -851.000; -823.000
237.952;   43.875;  469.000;  271.000
238.095;  -68.300; -447.000; -442.000
238.238;   86.200;  688.000;  700.000
238.382;  -10.050;  166.000;  103.000
238.525;  -71.150; -598.000; -511.000
238.668; -147.125;-1060.000; -985.000
238.811;  -68.850; -638.000; -643.000
238.954;  -71.075; -483.000; -334.000
239.097;   81.050;  617.000;  664.000
239.241;   13.150;  394.000;  326.000
239.384;  -46.200; -254.000; -214.000
239.527;  -66.550; -424.000; -224.000
239.670; -138.075; -994.000;-1091.000
239.813; -118.275; -696.000; -658.000
239.956;   79.425;  579.000;  473.000
240.099; -112.650; -778.000; -725.000
240.242;   68.025;  428.000;  432.000
240.385;   23.250;  466.000;  450.000
240.528;  -68.075; -706.000; -473.000
240.671;    3.025;  189.000;  134.000
240.814;  -36.900; -441.000; -158.000
240.957; -101.050; -767.000; -578.000
241.100;  -79.350; -779.000; -755.000
241.243; -141.900;-1234.000; -893.000
241.386;  -68.200; -508.000; -379.000
241.529; -100.500; -735.000; -547.000
241.672;  -61.050; -566.000; -495.000
241.815; -121.450; -832.000; -808.000
241.958;  -19.000; -125.000; -182.000
242.101;  -80.650; -545.000; -390.000
242.244;  -38.175; -270.000; -325.000
242.387;  -48.925; -304.000; -246.000
242.530;   52.275;  470.000;  134.000
242.673;  -46.175; -381.000; -309.000
242.815; -100.975; -925.000; -899.000
242.958;  -80.350; -482.000; -381.000
243.101;   14.875;  132.000;  187.000
243.244;  -82.300; -564.000; -521.000
243.387;  -45.800; -313.000; -316.000
243.530;  -88.750; -657.000; -674.000
243.672;    9.725;   43.000;  -92.000
243.815;  -60.225; -355.000; -283.000
243.958;    4.100;   98.000;  -26.000
244.101;   -1.750;   59.000;  -16.000
244.243;   -8.075;  -47.000;  101.000
244.386; -113.875; -761.000; -630.000
244.529;  -24.950; -132.000; -139.000
244.672; -158.875;-1154.000; -951.000
244.814;  -80.750; -621.000; -794.000
244.957;  -47.125; -380.000; -304.000
245.100;  -72.500; -489.000; -489.000
245.242;  -60.525; -387.000; -374.000
245.385;  -13.075;  -59.000;  -39.000
245.528; -127.600; -871.000; -705.000
245.670;   83.625;  612.000;  634.000
245.813;  -91.525; -599.000; -547.000
245.956;  -34.250; -324.000; -275.000
246.098;  -71.100; -508.000; -650.000
246.241;    7.450;  194.000;   48.000
246.383;  -11.400; -119.000;  -73.000
246.526;  -72.200; -454.000; -525.000
246.669; -126.000; -889.000; -780.000
246.811;    6.875;  172.000;   -1.000
246.954;  -73.350; -512.000; -426.000
247.096;  -13.150;  -84.000;   -6.000
247.239;  -64.250; -482.000; -445.000
247.381;  -63.600; -647.000; -488.000
247.524;   73.150;  645.000;  679.000
247.666;   -4.550;   58.000;   11.000
247.809; -118.725; -887.000; -691.000
247.951;  -20.625;  -75.000;  138.000
248.094;   27.150;  432.000;  308.000
248.236; -156.975;-1262.000;-1238.000
248.378;    8.700; -356.000;  -81.000
248.521;  -17.150; -334.000; -337.000
248.663;  -36.875; -236.000; -267.000
248.806;  -18.650; -300.000; -266.000
248.948;  -96.175; -886.000; -763.000
249.090;  -48.550; -428.000; -398.000
249.233;  -54.350; -344.000; -381.000
249.375;  -52.475; -474.000; -451.000
249.518;  -28.325;  -83.000; -133.000
249.660;    4.400; -103.000;    3.000
249.802; -166.175;-1303.000;-1189.000
249.945;  -68.825; -612.000; -540.000
250.087; -117.275; -834.000; -768.000
250.229;  -47.100; -362.000; -480.000
250.371;  -80.850; -494.000; -439.000
250.514;  -60.250; -310.000; -244.000
250.656;  -57.225;   69.000;  102.000
250.798; -110.000; -849.000; -800.000
250.940;  -63.300; -322.000; -322.000
251.083;  -33.675; -335.000; -111.000
251.225;   35.025;  338.000;  310.000
251.367;  -33.550; -274.000; -373.000
251.509;  -41.600; -265.000; -210.000
251.651;  -88.650; -731.000; -671.000
251.794;   51.825;  538.000;  632.000
251.936;  -98.950; -821.000; -747.000
252.078;  -84.600; -540.000; -461.000
252.220;  -56.475; -645.000; -477.000
252.362;   85.475;  344.000;  462.000
252.504;  -76.450; -677.000; -584.000
252.646; -101.650; -875.000; -722.000
252.788;    4.500;   14.000; -128.000
252.931;  -36.225; -257.000; -253.000
253.073;  -15.700; -376.000; -317.000
253.215;  -11.850;  141.000;  122.000
253.357;   -4.125;   82.000; -153.000
253.499;  -58.400; -374.000; -234.000
253.641;  -76.675; -749.000; -594.000
253.783;  -92.900; -609.000; -527.000
253.925;  -77.050; -586.000; -591.000
254.067; -114.175; -744.000; -667.000
254.209;  -22.300; -391.000; -259.000
254.351; -131.500; -865.000; -883.000
254.493;  -73.100; -441.000; -417.000
254.635; -127.650; -936.000; -818.000
254.777;  -80.025; -752.000; -687.000
254.918;  -65.900; -512.000; -430.000
255.060;  -43.850; -551.000; -395.000
255.202;  -61.225; -473.000; -261.000
255.344;  -79.550; -658.000; -455.000
255.486;  -65.800; -471.000; -406.000
255.628;  -92.650; -780.000; -781.000
255.770; -107.750; -676.000; -536.000
255.912;  -62.725; -559.000; -468.000
256.053;  -93.800; -730.000; -508.000
256.195;  159.850; 1008.000;  903.000
256.337; -100.425; -861.000; -595.000
256.479;   62.650;  532.000;  416.000
256.621;  -55.225; -394.000; -212.000
256.762;  -92.325; -789.000; -742.000
256.904;   57.800;  485.000;  487.000
257.046;  -37.000; -381.000; -271.000
257.188;  -50.225; -351.000; -264.000
257.329;  -76.800; -525.000; -464.000
257.471; -114.125; -939.000; -807.000
257.613;  -60.625; -584.000; -498.000
257.755; -157.725;-1073.000; -982.000
257.896;   34.275;  286.000;  392.000
258.038;  -80.075; -403.000; -352.000
258.180;  -40.600; -354.000; -279.000
258.321;  -87.925; -581.000; -457.000
258.463;  -19.450;  -71.000;  133.000
258.605;  -97.875; -562.000; -570.000
258.746;  -92.825; -886.000; -772.000
258.888; -152.375;-1026.000;-1020.000
259.029;   15.575;  121.000;   -8.000
259.171;  -96.825; -614.000; -550.000
259.313;    6.200;  -49.000;  -47.000
259.454;  -70.825; -536.000; -414.000
259.596;  -53.700; -483.000; -390.000
259.737;  -83.650; -590.000; -474.000
259.879;   34.250;  217.000;  311.000
260.020;   82.575;  901.000;  636.000
260.162;  -27.625; -146.000; -253.000
260.303; -112.625; -768.000; -687.000
260.445;  -73.900; -609.000; -613.000
260.586;   17.900;  392.000;  157.000
260.728;  -54.950; -360.000; -248.000
260.869;  -69.000; -350.000; -343.000
261.011;   76.400;  706.000;  537.000
261.152;  -63.425; -479.000; -319.000
261.293;  -78.975; -576.000; -595.000
261.435;  -30.275; -219.000; -184.000
261.576;  -32.875; -455.000; -325.000
261.718;   40.850;  420.000;  470.000
261.859; -121.150; -940.000; -949.000
262.000; -123.300; -951.000;-1016.000
262.142;  -15.450;  -52.000;  -60.000
262.283; -122.125; -808.000; -691.000
262.424;  -83.475; -666.000; -625.000
262.566; -148.025;-1161.000; -983.000
262.707;  -99.475; -840.000; -830.000
262.848; -130.875; -769.000; -726.000
262.990;  -35.925; -362.000; -345.000
263.131;   67.850;  650.000;  681.000
263.272;   -5.425;  -61.000;  -41.000
263.413;  -91.800; -589.000; -561.000
263.555;  -55.175; -669.000; -143.000
263.696;  -81.850; -550.000; -641.000
263.837;  -48.975; -449.000; -551.000
263.978;  -13.625;   -5.000;  -77.000
264.119;  -38.450; -283.000; -264.000
264.261; -107.250; -847.000; -630.000
264.402;    7.025;   33.000;   40.000
264.543;  -78.250; -509.000; -524.000
264.684;   -8.550;   61.000;  -50.000
264.825;  -80.350; -816.000; -538.000
264.966;   13.775;  -84.000;  -67.000
265.107; -127.550; -646.000; -670.000
265.248; -118.050; -825.000; -812.000
265.390;  -22.350;  152.000;   -9.000
265.531;  -22.375; -238.000; -107.000
265.672;  -87.250; -557.000; -630.000
265.813;   73.300;  563.000;  439.000
265.954; -145.875; -959.000; -940.000
266.095;    0.650; -372.000; -322.000
266.236; -105.850; -686.000; -548.000
266.377;  -37.150; -243.000; -297.000
266.518;  -92.000; -619.000; -547.000
266.659;   22.625;  170.000;  268.000
266.800;    7.150;   83.000;   85.000
266.941;  -75.275; -487.000; -478.000
267.082;    8.675;  354.000;   99.000
267.223;  -45.100; -344.000; -273.000
267.364; -116.850; -892.000; -686.000
267.504;  -21.250;    3.000;  135.000
267.645;    4.925;  160.000;   67.000
267.786;  -25.050; -147.000;  -86.000
267.927;  -67.200; -473.000; -379.000
268.068;   -6.975; -186.000;  -61.000
268.209;  -47.825; -175.000; -413.000
268.350;  -51.000; -388.000; -532.000
268.490;  -86.000; -648.000; -521.000
268.631;   43.575;  127.000;  225.000
268.772; -116.175; -874.000; -647.000
268.913;  -40.900; -328.000; -476.000
269.054;  -12.175; -117.000;   12.000
269.194;  -37.100; -418.000; -402.000
269.335; -159.825;-1137.000;-1074.000
269.476;  -15.825;   33.000;  -35.000
269.617;  -58.125; -347.000; -392.000
269.757;  -76.525; -713.000; -646.000
269.898; -108.975; -856.000; -613.000
270.039;  -48.075; -415.000; -405.000
270.180; -133.175; -952.000; -816.000
270.320;  -14.900; -190.000; -250.000
270.461;  -41.150; -277.000; -249.000
270.602;  -10.125; -186.000; -156.000
270.742; -130.150; -868.000; -943.000
270.883;  -68.900; -442.000; -390.000
271.023;  -67.225; -358.000; -357.000
271.164;  -65.350; -607.000; -528.000
271.305; -107.550; -666.000; -654.000
271.445;  -92.350; -722.000; -683.000
271.586;  -73.800; -462.000; -283.000
271.726;  -43.350; -397.000; -322.000
271.867;  -55.600; -594.000; -534.000
272.008;  194.500; -473.000; -285.000
272.148;  121.675;  462.000;  468.000
272.289;   20.925; -113.000; -181.000
272.429;   11.650;   19.000;  185.000
272.570;  -89.400; -633.000; -737.000
272.710;  -96.050; -825.000; -775.000
272.851;  -13.750;  113.000; -130.000
272.991; -164.325;-1173.000;-1077.000
273.131;  -67.900; -419.000; -459.000
273.272;  -89.725; -683.000; -723.000
273.412;    8.475; -143.000;  -31.000
273.553;  -61.650; -488.000; -507.000
273.693;  139.300;  913.000;  858.000
273.834;  -79.325; -894.000; -692.000
273.974;  -61.500; -664.000; -615.000
274.114; -108.825; -772.000; -560.000
274.255;   77.750;  414.000;  373.000
274.395;   -1.875; -180.000; -125.000
274.535;   42.875;  199.000;  350.000
274.676;   25.775;  225.000;   94.000
274.816;   15.950;  110.000;   34.000
274.956;  -90.775; -624.000; -690.000
275.097;  -44.900;-1014.000; -922.000
275.237; -102.100; -913.000; -803.000
275.377;  -87.925; -778.000; -689.000
275.517; -151.225; -878.000; -937.000
275.658;  -51.975; -590.000; -555.000
275.798;  -74.450; -606.000; -413.000
275.938;   23.300;  215.000;  323.000
276.078;  -91.300; -626.000; -395.000
276.218;   -4.900;   99.000;  104.000
276.359; -129.850;-1026.000;-1024.000
276.499;  -65.150; -605.000; -446.000
276.639;  -30.275; -305.000; -151.000
276.779;  -41.625; -475.000; -357.000
276.919; -113.275; -783.000; -624.000
277.059;    2.800; -261.000; -212.000
277.199;  -48.750; -357.000; -259.000
277.340;   63.225;  287.000;  175.000
277.480; -114.850; -840.000; -693.000
277.620;   33.150;  192.000;   16.000
277.760; -204.850;-1533.000;-1294.000
277.900;   37.375;  113.000;   33.000
278.040;   15.225;  137.000;  159.000
278.180;   36.875;  270.000;  170.000
278.320;   -0.175;   21.000;   56.000
278.460;  -72.900; -443.000; -469.000
278.600;  -93.900; -708.000; -598.000
278.740;   42.525;  448.000;  224.000
278.880;  -38.300; -768.000; -791.000
279.020;  -10.025; -194.000; -144.000
279.160;  -86.600; -672.000; -595.000
279.300; -121.800; -926.000; -873.000
279.440;  -88.525; -709.000; -622.000
279.579;   -5.850;-1014.000; -929.000
279.719;  -51.000; -410.000; -394.000
279.859;   92.075;   -4.000;   41.000
279.999;   20.150; -208.000;  101.000
280.139;   -2.825; -435.000; -387.000
280.279;  -83.150; -708.000; -745.000
280.419;  -17.700; -229.000; -147.000
280.559;  -39.575; -259.000; -180.000
280.698;  -64.650; -790.000; -639.000
280.838;  -89.800; -778.000; -800.000
280.978;  -86.225; -846.000; -790.000
281.118; -127.050; -811.000; -704.000
281.257;    5.525;   24.000;    6.000
281.397; -104.225;-1094.000; -960.000
281.537;  -68.875; -599.000; -712.000
281.677;  -27.000; -150.000; -101.000
281.816;  -97.000; -700.000; -630.000
281.956;  -34.275; -193.000; -257.000
282.096;  -56.225; -539.000; -396.000
282.235; -110.050; -672.000; -638.000
282.375;  -23.000; -243.000;  -98.000
282.515; -109.275; -715.000; -707.000
282.654;   28.900;   29.000;  106.000
282.794;   26.075;  388.000;  244.000
282.934;  -48.900; -530.000; -491.000
283.073; -135.425;-1030.000; -857.000
283.213;  -48.425; -460.000; -467.000
283.353;  -41.550; -408.000; -349.000
283.492;  -38.150; -264.000; -296.000
283.632;  -46.375; -254.000; -168.000
283.771;  -85.900; -859.000; -730.000
283.911;  -62.325; -369.000; -260.000
284.050;  -96.600; -794.000; -748.000
284.190; -165.925;-1229.000;-1096.000
284.329; -119.975;-1055.000; -964.000
284.469;  -67.625; -516.000; -591.000
284.608;  -33.725; -559.000; -598.000
284.748;  -76.100; -614.000; -570.000
284.887;  -25.875;  -87.000;  -20.000
285.027; -141.125; -844.000; -892.000
285.166;  -24.425; -192.000; -249.000
285.306;    8.725; -116.000;  -33.000
285.445;  -44.875; -229.000; -343.000
285.584;  -93.025; -630.000; -494.000
285.724;  -42.000; -282.000; -322.000
285.863; -121.500; -857.000; -507.000
286.002;  -51.075; -366.000; -276.000
286.142; -117.300; -715.000; -622.000
286.281;  -62.600; -525.000; -493.000
286.420;  -78.225; -554.000; -417.000
286.560;   97.325;  653.000;  623.000
286.699; -147.025; -958.000; -912.000
286.838;  -67.650; -590.000; -591.000
286.978;  -94.800; -533.000; -537.000
287.117; -124.425;-1085.000; -950.000
287.256;  -39.300; -228.000; -211.000
287.395;  -37.300; -197.000; -378.000
287.535;  -51.000; -370.000; -298.000
287.674;  -69.350; -509.000; -484.000
287.813;   56.900;  661.000;  533.000
287.952; -128.000;-1010.000; -871.000
288.091; -147.725;-1049.000; -915.000
288.231;   29.775;   13.000;   15.000
288.370; -178.925;-1217.000;-1200.000
288.509;  -74.700; -728.000; -645.000
288.648; -101.825; -770.000; -548.000
288.787;  -26.875; -243.000;  -87.000
288.926;  -67.250; -454.000; -475.000
289.065;  132.400;  859.000;  672.000
289.204;  -52.125; -377.000; -217.000
289.344;  -87.000; -791.000; -690.000
289.483;   19.925;  416.000;  304.000
289.622;  -20.575; -291.000; -149.000
289.761;  -21.750; -309.000; -166.000
289.900;  -86.575; -785.000; -626.000
290.039;  -28.850;  -12.000;  -95.000
290.178;  -28.800; -274.000; -180.000
290.317;  -85.875; -618.000; -479.000
290.456;  -63.100; -463.000; -451.000
290.595; -126.550; -961.000; -833.000
290.734; -130.000; -904.000; -891.000
290.873;  -80.025; -456.000; -420.000
291.011;  -91.650; -833.000; -843.000
291.150; -110.200; -770.000; -682.000
291.289;  -14.175; -343.000; -110.000
291.428; -111.450; -599.000; -480.000
291.567;  -42.625; -370.000; -442.000
291.706;   -4.525;  109.000;  154.000
291.845;  -80.050; -597.000; -505.000
291.984; -173.725;-1234.000;-1061.000
292.122;   86.925;  602.000;  582.000
292.261;   26.425;  620.000;  463.000
292.400;   12.350; -144.000;  211.000
292.539; -116.750; -959.000; -813.000
292.678;  -25.100; -325.000; -300.000
292.816; -151.575;-1136.000; -965.000
292.955;  -66.550; -844.000; -684.000
293.094;  -33.400; -173.000; -337.000
293.233;  -44.150; -556.000; -400.000
293.371;  -50.725; -225.000;  -84.000
293.510;  -99.500; -866.000; -780.000
293.649; -125.025; -959.000; -924.000
293.787;  -41.175;-1083.000;-1012.000
293.926;   -4.650; -113.000;  -32.000
294.065;  -39.500; -379.000; -290.000
294.203;   32.075;  298.000;  406.000
294.342;   36.100;   74.000;  156.000
294.481; 5989.025;51180.000; -836.000
294.619;  -10.325; -425.000; -582.000
294.758; -139.525;-1230.000;-1137.000
294.896;   78.550; -125.000;    5.000
295.035; -118.175;-1040.000;-1006.000
295.174; -103.200;-1082.000; -954.000
295.312;  -53.200; -323.000; -203.000
295.451;    5.975; -307.000; -428.000
295.589;  -49.750; -389.000; -518.000
295.728;   33.925; -292.000; -165.000
295.866;    4.500;  -36.000;  -51.000
296.005;  -56.250; -584.000; -341.000
296.143;  -67.875; -558.000; -596.000
296.282;  -95.775; -957.000; -881.000
296.420;  -76.050; -657.000; -557.000
296.559;  -71.700; -892.000; -633.000
296.697;   60.050; -847.000; -665.000
296.835;   91.150;-1141.000;-1002.000
296.974;   42.825;  -23.000;   39.000
297.112;   24.225; -443.000; -504.000
297.251;  -64.275; -815.000; -755.000
297.389;  122.950; -576.000; -438.000
297.527;   36.900; -145.000;  -83.000
297.666;  -40.700; -486.000; -438.000
297.804;  -57.450; -404.000; -264.000
297.942;   -1.925; -136.000; -161.000
298.081;   -8.475; -183.000;   63.000
298.219;   77.275;  -17.000;  -19.000
298.357;   50.375; -144.000;  -71.000
298.495;   64.200; -810.000; -812.000
298.634;   97.675;  245.000;  219.000
298.772;   64.125; -220.000; -338.000
298.910;  -42.050; -309.000; -182.000
299.048;   -6.250; -130.000; -153.000
299.187;  -27.125; -350.000; -250.000
299.325;   30.025;   52.000;  122.000
299.463;   77.875; -389.000; -299.000
299.601;  145.475; -327.000; -271.000
299.739;  -98.900; -908.000; -883.000
299.877;  -65.750; -791.000; -703.000
300.016;  -30.250;-1095.000; -935.000
300.154;  188.375;  -19.000; -161.000
300.292;   74.050; -428.000; -348.000
300.430;   47.425; -408.000; -291.000
300.568;  -98.750; -940.000; -874.000
300.706;  -41.025; -366.000; -469.000
300.844;  -73.075;-1108.000; -979.000
300.982;  125.075;  246.000;  282.000
301.120; -109.750; -965.000; -866.000
301.258;  -49.425; -812.000; -705.000
301.396;   30.325;  104.000;  -41.000
301.534;  109.575; -218.000; -293.000
301.672;    5.775; -664.000; -521.000
301.810;   77.700; -613.000; -545.000
301.948;  131.825;   53.000;  149.000
302.086;  725.125; -250.000;  -32.000
302.224; 1066.025; -610.000; -585.000
302.362;   66.575; -558.000; -622.000
302.500;   12.450; -923.000; -893.000
302.638;  120.650;  128.000;  245.000
302.776;    5.400; -352.000; -408.000
302.913;   49.975;  447.000;  236.000
303.051;    8.600;  -86.000;  -23.000
303.189;   50.325;   90.000;  118.000
303.327;  -28.125; -341.000; -256.000
303.465;  -66.625; -832.000; -588.000
303.603;  -93.950; -805.000; -604.000
303.740;  101.325;  417.000;  241.000
303.878;   42.275; -800.000; -759.000
304.016;  -81.925; -915.000; -790.000
304.154; -125.950;-1123.000;-1152.000
304.291;  -29.650; -505.000; -554.000
304.429;    0.775;  102.000;   74.000
304.567; -104.625; -908.000; -893.000
304.705;  -50.775; -408.000; -515.000
304.842;  122.675; -616.000; -540.000
304.980;   68.325;  215.000;   35.000
305.118;   57.200; -367.000; -365.000
305.255;  -62.950; -945.000; -927.000
305.393;   44.850;  178.000;  239.000
305.531;  -99.300;-1173.000; -956.000
305.668;  -59.275; -663.000; -582.000
305.806;  126.950; -358.000; -439.000
305.943;  117.275; -629.000; -637.000
306.081;   58.525; -378.000; -267.000
306.219;  -94.025; -863.000; -748.000
306.356;   -1.925;  158.000;   27.000
306.494;  124.025;  981.000;  761.000
306.631;   -2.400;  -11.000;  -55.000
306.769;   20.350; -613.000; -485.000
306.906;   -9.325; -284.000; -258.000
307.044;  -54.575; -473.000; -488.000
307.181;  -66.700; -410.000; -332.000
307.319;    3.175;  112.000;   87.000
307.456; -172.325;-1191.000;-1153.000
307.594;  -81.925; -980.000; -727.000
307.731;  -22.650; -371.000; -164.000
307.868;    0.350;  -15.000;   20.000
308.006; -130.025; -961.000; -847.000
308.143;  -37.275; -618.000; -330.000
308.281;  213.800;  -37.000; -254.000
308.418;    6.075; -748.000; -640.000
308.555;  -81.575; -400.000; -250.000
308.693;  -78.825; -577.000; -573.000
308.830; -103.425; -712.000; -657.000
308.967;   -9.075; -215.000;  -95.000
309.105;  -41.175; -507.000; -396.000
309.242;   71.375; -468.000; -367.000
309.379;  405.675; -577.000; -655.000
309.517;  -40.100; -936.000; -948.000
309.654; -105.250; -910.000; -734.000
309.791;  -57.725; -662.000; -580.000
309.928; -125.575; -977.000; -914.000
310.065;  202.775;  819.000;  697.000
310.203;    9.775; -825.000; -850.000
310.340;    6.950; -465.000; -321.000
310.477;  -81.625; -412.000; -516.000
310.614;  -70.325; -383.000; -473.000
310.751;  -76.650; -427.000; -518.000
310.889;  -12.475;    1.000;   11.000
311.026; -150.875;-1161.000; -939.000
311.163;  -23.575; -386.000; -380.000
311.300;  -84.675; -512.000; -479.000
311.437;  -67.300; -658.000; -619.000
311.574; -151.775;-1226.000; -985.000
311.711;  -66.325; -595.000; -433.000
311.848;  -47.075; -380.000; -388.000
311.985;   18.850;  270.000;   93.000
312.122; -110.325; -932.000; -762.000
312.259; -117.900; -941.000; -994.000
312.396;  -85.575; -508.000; -551.000
312.533;  -80.325; -812.000; -790.000
312.670; -130.000;-1070.000; -898.000
312.807;  -17.800; -352.000; -367.000
312.944;  -78.550; -513.000; -611.000
313.081;  -28.425; -150.000; -415.000
313.218; -105.075;-1111.000; -867.000
313.355;   25.325; -531.000; -449.000
313.492;    5.025; -455.000; -292.000
313.629;  132.250;  815.000;  735.000
313.766; -164.025;-1176.000;-1008.000
313.902;   -6.400; -186.000;   21.000
314.039;  -58.875; -372.000; -289.000
314.176;   34.425;  286.000;  192.000
314.313;  -81.075; -569.000; -473.000
314.450;  -67.425; -788.000; -684.000
314.587;  -61.175; -468.000; -480.000
314.723;   18.700;  -78.000;  130.000
314.860;   35.050;  318.000;  332.000
314.997;   33.625;  223.000;  142.000
315.134;  -35.675; -385.000; -368.000
315.270;  -20.075; -480.000; -496.000
315.407; -118.850;-1094.000; -967.000
315.544;  -39.300; -657.000; -538.000
315.681;  -60.775; -681.000; -565.000
315.817;   32.525; -133.000; -176.000
315.954;   24.750; -613.000; -392.000
316.091; -118.475;-1045.000;-1023.000
316.227;  -30.250;  -71.000; -179.000
316.364;    7.025;   23.000;    6.000
316.500;  -42.625; -113.000; -300.000
316.637;  -39.275; -181.000; -302.000
316.774;  -85.375; -625.000; -358.000
316.910;  -91.325; -598.000; -629.000
317.047;  -74.700; -487.000; -351.000
317.183;  -49.600; -435.000; -566.000
317.320;  -18.050; -367.000; -321.000
317.456;  -72.000; -733.000; -805.000
317.593;  -85.325; -598.000; -641.000
317.729;   -1.575;  168.000;  -67.000
317.866; -194.900;-1434.000;-1285.000
318.002;  -74.650; -708.000; -948.000
318.139; -102.700; -883.000; -867.000
318.275;  -93.925;-1003.000; -738.000
318.412;  -64.200; -517.000; -336.000
318.548;  -11.375; -751.000; -720.000
318.685;  -92.575; -985.000; -888.000
318.821;  -79.575; -762.000; -735.000
318.957;  -19.325;   34.000;  -23.000
319.094;   45.200;  297.000;  154.000
319.230;  -57.800; -756.000; -742.000
319.367;  166.025; -471.000; -520.000
319.503;   50.675; -538.000; -436.000
319.639;  -79.675; -877.000; -793.000
319.775;  -49.575; -750.000; -685.000
319.912;  -46.600; -424.000; -519.000
320.048;  -85.300;-1184.000;-1184.000
320.184;   72.525;   59.000;   70.000
320.321;  -61.050; -497.000; -467.000
320.457;   54.600;  475.000;  662.000
320.593;  -74.250; -375.000; -382.000
320.729;  -83.525; -732.000; -734.000
320.866;  -78.975; -577.000; -635.000
321.002;  -60.925; -759.000; -809.000
321.138;   -3.450; -135.000; -211.000
321.274;   92.375; -148.000; -115.000
321.410;  -18.675; -585.000; -353.000
321.546;    1.625;-1011.000; -911.000
321.683;   47.925;  400.000;  185.000
321.819;    6.075;  -48.000; -117.000
321.955; -116.425; -743.000; -722.000
322.091;  -37.775; -585.000; -540.000
322.227;  -21.900; -382.000; -202.000
322.363;    1.850; -320.000; -215.000
322.499;  -51.300; -343.000; -331.000
322.635;  186.025;  636.000;  443.000
322.771;   30.525; -139.000;   12.000
322.907;   94.275;  129.000;  327.000
323.043;  -21.500; -115.000; -206.000
323.179;  -32.150; -394.000; -363.000
323.315;   34.675; -401.000; -371.000
323.451;  127.700; -328.000; -236.000
323.587;   73.900;  -60.000;  -77.000
323.723;   50.525; -682.000; -601.000
323.859;  -13.400; -258.000;  -76.000
323.995;  -25.875; -467.000; -409.000
324.131; -128.950; -967.000; -892.000
324.267;  -27.850; -254.000; -276.000
324.402; -118.125; -960.000; -983.000
324.538;   -8.325; -279.000; -104.000
324.674;   11.875;  164.000;   77.000
324.810;  169.400;  226.000;  308.000
324.946;   20.675; -810.000; -658.000
325.082;  -58.550; -568.000; -475.000
325.217;   -0.900;  -62.000;   16.000
325.353;  -95.875; -764.000; -659.000
325.489;  -83.350; -540.000; -506.000
325.625;  -71.675; -579.000; -525.000
325.760;   49.600;  517.000;  376.000
325.896;  -14.775; -515.000; -702.000
326.032;  -72.050; -403.000; -352.000
326.168;  -60.025; -462.000; -369.000
326.303;  -73.925; -352.000; -461.000
326.439;   -9.400; -336.000; -276.000
326.575;    8.575; -190.000;  -29.000
326.710;  -16.450; -156.000;  -30.000
326.846;  -12.975;  146.000;  103.000
326.982;  -93.625; -530.000; -548.000
327.117;  -88.250; -481.000; -442.000
327.253;  -91.600; -745.000; -742.000
327.388; -136.025;-1137.000;-1153.000
327.524;  -30.525; -811.000; -578.000
327.659;  -37.000;  -58.000;  -22.000
327.795;  -19.125;   69.000;   45.000
327.931;  -79.225; -723.000; -499.000
328.066;  -12.875; -417.000; -276.000
328.202;  -23.525;   12.000; -129.000
328.337;  103.850;  957.000;  713.000
328.473;   39.175;  -12.000;  -74.000
328.608;  -15.475; -256.000; -267.000
328.743;  -80.750; -799.000; -664.000
328.879;   27.425;  214.000;  114.000
329.014;  -50.200; -102.000; -122.000
329.150;  -88.425; -358.000; -483.000
329.285;  -71.575; -465.000; -466.000
329.421;  -47.900; -548.000; -246.000
329.556;  -33.875;  -36.000;   85.000
329.691;  -98.975; -633.000; -615.000
329.827;  -84.150; -626.000; -480.000
329.962;  -41.400;  131.000; -301.000
330.097;  -81.975; -673.000; -585.000
330.233;  -46.175; -410.000; -223.000
330.368; -135.925; -839.000; -628.000
330.503;  -17.825;    3.000;   98.000
330.638;    0.025;  -93.000; -125.000
330.774;  -44.350; -609.000; -530.000
330.909;  -45.425; -434.000; -244.000
331.044;  -84.225; -714.000; -708.000
331.179; -173.775;-1217.000;-1109.000
331.315;    5.675;   77.000;   20.000
331.450;    9.825;  157.000;  285.000
331.585;  -82.900; -805.000; -706.000
331.720;  -82.875; -510.000; -460.000
331.855;    9.250;  -35.000; -102.000
331.990;  216.600;   62.000;  138.000
332.126;  130.725; -110.000;   71.000
332.261;  -26.325; -379.000; -265.000
332.396;    6.450; -135.000; -242.000
332.531; -100.575;-1074.000;-1031.000
332.666;   31.850; -519.000; -363.000
332.801; -117.075; -726.000; -807.000
332.936;  -20.825; -192.000; -122.000
333.071; -132.325; -870.000; -817.000
333.206;   17.125;  307.000;  379.000
333.341;   24.400;  344.000;  418.000
333.476;  -74.350; -627.000; -623.000
333.611;  -45.925; -251.000; -173.000
333.746;  -53.275; -381.000; -464.000
333.881; -122.825; -973.000; -935.000
334.016; -108.350; -936.000; -917.000
334.151; -122.700; -746.000; -702.000
334.286;   18.000;  152.000;  186.000
334.421;  -28.175; -125.000; -178.000
334.556;  -48.875; -611.000; -567.000
334.690;  -91.625; -631.000; -577.000
334.825;   41.575;  381.000;   83.000
334.960;  -53.425; -285.000; -413.000
335.095;   11.900;  135.000;  -91.000
335.230;  -96.100; -722.000; -738.000
335.365; -116.600;-1084.000; -990.000
335.499; -126.175;-1108.000;-1037.000
335.634;   35.325;    9.000;  534.000
335.769; -103.200; -755.000; -720.000
335.904;  -31.750; -603.000; -561.000
336.038;  -54.350; -735.000; -657.000
336.173; -102.350;-1206.000;-1194.000
336.308;    9.100; -116.000; -189.000
336.443;   24.775; -544.000; -634.000
336.577;  -82.525; -936.000; -787.000
336.712;   78.725;   -4.000;  -12.000
336.847;  -43.900; -724.000; -607.000
336.981;   81.025; -272.000; -208.000
337.116;  300.800;  615.000;  501.000
337.250;  170.725; -434.000; -421.000
337.385;  238.050; -297.000; -208.000
337.520;   96.725; -632.000; -603.000
337.654;  -54.700; -215.000; -126.000
337.789; -126.200; -989.000; -933.000
337.923;  -28.525; -104.000; -205.000
338.058;  -91.525; -673.000; -738.000
338.192;  -38.000; -611.000; -488.000
338.327;   -2.375;  -18.000; -155.000
338.461;  -56.550; -299.000; -469.000
338.596;  -80.075; -780.000; -638.000
338.730;  -92.125; -767.000; -803.000
338.865;   81.225;  -46.000; -140.000
338.999;  -52.500; -846.000; -702.000
339.134;  -26.300; -634.000; -536.000
339.268;    7.075; -741.000; -603.000
339.403;  377.925; -740.000; -775.000
339.537;  108.800; -894.000; -820.000
339.671; -100.575; -829.000; -813.000
339.806;  -70.000; -556.000; -512.000
339.940;   15.500; -261.000; -235.000
340.074; -104.350; -685.000; -510.000
340.209;  -49.225; -351.000; -230.000
340.343;  -86.100; -517.000; -573.000
340.477;  137.175;  998.000; 1036.000
340.612;  -57.650;-1033.000; -900.000
340.746;  135.400; -199.000; -243.000
340.880;  -46.325; -924.000; -785.000
341.014;  -20.775;  -45.000; -154.000
341.149; -115.825; -756.000; -718.000
341.283;  -94.050; -839.000; -754.000
341.417;  -85.350;-1124.000; -938.000
341.551;  171.925; -768.000; -708.000
341.685;  -30.325; -633.000; -611.000
341.820;  -55.225; -562.000; -493.000
341.954;  -59.450; -218.000; -349.000
342.088; -149.375;-1102.000;-1019.000
342.222;   41.075;  565.000;  618.000
342.356;  -41.425; -395.000; -335.000
342.490;  -85.325; -880.000; -841.000
342.624;  -45.300; -339.000; -242.000
342.758;   -8.200; -364.000; -312.000
342.892;  -48.050; -710.000; -585.000
343.026;  -52.500;  -58.000; -116.000
343.160;  -57.375; -426.000; -376.000
343.294;  -73.575; -474.000; -337.000
343.428;   -6.175; -488.000; -448.000
343.562;   -3.050; -172.000;  -23.000
343.696;  -25.750; -385.000; -314.000
343.830;  -23.525; -362.000; -356.000
343.964;   17.175; -231.000; -168.000
344.098; 1015.050;  199.000;   70.000
344.232;  859.025; -266.000; -127.000
344.366;   98.700; -567.000; -453.000
344.500;   94.900; -665.000; -744.000
344.634;   36.700; -324.000; -164.000
344.768;   14.975; -531.000; -341.000
344.902;   30.250;  278.000;  256.000
345.035;  -72.650; -556.000; -496.000
345.169; -145.975; -933.000; -656.000
345.303;  -27.025; -308.000; -482.000
345.437;  -78.725; -826.000; -717.000
345.571;  -70.475; -675.000; -594.000
345.704;  -74.350; -309.000; -532.000
345.838;    4.175; -331.000; -284.000
345.972;  -30.925; -543.000; -495.000
346.106;  156.175; -179.000; -190.000
346.239;  434.300; -312.000; -243.000
346.373;   16.675; -343.000; -302.000
346.507; -140.050; -950.000; -962.000
346.640;  167.275;  -30.000;   13.000
346.774;  -19.625; -650.000; -797.000
346.908;   -8.925; -138.000;  -11.000
347.041;  -92.975; -646.000; -593.000
347.175;    9.250;  259.000;   27.000
347.309;  -81.700; -698.000; -628.000
347.442;  -87.250; -883.000; -732.000
347.576;  294.350;  670.000;  668.000
347.709;  233.975; -123.000;  -52.000
347.843;  -92.275; -933.000; -825.000
347.976;   38.200;  235.000;  294.000
348.110; -184.225;-1268.000;-1186.000
348.243;  -94.275; -679.000; -772.000
348.377;   -4.300;  -26.000;   60.000
348.510;   55.500;  403.000;  540.000
348.644;  -33.900;  -37.000; -159.000
348.777;    3.100;  180.000;  191.000
348.911;  -54.775; -142.000; -112.000
349.044;  207.975;  471.000;  448.000
349.178;  189.050;-1069.000;-1006.000
349.311;  121.400;  141.000;  255.000
349.444;  -10.450; -927.000; -813.000
349.578;    0.375; -347.000; -200.000
349.711;  -96.175; -959.000; -862.000
349.845;   14.175; -661.000; -591.000
349.978; -137.025;-1224.000;-1137.000
350.111;  -75.225; -546.000; -612.000
350.244;  -73.200; -596.000; -700.000
350.378;    8.675; -392.000; -393.000
350.511;  -75.125; -393.000; -426.000
350.644;  -97.925; -808.000; -806.000
350.778;   -5.400;  168.000;  104.000
350.911;  -12.450;  134.000;  140.000
351.044;  -94.525; -685.000; -615.000
351.177;  -11.050; -321.000; -281.000
351.310;  -24.025;    3.000; -131.000
351.444;  -57.025; -888.000; -788.000
351.577;  132.650;  140.000;   90.000
351.710;  102.900;  593.000;  417.000
351.843;  -44.850; -165.000;  -77.000
351.976;    4.625;  149.000;  -79.000
352.109;  -83.375; -621.000; -612.000
352.242;    1.475; -464.000; -419.000
352.376;  -56.950; -580.000; -636.000
352.509;  216.925; -437.000; -356.000
352.642;   24.350; -654.000; -604.000
352.775;   72.425; -141.000;  -98.000
352.908; -112.175; -933.000; -904.000
353.041;  -92.350; -814.000; -824.000
353.174;  -68.700; -551.000; -424.000
353.307;  -65.800; -753.000; -764.000
353.440;   70.325;  541.000;  453.000
353.573; -102.675; -957.000;-1008.000
353.706;  -61.750; -384.000; -558.000
353.839;  -10.025; -264.000; -220.000
353.971;  -98.225; -657.000; -512.000
354.104;  -67.050; -896.000; -835.000
354.237;  -28.500; -627.000; -662.000
354.370;  -63.450; -846.000; -879.000
354.503; -175.025;-1231.000;-1308.000
354.636;  -39.425; -529.000; -348.000
354.769; -128.700; -937.000; -860.000
354.902;    5.625; -230.000; -139.000
355.034;  -18.500; -164.000; -220.000
355.167;   -7.275; -262.000; -162.000
355.300;  -90.000;-1061.000; -880.000
355.433;  954.350;  -71.000;  -14.000
355.565; 1474.850; -402.000; -384.000
355.698;  379.075; -356.000; -296.000
355.831;   18.975; -882.000; -801.000
355.964;  102.650; -285.000; -170.000
356.096;  -75.600; -856.000; -843.000
356.229;   24.875; -523.000; -530.000
356.362;  286.900; -373.000; -266.000
356.494;  584.925; -229.000; -162.000
356.627;  524.625;  269.000;  377.000
356.760;  653.950;  120.000;   53.000
356.892;  913.225; -286.000; -601.000
357.025;  740.350;  403.000;  389.000
357.157;  697.050; -167.000; -179.000
357.290;  643.775; -856.000; -713.000
357.423;  200.750; -667.000; -556.000
357.555;  147.775; -217.000; -228.000
357.688;  132.525; -483.000; -364.000
357.820;  534.200; -870.000; -877.000
357.953; 4044.550; -563.000; -589.000
358.085;  930.525; -632.000; -612.000
358.218; 1349.550;-1131.000; -932.000
358.350;  253.800;  -58.000;  312.000
358.483;  -97.400;-1300.000;-1187.000
358.615;    8.425;-1182.000;-1078.000
358.747;  -33.250;-1187.000;-1058.000
358.880;   57.900; -810.000; -744.000
359.012;   -6.200; -376.000; -202.000
359.145;  -25.250; -480.000; -511.000
359.277;   77.775; -962.000; -913.000
359.409; 3297.125;  536.000;  231.000
359.542;  910.225; -738.000; -688.000
359.674;   92.700;   46.000;   13.000
359.806;  -46.875; -565.000; -438.000
359.939;  -34.625; -617.000; -516.000
360.071;  -23.675; -583.000; -579.000
360.203;  -15.650; -411.000; -364.000
360.335;   66.125;  164.000;  -16.000
360.468;  226.425; -249.000; -307.000
360.600; 2629.875; -547.000; -454.000
360.732; 2762.150; -546.000; -423.000
360.864;  412.150;-1216.000;-1044.000
360.996;  352.300; -516.000; -554.000
361.129;   77.275; -389.000; -598.000
361.261;   24.100;  110.000; -113.000
361.393;  -29.800; -252.000; -214.000
361.525;   45.525;   94.000;  244.000
361.657;  -36.125; -821.000; -703.000
361.789;   17.300; -139.000; -155.000
361.921;  264.600; -642.000; -593.000
362.053;  310.450;  524.000;  541.000
362.185;   60.250;  288.000;   72.000
362.318;  -67.475; -709.000; -705.000
362.450;  131.250;  294.000;  444.000
362.582;  151.225; -913.000; -870.000
362.714;  -25.475; -353.000; -332.000
362.846;  -87.600; -606.000; -490.000
362.978; -132.300; -941.000; -811.000
363.109;   72.225; -161.000; -260.000
363.241;  507.375; -739.000; -749.000
363.373;  430.600; -649.000; -564.000
363.505;  621.050; -186.000;  -91.000
363.637;  181.025; -787.000; -601.000
363.769; -121.100;-1067.000;-1080.000
363.901;  -53.075; -596.000; -654.000
364.033; -105.000;-1103.000;-1062.000
364.165;   13.800; -283.000; -283.000
364.296;   64.575; -316.000; -177.000
364.428;   87.950;-1344.000;-1220.000
364.560;  -68.450; -679.000; -661.000
364.692;  -43.850; -738.000; -835.000
364.824;  316.050; -588.000; -456.000
364.955;  444.925; -402.000; -564.000
365.087;  844.475;-1097.000; -852.000
365.219;   37.725; -686.000; -816.000
365.351;  -51.475; -526.000; -572.000
365.482;   69.025;  300.000;  240.000
365.614;  -44.125; -402.000; -314.000
365.746;  -79.700; -729.000; -752.000
365.877; -109.050; -706.000; -672.000
366.009;  244.400;  -35.000;  -62.000
366.141;  -89.000;-1249.000;-1134.000
366.272;  -99.400; -803.000; -719.000
366.404; -115.850;-1005.000; -874.000
366.535;  -19.600; -139.000;  -12.000
366.667; -105.775; -644.000; -649.000
366.799;   40.425;  353.000;  203.000
366.930; -111.500; -862.000; -996.000
367.062;  146.300; -639.000; -613.000
367.193;  139.125; -872.000; -842.000
367.325;  -51.200; -580.000; -684.000
367.456;   63.625; -246.000;   31.000
367.588;  173.425; -371.000; -318.000
367.719;   13.775;  -44.000;  -45.000
367.851;   -2.375; -222.000; -241.000
367.982;  -43.500; -875.000; -732.000
368.113;  134.175; -475.000; -358.000
368.245; -116.125; -960.000; -841.000
368.376;   -7.200; -254.000; -302.000
368.508;  -42.525; -188.000; -263.000
368.639; -134.025;-1166.000;-1034.000
368.770;   -2.200; -670.000; -589.000
368.902;  -51.575; -836.000; -926.000
369.033; -103.875; -906.000; -855.000
369.164;  -44.500; -720.000; -653.000
369.296; -114.325; -452.000; -601.000
369.427;   20.150; -209.000; -144.000
369.558;  -57.950; -593.000; -377.000
369.689;  -75.825; -721.000; -569.000
369.821; -125.775; -951.000; -845.000
369.952;  -12.125;   42.000; -108.000
370.083;  -49.175; -229.000; -108.000
370.214;  -67.200; -735.000; -650.000
370.345;   -4.550;   65.000;   81.000
370.477;  -79.300; -810.000; -790.000
370.608;  270.400; -328.000; -264.000
370.739;  -15.100;-1233.000;-1292.000
370.870;  -20.950;-1102.000; -923.000
371.001;  118.200; -378.000; -467.000
371.132;  -70.675; -754.000; -735.000
371.263;  -15.850;  -42.000; -148.000
371.394; -149.925; -841.000; -748.000
371.525;   46.300;  345.000;  225.000
371.657;  -86.175; -808.000; -670.000
371.788;   81.800;  103.000;  199.000
371.919;  190.575; -384.000; -304.000
372.050; 3961.050;  -91.000; -156.000
372.181; 1251.425; -188.000; -294.000
372.311;  427.075;   42.000; -127.000
372.442;   60.875; -457.000; -451.000
372.573;  -22.150; -444.000; -340.000
372.704; -113.600;-1008.000; -980.000
372.835;   93.225; -228.000; -289.000
372.966;  -56.675; -646.000; -554.000
373.097;  -43.525; -575.000; -711.000
373.228;  -47.550; -717.000; -542.000
373.359;  171.325; -824.000; -536.000
373.490; 1033.725; -881.000; -727.000
373.620; 1379.400;-1001.000; -803.000
373.751; 2000.875; -332.000; -396.000
373.882;  952.450; -663.000; -733.000
374.013;   97.700; -449.000; -262.000
374.143;  -27.150; -581.000; -659.000
374.274;  -83.950; -987.000; -908.000
374.405;  217.825; -388.000; -276.000
374.536;  475.500; -526.000; -387.000
374.666; 1295.875; -759.000; -807.000
374.797;  276.550; -817.000; -868.000
374.928; 1008.375; -710.000; -560.000
375.058; 1038.350; -535.000; -500.000
375.189;  105.050;  -59.000;  -93.000
375.320; -106.250; -928.000;-1034.000
375.450;  -25.975; -625.000; -616.000
375.581;  -44.100; -526.000; -436.000
375.712;  -11.350; -574.000; -250.000
375.842;  359.150; -438.000; -415.000
375.973;  267.325; -554.000; -513.000
376.103;  -29.750; -665.000; -648.000
376.234;  -57.950; -531.000; -552.000
376.364;  -32.275; -944.000; -867.000
376.495;  371.950;  925.000;  529.000
376.625;   14.775; -472.000; -485.000
376.756;   98.875; -709.000; -678.000
376.886;  -44.625;-1178.000;-1026.000
377.017;   56.925;-1048.000;-1061.000
377.147;  339.825; -786.000; -782.000
377.278;   57.725;  174.000;  228.000
377.408; -124.225; -801.000; -815.000
377.538;  -96.725; -707.000; -693.000
377.669;  -94.750; -537.000; -613.000
377.799;  -73.525; -645.000; -635.000
377.929;  -53.050; -610.000; -428.000
378.060; -122.500; -781.000; -847.000
378.190;  -61.850; -726.000; -531.000
378.320;  -55.425; -401.000; -406.000
378.451;  -19.425; -131.000;  -22.000
378.581;   -5.200;  -67.000; -110.000
378.711;  152.500; 1035.000;  866.000
378.841;   15.675; -533.000; -675.000
378.972;  -61.925; -871.000; -751.000
379.102;   17.200; -652.000; -579.000
379.232;  -17.175; -126.000;  -73.000
379.362;  -83.800;-1001.000; -885.000
379.492;   20.950; -373.000; -424.000
379.623;  125.350;    0.000;  111.000
379.753;  -89.750;-1107.000; -974.000
379.883;  219.800;   59.000;  156.000
380.013;   42.525;-1081.000;-1017.000
380.143;  -79.350;-1097.000;-1056.000
380.273; -100.275; -985.000; -861.000
380.403;   11.250; -344.000; -257.000
380.533;  -27.100; -651.000; -664.000
380.663;   93.000;  173.000;  128.000
380.793;  -82.900;-1027.000;-1074.000
380.923;  -12.700; -103.000;  -34.000
381.053;  -87.500; -613.000; -623.000
381.183;  -24.975; -106.000; -248.000
381.313;   57.600; -656.000; -470.000
381.443;   70.950; -692.000; -473.000
381.573;  234.250; -402.000; -409.000
381.703;  389.700;-1249.000;-1095.000
381.833; -114.750;-1454.000;-1336.000
381.963;  115.300; -134.000;  -87.000
382.093; 1554.775; -925.000; -909.000
382.223;  532.325; -713.000; -602.000
382.353;   -5.175; -801.000; -608.000
382.482;  429.075;-1091.000; -964.000
382.612;  873.225; -872.000; -644.000
382.742;  539.850; -695.000; -622.000
382.872;  350.200; -565.000; -551.000
383.002;   90.100;  347.000; -132.000
383.131;  -15.700; -226.000; -160.000
383.261;  -37.325; -706.000; -768.000
383.391;  291.125; -552.000; -377.000
383.521; 3034.225;  451.000;  263.000
383.650;  762.875; -947.000; -904.000
383.780;    3.450; -783.000; -656.000
383.910;  114.025;  880.000;  802.000
384.039;   48.275; -794.000; -656.000
384.169;  273.475;-1205.000;-1017.000
384.299;    3.800; -650.000; -662.000
384.428;  -98.850; -764.000; -680.000
384.558;  -25.100; -308.000; -275.000
384.687;  -37.675; -414.000; -334.000
384.817;   31.350;   75.000;   -2.000
384.947;   27.500; -234.000; -141.000
385.076;  311.475;  982.000;  912.000
385.206;  120.000;  369.000;  480.000
385.335;  -25.450; -549.000; -417.000
385.465;  -70.925; -655.000; -663.000
385.594;  163.775;  -53.000;  -44.000
385.724;  505.500; -868.000; -838.000
385.853;  150.925; -296.000; -270.000
385.982; 1472.425; -743.000; -787.000
386.112; 2506.925;-1052.000; -871.000
386.241;  187.400; -307.000; -312.000
386.371;   28.775; -174.000;  -87.000
386.500;   23.975; -825.000; -789.000
386.629;   61.975; -874.000; -817.000
386.759;   73.975;  -43.000;   68.000
386.888;    7.350; -170.000; -250.000
387.017;  -60.500; -648.000; -620.000
387.147;  -56.975; -771.000; -798.000
387.276;   14.350; -410.000; -397.000
387.405;   38.475; -398.000; -342.000
387.535;  -33.700; -452.000; -361.000
387.664;  -48.250; -692.000; -620.000
387.793;   67.375; -198.000; -113.000
387.922;  596.050;  255.000;  200.000
388.052;   53.825; -576.000; -423.000
388.181;   46.950; -342.000; -472.000
388.310;   25.675; -889.000; -710.000
388.439;   -9.575; -749.000; -742.000
388.568;  207.875;  365.000;  244.000
388.697; 1216.350; -756.000; -653.000
388.826;  256.425; -768.000; -666.000
388.956;   95.525; -285.000; -307.000
389.085;  -29.100; -347.000; -287.000
389.214;  -99.650; -842.000; -872.000
389.343;  -63.225; -645.000; -413.000
389.472;  364.925;  126.000;  149.000
389.601;  509.025;   91.000;    0.000
389.730;   40.225; -568.000; -687.000
389.859;   62.100;  226.000;   46.000
389.988;  213.450; -423.000; -408.000
390.117;  166.875; -168.000; -146.000
390.246;    5.025; -331.000; -320.000
390.375;  140.350; -673.000; -626.000
390.504;  -37.250; -703.000; -621.000
390.633;  -89.225; -672.000; -726.000
390.761;  -47.000; -732.000; -645.000
390.890;   26.950;   -4.000; -130.000
391.019;  -15.825; -421.000; -441.000
391.148; -123.150; -826.000; -855.000
391.277;  -60.850; -576.000; -493.000
391.406;  -76.650; -821.000; -805.000
391.534;   20.125;  574.000; -301.000
391.663;  -54.675; -583.000; -645.000
391.792;  -66.600; -673.000; -701.000
391.921;  109.325;   -3.000;   15.000
392.050;  244.975; -287.000; -228.000
392.178;  -26.375;-1206.000;-1061.000
392.307;  168.275; -758.000; -712.000
392.436;  104.950; -427.000; -641.000
392.564;   39.050;  166.000;   -6.000
392.693;  -78.950; -860.000; -682.000
392.822;  242.825; -529.000; -534.000
392.950;  122.625; -880.000; -714.000
393.079;  387.475; -188.000; -328.000
393.208;   55.175; -488.000; -511.000
393.336;   -5.275; -170.000; -145.000
393.465;  -67.075; -317.000; -199.000
393.593;   -8.050;   62.000;   79.000
393.722; -146.825;-1121.000; -916.000
393.850;  -27.950; -188.000;  -61.000
393.979; -140.775; -926.000; -805.000
394.107;  -77.300; -517.000; -537.000
394.236;  -22.100; -570.000; -507.000
394.364;  253.425;  383.000;  206.000
394.493;  457.550; -911.000; -767.000
394.621;    2.950; -955.000; -916.000
394.750;  677.825; -873.000; -923.000
394.878; 2825.000; -247.000; -149.000
395.007; 4013.150; -721.000; -807.000
395.135;  339.650; -790.000; -721.000
395.263;  -85.450;-1038.000;-1040.000
395.392;   14.375;  -25.000; -107.000
395.520; -138.900; -818.000; -679.000
395.648;  -76.825; -865.000; -915.000
395.777;  -15.000; -366.000; -405.000
395.905;  -37.975; -449.000; -564.000
396.033;   13.025;  217.000;  172.000
396.162;  709.750; -399.000; -453.000
396.290;  661.175;  -17.000;   -2.000
396.418;  148.675; -555.000; -514.000
396.546;  -68.425; -571.000; -466.000
396.674;  -76.975; -850.000; -878.000
396.803;   -0.850;  -72.000;  -23.000
396.931;  114.375; -179.000; -199.000
397.059;   88.875;-1026.000; -989.000
397.187;  -84.450;-1026.000; -975.000
397.315; -129.575; -884.000; -649.000
397.443;  -86.050; -592.000; -443.000
397.572;  -95.175; -578.000; -424.000
397.700;   -3.650; -607.000; -614.000
397.828;   13.825;  120.000;  -90.000
397.956;  -29.475; -508.000; -478.000
398.084;  -73.425; -767.000; -626.000
398.212;   60.525;  137.000;  124.000
398.340;    2.425;  -56.000;  159.000
398.468;   49.975; -390.000; -169.000
398.596; -127.800; -993.000; -953.000
398.724; -117.375; -762.000; -767.000
398.852; -167.925;-1024.000; -976.000
398.980;  -50.600; -560.000; -560.000
399.108;  -54.925; -982.000; -735.000
399.236;   40.100;   13.000;    8.000
399.363;    5.900;  222.000;  196.000
399.491;  -65.850; -404.000; -398.000
399.619; -134.950; -829.000; -800.000
399.747;  -90.050; -859.000; -771.000
399.875;   96.775;  220.000;  234.000
400.003;  -30.900; -359.000; -284.000
400.130;  -89.825; -421.000; -341.000
400.258;  -20.325;  -83.000;   38.000
400.386;  -75.100; -352.000; -168.000
400.514;  -29.225; -526.000; -587.000
400.641;  -78.700; -928.000; -802.000
400.769; -128.650; -979.000; -888.000
400.897; -100.700; -838.000; -793.000
401.025;   -2.000; -166.000; -152.000
401.152;  -11.475;  220.000;   38.000
401.280;  -80.650; -430.000; -429.000
401.408; -123.100; -712.000; -576.000
401.535; -101.850; -735.000; -758.000
401.663; -191.825;-1134.000;-1054.000
401.790;  -73.150; -514.000; -525.000
401.918;   30.625;  436.000;  405.000
402.046;   -8.475;  134.000;  122.000
402.173;  -55.775;  -18.000;    7.000
402.301;  -64.025; -519.000; -397.000
402.428;   14.925;  528.000;  383.000
402.556; -128.000;-1188.000; -913.000
402.683;  -38.750;  -20.000;   -1.000
402.811;  -14.650;  -37.000; -206.000
402.938;  -20.900;   20.000;   27.000
403.066;  197.450; -574.000; -558.000
403.193;  385.475;  299.000;  239.000
403.321;  299.400; -396.000; -574.000
403.448;  354.500;   83.000;   27.000
403.575;  169.550;  -90.000;  -46.000
403.703;  -81.000; -732.000; -557.000
403.830;  -71.600; -531.000; -496.000
403.957; -144.300;-1117.000;-1023.000
404.085;   14.900;  -61.000; -172.000
404.212;  100.825;  -50.000;   63.000
404.339;  244.325; -566.000; -306.000
404.467; 5507.750; -612.000; -524.000
404.594; 4047.950; -287.000; -227.000
404.721; 1039.300; -869.000; -764.000
404.848;   97.450; -113.000; -202.000
404.976;  -98.150; -856.000; -783.000
405.103;   -0.050;  -14.000;  -82.000
405.230;  -17.975;  190.000;  226.000
405.357;   38.575;  117.000;   44.000
405.484;  238.850;  -49.000;    5.000
405.612;   59.525; -548.000; -563.000
405.739;  -67.275; -488.000; -243.000
405.866;   83.150;  669.000;  385.000
405.993;  -39.700; -398.000; -102.000
406.120; -130.750; -801.000; -887.000
406.247;  -64.425; -323.000; -342.000
406.374;  496.725;  540.000;  629.000
406.501;  166.725; -632.000; -702.000
406.628;  -61.650; -621.000; -589.000
406.755;  -92.375; -803.000; -620.000
406.882;  -32.500; -228.000; -277.000
407.009; -107.600; -719.000; -628.000
407.136;   74.075; -480.000; -401.000
407.263;  184.125; -939.000; -829.000
407.390;  -40.525; -692.000; -614.000
407.517; -164.950;-1139.000;-1187.000
407.644;  -61.600; -332.000; -256.000
407.771;  -70.275; -249.000; -287.000
407.898;   10.200;  168.000;  328.000
408.025;  -75.450; -421.000; -313.000
408.151;    3.525;   82.000;  153.000
408.278;  -61.025; -267.000; -216.000
408.405; -105.250; -931.000; -899.000
408.532;  -73.475; -549.000; -542.000
408.659;  -97.500; -677.000; -648.000
408.785; -213.300;-1298.000;-1170.000
408.912;  -55.375; -412.000; -296.000
409.039; -112.250; -610.000; -686.000
409.166;  -91.825; -591.000; -555.000
409.292; -116.750; -571.000; -534.000
409.419; -108.525; -665.000; -649.000
409.546;  -84.675; -431.000; -192.000
409.672; -101.125; -713.000; -545.000
409.799;  -24.675;  -36.000;   34.000
409.926;  -23.850; -180.000; -179.000
410.052; -174.350;-1127.000;-1091.000
410.179;  -49.275; -368.000; -392.000
410.305;  -98.200; -375.000; -493.000
410.432;  -34.275; -220.000; -333.000
410.558;  -87.025; -305.000; -380.000
410.685; -111.350; -688.000; -431.000
410.812; -111.175; -409.000; -588.000
410.938; -128.200; -964.000; -808.000
411.065;  -99.800; -671.000; -645.000
411.191;   -6.500; -189.000; -174.000
411.317; -116.425; -823.000; -742.000
411.444;  -56.925; -317.000; -246.000
411.570;  -88.025; -339.000; -294.000
411.697; -117.350; -758.000; -752.000
411.823; -173.925; -989.000; -999.000
411.949;  -28.325;  -56.000;   17.000
412.076; -121.750; -539.000; -519.000
412.202; -108.325; -758.000; -757.000
412.329; -131.575; -798.000; -752.000
412.455; -101.575; -821.000; -657.000
412.581;  -32.825;  -15.000;  172.000
412.707;  -49.375; -540.000; -457.000
412.834;   12.750;  156.000;  219.000
412.960;  -75.950; -785.000; -784.000
413.086; -106.725; -743.000; -701.000
413.212;  160.225;  604.000;  578.000
413.339;  -45.925; -685.000; -701.000
413.465;   14.100; -364.000; -310.000
413.591;  -87.325; -757.000; -474.000
413.717;  -50.375; -358.000; -366.000
413.843; -151.425; -839.000; -861.000
413.969;  -52.375;  -47.000; -292.000
414.096;  -98.050; -679.000; -679.000
414.222;   -1.125;  -33.000;   85.000
414.348;  -22.150; -652.000; -385.000
414.474;  101.025;   38.000;  -52.000
414.600;  -21.025; -126.000; -144.000
414.726;   -8.800;  -96.000;  -55.000
414.852;  -60.625; -365.000; -342.000
414.978;   27.550;  104.000;  -18.000
415.104;   32.725;   38.000;   80.000
415.230;   37.775; -329.000; -330.000
415.356;   29.775; -409.000; -514.000
415.482;  215.300;   13.000;  -35.000
415.608;  265.500; -247.000; -323.000
415.734;  957.175;   67.000;   38.000
415.860;19145.375; -875.000; -767.000
415.986;15459.625; -685.000; -607.000
416.111; 1388.600; -798.000; -652.000
416.237;  278.675; -424.000; -571.000
416.363; 1006.375; -765.000; -733.000
416.489; 4125.700; -324.000; -251.000
416.615;  513.150; -707.000; -742.000
416.741;  -20.900; -677.000; -784.000
416.866;  -83.200; -673.000; -736.000
416.992; -108.450; -801.000; -818.000
417.118;  -22.150;  -41.000;  -80.000
417.244;  -38.025; -798.000; -531.000
417.369;  -90.475; -801.000; -612.000
417.495;    9.500; -325.000; -254.000
417.621;  -92.325;-1015.000; -803.000
417.746;   23.125; -579.000; -572.000
417.872;   45.250; -254.000; -144.000
417.998;   35.700; -515.000; -530.000
418.123;  939.000;-1073.000; -845.000
418.249; 5367.875; -512.000; -601.000
418.374;  833.850; -916.000; -824.000
418.500;  118.250; -383.000; -482.000
418.626;  108.450;   70.000;  -59.000
418.751;  140.425; -549.000; -448.000
418.877;  186.450; -637.000; -643.000
419.002; 1613.250; -688.000; -560.000
419.128;12263.225; -930.000; -721.000
419.253; 3366.950; -967.000; -837.000
419.379;  429.750; -391.000; -338.000
419.504;  398.125;  325.000;  415.000
419.629;  509.625; -393.000; -212.000
419.755; 3166.350; -317.000; -254.000
419.880;20300.175;  -98.000;   67.000
420.006;11083.375; -280.000; -221.000
420.131;29550.650; -662.000; -775.000
420.256; 4750.250; -315.000; -316.000
420.382;  596.725; -665.000; -687.000
420.507;   80.000; -649.000; -778.000
420.632;  142.475; -337.000; -339.000
420.758;  324.925; -251.000; -425.000
420.883;  -69.850; -876.000; -672.000
421.008;  -83.275; -775.000; -619.000
421.133;  -78.425; -509.000; -467.000
421.259;  -47.550; -325.000; -259.000
421.384; -106.350; -834.000; -693.000
421.509;  -16.675;-1052.000; -862.000
421.634; 1298.775; -936.000; -820.000
421.759;  652.600; -359.000; -327.000
421.885;  -46.925; -717.000; -656.000
422.010;  -66.500; -673.000; -542.000
422.135; -133.275; -695.000; -727.000
422.260;   28.300;  340.000;  280.000
422.385;  -35.600;   12.000;  -98.000
422.510;    9.150;  151.000;  -26.000
422.635;    6.575;  -87.000;  -43.000
422.760;  127.050; -766.000; -791.000
422.885;   69.675;  -57.000;  -80.000
423.010;  -16.825; -112.000; -169.000
423.135; -100.425; -481.000; -561.000
423.260;   -8.900; -150.000; -245.000
423.385;   63.700;  476.000;  222.000
423.510;   36.800;   71.000;  -22.000
423.635;   88.425;  133.000;   45.000
423.760;   60.000;  383.000;  328.000
423.885;   34.025;  336.000;  391.000
424.010;   24.600;  -68.000;  -13.000
424.135;  -26.200;    5.000;  -33.000
424.259;  -82.750; -654.000; -457.000
424.384;  -61.200; -279.000; -272.000
424.509;  -20.150; -260.000; -186.000
424.634;  -93.675; -761.000; -623.000
424.759;  -18.725; -688.000; -544.000
424.883;  -22.050; -506.000; -527.000
425.008;  165.025; -502.000; -410.000
425.133; 1920.125; -679.000; -653.000
425.258; 1006.575; -517.000; -381.000
425.382; 1047.400; -867.000; -774.000
425.507; 2976.850; -487.000; -543.000
425.632;  510.150; -802.000; -663.000
425.756;  462.350; -256.000; -146.000
425.881; 5781.900; -831.000; -857.000
426.006;17131.125; -604.000; -355.000
426.130; 2983.000; -696.000; -508.000
426.255;  383.025; -611.000; -491.000
426.379;  144.500; -189.000; -577.000
426.504;  365.200;  660.000;  544.000
426.629; 3875.850; -519.000; -466.000
426.753; 3012.575;   64.000;  -46.000
426.878;  344.875; -252.000; -288.000
427.002;  195.625; -651.000; -668.000
427.127; 1471.675;  -35.000; -158.000
427.251;11085.600;  372.000;  401.000
427.375; 3542.000; -191.000; -173.000
427.500; 2505.475; -616.000; -610.000
427.624;  964.125; -234.000; -400.000
427.749;  120.600; -216.000; -225.000
427.873;  -31.975; -499.000; -412.000
427.997;  -21.075; -222.000; -230.000
428.122;   60.800;  795.000;  703.000
428.246;   80.825;  433.000;  434.000
428.371; -126.250; -869.000; -773.000
428.495; -101.700; -624.000; -646.000
428.619;  -30.625; -186.000; -117.000
428.743;   23.325;   65.000;  132.000
428.868;   18.025; -732.000; -643.000
428.992; 1539.275; -219.000; -326.000
429.116;  694.750; -329.000; -357.000
429.240;  325.700;  419.000;  426.000
429.365;  -19.250; -454.000; -574.000
429.489;  -32.925; -638.000; -647.000
429.613;   21.200; -236.000; -177.000
429.737;   49.575; -563.000; -432.000
429.861;  280.325; -247.000; -133.000
429.985; 5211.075; -425.000; -305.000
430.109; 6374.000; -770.000; -908.000
430.234;  797.500;   76.000;  -50.000
430.358;   68.450; -250.000; -160.000
430.482;  -52.450; -672.000; -564.000
430.606;  -49.425; -655.000; -375.000
430.730;   38.000; -437.000; -388.000
430.854;  160.575; -909.000; -835.000
430.978;  -49.450; -795.000; -764.000
431.102;  -92.050; -499.000; -422.000
431.226; -101.350; -874.000; -815.000
431.350;   27.575;  345.000;  422.000
431.474;  -75.175; -661.000; -373.000
431.597; -143.550;-1060.000; -848.000
431.721;  -76.650; -276.000; -267.000
431.845; -130.200; -704.000; -472.000
431.969;  -75.275; -304.000; -349.000
432.093;  -94.600; -395.000; -317.000
432.217;   -4.325;   32.000;   82.000
432.341;  -99.725; -523.000; -518.000
432.464;    9.775;   96.000;   40.000
432.588;  232.725; -401.000; -329.000
432.712;  133.025;  -52.000;  -52.000
432.836;   47.950;  213.000;  263.000
432.959;  -12.675; -372.000; -311.000
433.083;   71.050;   11.000;    2.000
433.207;  368.100;  285.000;  930.000
433.330; 4692.800; -391.000; -200.000
433.454; 6342.050; -654.000; -638.000
433.578; 3598.150;  583.000;  278.000
433.701;  748.125; -623.000; -675.000
433.825;  167.675; -292.000; -299.000
433.949;  203.825;   28.000;  -72.000
434.072;   77.350; -410.000; -323.000
434.196;   -8.925; -309.000; -117.000
434.319; 3549.575;25482.000;25124.000
434.443;  688.325; -656.000; -603.000
434.566; 2644.700;  281.000;   62.000
434.690;  516.175; -637.000; -383.000
434.813;   43.025; -251.000; -173.000
434.937;  -61.925; -569.000; -696.000
435.060;  -41.875; -423.000; -332.000
435.184;  383.775; -492.000; -217.000
435.307;  214.575;  159.000;  102.000
435.431;    6.200;  -40.000;   24.000
435.554;  -80.100; -399.000; -240.000
435.677;  -91.400; -350.000; -258.000
435.801;  -60.250;  -25.000;   49.000
435.924;    5.700;    1.000;  -67.000
436.048; -115.750;-1019.000; -732.000
436.171;  -62.850; -240.000;  -66.000
436.294;  -37.325; -248.000; -229.000
436.417;   83.025; -963.000; -849.000
436.541;  -73.950; -814.000; -840.000
436.664;  -53.775; -242.000; -316.000
436.787;  -40.000;   13.000;  113.000
436.910;  -86.400; -792.000; -422.000
437.034;    9.425;  142.000;  143.000
437.157;   68.975;  -11.000;    0.000
437.280;  -49.800; -392.000; -292.000
437.403;  -69.450; -982.000; -869.000
437.526;  655.975; -903.000; -865.000
437.649; 2657.225; -505.000; -332.000
437.772;  466.875; -692.000; -540.000
437.896;  134.300;  700.000;  544.000
438.019;  -87.175; -758.000; -503.000
438.142;  -78.125; -596.000; -506.000
438.265;  -21.100; -639.000; -670.000
438.388;  652.425; -520.000; -410.000
438.511;  137.925; -597.000; -394.000
438.634;  -29.400; -247.000; -125.000
438.757; -133.275; -693.000; -619.000
438.880;  -28.300;  -34.000;  -57.000
439.003;  -79.850; -417.000; -437.000
439.126;  -65.825; -287.000; -167.000
439.248;  -74.375;  -98.000; -139.000
439.371;  -49.300;    9.000;  -53.000
439.494;   22.600;  510.000;  439.000
439.617;  -54.250;   65.000;  -88.000
439.740; -183.075; -968.000; -816.000
439.863; -138.875; -755.000; -595.000
439.986; -117.625; -476.000; -431.000
440.108;  -47.725; -161.000; -112.000
440.231; -164.475; -950.000; -836.000
440.354;  -40.575;  -64.000; -150.000
440.477;   42.500; -566.000; -542.000
440.599;   30.275; -200.000; -225.000
440.722; -124.425; -709.000; -586.000
440.845;   58.500;  751.000;  928.000
440.968; -111.775; -415.000; -311.000
441.090;  -63.750; -199.000;  -33.000
441.213; -173.125;-1021.000; -825.000
441.336;  -50.350; -159.000;   -5.000
441.458;  -75.875; -549.000; -396.000
441.581;  -83.425; -628.000; -629.000
441.703;  -84.275; -152.000;   13.000
441.826; -112.300; -557.000; -400.000
441.948;  -48.200;   56.000;   51.000
442.071;   26.300;  555.000;  424.000
442.193; -109.800; -531.000; -485.000
442.316;   16.775;  152.000;   97.000
442.438;   37.050; -233.000;  -10.000
442.561;   80.825;  272.000;  262.000
442.683;  563.850; -809.000; -522.000
442.806; 1363.600;   -8.000;   74.000
442.928;   94.175; -859.000; -604.000
443.051;  -59.100; -577.000; -373.000
443.173;  -86.250; -341.000; -339.000
443.295;  -77.450; -263.000; -371.000
443.418;  -74.825; -321.000;  -29.000
443.540;    0.900; -106.000;   -4.000
443.662; -111.825; -563.000; -465.000
443.785;  -14.025;  335.000;  199.000
443.907; -112.000; -362.000; -208.000
444.029; -128.525; -767.000; -494.000
444.152; -144.700; -644.000; -554.000
444.274;  -31.200;  -18.000;  -24.000
444.396; -106.950; -461.000; -221.000
444.518; -116.225; -691.000; -454.000
444.640; -110.850; -268.000; -111.000
444.763;  -10.425;  388.000;  249.000
444.885; -128.825; -432.000; -392.000
445.007;  -33.025;   35.000;   86.000
445.129; -117.175; -610.000; -515.000
445.251;  -89.025; -372.000; -439.000
445.373; -157.200; -537.000; -386.000
445.495;   14.900;  242.000;  350.000
445.617;   29.525;  853.000;  753.000
445.739;  -57.350; -215.000;  -97.000
445.861;  -44.175; -245.000; -112.000
445.984;   -9.725; -267.000; -101.000
446.105;  207.550; -418.000; -251.000
446.227;  705.250; -176.000;  -19.000
446.349;   14.100; -358.000; -249.000
446.471;  -96.850; -615.000; -448.000
446.593;  -61.275; -316.000;   19.000
446.715;   20.300;  -67.000;   41.000
446.837;   48.850;  697.000;  832.000
446.959;  -97.200; -457.000; -478.000
447.081; -134.050; -628.000; -518.000
447.203;   49.125;  862.000;  834.000
447.325;  -95.125; -270.000;   42.000
447.446;   -8.025;  286.000;  530.000
447.568; -157.275; -921.000; -803.000
447.690;  -68.425; -236.000; -245.000
447.812; -150.925; -798.000; -519.000
447.933;  -31.750;  155.000;  127.000
448.055;  -76.900; -306.000; -261.000
448.177;  153.975;   31.000;   79.000
448.299;  125.025; -935.000; -727.000
448.420;   45.500;  -25.000;  159.000
448.542;  -50.850;   -3.000;   33.000
448.664;  -18.200;  109.000;  322.000
448.785;  -40.075;  265.000;   83.000
448.907;  -73.675; -614.000; -353.000
449.028;  -26.900; -771.000; -471.000
449.150;   67.950;  492.000;  589.000
449.272; -171.800;-1044.000; -913.000
449.393;   14.400;  612.000;  694.000
449.515; -137.575; -634.000; -581.000
449.636;  -45.225; -264.000; -155.000
449.758;   72.225;  763.000;  622.000
449.879;  -80.325; -498.000; -396.000
450.001;  -68.400; -149.000;  -49.000
450.122;  -26.025;  -95.000;  162.000
450.244;  -28.475;   37.000;  364.000
450.365;  -78.900; -495.000; -301.000
450.486;  -43.925;   80.000;  268.000
450.608;   20.425;  393.000;  326.000
450.729;   51.950;  578.000;  645.000
450.850;   14.050; -574.000; -466.000
450.972;  643.200; -552.000; -389.000
451.093; 4634.050;  190.000;  588.000
451.214; 2240.700; -516.000; -337.000
451.336;  428.975;  773.000;  579.000
451.457;   52.400;  264.000;  393.000
451.578;  -22.575; -118.000;  -74.000
451.699; -123.925; -546.000; -540.000
451.821;  -65.775; -284.000;  -50.000
451.942;   -6.850;  278.000;  285.000
452.063;   27.400;  228.000;  419.000
452.184;  497.550;  -54.000;  -49.000
452.305; 1098.675;  103.000;  170.000
452.427;  149.700; -549.000; -301.000
452.548;   -8.850;   23.000;   79.000
452.669;  -52.550; -257.000;  -89.000
452.790;  -28.450;    3.000;  -18.000
452.911;  -11.625;  195.000;  259.000
453.032;  -49.700; -289.000;  -60.000
453.153;  -39.175;  -29.000;   81.000
453.274;   85.400;  737.000;  868.000
453.395;  -63.575;  -51.000;  175.000
453.516;  119.825; 1317.000; 1388.000
453.637;  -65.450; -205.000; -150.000
453.758;  -53.450;   15.000;   69.000
453.879; -129.575; -462.000; -250.000
454.000;   92.775; 1086.000;  948.000
454.121; -101.875; -554.000; -326.000
454.242; -110.575; -599.000; -383.000
454.362;  -54.325;  -99.000;  114.000
454.483;  -43.775; -309.000; -229.000
454.604;   57.250;  512.000;  580.000
454.725; -100.875; -627.000; -555.000
454.846; -120.250; -474.000; -406.000
454.967;  -20.875;  230.000;  539.000
455.087;  -44.275;  179.000;  153.000
455.208;   10.650;  554.000;  856.000
455.329;  -65.100;  -22.000;   82.000
455.450;   39.750;  473.000;  633.000
455.570;  -84.050; -234.000; -211.000
455.691;  -39.850;  201.000;  407.000
455.812; -109.850; -270.000;  -92.000
455.932;  -53.575;  107.000;  -97.000
456.053;  -92.850;   36.000;   24.000
456.173; -112.050; -433.000; -355.000
456.294; -136.925; -476.000; -303.000
456.415;  -65.625;  -73.000;   70.000
456.535;  -30.325;  297.000;  273.000
456.656;  -36.125;  132.000;  240.000
456.776;  -85.300;    3.000;  298.000
456.897;   -7.100;  308.000;  513.000
457.017;  -71.275; -153.000;   -3.000
457.138;  -95.750; -402.000; -249.000
457.258;  -34.050;  263.000;  224.000
457.379;   -1.750;  509.000;  521.000
457.499;  -23.600;  443.000;  432.000
457.620; -111.525; -407.000; -231.000
457.740;  -94.075; -132.000;  -11.000
457.860;  -50.150;   87.000;   44.000
457.981;  -52.900;  132.000;  124.000
458.101;  -57.475;  -89.000;   40.000
458.221;  -30.525;  336.000;  402.000
458.342;  -42.450;   -4.000;  -37.000
458.462;    0.175;  617.000;  352.000
458.582;  -37.425; -302.000; -294.000
458.703;    1.825;  303.000;  154.000
458.823;   -8.900;   22.000;  163.000
458.943;   20.425;  341.000;  467.000
459.063;    5.175; 1124.000;  192.000
459.183;  -29.700;  328.000;  313.000
459.304;   16.100;  315.000;  517.000
459.424;  -72.400; -246.000;  -89.000
459.544;  301.225;  388.000;  764.000
459.664;  806.575;  499.000;  506.000
459.784;  343.200; 1004.000; 1175.000
459.904;   65.125;  867.000;  744.000
460.024;   67.125;  867.000;  684.000
460.144;    7.425;  449.000;  554.000
460.264;   -4.975;  515.000;  327.000
460.385;  -96.900; -145.000; -119.000
460.505;   48.350;  905.000;  858.000
460.625;  -92.400;  -17.000;  -68.000
460.745;   -9.700;  396.000;  541.000
460.864;  -39.650;  153.000;  469.000
460.984;   16.500;  499.000;  573.000
461.104;  127.375; 1656.000; 1775.000
461.224;   27.050;  657.000;  650.000
461.344;  -27.700;  431.000;  360.000
461.464;  -33.175;  258.000;  513.000
461.584;   -6.775;  283.000;  466.000
461.704;  -36.100;   58.000;  108.000
461.824;  -67.425;  238.000;  259.000
461.943;  -35.275;  191.000;  130.000
462.063;  -76.600;    2.000;  324.000
462.183;   37.275;  639.000;  717.000
462.303;   94.450; 1678.000; 1230.000
462.422;   41.900;  781.000;  840.000
462.542;  -42.925;  271.000;  391.000
462.662;   48.450;  353.000;  380.000
462.782;  209.100;  833.000;  572.000
462.901;  475.150;  545.000;  717.000
463.021;  288.150; 1702.000; 1638.000
463.141;   -3.025;  337.000;  770.000
463.260;  -25.700;  614.000;  474.000
463.380;   17.850;  902.000;  884.000
463.499;  -48.575;  342.000;  332.000
463.619;  -29.600;  581.000;  559.000
463.738;   96.750; 1644.000;  903.000
463.858;   14.350;  657.000;  811.000
463.978;  -34.925;  542.000;  396.000
464.097;   54.200;  921.000; 1114.000
464.217;  112.000; 1196.000; 1143.000
464.336;  120.650; 1068.000; 1130.000
464.455;  -33.525;  328.000;  659.000
464.575;   32.300;  597.000;  602.000
464.694;  164.175; 1204.000; 1179.000
464.814;  132.550; 1190.000; 1138.000
464.933;   74.200; 1095.000; 1027.000
465.052;  102.250; 1412.000; 1054.000
465.172;   71.725;  922.000;  799.000
465.291;  140.900; 1376.000; 1320.000
465.410;   19.225;  462.000;  735.000
465.530;   78.075; 1355.000; 1310.000
465.649;   59.425; 1209.000; 1273.000
465.768;  145.875; 1673.000; 1508.000
465.888;   57.975;  941.000; 1174.000
466.007;  103.600; 1335.000; 1440.000
466.126;   -7.925;  721.000;  641.000
466.245;   54.850; 1176.000; 1187.000
466.364;   22.925;  950.000; 1060.000
466.484;   50.625; 1024.000; 1213.000
466.603;   32.200; 1101.000; 1222.000
466.722;  127.700; 1490.000; 1769.000
466.841;   66.475; 1151.000; 1401.000
466.960;   64.225; 1069.000;  972.000
467.079;  118.750; 1971.000; 1786.000
467.198;   52.850; 1238.000; 1181.000
467.317;   75.150; 1768.000; 1162.000
467.436;   66.325; 1709.000; 1261.000
467.555;  117.775; 1796.000; 1746.000
467.674;   73.425; 1227.000; 1329.000
467.793;   42.100; 1376.000; 1374.000
467.912;   81.750; 1658.000; 1539.000
468.031;  120.500; 2038.000; 1930.000
468.150;  147.500; 1842.000; 1837.000
468.269;  200.200; 2313.000; 2090.000
468.388;  198.650; 2168.000; 2339.000
468.507;  233.025; 2884.000; 2903.000
468.626;  272.475; 2555.000; 2541.000
468.744;  139.325; 2018.000; 2174.000
468.863;  188.875; 2312.000; 2523.000
468.982;   82.900; 1503.000; 1555.000
469.101;  225.550; 2788.000; 2692.000
469.220;  144.975; 2333.000; 2176.000
469.338;  254.525; 2935.000; 3051.000
469.457;  171.825; 2719.000; 2545.000
469.576;  344.825; 3953.000; 3784.000
469.695;  230.125; 2877.000; 3066.000
469.813;  417.375; 4148.000; 4192.000
469.932;  400.100; 4255.000; 4485.000
470.051;  435.425; 4075.000; 4161.000
470.169;  809.250; 4470.000; 4338.000
470.288; 1457.975; 4700.000; 4809.000
470.406;  889.050; 5059.000; 5194.000
470.525;  665.925; 6101.000; 5787.000
470.644;  638.650; 6847.000; 6794.000
470.762;  808.500; 8397.000; 7873.000
470.881;  882.875; 8651.000; 8464.000
470.999; 1040.750; 9685.000; 9151.000
471.118; 1093.250;11174.000;10711.000

