
Integration time [ms]: 100.000
Averaging Nr. [scans]: 40
Smoothing Nr. [pixels]: 0
Data measured with spectrometer [name]: 2101012U2
Wave   ;Sample   ;Dark     ;Reference
[nm]   ;[counts] ;[counts] ;[counts] 

197.733;   56.450;  516.000;  404.000
197.879;  -81.475; -610.000; -634.000
198.025;  -57.500; -475.000; -420.000
198.171;  -80.475; -602.000; -612.000
198.317;  -32.800; -401.000; -316.000
198.463;  -67.650; -655.000; -404.000
198.609;   23.975;  181.000; -137.000
198.755;  -72.675; -644.000; -410.000
198.901;  -76.325; -505.000; -424.000
199.047;  -74.400; -615.000; -488.000
199.193;  -36.225; -230.000; -468.000
199.339;  -39.275; -222.000; -369.000
199.485;   30.525;  330.000;  271.000
199.631;   16.750;  227.000;  310.000
199.777;  -56.900; -466.000; -398.000
199.923;  -63.975; -610.000; -424.000
200.069;   -7.325; -141.000;  -58.000
200.215;   54.125;  128.000;  453.000
200.361;   46.875;  243.000;  477.000
200.507;  -63.575; -600.000; -373.000
200.653;  -34.350; -371.000; -194.000
200.798;  -36.600; -215.000; -125.000
200.944;  -19.950; -146.000;  -41.000
201.090;   25.075;   61.000;  222.000
201.236;   -6.200; -116.000; -158.000
201.382;  117.675;  874.000;  903.000
201.528;   -1.225;  -58.000;  -48.000
201.674;  -60.250; -386.000; -293.000
201.819;  -70.800; -540.000; -439.000
201.965;  -83.325; -699.000; -447.000
202.111;  -37.325; -273.000; -226.000
202.257;  -36.225; -250.000; -238.000
202.402;   -4.300;   13.000;  -36.000
202.548;  -33.000; -169.000; -116.000
202.694;   75.625;  410.000; -183.000
202.840;  -89.075; -603.000; -531.000
202.985;  -73.625; -681.000; -639.000
203.131; -112.800; -832.000; -666.000
203.277;  -28.325; -199.000; -262.000
203.423;  -55.975; -434.000; -520.000
203.568;  -42.500; -462.000; -237.000
203.714;  -61.450; -535.000; -542.000
203.860;  -84.325; -682.000; -641.000
204.005;   18.875;  112.000;  167.000
204.151;   64.825;  561.000;  556.000
204.296;  -48.325; -354.000; -221.000
204.442;  -69.350; -600.000; -547.000
204.588;  -63.525; -592.000; -579.000
204.733;   12.600;  178.000;  168.000
204.879; -118.000;-1018.000; -822.000
205.025;   -9.525;  -99.000;  126.000
205.170;  -15.850;  -17.000;   94.000
205.316;   80.275;  438.000;  661.000
205.461;  -92.625; -698.000; -554.000
205.607;   69.125;  609.000;  665.000
205.752;  -87.575; -626.000; -551.000
205.898;  -58.150; -501.000; -391.000
206.043;  -65.375; -578.000; -506.000
206.189;  -42.425; -243.000; -285.000
206.334;   65.125;  554.000;  606.000
206.480;   68.300;  409.000;  239.000
206.625;  -76.900; -529.000; -552.000
206.771;  -46.350; -451.000; -373.000
206.916;  -50.175; -210.000; -537.000
207.062;  -82.300; -545.000; -591.000
207.207;  -67.025; -546.000; -443.000
207.353;   44.025;  185.000;  460.000
207.498;   15.000;  196.000;   85.000
207.643;  -52.775; -501.000; -370.000
207.789; -120.850;-1069.000; -910.000
207.934;  -92.225; -665.000; -713.000
208.080;  -34.200; -154.000;   66.000
208.225;  -12.650;  -22.000;  -57.000
208.370;  -88.050; -727.000; -619.000
208.516;  -78.375; -741.000; -487.000
208.661;  -29.600; -127.000;  -69.000
208.806;  -24.175; -165.000; -171.000
208.952; -118.450;-1044.000; -731.000
209.097;   57.825;  378.000;  349.000
209.242;  -45.050; -307.000; -382.000
209.387;   52.500;  392.000;  350.000
209.533;  -41.125; -321.000; -350.000
209.678;   67.975;  472.000;  543.000
209.823;  -62.375; -408.000; -310.000
209.969;  -99.875; -860.000; -757.000
210.114;  -91.925; -907.000; -719.000
210.259; -131.200; -939.000; -889.000
210.404;  -14.725; -171.000;  103.000
210.549;    6.150;  108.000;    3.000
210.695;  -16.750;   -3.000;  -95.000
210.840;   29.300;   94.000;   67.000
210.985;  -62.325; -484.000; -303.000
211.130;   55.325;  268.000;  406.000
211.275;    4.275;  207.000;  199.000
211.420;  -50.350; -300.000; -289.000
211.566;  -68.775; -536.000; -489.000
211.711;   15.625;  218.000;  157.000
211.856;  -68.100; -545.000; -519.000
212.001;   21.325;  151.000;   44.000
212.146;   20.675;  153.000;   49.000
212.291;  -29.675; -210.000; -186.000
212.436;  -30.575; -280.000;   -6.000
212.581; -100.400; -685.000; -653.000
212.726;  -80.950; -487.000; -538.000
212.871;  -62.075; -552.000; -217.000
213.016; -147.425;-1172.000;-1029.000
213.161;   59.500;  406.000;  291.000
213.306;  -78.700; -435.000; -577.000
213.451;  -83.075; -778.000; -689.000
213.596;  -51.450; -455.000; -347.000
213.741;  -66.225; -448.000; -538.000
213.886;  -80.050; -498.000; -517.000
214.031;  -25.875; -294.000; -124.000
214.176;  -55.425; -408.000; -341.000
214.321;  -22.825; -296.000; -157.000
214.466;  -26.775; -163.000;  -43.000
214.611;  -23.925;  -61.000;  -10.000
214.756; -114.750; -948.000; -858.000
214.901;  -25.650; -388.000; -226.000
215.046; -111.700; -797.000; -825.000
215.191;   11.350;  128.000;   35.000
215.336;  -18.300; -157.000;  -19.000
215.480;  -70.975; -684.000; -505.000
215.625;  -18.200; -175.000;  -19.000
215.770; -101.975; -757.000; -662.000
215.915;   -4.425;   -5.000;  -97.000
216.060;  -20.400; -113.000;  -21.000
216.205;  -96.575; -731.000; -779.000
216.349;  -81.300; -470.000; -533.000
216.494; -135.325; -939.000; -867.000
216.639; -130.450; -823.000; -888.000
216.784;  -90.650; -577.000; -525.000
216.929;   51.975;  392.000;  281.000
217.073;  -22.725; -244.000;  -31.000
217.218;   -0.625;   78.000;  -47.000
217.363;  -86.350; -656.000; -618.000
217.507; -101.675; -623.000; -588.000
217.652; -113.450; -845.000; -874.000
217.797; -102.700; -708.000; -659.000
217.942; -109.175; -856.000; -720.000
218.086;   69.975;  608.000;  539.000
218.231;   -9.175; -174.000;  -26.000
218.376;  -44.400; -337.000; -229.000
218.520;    3.000;  -41.000;   96.000
218.665;  -40.125; -338.000; -204.000
218.810;  -56.750; -275.000; -233.000
218.954;   12.325;  201.000;   35.000
219.099; -105.450; -713.000; -963.000
219.243;  -76.450; -589.000; -554.000
219.388;  -32.850; -264.000; -136.000
219.532;  -21.275; -116.000; -116.000
219.677;  -74.125; -564.000; -521.000
219.822;    5.425;   33.000;   89.000
219.966;    9.950;   17.000;  -99.000
220.111;  -34.850; -328.000;  -40.000
220.255;  -93.925; -797.000; -750.000
220.400;  -24.925; -180.000; -146.000
220.544;  -69.075; -516.000; -450.000
220.689;  -54.200; -422.000; -451.000
220.833;  -27.675; -123.000;  -58.000
220.978;  -47.100; -393.000; -563.000
221.122;   24.050;  319.000;  307.000
221.267; -128.425; -906.000; -837.000
221.411;  -72.675; -478.000; -394.000
221.555;  -12.475; -104.000;  -23.000
221.700;  -58.975; -329.000; -222.000
221.844;   34.300;  255.000;  272.000
221.989;  -57.550; -328.000; -311.000
222.133;  -46.675; -289.000; -307.000
222.277;   -3.675;    5.000;   78.000
222.422;   10.600;  227.000;  113.000
222.566;  -30.825; -381.000; -214.000
222.711;  -61.075; -414.000; -479.000
222.855;  -85.025; -643.000; -586.000
222.999;  -87.825; -642.000; -717.000
223.144;  -40.075; -195.000; -194.000
223.288;   42.775;  423.000;  251.000
223.432;   20.500;  184.000;  230.000
223.576;   13.325;  152.000;  -21.000
223.721;   34.025;  364.000;  273.000
223.865;  -58.075; -472.000; -475.000
224.009;  217.950; 1673.000; 1631.000
224.153;  -81.425; -660.000; -671.000
224.298;  -77.000; -531.000; -489.000
224.442;  -17.200;  -74.000;  -33.000
224.586;   -6.075; -169.000; -106.000
224.730; -106.375; -858.000; -670.000
224.875; -114.800; -739.000; -688.000
225.019;    2.225;  102.000;  188.000
225.163;   45.125;  208.000;  341.000
225.307;    1.350;   97.000;  -91.000
225.451;   36.775;  360.000;  481.000
225.595;   28.600;  264.000;  176.000
225.739;  -12.250; -170.000;  -94.000
225.884;   -6.300;   86.000;    5.000
226.028; -100.275; -760.000; -626.000
226.172;  -43.800; -260.000; -273.000
226.316; -124.850; -941.000; -902.000
226.460;  -69.700; -645.000; -493.000
226.604;  -64.025; -406.000; -400.000
226.748; -106.150; -836.000; -733.000
226.892;  -36.850; -227.000; -181.000
227.036;  -59.075; -537.000; -447.000
227.180;  -47.325; -551.000; -375.000
227.324;  -67.500; -561.000; -580.000
227.468; -110.575; -819.000; -717.000
227.612;   18.100;  242.000;  -28.000
227.756;  -95.400; -845.000; -698.000
227.900;   35.025;  342.000;  441.000
228.044;  -65.600; -509.000; -290.000
228.188;   43.950;  448.000;  568.000
228.332;  -85.400; -546.000; -472.000
228.476;  -27.800; -223.000; -149.000
228.620;  -33.400; -210.000; -150.000
228.764;   61.575;  431.000;  349.000
228.908;   -9.850; -155.000;   30.000
229.052;  -67.675; -615.000; -528.000
229.195;  -25.125; -172.000;   13.000
229.339;  -27.150; -235.000; -305.000
229.483;  -25.000;    5.000; -162.000
229.627;   -8.725; -156.000;  139.000
229.771;  -54.925; -218.000; -294.000
229.915;   -1.500;  230.000;   79.000
230.059;  -97.100; -648.000; -663.000
230.202;  -51.650; -370.000; -317.000
230.346;  -24.075; -107.000;  107.000
230.490;  -54.700; -489.000; -521.000
230.634;  -98.500; -736.000; -553.000
230.777;   56.275;  478.000;  509.000
230.921;  -65.200; -450.000; -359.000
231.065;  -46.350; -246.000; -286.000
231.209;   23.800;  261.000;  265.000
231.352;   11.600;   54.000;   40.000
231.496;   14.875;  568.000;  188.000
231.640;  -83.150; -693.000; -621.000
231.783;   53.950;  546.000;  525.000
231.927;  -58.925; -294.000; -365.000
232.071; -117.150; -962.000; -736.000
232.214; -122.575; -980.000; -764.000
232.358;  -96.400; -683.000; -599.000
232.502;  -13.250;  -19.000;    7.000
232.645; -138.275;-1090.000; -927.000
232.789;  -24.800; -257.000; -218.000
232.933;  -35.925; -407.000; -224.000
233.076; -128.950;-1038.000; -897.000
233.220; -111.025; -752.000; -777.000
233.363;  -85.175; -669.000; -477.000
233.507;   44.925;  371.000;  129.000
233.650;  -97.950; -764.000; -834.000
233.794;   53.700;  438.000;  461.000
233.938;  -71.900; -530.000; -362.000
234.081;  -26.650;  -93.000;   31.000
234.225;  -72.750; -631.000; -539.000
234.368; -117.625; -773.000; -723.000
234.512;  -39.550; -385.000; -299.000
234.655;  -95.975; -582.000; -555.000
234.798;  -73.450; -493.000; -466.000
234.942; -121.900; -884.000;-1002.000
235.085;  -75.150; -651.000; -443.000
235.229;  -86.750; -405.000; -410.000
235.372;  -59.075; -247.000; -191.000
235.516;  -76.825; -397.000; -321.000
235.659;   11.350;   92.000;  121.000
235.802;  -17.350;  -38.000;  -22.000
235.946;   19.250;  335.000;  215.000
236.089;   20.225;  126.000;  250.000
236.233;   41.225;  275.000;  298.000
236.376;  -53.875; -235.000; -378.000
236.519;  -54.350; -297.000; -319.000
236.663;  -17.025; -215.000; -117.000
236.806; -145.375;-1029.000; -999.000
236.949;   22.975;  543.000;  431.000
237.092;   58.175;  412.000;  391.000
237.236;  -84.250; -589.000; -502.000
237.379;   57.600;  352.000;  428.000
237.522; -115.025; -879.000; -768.000
237.666;  -34.450; -271.000;   18.000
237.809; -125.325; -851.000; -823.000
237.952;   16.825;  469.000;  271.000
238.095;  -61.450; -447.000; -442.000
238.238;   74.275;  688.000;  700.000
238.382;  -10.450;  166.000;  103.000
238.525;  -84.575; -598.000; -511.000
238.668; -140.075;-1060.000; -985.000
238.811;  -91.850; -638.000; -643.000
238.954;  -59.125; -483.000; -334.000
239.097;   71.025;  617.000;  664.000
239.241;   15.775;  394.000;  326.000
239.384;  -55.625; -254.000; -214.000
239.527;  -66.525; -424.000; -224.000
239.670; -146.825; -994.000;-1091.000
239.813; -113.300; -696.000; -658.000
239.956;   58.500;  579.000;  473.000
240.099; -109.575; -778.000; -725.000
240.242;   51.050;  428.000;  432.000
240.385;   40.325;  466.000;  450.000
240.528;  -67.175; -706.000; -473.000
240.671;   10.000;  189.000;  134.000
240.814;  -52.150; -441.000; -158.000
240.957; -101.925; -767.000; -578.000
241.100;  -89.750; -779.000; -755.000
241.243; -142.300;-1234.000; -893.000
241.386;  -77.950; -508.000; -379.000
241.529;  -86.725; -735.000; -547.000
241.672;  -62.475; -566.000; -495.000
241.815; -112.800; -832.000; -808.000
241.958;  -43.500; -125.000; -182.000
242.101;  -64.700; -545.000; -390.000
242.244;  -59.850; -270.000; -325.000
242.387;  -48.475; -304.000; -246.000
242.530;   53.100;  470.000;  134.000
242.673;  -50.950; -381.000; -309.000
242.815; -128.100; -925.000; -899.000
242.958;  -68.425; -482.000; -381.000
243.101;    6.875;  132.000;  187.000
243.244;  -85.850; -564.000; -521.000
243.387;  -45.300; -313.000; -316.000
243.530;  -90.025; -657.000; -674.000
243.672;   -7.200;   43.000;  -92.000
243.815;  -41.950; -355.000; -283.000
243.958;   -9.875;   98.000;  -26.000
244.101;    4.950;   59.000;  -16.000
244.243;  -21.900;  -47.000;  101.000
244.386; -107.950; -761.000; -630.000
244.529;  -34.075; -132.000; -139.000
244.672; -151.725;-1154.000; -951.000
244.814; -100.725; -621.000; -794.000
244.957;  -44.150; -380.000; -304.000
245.100;  -87.225; -489.000; -489.000
245.242;  -53.125; -387.000; -374.000
245.385;  -28.300;  -59.000;  -39.000
245.528; -119.325; -871.000; -705.000
245.670;   79.400;  612.000;  634.000
245.813;  -83.150; -599.000; -547.000
245.956;  -46.525; -324.000; -275.000
246.098;  -70.225; -508.000; -650.000
246.241;   -5.225;  194.000;   48.000
246.383;  -35.600; -119.000;  -73.000
246.526;  -84.975; -454.000; -525.000
246.669; -115.750; -889.000; -780.000
246.811;   10.350;  172.000;   -1.000
246.954;  -63.650; -512.000; -426.000
247.096;  -33.250;  -84.000;   -6.000
247.239;  -81.500; -482.000; -445.000
247.381;  -76.100; -647.000; -488.000
247.524;   74.225;  645.000;  679.000
247.666;   -6.125;   58.000;   11.000
247.809; -106.525; -887.000; -691.000
247.951;   -8.125;  -75.000;  138.000
248.094;   10.975;  432.000;  308.000
248.236; -171.200;-1262.000;-1238.000
248.378;  -17.100; -356.000;  -81.000
248.521;  -43.950; -334.000; -337.000
248.663;  -48.950; -236.000; -267.000
248.806;  -44.275; -300.000; -266.000
248.948;  -93.750; -886.000; -763.000
249.090;  -71.500; -428.000; -398.000
249.233;  -78.575; -344.000; -381.000
249.375;  -63.325; -474.000; -451.000
249.518;  -19.875;  -83.000; -133.000
249.660;  -12.750; -103.000;    3.000
249.802; -162.525;-1303.000;-1189.000
249.945;  -93.100; -612.000; -540.000
250.087; -115.825; -834.000; -768.000
250.229;  -58.150; -362.000; -480.000
250.371;  -74.900; -494.000; -439.000
250.514;  -52.200; -310.000; -244.000
250.656;  -65.875;   69.000;  102.000
250.798; -108.825; -849.000; -800.000
250.940;  -60.625; -322.000; -322.000
251.083;  -48.250; -335.000; -111.000
251.225;   46.500;  338.000;  310.000
251.367;  -45.575; -274.000; -373.000
251.509;  -40.075; -265.000; -210.000
251.651;  -99.675; -731.000; -671.000
251.794;   34.300;  538.000;  632.000
251.936; -120.325; -821.000; -747.000
252.078;  -90.250; -540.000; -461.000
252.220;  -76.100; -645.000; -477.000
252.362;   43.050;  344.000;  462.000
252.504;  -75.725; -677.000; -584.000
252.646; -121.525; -875.000; -722.000
252.788;  -20.525;   14.000; -128.000
252.931;  -50.650; -257.000; -253.000
253.073;  -52.675; -376.000; -317.000
253.215;  -12.125;  141.000;  122.000
253.357;  -28.125;   82.000; -153.000
253.499;  -57.100; -374.000; -234.000
253.641; -101.075; -749.000; -594.000
253.783; -103.675; -609.000; -527.000
253.925; -103.875; -586.000; -591.000
254.067; -121.125; -744.000; -667.000
254.209;  -50.425; -391.000; -259.000
254.351; -127.325; -865.000; -883.000
254.493;  -72.200; -441.000; -417.000
254.635; -127.225; -936.000; -818.000
254.777;  -93.525; -752.000; -687.000
254.918;  -63.925; -512.000; -430.000
255.060;  -72.400; -551.000; -395.000
255.202;  -62.775; -473.000; -261.000
255.344;  -83.900; -658.000; -455.000
255.486;  -68.975; -471.000; -406.000
255.628; -109.125; -780.000; -781.000
255.770;  -81.125; -676.000; -536.000
255.912;  -65.625; -559.000; -468.000
256.053;  -99.025; -730.000; -508.000
256.195;  135.650; 1008.000;  903.000
256.337;  -96.700; -861.000; -595.000
256.479;   56.675;  532.000;  416.000
256.621;  -48.175; -394.000; -212.000
256.762; -108.100; -789.000; -742.000
256.904;   50.800;  485.000;  487.000
257.046;  -47.625; -381.000; -271.000
257.188;  -36.750; -351.000; -264.000
257.329;  -80.050; -525.000; -464.000
257.471; -116.150; -939.000; -807.000
257.613;  -74.375; -584.000; -498.000
257.755; -148.050;-1073.000; -982.000
257.896;   25.100;  286.000;  392.000
258.038;  -82.875; -403.000; -352.000
258.180;  -40.725; -354.000; -279.000
258.321;  -80.700; -581.000; -457.000
258.463;  -12.975;  -71.000;  133.000
258.605;  -99.175; -562.000; -570.000
258.746; -109.900; -886.000; -772.000
258.888; -151.625;-1026.000;-1020.000
259.029;    5.000;  121.000;   -8.000
259.171;  -85.800; -614.000; -550.000
259.313;  -30.175;  -49.000;  -47.000
259.454;  -78.475; -536.000; -414.000
259.596;  -64.400; -483.000; -390.000
259.737;  -86.275; -590.000; -474.000
259.879;   10.900;  217.000;  311.000
260.020;   67.875;  901.000;  636.000
260.162;  -44.300; -146.000; -253.000
260.303; -109.850; -768.000; -687.000
260.445;  -77.350; -609.000; -613.000
260.586;   15.475;  392.000;  157.000
260.728;  -59.875; -360.000; -248.000
260.869;  -75.100; -350.000; -343.000
261.011;   64.650;  706.000;  537.000
261.152;  -60.650; -479.000; -319.000
261.293;  -92.475; -576.000; -595.000
261.435;  -29.600; -219.000; -184.000
261.576;  -61.650; -455.000; -325.000
261.718;   47.150;  420.000;  470.000
261.859; -133.050; -940.000; -949.000
262.000; -128.450; -951.000;-1016.000
262.142;  -39.225;  -52.000;  -60.000
262.283; -115.900; -808.000; -691.000
262.424;  -95.750; -666.000; -625.000
262.566; -142.675;-1161.000; -983.000
262.707; -118.200; -840.000; -830.000
262.848; -124.800; -769.000; -726.000
262.990;  -60.575; -362.000; -345.000
263.131;   66.025;  650.000;  681.000
263.272;  -11.225;  -61.000;  -41.000
263.413;  -93.300; -589.000; -561.000
263.555;  -76.125; -669.000; -143.000
263.696;  -71.075; -550.000; -641.000
263.837;  -52.625; -449.000; -551.000
263.978;  -16.500;   -5.000;  -77.000
264.119;  -51.975; -283.000; -264.000
264.261; -114.775; -847.000; -630.000
264.402;  -13.225;   33.000;   40.000
264.543;  -82.350; -509.000; -524.000
264.684;  -22.900;   61.000;  -50.000
264.825;  -70.225; -816.000; -538.000
264.966;  -22.800;  -84.000;  -67.000
265.107; -125.750; -646.000; -670.000
265.248; -124.875; -825.000; -812.000
265.390;   -6.400;  152.000;   -9.000
265.531;  -31.200; -238.000; -107.000
265.672;  -92.850; -557.000; -630.000
265.813;   47.400;  563.000;  439.000
265.954; -149.100; -959.000; -940.000
266.095;  -29.400; -372.000; -322.000
266.236; -105.225; -686.000; -548.000
266.377;  -59.025; -243.000; -297.000
266.518;  -77.725; -619.000; -547.000
266.659;    9.350;  170.000;  268.000
266.800;    9.400;   83.000;   85.000
266.941;  -74.175; -487.000; -478.000
267.082;   15.625;  354.000;   99.000
267.223;  -55.550; -344.000; -273.000
267.364; -127.950; -892.000; -686.000
267.504;  -30.175;    3.000;  135.000
267.645;   -7.475;  160.000;   67.000
267.786;  -44.925; -147.000;  -86.000
267.927;  -89.150; -473.000; -379.000
268.068;  -46.300; -186.000;  -61.000
268.209;  -54.800; -175.000; -413.000
268.350;  -75.900; -388.000; -532.000
268.490;  -89.050; -648.000; -521.000
268.631;   20.200;  127.000;  225.000
268.772; -111.825; -874.000; -647.000
268.913;  -58.450; -328.000; -476.000
269.054;  -24.600; -117.000;   12.000
269.194;  -55.000; -418.000; -402.000
269.335; -152.475;-1137.000;-1074.000
269.476;  -29.825;   33.000;  -35.000
269.617;  -56.675; -347.000; -392.000
269.757;  -99.475; -713.000; -646.000
269.898; -115.725; -856.000; -613.000
270.039;  -76.650; -415.000; -405.000
270.180; -135.125; -952.000; -816.000
270.320;  -35.700; -190.000; -250.000
270.461;  -42.975; -277.000; -249.000
270.602;  -35.700; -186.000; -156.000
270.742; -125.875; -868.000; -943.000
270.883;  -61.975; -442.000; -390.000
271.023;  -60.675; -358.000; -357.000
271.164;  -83.425; -607.000; -528.000
271.305; -107.925; -666.000; -654.000
271.445; -106.400; -722.000; -683.000
271.586;  -72.050; -462.000; -283.000
271.726;  -50.550; -397.000; -322.000
271.867;  -79.775; -594.000; -534.000
272.008;   57.000; -473.000; -285.000
272.148;   67.600;  462.000;  468.000
272.289;  -17.325; -113.000; -181.000
272.429;    2.775;   19.000;  185.000
272.570;  -94.925; -633.000; -737.000
272.710; -109.625; -825.000; -775.000
272.851;  -31.600;  113.000; -130.000
272.991; -166.400;-1173.000;-1077.000
273.131;  -78.725; -419.000; -459.000
273.272; -110.150; -683.000; -723.000
273.412;  -27.125; -143.000;  -31.000
273.553;  -70.325; -488.000; -507.000
273.693;   99.675;  913.000;  858.000
273.834; -122.125; -894.000; -692.000
273.974;  -97.250; -664.000; -615.000
274.114; -113.025; -772.000; -560.000
274.255;   44.650;  414.000;  373.000
274.395;  -32.950; -180.000; -125.000
274.535;    7.025;  199.000;  350.000
274.676;   12.725;  225.000;   94.000
274.816;  -26.575;  110.000;   34.000
274.956;  -95.075; -624.000; -690.000
275.097;  -99.100;-1014.000; -922.000
275.237; -110.800; -913.000; -803.000
275.377; -109.150; -778.000; -689.000
275.517; -153.775; -878.000; -937.000
275.658;  -83.575; -590.000; -555.000
275.798;  -86.950; -606.000; -413.000
275.938;   12.575;  215.000;  323.000
276.078; -114.775; -626.000; -395.000
276.218;  -21.050;   99.000;  104.000
276.359; -131.000;-1026.000;-1024.000
276.499;  -84.175; -605.000; -446.000
276.639;  -49.900; -305.000; -151.000
276.779;  -57.875; -475.000; -357.000
276.919; -106.750; -783.000; -624.000
277.059;  -38.525; -261.000; -212.000
277.199;  -62.200; -357.000; -259.000
277.340;   16.925;  287.000;  175.000
277.480; -115.950; -840.000; -693.000
277.620;   13.000;  192.000;   16.000
277.760; -190.725;-1533.000;-1294.000
277.900;   -2.125;  113.000;   33.000
278.040;    0.900;  137.000;  159.000
278.180;    9.975;  270.000;  170.000
278.320;  -18.775;   21.000;   56.000
278.460;  -75.875; -443.000; -469.000
278.600; -100.025; -708.000; -598.000
278.740;   47.725;  448.000;  224.000
278.880; -121.400; -768.000; -791.000
279.020;  -33.500; -194.000; -144.000
279.160;  -93.250; -672.000; -595.000
279.300; -132.350; -926.000; -873.000
279.440;  -88.175; -709.000; -622.000
279.579; -104.200;-1014.000; -929.000
279.719;  -67.650; -410.000; -394.000
279.859;   33.725;   -4.000;   41.000
279.999;  -19.375; -208.000;  101.000
280.139;  -50.575; -435.000; -387.000
280.279;  -95.025; -708.000; -745.000
280.419;  -29.125; -229.000; -147.000
280.559;  -47.775; -259.000; -180.000
280.698;  -96.700; -790.000; -639.000
280.838; -110.850; -778.000; -800.000
280.978; -100.825; -846.000; -790.000
281.118; -120.900; -811.000; -704.000
281.257;    1.600;   24.000;    6.000
281.397; -140.700;-1094.000; -960.000
281.537;  -95.325; -599.000; -712.000
281.677;  -35.850; -150.000; -101.000
281.816;  -95.600; -700.000; -630.000
281.956;  -41.125; -193.000; -257.000
282.096;  -74.975; -539.000; -396.000
282.235; -112.375; -672.000; -638.000
282.375;  -23.500; -243.000;  -98.000
282.515; -113.375; -715.000; -707.000
282.654;    2.800;   29.000;  106.000
282.794;   17.900;  388.000;  244.000
282.934;  -72.400; -530.000; -491.000
283.073; -143.875;-1030.000; -857.000
283.213;  -69.725; -460.000; -467.000
283.353;  -57.500; -408.000; -349.000
283.492;  -31.300; -264.000; -296.000
283.632;  -45.450; -254.000; -168.000
283.771; -112.675; -859.000; -730.000
283.911;  -71.275; -369.000; -260.000
284.050; -111.650; -794.000; -748.000
284.190; -165.750;-1229.000;-1096.000
284.329; -146.100;-1055.000; -964.000
284.469;  -99.625; -516.000; -591.000
284.608;  -72.075; -559.000; -598.000
284.748; -100.200; -614.000; -570.000
284.887;  -16.850;  -87.000;  -20.000
285.027; -123.100; -844.000; -892.000
285.166;  -44.375; -192.000; -249.000
285.306;  -14.825; -116.000;  -33.000
285.445;  -56.675; -229.000; -343.000
285.584;  -99.950; -630.000; -494.000
285.724;  -60.325; -282.000; -322.000
285.863; -104.200; -857.000; -507.000
286.002;  -67.625; -366.000; -276.000
286.142; -106.375; -715.000; -622.000
286.281;  -81.025; -525.000; -493.000
286.420;  -88.600; -554.000; -417.000
286.560;   68.225;  653.000;  623.000
286.699; -134.375; -958.000; -912.000
286.838;  -91.175; -590.000; -591.000
286.978; -105.325; -533.000; -537.000
287.117; -138.150;-1085.000; -950.000
287.256;  -51.625; -228.000; -211.000
287.395;  -55.875; -197.000; -378.000
287.535;  -53.775; -370.000; -298.000
287.674;  -82.875; -509.000; -484.000
287.813;   61.900;  661.000;  533.000
287.952; -147.925;-1010.000; -871.000
288.091; -156.675;-1049.000; -915.000
288.231;  -19.575;   13.000;   15.000
288.370; -175.325;-1217.000;-1200.000
288.509; -101.725; -728.000; -645.000
288.648;  -94.825; -770.000; -548.000
288.787;  -48.350; -243.000;  -87.000
288.926;  -77.775; -454.000; -475.000
289.065;   89.125;  859.000;  672.000
289.204;  -62.500; -377.000; -217.000
289.344; -102.975; -791.000; -690.000
289.483;   19.625;  416.000;  304.000
289.622;  -40.000; -291.000; -149.000
289.761;  -20.650; -309.000; -166.000
289.900; -112.275; -785.000; -626.000
290.039;  -31.150;  -12.000;  -95.000
290.178;  -58.025; -274.000; -180.000
290.317;  -89.400; -618.000; -479.000
290.456;  -77.750; -463.000; -451.000
290.595; -113.625; -961.000; -833.000
290.734; -138.300; -904.000; -891.000
290.873;  -72.575; -456.000; -420.000
291.011; -118.800; -833.000; -843.000
291.150; -118.800; -770.000; -682.000
291.289;  -49.875; -343.000; -110.000
291.428; -101.950; -599.000; -480.000
291.567;  -65.800; -370.000; -442.000
291.706;   -3.000;  109.000;  154.000
291.845; -111.425; -597.000; -505.000
291.984; -181.750;-1234.000;-1061.000
292.122;   52.950;  602.000;  582.000
292.261;   39.550;  620.000;  463.000
292.400;   -1.800; -144.000;  211.000
292.539; -127.900; -959.000; -813.000
292.678;  -50.500; -325.000; -300.000
292.816; -160.025;-1136.000; -965.000
292.955; -111.700; -844.000; -684.000
293.094;  -28.400; -173.000; -337.000
293.233;  -59.575; -556.000; -400.000
293.371;  -43.075; -225.000;  -84.000
293.510; -119.800; -866.000; -780.000
293.649; -136.950; -959.000; -924.000
293.787; -120.400;-1083.000;-1012.000
293.926;  -24.275; -113.000;  -32.000
294.065;  -60.075; -379.000; -290.000
294.203;   41.000;  298.000;  406.000
294.342;   17.600;   74.000;  156.000
294.481; 5969.200;51180.000; -836.000
294.619;  -31.700; -425.000; -582.000
294.758; -148.075;-1230.000;-1137.000
294.896;   -2.175; -125.000;    5.000
295.035; -140.900;-1040.000;-1006.000
295.174; -134.150;-1082.000; -954.000
295.312;  -44.525; -323.000; -203.000
295.451;  -59.300; -307.000; -428.000
295.589;  -76.750; -389.000; -518.000
295.728;   -4.900; -292.000; -165.000
295.866;  -29.175;  -36.000;  -51.000
296.005;  -87.550; -584.000; -341.000
296.143;  -83.200; -558.000; -596.000
296.282; -120.600; -957.000; -881.000
296.420;  -89.775; -657.000; -557.000
296.559; -101.800; -892.000; -633.000
296.697;  -68.525; -847.000; -665.000
296.835; -101.775;-1141.000;-1002.000
296.974;    7.425;  -23.000;   39.000
297.112;  -59.575; -443.000; -504.000
297.251; -114.400; -815.000; -755.000
297.389;  -25.875; -576.000; -438.000
297.527;  -15.025; -145.000;  -83.000
297.666;  -73.550; -486.000; -438.000
297.804;  -55.375; -404.000; -264.000
297.942;   -8.825; -136.000; -161.000
298.081;  -22.900; -183.000;   63.000
298.219;   -1.775;  -17.000;  -19.000
298.357;  -15.600; -144.000;  -71.000
298.495;  -91.300; -810.000; -812.000
298.634;    7.400;  245.000;  219.000
298.772;  -48.425; -220.000; -338.000
298.910;  -58.875; -309.000; -182.000
299.048;  -38.250; -130.000; -153.000
299.187;  -44.750; -350.000; -250.000
299.325;  -20.325;   52.000;  122.000
299.463;  -40.575; -389.000; -299.000
299.601;  -21.650; -327.000; -271.000
299.739; -134.675; -908.000; -883.000
299.877;  -94.750; -791.000; -703.000
300.016; -109.775;-1095.000; -935.000
300.154;   29.750;  -19.000; -161.000
300.292;  -41.475; -428.000; -348.000
300.430;  -39.700; -408.000; -291.000
300.568; -121.750; -940.000; -874.000
300.706;  -79.900; -366.000; -469.000
300.844; -131.300;-1108.000; -979.000
300.982;   70.500;  246.000;  282.000
301.120; -128.450; -965.000; -866.000
301.258; -103.300; -812.000; -705.000
301.396;    1.575;  104.000;  -41.000
301.534;  -35.950; -218.000; -293.000
301.672;  -88.125; -664.000; -521.000
301.810;  -76.025; -613.000; -545.000
301.948;   12.975;   53.000;  149.000
302.086;  197.150; -250.000;  -32.000
302.224;  265.525; -610.000; -585.000
302.362;  -76.600; -558.000; -622.000
302.500; -101.975; -923.000; -893.000
302.638;   20.500;  128.000;  245.000
302.776;  -47.050; -352.000; -408.000
302.913;   11.025;  447.000;  236.000
303.051;  -33.775;  -86.000;  -23.000
303.189;    1.475;   90.000;  118.000
303.327;  -53.575; -341.000; -256.000
303.465;  -97.975; -832.000; -588.000
303.603; -105.950; -805.000; -604.000
303.740;   44.425;  417.000;  241.000
303.878;  -72.700; -800.000; -759.000
304.016; -110.150; -915.000; -790.000
304.154; -158.650;-1123.000;-1152.000
304.291;  -76.250; -505.000; -554.000
304.429;  -15.475;  102.000;   74.000
304.567; -145.650; -908.000; -893.000
304.705;  -75.925; -408.000; -515.000
304.842;  -34.900; -616.000; -540.000
304.980;    6.875;  215.000;   35.000
305.118;  -34.425; -367.000; -365.000
305.255; -117.850; -945.000; -927.000
305.393;   16.025;  178.000;  239.000
305.531; -149.675;-1173.000; -956.000
305.668;  -95.075; -663.000; -582.000
305.806;   13.150; -358.000; -439.000
305.943;  -24.950; -629.000; -637.000
306.081;   -8.275; -378.000; -267.000
306.219; -119.825; -863.000; -748.000
306.356;   14.450;  158.000;   27.000
306.494;  101.350;  981.000;  761.000
306.631;   -4.925;  -11.000;  -55.000
306.769;  -46.650; -613.000; -485.000
306.906;  -54.375; -284.000; -258.000
307.044;  -71.750; -473.000; -488.000
307.181;  -53.075; -410.000; -332.000
307.319;   -0.250;  112.000;   87.000
307.456; -177.925;-1191.000;-1153.000
307.594; -117.750; -980.000; -727.000
307.731;  -31.975; -371.000; -164.000
307.868;  -18.875;  -15.000;   20.000
308.006; -134.525; -961.000; -847.000
308.143;  -85.750; -618.000; -330.000
308.281;   25.250;  -37.000; -254.000
308.418;  -65.100; -748.000; -640.000
308.555;  -78.250; -400.000; -250.000
308.693;  -89.325; -577.000; -573.000
308.830; -114.175; -712.000; -657.000
308.967;  -19.475; -215.000;  -95.000
309.105;  -37.250; -507.000; -396.000
309.242;  -26.275; -468.000; -367.000
309.379;   38.550; -577.000; -655.000
309.517; -117.325; -936.000; -948.000
309.654; -108.750; -910.000; -734.000
309.791;  -87.700; -662.000; -580.000
309.928; -119.575; -977.000; -914.000
310.065;  119.675;  819.000;  697.000
310.203;  -82.025; -825.000; -850.000
310.340;  -52.575; -465.000; -321.000
310.477;  -82.875; -412.000; -516.000
310.614;  -64.975; -383.000; -473.000
310.751;  -63.475; -427.000; -518.000
310.889;  -40.400;    1.000;   11.000
311.026; -161.625;-1161.000; -939.000
311.163;  -50.925; -386.000; -380.000
311.300;  -68.975; -512.000; -479.000
311.437;  -96.125; -658.000; -619.000
311.574; -150.550;-1226.000; -985.000
311.711;  -76.925; -595.000; -433.000
311.848;  -42.225; -380.000; -388.000
311.985;  -18.425;  270.000;   93.000
312.122; -111.775; -932.000; -762.000
312.259; -134.450; -941.000; -994.000
312.396;  -68.075; -508.000; -551.000
312.533;  -89.875; -812.000; -790.000
312.670; -155.175;-1070.000; -898.000
312.807;  -39.350; -352.000; -367.000
312.944;  -80.050; -513.000; -611.000
313.081;  -39.425; -150.000; -415.000
313.218;  -90.675;-1111.000; -867.000
313.355;  -30.350; -531.000; -449.000
313.492;  -22.150; -455.000; -292.000
313.629;  110.150;  815.000;  735.000
313.766; -152.300;-1176.000;-1008.000
313.902;  -26.375; -186.000;   21.000
314.039;  -62.400; -372.000; -289.000
314.176;    4.800;  286.000;  192.000
314.313;  -80.625; -569.000; -473.000
314.450;  -98.350; -788.000; -684.000
314.587;  -58.475; -468.000; -480.000
314.723;  -15.200;  -78.000;  130.000
314.860;   40.250;  318.000;  332.000
314.997;    6.625;  223.000;  142.000
315.134;  -44.200; -385.000; -368.000
315.270;  -37.325; -480.000; -496.000
315.407; -114.150;-1094.000; -967.000
315.544;  -42.300; -657.000; -538.000
315.681;  -78.175; -681.000; -565.000
315.817;   18.675; -133.000; -176.000
315.954;   27.425; -613.000; -392.000
316.091; -140.100;-1045.000;-1023.000
316.227;  -41.725;  -71.000; -179.000
316.364;  -16.150;   23.000;    6.000
316.500;  -59.075; -113.000; -300.000
316.637;  -57.575; -181.000; -302.000
316.774;  -82.950; -625.000; -358.000
316.910;  -89.325; -598.000; -629.000
317.047;  -81.600; -487.000; -351.000
317.183;  -75.100; -435.000; -566.000
317.320;   33.200; -367.000; -321.000
317.456;  -42.600; -733.000; -805.000
317.593;  -90.025; -598.000; -641.000
317.729;  -10.825;  168.000;  -67.000
317.866; -203.850;-1434.000;-1285.000
318.002; -105.900; -708.000; -948.000
318.139; -116.950; -883.000; -867.000
318.275; -127.425;-1003.000; -738.000
318.412;  -84.625; -517.000; -336.000
318.548;  -86.800; -751.000; -720.000
318.685; -114.950; -985.000; -888.000
318.821; -105.025; -762.000; -735.000
318.957;  -17.225;   34.000;  -23.000
319.094;   25.425;  297.000;  154.000
319.230; -104.400; -756.000; -742.000
319.367;   -3.725; -471.000; -520.000
319.503;  -35.575; -538.000; -436.000
319.639; -110.250; -877.000; -793.000
319.775;  -90.100; -750.000; -685.000
319.912;  -70.300; -424.000; -519.000
320.048; -104.075;-1184.000;-1184.000
320.184;   77.300;   59.000;   70.000
320.321;  -51.825; -497.000; -467.000
320.457;   62.950;  475.000;  662.000
320.593;  -62.675; -375.000; -382.000
320.729; -114.675; -732.000; -734.000
320.866;  -79.600; -577.000; -635.000
321.002;  -97.075; -759.000; -809.000
321.138;  -55.575; -135.000; -211.000
321.274;   11.075; -148.000; -115.000
321.410;  -59.725; -585.000; -353.000
321.546; -109.450;-1011.000; -911.000
321.683;   16.625;  400.000;  185.000
321.819;  -43.500;  -48.000; -117.000
321.955; -127.425; -743.000; -722.000
322.091;  -86.475; -585.000; -540.000
322.227;  -50.775; -382.000; -202.000
322.363;  -56.850; -320.000; -215.000
322.499;  -60.150; -343.000; -331.000
322.635;   92.200;  636.000;  443.000
322.771;  -13.275; -139.000;   12.000
322.907;   39.525;  129.000;  327.000
323.043;  -43.225; -115.000; -206.000
323.179;  -60.400; -394.000; -363.000
323.315;  -56.275; -401.000; -371.000
323.451;   18.925; -328.000; -236.000
323.587;   55.175;  -60.000;  -77.000
323.723;  -56.550; -682.000; -601.000
323.859;  -31.450; -258.000;  -76.000
323.995;  -72.150; -467.000; -409.000
324.131; -136.250; -967.000; -892.000
324.267;  -62.525; -254.000; -276.000
324.402; -150.950; -960.000; -983.000
324.538;  -39.675; -279.000; -104.000
324.674;    1.700;  164.000;   77.000
324.810;   38.675;  226.000;  308.000
324.946;  -41.525; -810.000; -658.000
325.082;  -84.450; -568.000; -475.000
325.217;  -23.975;  -62.000;   16.000
325.353; -109.025; -764.000; -659.000
325.489;  -90.325; -540.000; -506.000
325.625;  -82.025; -579.000; -525.000
325.760;   81.025;  517.000;  376.000
325.896;    3.625; -515.000; -702.000
326.032;  -47.875; -403.000; -352.000
326.168;  -82.275; -462.000; -369.000
326.303;  -80.200; -352.000; -461.000
326.439;  -21.900; -336.000; -276.000
326.575;   -2.725; -190.000;  -29.000
326.710;  -38.325; -156.000;  -30.000
326.846;  -23.425;  146.000;  103.000
326.982; -113.475; -530.000; -548.000
327.117;  -81.500; -481.000; -442.000
327.253;  -84.775; -745.000; -742.000
327.388; -175.050;-1137.000;-1153.000
327.524;  -89.825; -811.000; -578.000
327.659;  -29.475;  -58.000;  -22.000
327.795;  -36.975;   69.000;   45.000
327.931;  -96.850; -723.000; -499.000
328.066;  -41.500; -417.000; -276.000
328.202;  -39.950;   12.000; -129.000
328.337;   80.350;  957.000;  713.000
328.473;   26.775;  -12.000;  -74.000
328.608;  -39.250; -256.000; -267.000
328.743; -123.150; -799.000; -664.000
328.879;   -4.100;  214.000;  114.000
329.014;  -47.150; -102.000; -122.000
329.150;  -98.800; -358.000; -483.000
329.285;  -78.975; -465.000; -466.000
329.421;  -66.425; -548.000; -246.000
329.556;  -45.300;  -36.000;   85.000
329.691; -102.525; -633.000; -615.000
329.827;  -82.375; -626.000; -480.000
329.962;  -57.900;  131.000; -301.000
330.097;  -80.425; -673.000; -585.000
330.233;  -63.200; -410.000; -223.000
330.368; -140.475; -839.000; -628.000
330.503;  -44.025;    3.000;   98.000
330.638;  -24.100;  -93.000; -125.000
330.774;  -91.725; -609.000; -530.000
330.909;  -64.025; -434.000; -244.000
331.044;  -98.275; -714.000; -708.000
331.179; -169.775;-1217.000;-1109.000
331.315;  -19.900;   77.000;   20.000
331.450;   -8.025;  157.000;  285.000
331.585;  -90.700; -805.000; -706.000
331.720;  -86.750; -510.000; -460.000
331.855;  -11.825;  -35.000; -102.000
331.990;  406.700;   62.000;  138.000
332.126;  205.400; -110.000;   71.000
332.261;    4.875; -379.000; -265.000
332.396;   15.225; -135.000; -242.000
332.531;  -60.400;-1074.000;-1031.000
332.666;   77.950; -519.000; -363.000
332.801; -109.500; -726.000; -807.000
332.936;  -30.150; -192.000; -122.000
333.071; -140.600; -870.000; -817.000
333.206;    3.975;  307.000;  379.000
333.341;   36.825;  344.000;  418.000
333.476;  -80.900; -627.000; -623.000
333.611;  -29.650; -251.000; -173.000
333.746;  -61.850; -381.000; -464.000
333.881; -109.550; -973.000; -935.000
334.016; -137.475; -936.000; -917.000
334.151; -122.450; -746.000; -702.000
334.286;   -5.375;  152.000;  186.000
334.421;  -33.750; -125.000; -178.000
334.556;  -94.575; -611.000; -567.000
334.690;  -91.500; -631.000; -577.000
334.825;   42.950;  381.000;   83.000
334.960;  -67.500; -285.000; -413.000
335.095;   -2.150;  135.000;  -91.000
335.230; -101.900; -722.000; -738.000
335.365; -133.875;-1084.000; -990.000
335.499; -130.400;-1108.000;-1037.000
335.634;   12.825;    9.000;  534.000
335.769;  -94.125; -755.000; -720.000
335.904;  -57.350; -603.000; -561.000
336.038;  -44.750; -735.000; -657.000
336.173; -118.275;-1206.000;-1194.000
336.308;   12.675; -116.000; -189.000
336.443;   35.600; -544.000; -634.000
336.577;  -44.325; -936.000; -787.000
336.712;   69.525;   -4.000;  -12.000
336.847;  -21.600; -724.000; -607.000
336.981;   72.525; -272.000; -208.000
337.116;  306.750;  615.000;  501.000
337.250;  131.425; -434.000; -421.000
337.385;  466.725; -297.000; -208.000
337.520;  212.125; -632.000; -603.000
337.654;  -37.875; -215.000; -126.000
337.789; -139.650; -989.000; -933.000
337.923;  -58.325; -104.000; -205.000
338.058; -110.600; -673.000; -738.000
338.192;  -76.450; -611.000; -488.000
338.327;  -28.025;  -18.000; -155.000
338.461;  -52.850; -299.000; -469.000
338.596;  -97.875; -780.000; -638.000
338.730;  -88.450; -767.000; -803.000
338.865;  172.150;  -46.000; -140.000
338.999;   -7.275; -846.000; -702.000
339.134;   -6.250; -634.000; -536.000
339.268;   34.925; -741.000; -603.000
339.403;  551.500; -740.000; -775.000
339.537;  250.550; -894.000; -820.000
339.671; -104.600; -829.000; -813.000
339.806;  -45.350; -556.000; -512.000
339.940;   22.350; -261.000; -235.000
340.074;  -91.375; -685.000; -510.000
340.209;  -46.225; -351.000; -230.000
340.343;  -98.550; -517.000; -573.000
340.477;  131.325;  998.000; 1036.000
340.612;  -16.250;-1033.000; -900.000
340.746;  244.725; -199.000; -243.000
340.880; -114.200; -924.000; -785.000
341.014;  -39.475;  -45.000; -154.000
341.149; -111.600; -756.000; -718.000
341.283; -133.600; -839.000; -754.000
341.417; -135.350;-1124.000; -938.000
341.551;  -50.075; -768.000; -708.000
341.685;  -73.475; -633.000; -611.000
341.820;  -79.900; -562.000; -493.000
341.954;  -63.050; -218.000; -349.000
342.088; -160.300;-1102.000;-1019.000
342.222;   42.925;  565.000;  618.000
342.356;  -84.025; -395.000; -335.000
342.490; -139.200; -880.000; -841.000
342.624;  -60.325; -339.000; -242.000
342.758;  -62.000; -364.000; -312.000
342.892; -108.700; -710.000; -585.000
343.026;  -45.325;  -58.000; -116.000
343.160;  -70.625; -426.000; -376.000
343.294;  -96.300; -474.000; -337.000
343.428;  -73.800; -488.000; -448.000
343.562;  -22.425; -172.000;  -23.000
343.696;  -57.925; -385.000; -314.000
343.830;  -56.025; -362.000; -356.000
343.964;  -40.625; -231.000; -168.000
344.098;  292.525;  199.000;   70.000
344.232;  253.950; -266.000; -127.000
344.366;   69.975; -567.000; -453.000
344.500;  -60.375; -665.000; -744.000
344.634;  -40.325; -324.000; -164.000
344.768;  -80.100; -531.000; -341.000
344.902;  -11.325;  278.000;  256.000
345.035;  -83.025; -556.000; -496.000
345.169; -155.025; -933.000; -656.000
345.303;  -69.325; -308.000; -482.000
345.437; -121.250; -826.000; -717.000
345.571;  -67.500; -675.000; -594.000
345.704;  -80.375; -309.000; -532.000
345.838;  -30.350; -331.000; -284.000
345.972;  -75.800; -543.000; -495.000
346.106;  238.775; -179.000; -190.000
346.239;  477.200; -312.000; -243.000
346.373;  -23.375; -343.000; -302.000
346.507; -139.050; -950.000; -962.000
346.640;   31.325;  -30.000;   13.000
346.774;  -91.975; -650.000; -797.000
346.908;  -29.200; -138.000;  -11.000
347.041; -111.250; -646.000; -593.000
347.175;   -9.075;  259.000;   27.000
347.309; -114.550; -698.000; -628.000
347.442; -141.800; -883.000; -732.000
347.576;  112.825;  670.000;  668.000
347.709;   38.725; -123.000;  -52.000
347.843; -130.050; -933.000; -825.000
347.976;   17.800;  235.000;  294.000
348.110; -195.425;-1268.000;-1186.000
348.243; -120.400; -679.000; -772.000
348.377;   -7.525;  -26.000;   60.000
348.510;   41.275;  403.000;  540.000
348.644;  -42.850;  -37.000; -159.000
348.777;  -20.150;  180.000;  191.000
348.911;  -51.500; -142.000; -112.000
349.044;   73.300;  471.000;  448.000
349.178;  -29.900;-1069.000;-1006.000
349.311;  102.925;  141.000;  255.000
349.444;   36.175; -927.000; -813.000
349.578;  -38.275; -347.000; -200.000
349.711; -131.200; -959.000; -862.000
349.845;  -92.400; -661.000; -591.000
349.978; -169.625;-1224.000;-1137.000
350.111;  -95.650; -546.000; -612.000
350.244; -110.800; -596.000; -700.000
350.378;  -67.350; -392.000; -393.000
350.511;  -79.550; -393.000; -426.000
350.644; -120.375; -808.000; -806.000
350.778;   -0.650;  168.000;  104.000
350.911;  -21.575;  134.000;  140.000
351.044; -101.700; -685.000; -615.000
351.177;  -59.350; -321.000; -281.000
351.310;  -25.825;    3.000; -131.000
351.444; -118.750; -888.000; -788.000
351.577;   27.100;  140.000;   90.000
351.710;   61.075;  593.000;  417.000
351.843;  -30.125; -165.000;  -77.000
351.976;  -17.250;  149.000;  -79.000
352.109; -109.600; -621.000; -612.000
352.242;  -83.975; -464.000; -419.000
352.376;  -93.775; -580.000; -636.000
352.509;   -5.975; -437.000; -356.000
352.642; -115.925; -654.000; -604.000
352.775;   -4.275; -141.000;  -98.000
352.908; -122.750; -933.000; -904.000
353.041; -128.300; -814.000; -824.000
353.174;  -68.000; -551.000; -424.000
353.307;  -98.775; -753.000; -764.000
353.440;   55.600;  541.000;  453.000
353.573; -109.275; -957.000;-1008.000
353.706;  -56.400; -384.000; -558.000
353.839;  -50.125; -264.000; -220.000
353.971; -101.975; -657.000; -512.000
354.104; -110.850; -896.000; -835.000
354.237;  -91.800; -627.000; -662.000
354.370; -106.200; -846.000; -879.000
354.503; -179.650;-1231.000;-1308.000
354.636;  -59.850; -529.000; -348.000
354.769; -128.425; -937.000; -860.000
354.902;  -25.850; -230.000; -139.000
355.034;  -29.775; -164.000; -220.000
355.167;  -21.650; -262.000; -162.000
355.300;  -69.025;-1061.000; -880.000
355.433; 1402.225;  -71.000;  -14.000
355.565; 2248.500; -402.000; -384.000
355.698;  574.950; -356.000; -296.000
355.831;   -4.175; -882.000; -801.000
355.964;   15.975; -285.000; -170.000
356.096;  -85.375; -856.000; -843.000
356.229;  -19.925; -523.000; -530.000
356.362;  522.150; -373.000; -266.000
356.494;  911.025; -229.000; -162.000
356.627;  322.475;  269.000;  377.000
356.760;  888.925;  120.000;   53.000
356.892; 1487.350; -286.000; -601.000
357.025;  327.700;  403.000;  389.000
357.157;  232.775; -167.000; -179.000
357.290; 1208.575; -856.000; -713.000
357.423;  370.400; -667.000; -556.000
357.555;  105.300; -217.000; -228.000
357.688;  143.825; -483.000; -364.000
357.820;  180.350; -870.000; -877.000
357.953; 1558.825; -563.000; -589.000
358.085;  244.775; -632.000; -612.000
358.218;  120.575;-1131.000; -932.000
358.350;   27.250;  -58.000;  312.000
358.483; -185.700;-1300.000;-1187.000
358.615; -149.075;-1182.000;-1078.000
358.747; -152.500;-1187.000;-1058.000
358.880;  -56.925; -810.000; -744.000
359.012;  -38.175; -376.000; -202.000
359.145;  -75.900; -480.000; -511.000
359.277;  -65.625; -962.000; -913.000
359.409; 1312.150;  536.000;  231.000
359.542;  279.850; -738.000; -688.000
359.674;   14.075;   46.000;   13.000
359.806;  -81.525; -565.000; -438.000
359.939;  -50.875; -617.000; -516.000
360.071;   26.350; -583.000; -579.000
360.203;  -34.975; -411.000; -364.000
360.335;   18.650;  164.000;  -16.000
360.468;   82.175; -249.000; -307.000
360.600; 1371.250; -547.000; -454.000
360.732; 4239.700; -546.000; -423.000
360.864;  648.325;-1216.000;-1044.000
360.996;   65.150; -516.000; -554.000
361.129;  -43.225; -389.000; -598.000
361.261;  -15.025;  110.000; -113.000
361.393;  -62.775; -252.000; -214.000
361.525;    2.300;   94.000;  244.000
361.657; -111.600; -821.000; -703.000
361.789;  -40.825; -139.000; -155.000
361.921;  -37.600; -642.000; -593.000
362.053;   89.650;  524.000;  541.000
362.185;    0.850;  288.000;   72.000
362.318; -115.575; -709.000; -705.000
362.450;   29.800;  294.000;  444.000
362.582;  -84.550; -913.000; -870.000
362.714;  -55.475; -353.000; -332.000
362.846;  -98.175; -606.000; -490.000
362.978; -143.425; -941.000; -811.000
363.109;  -43.300; -161.000; -260.000
363.241;  148.875; -739.000; -749.000
363.373;  595.625; -649.000; -564.000
363.505; 1041.525; -186.000;  -91.000
363.637;  221.450; -787.000; -601.000
363.769; -137.700;-1067.000;-1080.000
363.901;  -71.050; -596.000; -654.000
364.033; -167.625;-1103.000;-1062.000
364.165;  -32.900; -283.000; -283.000
364.296;  104.325; -316.000; -177.000
364.428;  176.575;-1344.000;-1220.000
364.560;  -56.225; -679.000; -661.000
364.692;  -90.750; -738.000; -835.000
364.824;  -28.050; -588.000; -456.000
364.955;  513.050; -402.000; -564.000
365.087; 1693.575;-1097.000; -852.000
365.219;   94.025; -686.000; -816.000
365.351;  -73.250; -526.000; -572.000
365.482;    9.500;  300.000;  240.000
365.614;  -61.900; -402.000; -314.000
365.746; -106.925; -729.000; -752.000
365.877;  -94.275; -706.000; -672.000
366.009;  415.475;  -35.000;  -62.000
366.141;  -21.500;-1249.000;-1134.000
366.272; -118.300; -803.000; -719.000
366.404; -110.425;-1005.000; -874.000
366.535;  -27.575; -139.000;  -12.000
366.667; -125.125; -644.000; -649.000
366.799;   -1.925;  353.000;  203.000
366.930; -131.475; -862.000; -996.000
367.062;  173.550; -639.000; -613.000
367.193;  335.775; -872.000; -842.000
367.325;  -48.000; -580.000; -684.000
367.456;  -11.375; -246.000;   31.000
367.588;  239.675; -371.000; -318.000
367.719;   30.025;  -44.000;  -45.000
367.851;  -55.325; -222.000; -241.000
367.982; -115.525; -875.000; -732.000
368.113;  -33.075; -475.000; -358.000
368.245; -153.050; -960.000; -841.000
368.376;  -69.775; -254.000; -302.000
368.508;  -62.575; -188.000; -263.000
368.639; -164.475;-1166.000;-1034.000
368.770; -102.075; -670.000; -589.000
368.902; -116.675; -836.000; -926.000
369.033; -139.325; -906.000; -855.000
369.164;  -52.175; -720.000; -653.000
369.296; -105.450; -452.000; -601.000
369.427;  -57.875; -209.000; -144.000
369.558;  -94.375; -593.000; -377.000
369.689; -109.800; -721.000; -569.000
369.821; -135.850; -951.000; -845.000
369.952;  -36.825;   42.000; -108.000
370.083;  -60.900; -229.000; -108.000
370.214; -117.375; -735.000; -650.000
370.345;  -34.375;   65.000;   81.000
370.477; -128.550; -810.000; -790.000
370.608;   20.925; -328.000; -264.000
370.739; -146.650;-1233.000;-1292.000
370.870; -120.850;-1102.000; -923.000
371.001;  -30.950; -378.000; -467.000
371.132; -108.675; -754.000; -735.000
371.263;  -55.150;  -42.000; -148.000
371.394; -144.150; -841.000; -748.000
371.525;    7.025;  345.000;  225.000
371.657; -123.900; -808.000; -670.000
371.788;    6.450;  103.000;  199.000
371.919;   17.500; -384.000; -304.000
372.050; 1319.250;  -91.000; -156.000
372.181;  384.375; -188.000; -294.000
372.311;   97.150;   42.000; -127.000
372.442;  -53.800; -457.000; -451.000
372.573;  -67.000; -444.000; -340.000
372.704; -149.675;-1008.000; -980.000
372.835;  -30.450; -228.000; -289.000
372.966;  -88.000; -646.000; -554.000
373.097; -105.175; -575.000; -711.000
373.228;  -99.000; -717.000; -542.000
373.359;  -59.050; -824.000; -536.000
373.490;  185.800; -881.000; -727.000
373.620;  252.475;-1001.000; -803.000
373.751;  524.100; -332.000; -396.000
373.882;  196.475; -663.000; -733.000
374.013;  -46.125; -449.000; -262.000
374.143;  -71.550; -581.000; -659.000
374.274; -140.200; -987.000; -908.000
374.405;   49.300; -388.000; -276.000
374.536;  102.650; -526.000; -387.000
374.666;  287.650; -759.000; -807.000
374.797;  -18.675; -817.000; -868.000
374.928;  166.100; -710.000; -560.000
375.058;  191.325; -535.000; -500.000
375.189;   -1.950;  -59.000;  -93.000
375.320; -136.050; -928.000;-1034.000
375.450;  -64.575; -625.000; -616.000
375.581;  -54.325; -526.000; -436.000
375.712;  -72.000; -574.000; -250.000
375.842;    5.550; -438.000; -415.000
375.973;  -25.350; -554.000; -513.000
376.103; -106.700; -665.000; -648.000
376.234;  -97.200; -531.000; -552.000
376.364; -115.675; -944.000; -867.000
376.495;  127.025;  925.000;  529.000
376.625;  -83.600; -472.000; -485.000
376.756;  -79.875; -709.000; -678.000
376.886; -144.950;-1178.000;-1026.000
377.017;  144.350;-1048.000;-1061.000
377.147;  629.725; -786.000; -782.000
377.278;   69.625;  174.000;  228.000
377.408; -126.650; -801.000; -815.000
377.538; -116.900; -707.000; -693.000
377.669;  -67.725; -537.000; -613.000
377.799; -110.300; -645.000; -635.000
377.929;  -91.225; -610.000; -428.000
378.060; -139.275; -781.000; -847.000
378.190;  -47.800; -726.000; -531.000
378.320;  -52.300; -401.000; -406.000
378.451;  -21.925; -131.000;  -22.000
378.581;  -42.250;  -67.000; -110.000
378.711;   76.725; 1035.000;  866.000
378.841;  -97.725; -533.000; -675.000
378.972; -120.850; -871.000; -751.000
379.102;  -87.350; -652.000; -579.000
379.232;  -50.575; -126.000;  -73.000
379.362; -144.975;-1001.000; -885.000
379.492;  -61.650; -373.000; -424.000
379.623;   36.600;    0.000;  111.000
379.753; -124.675;-1107.000; -974.000
379.883;   72.200;   59.000;  156.000
380.013; -112.500;-1081.000;-1017.000
380.143; -143.625;-1097.000;-1056.000
380.273; -111.200; -985.000; -861.000
380.403;   -4.775; -344.000; -257.000
380.533;  -55.700; -651.000; -664.000
380.663;    7.300;  173.000;  128.000
380.793; -160.925;-1027.000;-1074.000
380.923;  -56.100; -103.000;  -34.000
381.053; -106.350; -613.000; -623.000
381.183;  -66.925; -106.000; -248.000
381.313;  -67.900; -656.000; -470.000
381.443;  -58.250; -692.000; -473.000
381.573;  -27.375; -402.000; -409.000
381.703;  -97.400;-1249.000;-1095.000
381.833; -188.800;-1454.000;-1336.000
381.963;   16.325; -134.000;  -87.000
382.093;  396.800; -925.000; -909.000
382.223;   88.025; -713.000; -602.000
382.353;  -95.950; -801.000; -608.000
382.482;    8.175;-1091.000; -964.000
382.612;  181.350; -872.000; -644.000
382.742;   66.150; -695.000; -622.000
382.872;  -33.250; -565.000; -551.000
383.002;    0.150;  347.000; -132.000
383.131;  -49.100; -226.000; -160.000
383.261;  -61.775; -706.000; -768.000
383.391;  329.225; -552.000; -377.000
383.521; 5060.600;  451.000;  263.000
383.650; 1489.800; -947.000; -904.000
383.780;   37.750; -783.000; -656.000
383.910;   76.800;  880.000;  802.000
384.039;  -99.450; -794.000; -656.000
384.169;  -92.900;-1205.000;-1017.000
384.299; -101.550; -650.000; -662.000
384.428; -123.600; -764.000; -680.000
384.558;  -67.350; -308.000; -275.000
384.687;  -80.050; -414.000; -334.000
384.817;  -20.450;   75.000;   -2.000
384.947;  -41.600; -234.000; -141.000
385.076;  138.325;  982.000;  912.000
385.206;   50.575;  369.000;  480.000
385.335;  -85.525; -549.000; -417.000
385.465; -121.625; -655.000; -663.000
385.594;    5.350;  -53.000;  -44.000
385.724;   39.225; -868.000; -838.000
385.853;  -15.350; -296.000; -270.000
385.982;  356.950; -743.000; -787.000
386.112;  681.175;-1052.000; -871.000
386.241;   -4.525; -307.000; -312.000
386.371;  -29.550; -174.000;  -87.000
386.500;  -55.725; -825.000; -789.000
386.629;  -21.425; -874.000; -817.000
386.759;   45.750;  -43.000;   68.000
386.888;  -43.800; -170.000; -250.000
387.017; -114.450; -648.000; -620.000
387.147; -119.400; -771.000; -798.000
387.276;  -76.950; -410.000; -397.000
387.405;  -66.350; -398.000; -342.000
387.535;  -95.400; -452.000; -361.000
387.664;  -86.400; -692.000; -620.000
387.793;  -25.950; -198.000; -113.000
387.922;  144.175;  255.000;  200.000
388.052;  -80.075; -576.000; -423.000
388.181;  -71.125; -342.000; -472.000
388.310; -110.950; -889.000; -710.000
388.439; -130.625; -749.000; -742.000
388.568;   23.500;  365.000;  244.000
388.697;  250.825; -756.000; -653.000
388.826;  -11.300; -768.000; -666.000
388.956;  -38.100; -285.000; -307.000
389.085;  -65.725; -347.000; -287.000
389.214; -127.400; -842.000; -872.000
389.343;  -76.550; -645.000; -413.000
389.472;  528.050;  126.000;  149.000
389.601;  601.500;   91.000;    0.000
389.730;  -41.475; -568.000; -687.000
389.859;   17.725;  226.000;   46.000
389.988;   11.400; -423.000; -408.000
390.117;   31.050; -168.000; -146.000
390.246;  -57.200; -331.000; -320.000
390.375;  -70.100; -673.000; -626.000
390.504; -111.300; -703.000; -621.000
390.633; -128.750; -672.000; -726.000
390.761; -124.675; -732.000; -645.000
390.890;  -47.175;   -4.000; -130.000
391.019;  -91.425; -421.000; -441.000
391.148; -137.075; -826.000; -855.000
391.277; -116.550; -576.000; -493.000
391.406; -137.625; -821.000; -805.000
391.534;   -1.775;  574.000; -301.000
391.663; -111.225; -583.000; -645.000
391.792; -118.800; -673.000; -701.000
391.921;  -14.200;   -3.000;   15.000
392.050;  -15.450; -287.000; -228.000
392.178; -140.750;-1206.000;-1061.000
392.307;  -38.475; -758.000; -712.000
392.436;  -52.400; -427.000; -641.000
392.564;  -10.525;  166.000;   -6.000
392.693; -129.075; -860.000; -682.000
392.822;    1.150; -529.000; -534.000
392.950;  -57.725; -880.000; -714.000
393.079;   48.125; -188.000; -328.000
393.208;  -54.650; -488.000; -511.000
393.336;  -42.150; -170.000; -145.000
393.465;  -71.350; -317.000; -199.000
393.593;  -17.675;   62.000;   79.000
393.722; -159.725;-1121.000; -916.000
393.850;  -48.425; -188.000;  -61.000
393.979; -158.250; -926.000; -805.000
394.107;  -71.125; -517.000; -537.000
394.236;  -51.150; -570.000; -507.000
394.364;   82.700;  383.000;  206.000
394.493;   58.525; -911.000; -767.000
394.621;  -18.375; -955.000; -916.000
394.750; 1143.525; -873.000; -923.000
394.878; 4418.125; -247.000; -149.000
395.007; 6341.650; -721.000; -807.000
395.135;  535.225; -790.000; -721.000
395.263;  -70.800;-1038.000;-1040.000
395.392;  -18.875;  -25.000; -107.000
395.520; -127.750; -818.000; -679.000
395.648; -142.200; -865.000; -915.000
395.777;  -94.100; -366.000; -405.000
395.905;  -87.500; -449.000; -564.000
396.033;   -6.000;  217.000;  172.000
396.162;   95.825; -399.000; -453.000
396.290;  110.375;  -17.000;   -2.000
396.418;  -80.025; -555.000; -514.000
396.546; -119.925; -571.000; -466.000
396.674; -130.225; -850.000; -878.000
396.803;  -35.575;  -72.000;  -23.000
396.931;  -53.350; -179.000; -199.000
397.059; -130.275;-1026.000; -989.000
397.187; -144.350;-1026.000; -975.000
397.315; -136.550; -884.000; -649.000
397.443; -118.725; -592.000; -443.000
397.572; -116.075; -578.000; -424.000
397.700; -124.050; -607.000; -614.000
397.828;  -54.925;  120.000;  -90.000
397.956;  -59.300; -508.000; -478.000
398.084;  -50.475; -767.000; -626.000
398.212;    0.075;  137.000;  124.000
398.340;  -34.575;  -56.000;  159.000
398.468;  -66.000; -390.000; -169.000
398.596; -148.925; -993.000; -953.000
398.724; -135.050; -762.000; -767.000
398.852; -173.550;-1024.000; -976.000
398.980;  -99.975; -560.000; -560.000
399.108; -110.575; -982.000; -735.000
399.236;  -17.475;   13.000;    8.000
399.363;   -5.800;  222.000;  196.000
399.491;  -71.200; -404.000; -398.000
399.619; -140.800; -829.000; -800.000
399.747; -115.875; -859.000; -771.000
399.875;   16.550;  220.000;  234.000
400.003;  -76.225; -359.000; -284.000
400.130; -100.150; -421.000; -341.000
400.258;  -44.300;  -83.000;   38.000
400.386;  -76.325; -352.000; -168.000
400.514; -105.950; -526.000; -587.000
400.641; -144.550; -928.000; -802.000
400.769; -162.975; -979.000; -888.000
400.897; -135.975; -838.000; -793.000
401.025;  -55.700; -166.000; -152.000
401.152;  -24.075;  220.000;   38.000
401.280;  -92.475; -430.000; -429.000
401.408; -130.150; -712.000; -576.000
401.535; -120.925; -735.000; -758.000
401.663; -198.550;-1134.000;-1054.000
401.790; -111.750; -514.000; -525.000
401.918;   18.325;  436.000;  405.000
402.046;  -39.075;  134.000;  122.000
402.173;  -38.725;  -18.000;    7.000
402.301;  -90.975; -519.000; -397.000
402.428;   15.325;  528.000;  383.000
402.556; -175.425;-1188.000; -913.000
402.683;  -51.150;  -20.000;   -1.000
402.811;  -49.925;  -37.000; -206.000
402.938;  -38.275;   20.000;   27.000
403.066;   -5.050; -574.000; -558.000
403.193;   91.550;  299.000;  239.000
403.321;   45.400; -396.000; -574.000
403.448;  108.450;   83.000;   27.000
403.575;   33.150;  -90.000;  -46.000
403.703; -104.325; -732.000; -557.000
403.830;  -66.700; -531.000; -496.000
403.957; -127.650;-1117.000;-1023.000
404.085;    2.950;  -61.000; -172.000
404.212;   97.450;  -50.000;   63.000
404.339;  427.700; -566.000; -306.000
404.467; 8913.925; -612.000; -524.000
404.594; 5362.300; -287.000; -227.000
404.721;  897.000; -869.000; -764.000
404.848;   74.925; -113.000; -202.000
404.976; -113.825; -856.000; -783.000
405.103;  -24.450;  -14.000;  -82.000
405.230;  -19.300;  190.000;  226.000
405.357;   14.100;  117.000;   44.000
405.484;  414.425;  -49.000;    5.000
405.612;   94.250; -548.000; -563.000
405.739;  -71.150; -488.000; -243.000
405.866;   67.200;  669.000;  385.000
405.993;  -64.025; -398.000; -102.000
406.120; -149.125; -801.000; -887.000
406.247;  -87.100; -323.000; -342.000
406.374;   89.600;  540.000;  629.000
406.501;  -91.025; -632.000; -702.000
406.628; -110.650; -621.000; -589.000
406.755; -147.500; -803.000; -620.000
406.882;  -61.975; -228.000; -277.000
407.009; -122.550; -719.000; -628.000
407.136;  -58.450; -480.000; -401.000
407.263;  -73.775; -939.000; -829.000
407.390; -106.250; -692.000; -614.000
407.517; -186.600;-1139.000;-1187.000
407.644;  -82.900; -332.000; -256.000
407.771;  -90.925; -249.000; -287.000
407.898;  -14.500;  168.000;  328.000
408.025;  -87.925; -421.000; -313.000
408.151;  -34.875;   82.000;  153.000
408.278;  -90.275; -267.000; -216.000
408.405; -141.450; -931.000; -899.000
408.532;  -89.100; -549.000; -542.000
408.659; -131.025; -677.000; -648.000
408.785; -200.125;-1298.000;-1170.000
408.912;  -85.725; -412.000; -296.000
409.039; -127.850; -610.000; -686.000
409.166; -119.625; -591.000; -555.000
409.292; -108.800; -571.000; -534.000
409.419; -127.050; -665.000; -649.000
409.546;  -91.350; -431.000; -192.000
409.672; -138.600; -713.000; -545.000
409.799;  -42.300;  -36.000;   34.000
409.926;  -63.800; -180.000; -179.000
410.052; -190.800;-1127.000;-1091.000
410.179;  -90.650; -368.000; -392.000
410.305;  -91.650; -375.000; -493.000
410.432;  -54.525; -220.000; -333.000
410.558;  -90.725; -305.000; -380.000
410.685; -113.700; -688.000; -431.000
410.812;  -98.675; -409.000; -588.000
410.938; -151.800; -964.000; -808.000
411.065; -120.025; -671.000; -645.000
411.191;  -57.775; -189.000; -174.000
411.317; -137.875; -823.000; -742.000
411.444;  -63.900; -317.000; -246.000
411.570;  -82.025; -339.000; -294.000
411.697; -146.025; -758.000; -752.000
411.823; -181.825; -989.000; -999.000
411.949;  -60.100;  -56.000;   17.000
412.076; -117.875; -539.000; -519.000
412.202; -137.850; -758.000; -757.000
412.329; -140.025; -798.000; -752.000
412.455; -145.150; -821.000; -657.000
412.581;  -42.500;  -15.000;  172.000
412.707; -100.850; -540.000; -457.000
412.834;    6.150;  156.000;  219.000
412.960; -117.900; -785.000; -784.000
413.086; -112.400; -743.000; -701.000
413.212;   91.825;  604.000;  578.000
413.339; -107.975; -685.000; -701.000
413.465;  -79.650; -364.000; -310.000
413.591; -123.100; -757.000; -474.000
413.717;  -56.275; -358.000; -366.000
413.843; -146.125; -839.000; -861.000
413.969;  -68.950;  -47.000; -292.000
414.096;  -92.575; -679.000; -679.000
414.222;  -29.875;  -33.000;   85.000
414.348;  -78.200; -652.000; -385.000
414.474;  -10.500;   38.000;  -52.000
414.600;  -29.075; -126.000; -144.000
414.726;  -16.525;  -96.000;  -55.000
414.852;  -49.300; -365.000; -342.000
414.978;   31.275;  104.000;  -18.000
415.104;   50.475;   38.000;   80.000
415.230;   26.825; -329.000; -330.000
415.356;   43.100; -409.000; -514.000
415.482;  210.925;   13.000;  -35.000
415.608;  391.450; -247.000; -323.000
415.734; 1299.350;   67.000;   38.000
415.860;27421.000; -875.000; -767.000
415.986;22074.275; -685.000; -607.000
416.111; 2029.425; -798.000; -652.000
416.237;  436.600; -424.000; -571.000
416.363; 1677.475; -765.000; -733.000
416.489; 6665.250; -324.000; -251.000
416.615;  874.575; -707.000; -742.000
416.741;   30.950; -677.000; -784.000
416.866;  -61.400; -673.000; -736.000
416.992; -106.100; -801.000; -818.000
417.118;  -30.800;  -41.000;  -80.000
417.244;  -78.875; -798.000; -531.000
417.369;  -91.800; -801.000; -612.000
417.495;  -12.475; -325.000; -254.000
417.621;  -97.400;-1015.000; -803.000
417.746;   -0.850; -579.000; -572.000
417.872;   67.300; -254.000; -144.000
417.998;  108.975; -515.000; -530.000
418.123; 1534.625;-1073.000; -845.000
418.249; 8495.400; -512.000; -601.000
418.374; 1417.925; -916.000; -824.000
418.500;  212.950; -383.000; -482.000
418.626;  167.675;   70.000;  -59.000
418.751;  151.425; -549.000; -448.000
418.877;  304.625; -637.000; -643.000
419.002; 2569.250; -688.000; -560.000
419.128;19360.150; -930.000; -721.000
419.253; 5339.625; -967.000; -837.000
419.379;  729.975; -391.000; -338.000
419.504;  576.025;  325.000;  415.000
419.629;  801.800; -393.000; -212.000
419.755; 5390.925; -317.000; -254.000
419.880;34406.950;  -98.000;   67.000
420.006;17347.375; -280.000; -221.000
420.131;43050.200; -662.000; -775.000
420.256; 6740.175; -315.000; -316.000
420.382;  925.175; -665.000; -687.000
420.507;  141.500; -649.000; -778.000
420.632;   31.925; -337.000; -339.000
420.758;   33.475; -251.000; -425.000
420.883; -108.625; -876.000; -672.000
421.008; -130.000; -775.000; -619.000
421.133;  -97.700; -509.000; -467.000
421.259;  -69.275; -325.000; -259.000
421.384; -140.325; -834.000; -693.000
421.509; -119.900;-1052.000; -862.000
421.634;  171.575; -936.000; -820.000
421.759;   71.475; -359.000; -327.000
421.885; -111.025; -717.000; -656.000
422.010; -110.650; -673.000; -542.000
422.135; -161.725; -695.000; -727.000
422.260;    4.325;  340.000;  280.000
422.385;  -52.725;   12.000;  -98.000
422.510;  -17.750;  151.000;  -26.000
422.635;  -26.825;  -87.000;  -43.000
422.760;  -31.975; -766.000; -791.000
422.885;   -2.425;  -57.000;  -80.000
423.010;  -49.475; -112.000; -169.000
423.135; -106.200; -481.000; -561.000
423.260;  -56.300; -150.000; -245.000
423.385;   11.150;  476.000;  222.000
423.510;  -14.300;   71.000;  -22.000
423.635;    1.725;  133.000;   45.000
423.760;   36.125;  383.000;  328.000
423.885;   15.725;  336.000;  391.000
424.010;  -19.250;  -68.000;  -13.000
424.135;  -26.225;    5.000;  -33.000
424.259; -101.100; -654.000; -457.000
424.384;  -60.050; -279.000; -272.000
424.509;  -36.900; -260.000; -186.000
424.634;  -90.125; -761.000; -623.000
424.759;  -45.775; -688.000; -544.000
424.883;   -7.750; -506.000; -527.000
425.008;  187.200; -502.000; -410.000
425.133; 2834.925; -679.000; -653.000
425.258; 1510.725; -517.000; -381.000
425.382;  523.900; -867.000; -774.000
425.507; 1176.950; -487.000; -543.000
425.632;  371.775; -802.000; -663.000
425.756;  676.350; -256.000; -146.000
425.881;10202.725; -831.000; -857.000
426.006;30675.775; -604.000; -355.000
426.130; 4994.325; -696.000; -508.000
426.255;  652.450; -611.000; -491.000
426.379;  268.425; -189.000; -577.000
426.504;  477.325;  660.000;  544.000
426.629; 5657.675; -519.000; -466.000
426.753; 4326.175;   64.000;  -46.000
426.878;  525.500; -252.000; -288.000
427.002;  291.925; -651.000; -668.000
427.127; 2101.100;  -35.000; -158.000
427.251;17248.875;  372.000;  401.000
427.375; 5480.175; -191.000; -173.000
427.500; 1322.725; -616.000; -610.000
427.624;  409.100; -234.000; -400.000
427.749;   77.975; -216.000; -225.000
427.873;  -38.550; -499.000; -412.000
427.997;  -38.775; -222.000; -230.000
428.122;   48.000;  795.000;  703.000
428.246;   20.825;  433.000;  434.000
428.371; -142.500; -869.000; -773.000
428.495; -126.950; -624.000; -646.000
428.619;  -64.325; -186.000; -117.000
428.743;  -11.200;   65.000;  132.000
428.868;  -78.375; -732.000; -643.000
428.992;  510.675; -219.000; -326.000
429.116;  196.650; -329.000; -357.000
429.240;   96.450;  419.000;  426.000
429.365;  -48.875; -454.000; -574.000
429.489;  -84.850; -638.000; -647.000
429.613;   18.625; -236.000; -177.000
429.737;   66.600; -563.000; -432.000
429.861;  369.375; -247.000; -133.000
429.985; 7963.575; -425.000; -305.000
430.109; 9922.750; -770.000; -908.000
430.234; 1175.125;   76.000;  -50.000
430.358;  137.025; -250.000; -160.000
430.482;  -64.900; -672.000; -564.000
430.606;  -75.725; -655.000; -375.000
430.730;  -73.675; -437.000; -388.000
430.854; -104.925; -909.000; -835.000
430.978; -121.125; -795.000; -764.000
431.102;  -93.475; -499.000; -422.000
431.226; -137.850; -874.000; -815.000
431.350;    0.550;  345.000;  422.000
431.474; -110.900; -661.000; -373.000
431.597; -165.225;-1060.000; -848.000
431.721;  -82.000; -276.000; -267.000
431.845; -132.250; -704.000; -472.000
431.969;  -99.775; -304.000; -349.000
432.093;  -90.350; -395.000; -317.000
432.217;  -23.200;   32.000;   82.000
432.341;  -89.475; -523.000; -518.000
432.464;  -29.425;   96.000;   40.000
432.588;  -26.875; -401.000; -329.000
432.712;   -1.550;  -52.000;  -52.000
432.836;   41.150;  213.000;  263.000
432.959;    7.250; -372.000; -311.000
433.083;  130.900;   11.000;    2.000
433.207;  542.800;  285.000;  930.000
433.330; 7659.650; -391.000; -200.000
433.454;10368.350; -654.000; -638.000
433.578; 5745.425;  583.000;  278.000
433.701; 1207.950; -623.000; -675.000
433.825;  142.400; -292.000; -299.000
433.949;   40.425;   28.000;  -72.000
434.072;  -30.775; -410.000; -323.000
434.196;  -25.025; -309.000; -117.000
434.319; 3562.775;25482.000;25124.000
434.443;  887.000; -656.000; -603.000
434.566; 4067.150;  281.000;   62.000
434.690;  858.100; -637.000; -383.000
434.813;  137.300; -251.000; -173.000
434.937;  -57.150; -569.000; -696.000
435.060;  -97.150; -423.000; -332.000
435.184;  -24.675; -492.000; -217.000
435.307;    8.625;  159.000;  102.000
435.431;  -63.875;  -40.000;   24.000
435.554;  -91.125; -399.000; -240.000
435.677; -106.125; -350.000; -258.000
435.801;  -56.350;  -25.000;   49.000
435.924;  -52.550;    1.000;  -67.000
436.048; -150.650;-1019.000; -732.000
436.171;  -88.200; -240.000;  -66.000
436.294;   -4.925; -248.000; -229.000
436.417;  206.300; -963.000; -849.000
436.541;  -37.450; -814.000; -840.000
436.664;  -65.750; -242.000; -316.000
436.787;  -32.275;   13.000;  113.000
436.910; -126.725; -792.000; -422.000
437.034;  -19.850;  142.000;  143.000
437.157;   -9.475;  -11.000;    0.000
437.280;  -90.425; -392.000; -292.000
437.403; -155.375; -982.000; -869.000
437.526;   12.550; -903.000; -865.000
437.649;  449.950; -505.000; -332.000
437.772;  -19.200; -692.000; -540.000
437.896;   46.475;  700.000;  544.000
438.019; -126.625; -758.000; -503.000
438.142; -111.875; -596.000; -506.000
438.265; -115.450; -639.000; -670.000
438.388;    8.250; -520.000; -410.000
438.511;  -91.425; -597.000; -394.000
438.634;  -84.475; -247.000; -125.000
438.757; -145.175; -693.000; -619.000
438.880;  -65.500;  -34.000;  -57.000
439.003; -108.825; -417.000; -437.000
439.126;  -91.000; -287.000; -167.000
439.248;  -70.350;  -98.000; -139.000
439.371;  -52.875;    9.000;  -53.000
439.494;    1.325;  510.000;  439.000
439.617;  -56.575;   65.000;  -88.000
439.740; -173.600; -968.000; -816.000
439.863; -159.550; -755.000; -595.000
439.986; -131.050; -476.000; -431.000
440.108;  -64.625; -161.000; -112.000
440.231; -173.225; -950.000; -836.000
440.354;  -74.025;  -64.000; -150.000
440.477; -114.625; -566.000; -542.000
440.599;  -89.825; -200.000; -225.000
440.722; -132.425; -709.000; -586.000
440.845;   38.725;  751.000;  928.000
440.968; -112.475; -415.000; -311.000
441.090;  -76.575; -199.000;  -33.000
441.213; -173.800;-1021.000; -825.000
441.336;  -70.775; -159.000;   -5.000
441.458; -112.025; -549.000; -396.000
441.581; -137.975; -628.000; -629.000
441.703;  -83.000; -152.000;   13.000
441.826; -134.125; -557.000; -400.000
441.948;  -69.300;   56.000;   51.000
442.071;    2.300;  555.000;  424.000
442.193; -119.225; -531.000; -485.000
442.316;  -18.875;  152.000;   97.000
442.438;   76.475; -233.000;  -10.000
442.561;   39.225;  272.000;  262.000
442.683;   45.675; -809.000; -522.000
442.806;  244.325;   -8.000;   74.000
442.928; -118.675; -859.000; -604.000
443.051; -112.575; -577.000; -373.000
443.173;  -95.500; -341.000; -339.000
443.295; -110.400; -263.000; -371.000
443.418;  -87.950; -321.000;  -29.000
443.540;  -64.550; -106.000;   -4.000
443.662; -142.300; -563.000; -465.000
443.785;  -39.000;  335.000;  199.000
443.907; -103.175; -362.000; -208.000
444.029; -126.400; -767.000; -494.000
444.152; -134.500; -644.000; -554.000
444.274;  -54.325;  -18.000;  -24.000
444.396; -123.675; -461.000; -221.000
444.518; -155.550; -691.000; -454.000
444.640; -116.175; -268.000; -111.000
444.763;  -35.400;  388.000;  249.000
444.885; -129.900; -432.000; -392.000
445.007;  -45.825;   35.000;   86.000
445.129; -139.975; -610.000; -515.000
445.251; -121.250; -372.000; -439.000
445.373; -161.600; -537.000; -386.000
445.495;  -26.600;  242.000;  350.000
445.617;   38.200;  853.000;  753.000
445.739; -100.550; -215.000;  -97.000
445.861;  -83.325; -245.000; -112.000
445.984;  -75.525; -267.000; -101.000
446.105;  -16.175; -418.000; -251.000
446.227;  100.950; -176.000;  -19.000
446.349;  -92.000; -358.000; -249.000
446.471; -136.000; -615.000; -448.000
446.593;  -88.975; -316.000;   19.000
446.715;  -56.050;  -67.000;   41.000
446.837;   40.150;  697.000;  832.000
446.959; -125.750; -457.000; -478.000
447.081; -136.325; -628.000; -518.000
447.203;   23.900;  862.000;  834.000
447.325;  -99.800; -270.000;   42.000
447.446;  -25.075;  286.000;  530.000
447.568; -169.600; -921.000; -803.000
447.690; -114.350; -236.000; -245.000
447.812; -164.075; -798.000; -519.000
447.933;  -52.750;  155.000;  127.000
448.055;  -82.575; -306.000; -261.000
448.177;    9.875;   31.000;   79.000
448.299; -120.150; -935.000; -727.000
448.420;  -26.250;  -25.000;  159.000
448.542;  -63.975;   -3.000;   33.000
448.664;  -36.525;  109.000;  322.000
448.785;  -58.375;  265.000;   83.000
448.907; -104.075; -614.000; -353.000
449.028; -126.675; -771.000; -471.000
449.150;    9.975;  492.000;  589.000
449.272; -185.175;-1044.000; -913.000
449.393;    5.400;  612.000;  694.000
449.515; -168.950; -634.000; -581.000
449.636;  -79.925; -264.000; -155.000
449.758;   30.175;  763.000;  622.000
449.879; -100.250; -498.000; -396.000
450.001;  -77.700; -149.000;  -49.000
450.122;  -42.050;  -95.000;  162.000
450.244;  -31.700;   37.000;  364.000
450.365;  -80.400; -495.000; -301.000
450.486;  -18.600;   80.000;  268.000
450.608;   26.250;  393.000;  326.000
450.729;   89.675;  578.000;  645.000
450.850;   92.850; -574.000; -466.000
450.972; 1235.700; -552.000; -389.000
451.093; 7922.975;  190.000;  588.000
451.214; 3998.550; -516.000; -337.000
451.336;  671.625;  773.000;  579.000
451.457;  102.775;  264.000;  393.000
451.578;  -30.050; -118.000;  -74.000
451.699; -101.900; -546.000; -540.000
451.821;  -68.950; -284.000;  -50.000
451.942;    5.250;  278.000;  285.000
452.063;   41.875;  228.000;  419.000
452.184;  806.225;  -54.000;  -49.000
452.305; 1684.800;  103.000;  170.000
452.427;  306.275; -549.000; -301.000
452.548;  -25.600;   23.000;   79.000
452.669;  -78.725; -257.000;  -89.000
452.790;  -77.175;    3.000;  -18.000
452.911;  -34.150;  195.000;  259.000
453.032;  -97.400; -289.000;  -60.000
453.153;  -66.800;  -29.000;   81.000
453.274;   41.550;  737.000;  868.000
453.395;  -63.575;  -51.000;  175.000
453.516;   88.050; 1317.000; 1388.000
453.637; -112.100; -205.000; -150.000
453.758;  -75.950;   15.000;   69.000
453.879; -131.350; -462.000; -250.000
454.000;   60.125; 1086.000;  948.000
454.121; -131.850; -554.000; -326.000
454.242; -121.450; -599.000; -383.000
454.362;  -66.225;  -99.000;  114.000
454.483;  -30.125; -309.000; -229.000
454.604;   33.250;  512.000;  580.000
454.725; -137.475; -627.000; -555.000
454.846; -120.275; -474.000; -406.000
454.967;  -46.700;  230.000;  539.000
455.087;  -63.600;  179.000;  153.000
455.208;   10.125;  554.000;  856.000
455.329;  -66.325;  -22.000;   82.000
455.450;   47.300;  473.000;  633.000
455.570;  -68.950; -234.000; -211.000
455.691;  -61.475;  201.000;  407.000
455.812; -114.825; -270.000;  -92.000
455.932;  -75.150;  107.000;  -97.000
456.053;  -82.425;   36.000;   24.000
456.173; -117.550; -433.000; -355.000
456.294; -135.550; -476.000; -303.000
456.415;  -75.975;  -73.000;   70.000
456.535;  -50.650;  297.000;  273.000
456.656;  -59.225;  132.000;  240.000
456.776;  -87.150;    3.000;  298.000
456.897;  -22.550;  308.000;  513.000
457.017;  -80.150; -153.000;   -3.000
457.138; -131.525; -402.000; -249.000
457.258;  -57.350;  263.000;  224.000
457.379;  -24.350;  509.000;  521.000
457.499;  -41.600;  443.000;  432.000
457.620; -125.350; -407.000; -231.000
457.740;  -94.325; -132.000;  -11.000
457.860;  -61.750;   87.000;   44.000
457.981;  -62.525;  132.000;  124.000
458.101;  -87.650;  -89.000;   40.000
458.221;  -13.475;  336.000;  402.000
458.342;  -68.350;   -4.000;  -37.000
458.462;   33.025;  617.000;  352.000
458.582;   13.000; -302.000; -294.000
458.703;   51.100;  303.000;  154.000
458.823;    2.725;   22.000;  163.000
458.943;   32.950;  341.000;  467.000
459.063;    4.750; 1124.000;  192.000
459.183;  -39.400;  328.000;  313.000
459.304;   -0.925;  315.000;  517.000
459.424;  -47.275; -246.000;  -89.000
459.544;  450.250;  388.000;  764.000
459.664; 1285.625;  499.000;  506.000
459.784;  478.075; 1004.000; 1175.000
459.904;   68.550;  867.000;  744.000
460.024;   47.400;  867.000;  684.000
460.144;   -1.575;  449.000;  554.000
460.264;  -17.250;  515.000;  327.000
460.385;  -90.525; -145.000; -119.000
460.505;    5.200;  905.000;  858.000
460.625; -109.475;  -17.000;  -68.000
460.745;  -23.425;  396.000;  541.000
460.864;  -45.875;  153.000;  469.000
460.984;   17.725;  499.000;  573.000
461.104;  140.825; 1656.000; 1775.000
461.224;    7.725;  657.000;  650.000
461.344;  -42.800;  431.000;  360.000
461.464;  -36.150;  258.000;  513.000
461.584;  -37.600;  283.000;  466.000
461.704;  -79.000;   58.000;  108.000
461.824;  -63.175;  238.000;  259.000
461.943;  -56.175;  191.000;  130.000
462.063;  -84.875;    2.000;  324.000
462.183;   10.200;  639.000;  717.000
462.303;   80.400; 1678.000; 1230.000
462.422;   17.650;  781.000;  840.000
462.542;  -53.450;  271.000;  391.000
462.662;   33.825;  353.000;  380.000
462.782;  330.350;  833.000;  572.000
462.901;  715.300;  545.000;  717.000
463.021;  376.075; 1702.000; 1638.000
463.141;    2.975;  337.000;  770.000
463.260;   -4.925;  614.000;  474.000
463.380;    6.750;  902.000;  884.000
463.499;  -54.625;  342.000;  332.000
463.619;  -50.600;  581.000;  559.000
463.738;  105.300; 1644.000;  903.000
463.858;    5.550;  657.000;  811.000
463.978;  -41.225;  542.000;  396.000
464.097;   35.025;  921.000; 1114.000
464.217;  150.575; 1196.000; 1143.000
464.336;  139.600; 1068.000; 1130.000
464.455;  -24.775;  328.000;  659.000
464.575;    4.125;  597.000;  602.000
464.694;  121.975; 1204.000; 1179.000
464.814;  154.575; 1190.000; 1138.000
464.933;   84.325; 1095.000; 1027.000
465.052;   78.475; 1412.000; 1054.000
465.172;   77.200;  922.000;  799.000
465.291;  102.925; 1376.000; 1320.000
465.410;    1.200;  462.000;  735.000
465.530;   74.650; 1355.000; 1310.000
465.649;   49.700; 1209.000; 1273.000
465.768;  119.325; 1673.000; 1508.000
465.888;   51.325;  941.000; 1174.000
466.007;   82.975; 1335.000; 1440.000
466.126;  -13.450;  721.000;  641.000
466.245;   26.025; 1176.000; 1187.000
466.364;   21.300;  950.000; 1060.000
466.484;   39.025; 1024.000; 1213.000
466.603;   28.175; 1101.000; 1222.000
466.722;   91.325; 1490.000; 1769.000
466.841;   63.625; 1151.000; 1401.000
466.960;   23.425; 1069.000;  972.000
467.079;  124.950; 1971.000; 1786.000
467.198;   34.350; 1238.000; 1181.000
467.317;   83.075; 1768.000; 1162.000
467.436;   69.500; 1709.000; 1261.000
467.555;   98.300; 1796.000; 1746.000
467.674;   46.400; 1227.000; 1329.000
467.793;   33.175; 1376.000; 1374.000
467.912;   77.850; 1658.000; 1539.000
468.031;  115.575; 2038.000; 1930.000
468.150;  121.100; 1842.000; 1837.000
468.269;  174.875; 2313.000; 2090.000
468.388;  161.425; 2168.000; 2339.000
468.507;  245.725; 2884.000; 2903.000
468.626;  270.325; 2555.000; 2541.000
468.744;  143.675; 2018.000; 2174.000
468.863;  193.800; 2312.000; 2523.000
468.982;   82.075; 1503.000; 1555.000
469.101;  217.275; 2788.000; 2692.000
469.220;  149.750; 2333.000; 2176.000
469.338;  245.375; 2935.000; 3051.000
469.457;  186.700; 2719.000; 2545.000
469.576;  334.100; 3953.000; 3784.000
469.695;  227.725; 2877.000; 3066.000
469.813;  401.525; 4148.000; 4192.000
469.932;  390.850; 4255.000; 4485.000
470.051;  428.300; 4075.000; 4161.000
470.169; 1012.300; 4470.000; 4338.000
470.288; 1997.325; 4700.000; 4809.000
470.406; 1169.875; 5059.000; 5194.000
470.525;  649.400; 6101.000; 5787.000
470.644;  649.225; 6847.000; 6794.000
470.762;  772.625; 8397.000; 7873.000
470.881;  911.375; 8651.000; 8464.000
470.999; 1070.200; 9685.000; 9151.000
471.118; 1109.225;11174.000;10711.000

