
Integration time [ms]: 100.000
Averaging Nr. [scans]: 40
Smoothing Nr. [pixels]: 0
Data measured with spectrometer [name]: 2101012U2
Wave   ;Sample   ;Dark     ;Reference
[nm]   ;[counts] ;[counts] ;[counts] 

197.733;   51.725;  516.000;  404.000
197.879;  -80.325; -610.000; -634.000
198.025;  -44.125; -475.000; -420.000
198.171;  -80.250; -602.000; -612.000
198.317;  -15.175; -401.000; -316.000
198.463;  -66.775; -655.000; -404.000
198.609;   31.125;  181.000; -137.000
198.755;  -89.500; -644.000; -410.000
198.901;  -66.600; -505.000; -424.000
199.047;  -61.775; -615.000; -488.000
199.193;  -29.250; -230.000; -468.000
199.339;  -54.875; -222.000; -369.000
199.485;   53.525;  330.000;  271.000
199.631;   30.875;  227.000;  310.000
199.777;  -46.700; -466.000; -398.000
199.923;  -71.575; -610.000; -424.000
200.069;    2.025; -141.000;  -58.000
200.215;   68.175;  128.000;  453.000
200.361;   41.150;  243.000;  477.000
200.507;  -66.900; -600.000; -373.000
200.653;  -23.725; -371.000; -194.000
200.798;  -32.275; -215.000; -125.000
200.944;    2.525; -146.000;  -41.000
201.090;   34.000;   61.000;  222.000
201.236;   -2.125; -116.000; -158.000
201.382;  133.600;  874.000;  903.000
201.528;    8.625;  -58.000;  -48.000
201.674;  -26.475; -386.000; -293.000
201.819;  -51.850; -540.000; -439.000
201.965;  -85.950; -699.000; -447.000
202.111;  -19.250; -273.000; -226.000
202.257;  -37.525; -250.000; -238.000
202.402;   15.325;   13.000;  -36.000
202.548;  -35.150; -169.000; -116.000
202.694;   88.625;  410.000; -183.000
202.840;  -83.800; -603.000; -531.000
202.985;  -61.750; -681.000; -639.000
203.131; -108.375; -832.000; -666.000
203.277;  -24.175; -199.000; -262.000
203.423;  -47.100; -434.000; -520.000
203.568;  -29.850; -462.000; -237.000
203.714;  -65.950; -535.000; -542.000
203.860;  -92.825; -682.000; -641.000
204.005;    4.150;  112.000;  167.000
204.151;   77.400;  561.000;  556.000
204.296;  -40.550; -354.000; -221.000
204.442;  -64.875; -600.000; -547.000
204.588;  -71.850; -592.000; -579.000
204.733;   16.600;  178.000;  168.000
204.879; -138.175;-1018.000; -822.000
205.025;   15.925;  -99.000;  126.000
205.170;    3.300;  -17.000;   94.000
205.316;   87.950;  438.000;  661.000
205.461;  -81.650; -698.000; -554.000
205.607;   82.850;  609.000;  665.000
205.752;  -64.825; -626.000; -551.000
205.898;  -49.025; -501.000; -391.000
206.043;  -64.450; -578.000; -506.000
206.189;  -32.375; -243.000; -285.000
206.334;   70.575;  554.000;  606.000
206.480;   76.850;  409.000;  239.000
206.625;  -92.325; -529.000; -552.000
206.771;  -36.300; -451.000; -373.000
206.916;  -27.350; -210.000; -537.000
207.062;  -55.800; -545.000; -591.000
207.207;  -64.625; -546.000; -443.000
207.353;   56.225;  185.000;  460.000
207.498;   16.000;  196.000;   85.000
207.643;  -44.200; -501.000; -370.000
207.789; -127.075;-1069.000; -910.000
207.934;  -80.925; -665.000; -713.000
208.080;  -16.775; -154.000;   66.000
208.225;   -6.150;  -22.000;  -57.000
208.370;  -81.175; -727.000; -619.000
208.516;  -78.900; -741.000; -487.000
208.661;  -38.450; -127.000;  -69.000
208.806;  -14.875; -165.000; -171.000
208.952; -129.150;-1044.000; -731.000
209.097;   85.100;  378.000;  349.000
209.242;  -41.375; -307.000; -382.000
209.387;   76.775;  392.000;  350.000
209.533;  -71.775; -321.000; -350.000
209.678;   88.875;  472.000;  543.000
209.823;  -57.425; -408.000; -310.000
209.969; -101.450; -860.000; -757.000
210.114; -109.975; -907.000; -719.000
210.259; -114.800; -939.000; -889.000
210.404;   -8.900; -171.000;  103.000
210.549;   27.400;  108.000;    3.000
210.695;  -13.825;   -3.000;  -95.000
210.840;   37.950;   94.000;   67.000
210.985;  -58.775; -484.000; -303.000
211.130;   88.100;  268.000;  406.000
211.275;   21.700;  207.000;  199.000
211.420;  -54.550; -300.000; -289.000
211.566;  -69.925; -536.000; -489.000
211.711;   28.350;  218.000;  157.000
211.856;  -67.925; -545.000; -519.000
212.001;   22.125;  151.000;   44.000
212.146;   36.675;  153.000;   49.000
212.291;  -23.875; -210.000; -186.000
212.436;  -27.575; -280.000;   -6.000
212.581;  -83.000; -685.000; -653.000
212.726;  -62.700; -487.000; -538.000
212.871;  -45.675; -552.000; -217.000
213.016; -163.025;-1172.000;-1029.000
213.161;   75.250;  406.000;  291.000
213.306;  -68.525; -435.000; -577.000
213.451;  -92.500; -778.000; -689.000
213.596;  -49.775; -455.000; -347.000
213.741;  -56.150; -448.000; -538.000
213.886;  -71.050; -498.000; -517.000
214.031;   -9.025; -294.000; -124.000
214.176;  -49.050; -408.000; -341.000
214.321;  -14.700; -296.000; -157.000
214.466;  -11.775; -163.000;  -43.000
214.611;    3.700;  -61.000;  -10.000
214.756; -120.650; -948.000; -858.000
214.901;   -9.175; -388.000; -226.000
215.046; -128.100; -797.000; -825.000
215.191;   28.875;  128.000;   35.000
215.336;  -26.350; -157.000;  -19.000
215.480;  -60.075; -684.000; -505.000
215.625;   -9.975; -175.000;  -19.000
215.770;  -86.550; -757.000; -662.000
215.915;   -3.200;   -5.000;  -97.000
216.060;    3.725; -113.000;  -21.000
216.205; -102.150; -731.000; -779.000
216.349;  -61.525; -470.000; -533.000
216.494; -125.975; -939.000; -867.000
216.639; -100.050; -823.000; -888.000
216.784;  -91.650; -577.000; -525.000
216.929;   46.000;  392.000;  281.000
217.073;   -7.075; -244.000;  -31.000
217.218;    6.375;   78.000;  -47.000
217.363;  -91.275; -656.000; -618.000
217.507;  -60.525; -623.000; -588.000
217.652; -121.325; -845.000; -874.000
217.797;  -82.125; -708.000; -659.000
217.942; -117.125; -856.000; -720.000
218.086;   82.675;  608.000;  539.000
218.231;  -11.925; -174.000;  -26.000
218.376;  -43.250; -337.000; -229.000
218.520;    8.600;  -41.000;   96.000
218.665;  -16.250; -338.000; -204.000
218.810;  -45.275; -275.000; -233.000
218.954;   13.025;  201.000;   35.000
219.099; -112.450; -713.000; -963.000
219.243;  -48.875; -589.000; -554.000
219.388;  -28.475; -264.000; -136.000
219.532;  -19.650; -116.000; -116.000
219.677;  -74.775; -564.000; -521.000
219.822;   19.125;   33.000;   89.000
219.966;   -0.350;   17.000;  -99.000
220.111;  -22.100; -328.000;  -40.000
220.255; -101.700; -797.000; -750.000
220.400;  -23.500; -180.000; -146.000
220.544;  -63.750; -516.000; -450.000
220.689;  -47.275; -422.000; -451.000
220.833;  -22.875; -123.000;  -58.000
220.978;  -55.275; -393.000; -563.000
221.122;   36.425;  319.000;  307.000
221.267; -100.075; -906.000; -837.000
221.411;  -67.625; -478.000; -394.000
221.555;    1.700; -104.000;  -23.000
221.700;  -51.200; -329.000; -222.000
221.844;   39.500;  255.000;  272.000
221.989;  -50.400; -328.000; -311.000
222.133;  -38.800; -289.000; -307.000
222.277;    7.775;    5.000;   78.000
222.422;   18.075;  227.000;  113.000
222.566;  -36.825; -381.000; -214.000
222.711;  -47.575; -414.000; -479.000
222.855;  -70.475; -643.000; -586.000
222.999;  -85.025; -642.000; -717.000
223.144;  -25.925; -195.000; -194.000
223.288;   49.850;  423.000;  251.000
223.432;   26.350;  184.000;  230.000
223.576;   18.425;  152.000;  -21.000
223.721;   37.875;  364.000;  273.000
223.865;  -57.250; -472.000; -475.000
224.009;  231.950; 1673.000; 1631.000
224.153;  -83.400; -660.000; -671.000
224.298;  -66.075; -531.000; -489.000
224.442;   -7.725;  -74.000;  -33.000
224.586;  -13.125; -169.000; -106.000
224.730;  -95.900; -858.000; -670.000
224.875; -107.550; -739.000; -688.000
225.019;   13.750;  102.000;  188.000
225.163;   65.025;  208.000;  341.000
225.307;   22.025;   97.000;  -91.000
225.451;   32.050;  360.000;  481.000
225.595;   45.750;  264.000;  176.000
225.739;  -20.100; -170.000;  -94.000
225.884;    7.775;   86.000;    5.000
226.028; -100.425; -760.000; -626.000
226.172;  -36.425; -260.000; -273.000
226.316; -120.375; -941.000; -902.000
226.460;  -63.650; -645.000; -493.000
226.604;  -54.200; -406.000; -400.000
226.748;  -94.925; -836.000; -733.000
226.892;  -33.600; -227.000; -181.000
227.036;  -47.225; -537.000; -447.000
227.180;  -63.550; -551.000; -375.000
227.324;  -75.450; -561.000; -580.000
227.468; -110.500; -819.000; -717.000
227.612;   25.800;  242.000;  -28.000
227.756; -111.650; -845.000; -698.000
227.900;   53.950;  342.000;  441.000
228.044;  -56.850; -509.000; -290.000
228.188;   55.500;  448.000;  568.000
228.332;  -85.950; -546.000; -472.000
228.476;  -22.000; -223.000; -149.000
228.620;  -29.975; -210.000; -150.000
228.764;   72.750;  431.000;  349.000
228.908;  -16.950; -155.000;   30.000
229.052;  -62.500; -615.000; -528.000
229.195;  -15.000; -172.000;   13.000
229.339;  -14.050; -235.000; -305.000
229.483;  -43.075;    5.000; -162.000
229.627;    1.600; -156.000;  139.000
229.771;  -58.600; -218.000; -294.000
229.915;   17.025;  230.000;   79.000
230.059;  -87.525; -648.000; -663.000
230.202;  -42.700; -370.000; -317.000
230.346;   -7.400; -107.000;  107.000
230.490;  -73.275; -489.000; -521.000
230.634; -109.150; -736.000; -553.000
230.777;   85.225;  478.000;  509.000
230.921;  -52.725; -450.000; -359.000
231.065;  -31.825; -246.000; -286.000
231.209;   26.575;  261.000;  265.000
231.352;   22.675;   54.000;   40.000
231.496;   17.175;  568.000;  188.000
231.640;  -81.475; -693.000; -621.000
231.783;   52.650;  546.000;  525.000
231.927;  -44.925; -294.000; -365.000
232.071; -111.425; -962.000; -736.000
232.214; -111.550; -980.000; -764.000
232.358;  -93.675; -683.000; -599.000
232.502;   11.675;  -19.000;    7.000
232.645; -132.400;-1090.000; -927.000
232.789;  -25.325; -257.000; -218.000
232.933;  -40.275; -407.000; -224.000
233.076; -131.725;-1038.000; -897.000
233.220; -112.950; -752.000; -777.000
233.363;  -61.275; -669.000; -477.000
233.507;   66.900;  371.000;  129.000
233.650;  -92.075; -764.000; -834.000
233.794;   53.625;  438.000;  461.000
233.938;  -58.250; -530.000; -362.000
234.081;  -21.675;  -93.000;   31.000
234.225;  -62.150; -631.000; -539.000
234.368; -110.675; -773.000; -723.000
234.512;  -37.825; -385.000; -299.000
234.655;  -90.675; -582.000; -555.000
234.798;  -53.325; -493.000; -466.000
234.942; -135.800; -884.000;-1002.000
235.085;  -77.375; -651.000; -443.000
235.229;  -74.125; -405.000; -410.000
235.372;  -40.375; -247.000; -191.000
235.516;  -70.125; -397.000; -321.000
235.659;   26.375;   92.000;  121.000
235.802;   -3.225;  -38.000;  -22.000
235.946;   34.525;  335.000;  215.000
236.089;   21.975;  126.000;  250.000
236.233;   44.100;  275.000;  298.000
236.376;  -45.500; -235.000; -378.000
236.519;  -38.675; -297.000; -319.000
236.663;  -34.350; -215.000; -117.000
236.806; -139.150;-1029.000; -999.000
236.949;   79.725;  543.000;  431.000
237.092;   69.425;  412.000;  391.000
237.236;  -78.275; -589.000; -502.000
237.379;   56.700;  352.000;  428.000
237.522; -117.500; -879.000; -768.000
237.666;   -7.325; -271.000;   18.000
237.809; -119.150; -851.000; -823.000
237.952;   40.475;  469.000;  271.000
238.095;  -71.750; -447.000; -442.000
238.238;   89.775;  688.000;  700.000
238.382;   -1.875;  166.000;  103.000
238.525;  -66.500; -598.000; -511.000
238.668; -141.875;-1060.000; -985.000
238.811;  -83.475; -638.000; -643.000
238.954;  -56.225; -483.000; -334.000
239.097;   97.925;  617.000;  664.000
239.241;   17.075;  394.000;  326.000
239.384;  -32.250; -254.000; -214.000
239.527;  -62.500; -424.000; -224.000
239.670; -152.925; -994.000;-1091.000
239.813; -119.525; -696.000; -658.000
239.956;   79.525;  579.000;  473.000
240.099; -114.325; -778.000; -725.000
240.242;   71.850;  428.000;  432.000
240.385;   53.100;  466.000;  450.000
240.528;  -51.850; -706.000; -473.000
240.671;   15.350;  189.000;  134.000
240.814;  -40.825; -441.000; -158.000
240.957;  -95.525; -767.000; -578.000
241.100;  -87.600; -779.000; -755.000
241.243; -145.150;-1234.000; -893.000
241.386;  -65.900; -508.000; -379.000
241.529;  -96.375; -735.000; -547.000
241.672;  -62.125; -566.000; -495.000
241.815; -119.875; -832.000; -808.000
241.958;  -24.875; -125.000; -182.000
242.101;  -80.000; -545.000; -390.000
242.244;  -30.925; -270.000; -325.000
242.387;  -30.225; -304.000; -246.000
242.530;   54.100;  470.000;  134.000
242.673;  -50.300; -381.000; -309.000
242.815; -111.575; -925.000; -899.000
242.958;  -68.150; -482.000; -381.000
243.101;   25.900;  132.000;  187.000
243.244;  -88.875; -564.000; -521.000
243.387;  -43.850; -313.000; -316.000
243.530;  -95.850; -657.000; -674.000
243.672;    7.750;   43.000;  -92.000
243.815;  -49.375; -355.000; -283.000
243.958;    9.200;   98.000;  -26.000
244.101;   -7.850;   59.000;  -16.000
244.243;  -10.375;  -47.000;  101.000
244.386; -115.600; -761.000; -630.000
244.529;  -20.250; -132.000; -139.000
244.672; -161.200;-1154.000; -951.000
244.814;  -86.350; -621.000; -794.000
244.957;  -62.950; -380.000; -304.000
245.100;  -70.625; -489.000; -489.000
245.242;  -57.400; -387.000; -374.000
245.385;   -2.075;  -59.000;  -39.000
245.528; -119.875; -871.000; -705.000
245.670;   93.775;  612.000;  634.000
245.813;  -86.550; -599.000; -547.000
245.956;  -40.825; -324.000; -275.000
246.098;  -61.025; -508.000; -650.000
246.241;   10.275;  194.000;   48.000
246.383;  -21.575; -119.000;  -73.000
246.526;  -85.125; -454.000; -525.000
246.669; -115.475; -889.000; -780.000
246.811;   17.900;  172.000;   -1.000
246.954;  -67.150; -512.000; -426.000
247.096;  -10.975;  -84.000;   -6.000
247.239;  -75.475; -482.000; -445.000
247.381;  -70.425; -647.000; -488.000
247.524;   77.475;  645.000;  679.000
247.666;   -6.925;   58.000;   11.000
247.809; -120.400; -887.000; -691.000
247.951;  -10.425;  -75.000;  138.000
248.094;   17.725;  432.000;  308.000
248.236; -152.800;-1262.000;-1238.000
248.378;   15.475; -356.000;  -81.000
248.521;   -9.050; -334.000; -337.000
248.663;  -46.475; -236.000; -267.000
248.806;  -17.350; -300.000; -266.000
248.948;  -94.500; -886.000; -763.000
249.090;  -48.475; -428.000; -398.000
249.233;  -51.025; -344.000; -381.000
249.375;  -55.800; -474.000; -451.000
249.518;   -6.475;  -83.000; -133.000
249.660;   21.775; -103.000;    3.000
249.802; -168.925;-1303.000;-1189.000
249.945;  -72.600; -612.000; -540.000
250.087; -111.250; -834.000; -768.000
250.229;  -39.625; -362.000; -480.000
250.371;  -71.000; -494.000; -439.000
250.514;  -41.350; -310.000; -244.000
250.656;  -75.125;   69.000;  102.000
250.798; -113.725; -849.000; -800.000
250.940;  -74.000; -322.000; -322.000
251.083;  -18.675; -335.000; -111.000
251.225;   57.775;  338.000;  310.000
251.367;  -39.175; -274.000; -373.000
251.509;  -28.525; -265.000; -210.000
251.651;  -91.000; -731.000; -671.000
251.794;   55.650;  538.000;  632.000
251.936;  -92.650; -821.000; -747.000
252.078;  -72.425; -540.000; -461.000
252.220;  -65.325; -645.000; -477.000
252.362;   88.550;  344.000;  462.000
252.504;  -68.575; -677.000; -584.000
252.646; -107.275; -875.000; -722.000
252.788;    6.625;   14.000; -128.000
252.931;  -31.150; -257.000; -253.000
253.073;  -44.450; -376.000; -317.000
253.215;   -6.750;  141.000;  122.000
253.357;   -7.925;   82.000; -153.000
253.499;  -54.975; -374.000; -234.000
253.641;  -84.575; -749.000; -594.000
253.783;  -92.125; -609.000; -527.000
253.925;  -82.900; -586.000; -591.000
254.067; -118.975; -744.000; -667.000
254.209;  -28.975; -391.000; -259.000
254.351; -122.275; -865.000; -883.000
254.493;  -52.100; -441.000; -417.000
254.635; -136.325; -936.000; -818.000
254.777;  -81.950; -752.000; -687.000
254.918;  -69.650; -512.000; -430.000
255.060;  -53.150; -551.000; -395.000
255.202;  -66.950; -473.000; -261.000
255.344;  -73.650; -658.000; -455.000
255.486;  -74.725; -471.000; -406.000
255.628; -121.075; -780.000; -781.000
255.770;  -87.825; -676.000; -536.000
255.912;  -44.550; -559.000; -468.000
256.053;  -91.000; -730.000; -508.000
256.195;  153.850; 1008.000;  903.000
256.337;  -98.050; -861.000; -595.000
256.479;   75.100;  532.000;  416.000
256.621;  -35.450; -394.000; -212.000
256.762;  -98.450; -789.000; -742.000
256.904;   42.575;  485.000;  487.000
257.046;  -58.500; -381.000; -271.000
257.188;  -47.625; -351.000; -264.000
257.329;  -71.725; -525.000; -464.000
257.471; -122.050; -939.000; -807.000
257.613;  -48.650; -584.000; -498.000
257.755; -146.125;-1073.000; -982.000
257.896;   36.650;  286.000;  392.000
258.038;  -66.675; -403.000; -352.000
258.180;  -43.350; -354.000; -279.000
258.321;  -84.625; -581.000; -457.000
258.463;   -4.825;  -71.000;  133.000
258.605;  -83.750; -562.000; -570.000
258.746;  -96.900; -886.000; -772.000
258.888; -147.900;-1026.000;-1020.000
259.029;   26.050;  121.000;   -8.000
259.171;  -84.100; -614.000; -550.000
259.313;  -16.350;  -49.000;  -47.000
259.454;  -77.225; -536.000; -414.000
259.596;  -54.425; -483.000; -390.000
259.737;  -71.575; -590.000; -474.000
259.879;   39.125;  217.000;  311.000
260.020;   97.550;  901.000;  636.000
260.162;  -16.625; -146.000; -253.000
260.303; -112.100; -768.000; -687.000
260.445;  -87.425; -609.000; -613.000
260.586;   35.425;  392.000;  157.000
260.728;  -49.850; -360.000; -248.000
260.869;  -68.025; -350.000; -343.000
261.011;   78.675;  706.000;  537.000
261.152;  -60.350; -479.000; -319.000
261.293;  -59.650; -576.000; -595.000
261.435;  -43.500; -219.000; -184.000
261.576;  -55.775; -455.000; -325.000
261.718;   55.625;  420.000;  470.000
261.859; -121.000; -940.000; -949.000
262.000; -134.000; -951.000;-1016.000
262.142;  -28.125;  -52.000;  -60.000
262.283; -119.625; -808.000; -691.000
262.424;  -85.075; -666.000; -625.000
262.566; -151.750;-1161.000; -983.000
262.707;  -95.950; -840.000; -830.000
262.848; -129.950; -769.000; -726.000
262.990;  -39.475; -362.000; -345.000
263.131;   74.650;  650.000;  681.000
263.272;   -4.175;  -61.000;  -41.000
263.413;  -97.250; -589.000; -561.000
263.555;  -63.450; -669.000; -143.000
263.696;  -86.725; -550.000; -641.000
263.837;  -68.775; -449.000; -551.000
263.978;   -3.725;   -5.000;  -77.000
264.119;  -37.375; -283.000; -264.000
264.261; -119.025; -847.000; -630.000
264.402;    0.000;   33.000;   40.000
264.543;  -80.550; -509.000; -524.000
264.684;  -15.400;   61.000;  -50.000
264.825;  -91.950; -816.000; -538.000
264.966;   -9.075;  -84.000;  -67.000
265.107; -119.050; -646.000; -670.000
265.248; -108.925; -825.000; -812.000
265.390;    5.800;  152.000;   -9.000
265.531;  -24.000; -238.000; -107.000
265.672;  -80.500; -557.000; -630.000
265.813;   66.400;  563.000;  439.000
265.954; -147.650; -959.000; -940.000
266.095;  -15.050; -372.000; -322.000
266.236; -100.025; -686.000; -548.000
266.377;  -33.800; -243.000; -297.000
266.518;  -83.300; -619.000; -547.000
266.659;   27.325;  170.000;  268.000
266.800;    1.925;   83.000;   85.000
266.941;  -71.150; -487.000; -478.000
267.082;   36.400;  354.000;   99.000
267.223;  -53.275; -344.000; -273.000
267.364; -130.025; -892.000; -686.000
267.504;    6.700;    3.000;  135.000
267.645;    7.100;  160.000;   67.000
267.786;  -16.100; -147.000;  -86.000
267.927;  -68.125; -473.000; -379.000
268.068;   -3.150; -186.000;  -61.000
268.209;  -48.425; -175.000; -413.000
268.350;  -67.550; -388.000; -532.000
268.490;  -93.000; -648.000; -521.000
268.631;   37.775;  127.000;  225.000
268.772; -108.500; -874.000; -647.000
268.913;  -52.275; -328.000; -476.000
269.054;   -9.875; -117.000;   12.000
269.194;  -54.675; -418.000; -402.000
269.335; -153.300;-1137.000;-1074.000
269.476;  -11.675;   33.000;  -35.000
269.617;  -45.875; -347.000; -392.000
269.757;  -89.425; -713.000; -646.000
269.898;  -98.150; -856.000; -613.000
270.039;  -61.825; -415.000; -405.000
270.180; -124.700; -952.000; -816.000
270.320;  -21.825; -190.000; -250.000
270.461;  -47.750; -277.000; -249.000
270.602;  -11.925; -186.000; -156.000
270.742; -125.000; -868.000; -943.000
270.883;  -56.150; -442.000; -390.000
271.023;  -55.950; -358.000; -357.000
271.164;  -71.375; -607.000; -528.000
271.305; -101.600; -666.000; -654.000
271.445; -101.200; -722.000; -683.000
271.586;  -70.825; -462.000; -283.000
271.726;  -51.275; -397.000; -322.000
271.867;  -43.225; -594.000; -534.000
272.008;  205.600; -473.000; -285.000
272.148;  145.825;  462.000;  468.000
272.289;   12.300; -113.000; -181.000
272.429;   19.900;   19.000;  185.000
272.570;  -85.525; -633.000; -737.000
272.710; -100.175; -825.000; -775.000
272.851;  -18.350;  113.000; -130.000
272.991; -172.850;-1173.000;-1077.000
273.131;  -62.125; -419.000; -459.000
273.272;  -89.400; -683.000; -723.000
273.412;   13.100; -143.000;  -31.000
273.553;  -52.600; -488.000; -507.000
273.693;  148.250;  913.000;  858.000
273.834;  -92.400; -894.000; -692.000
273.974;  -72.575; -664.000; -615.000
274.114; -103.250; -772.000; -560.000
274.255;   82.550;  414.000;  373.000
274.395;   11.575; -180.000; -125.000
274.535;   43.725;  199.000;  350.000
274.676;    5.075;  225.000;   94.000
274.816;   -6.000;  110.000;   34.000
274.956;  -78.450; -624.000; -690.000
275.097;  -64.300;-1014.000; -922.000
275.237; -111.625; -913.000; -803.000
275.377; -100.900; -778.000; -689.000
275.517; -151.475; -878.000; -937.000
275.658;  -58.825; -590.000; -555.000
275.798;  -61.400; -606.000; -413.000
275.938;   29.675;  215.000;  323.000
276.078;  -94.700; -626.000; -395.000
276.218;   10.125;   99.000;  104.000
276.359; -112.625;-1026.000;-1024.000
276.499;  -69.675; -605.000; -446.000
276.639;  -40.300; -305.000; -151.000
276.779;  -56.575; -475.000; -357.000
276.919; -111.975; -783.000; -624.000
277.059;  -18.300; -261.000; -212.000
277.199;  -50.775; -357.000; -259.000
277.340;   49.875;  287.000;  175.000
277.480; -114.625; -840.000; -693.000
277.620;   30.950;  192.000;   16.000
277.760; -199.850;-1533.000;-1294.000
277.900;   30.800;  113.000;   33.000
278.040;   16.300;  137.000;  159.000
278.180;   41.500;  270.000;  170.000
278.320;  -10.500;   21.000;   56.000
278.460;  -63.025; -443.000; -469.000
278.600;  -82.650; -708.000; -598.000
278.740;   59.125;  448.000;  224.000
278.880;  -42.075; -768.000; -791.000
279.020;   -4.125; -194.000; -144.000
279.160; -100.600; -672.000; -595.000
279.300; -113.950; -926.000; -873.000
279.440;  -90.625; -709.000; -622.000
279.579;  -10.800;-1014.000; -929.000
279.719;  -54.900; -410.000; -394.000
279.859;   78.375;   -4.000;   41.000
279.999;   46.675; -208.000;  101.000
280.139;  -12.575; -435.000; -387.000
280.279;  -71.775; -708.000; -745.000
280.419;  -15.575; -229.000; -147.000
280.559;  -36.250; -259.000; -180.000
280.698;  -73.700; -790.000; -639.000
280.838; -102.150; -778.000; -800.000
280.978;  -93.950; -846.000; -790.000
281.118; -103.925; -811.000; -704.000
281.257;    3.425;   24.000;    6.000
281.397; -117.475;-1094.000; -960.000
281.537;  -76.250; -599.000; -712.000
281.677;  -18.325; -150.000; -101.000
281.816;  -77.650; -700.000; -630.000
281.956;  -34.625; -193.000; -257.000
282.096;  -57.800; -539.000; -396.000
282.235; -113.450; -672.000; -638.000
282.375;  -23.100; -243.000;  -98.000
282.515;  -95.475; -715.000; -707.000
282.654;   30.675;   29.000;  106.000
282.794;   26.125;  388.000;  244.000
282.934;  -56.925; -530.000; -491.000
283.073; -133.900;-1030.000; -857.000
283.213;  -53.250; -460.000; -467.000
283.353;  -31.625; -408.000; -349.000
283.492;  -21.475; -264.000; -296.000
283.632;  -46.550; -254.000; -168.000
283.771; -107.350; -859.000; -730.000
283.911;  -45.350; -369.000; -260.000
284.050; -103.475; -794.000; -748.000
284.190; -162.550;-1229.000;-1096.000
284.329; -127.800;-1055.000; -964.000
284.469;  -63.200; -516.000; -591.000
284.608;  -63.500; -559.000; -598.000
284.748;  -87.125; -614.000; -570.000
284.887;   -2.750;  -87.000;  -20.000
285.027; -124.700; -844.000; -892.000
285.166;  -30.200; -192.000; -249.000
285.306;   18.225; -116.000;  -33.000
285.445;  -38.500; -229.000; -343.000
285.584;  -94.200; -630.000; -494.000
285.724;  -36.350; -282.000; -322.000
285.863; -106.350; -857.000; -507.000
286.002;  -47.675; -366.000; -276.000
286.142;  -99.700; -715.000; -622.000
286.281;  -67.400; -525.000; -493.000
286.420;  -72.925; -554.000; -417.000
286.560;  102.500;  653.000;  623.000
286.699; -137.325; -958.000; -912.000
286.838;  -81.050; -590.000; -591.000
286.978;  -88.350; -533.000; -537.000
287.117; -116.850;-1085.000; -950.000
287.256;  -36.025; -228.000; -211.000
287.395;  -39.875; -197.000; -378.000
287.535;  -52.400; -370.000; -298.000
287.674;  -80.125; -509.000; -484.000
287.813;   69.150;  661.000;  533.000
287.952; -122.925;-1010.000; -871.000
288.091; -153.325;-1049.000; -915.000
288.231;   18.900;   13.000;   15.000
288.370; -168.600;-1217.000;-1200.000
288.509;  -79.025; -728.000; -645.000
288.648;  -94.075; -770.000; -548.000
288.787;  -16.350; -243.000;  -87.000
288.926;  -54.525; -454.000; -475.000
289.065;  138.050;  859.000;  672.000
289.204;  -60.925; -377.000; -217.000
289.344;  -78.775; -791.000; -690.000
289.483;   24.275;  416.000;  304.000
289.622;  -26.875; -291.000; -149.000
289.761;  -26.850; -309.000; -166.000
289.900; -107.200; -785.000; -626.000
290.039;  -23.575;  -12.000;  -95.000
290.178;  -47.000; -274.000; -180.000
290.317;  -79.750; -618.000; -479.000
290.456;  -61.050; -463.000; -451.000
290.595; -147.775; -961.000; -833.000
290.734; -140.525; -904.000; -891.000
290.873;  -72.100; -456.000; -420.000
291.011; -110.300; -833.000; -843.000
291.150; -102.825; -770.000; -682.000
291.289;  -14.025; -343.000; -110.000
291.428;  -94.750; -599.000; -480.000
291.567;  -68.725; -370.000; -442.000
291.706;   -5.950;  109.000;  154.000
291.845;  -79.325; -597.000; -505.000
291.984; -168.975;-1234.000;-1061.000
292.122;   73.800;  602.000;  582.000
292.261;   43.000;  620.000;  463.000
292.400;    0.975; -144.000;  211.000
292.539; -124.850; -959.000; -813.000
292.678;  -32.925; -325.000; -300.000
292.816; -157.800;-1136.000; -965.000
292.955;  -91.850; -844.000; -684.000
293.094;  -21.925; -173.000; -337.000
293.233;  -43.975; -556.000; -400.000
293.371;  -33.575; -225.000;  -84.000
293.510; -103.850; -866.000; -780.000
293.649; -126.950; -959.000; -924.000
293.787;  -44.800;-1083.000;-1012.000
293.926;   -7.475; -113.000;  -32.000
294.065;  -40.000; -379.000; -290.000
294.203;   50.825;  298.000;  406.000
294.342;   30.850;   74.000;  156.000
294.481; 5814.075;51180.000; -836.000
294.619;  -17.975; -425.000; -582.000
294.758; -141.450;-1230.000;-1137.000
294.896;   83.050; -125.000;    5.000
295.035; -126.025;-1040.000;-1006.000
295.174; -111.275;-1082.000; -954.000
295.312;  -26.050; -323.000; -203.000
295.451;   15.825; -307.000; -428.000
295.589;  -49.675; -389.000; -518.000
295.728;   16.800; -292.000; -165.000
295.866;    2.000;  -36.000;  -51.000
296.005;  -64.975; -584.000; -341.000
296.143;  -65.325; -558.000; -596.000
296.282; -104.000; -957.000; -881.000
296.420;  -82.200; -657.000; -557.000
296.559;  -67.650; -892.000; -633.000
296.697;   39.350; -847.000; -665.000
296.835;   87.600;-1141.000;-1002.000
296.974;   41.250;  -23.000;   39.000
297.112;   25.125; -443.000; -504.000
297.251;  -66.350; -815.000; -755.000
297.389;  110.800; -576.000; -438.000
297.527;   49.600; -145.000;  -83.000
297.666;  -41.675; -486.000; -438.000
297.804;  -53.175; -404.000; -264.000
297.942;   -0.650; -136.000; -161.000
298.081;    7.275; -183.000;   63.000
298.219;   81.400;  -17.000;  -19.000
298.357;   56.125; -144.000;  -71.000
298.495;   44.775; -810.000; -812.000
298.634;   79.425;  245.000;  219.000
298.772;   78.675; -220.000; -338.000
298.910;  -39.500; -309.000; -182.000
299.048;   -5.925; -130.000; -153.000
299.187;  -32.700; -350.000; -250.000
299.325;   26.825;   52.000;  122.000
299.463;   73.950; -389.000; -299.000
299.601;  130.100; -327.000; -271.000
299.739;  -83.675; -908.000; -883.000
299.877;  -74.225; -791.000; -703.000
300.016;  -36.775;-1095.000; -935.000
300.154;  185.750;  -19.000; -161.000
300.292;   78.325; -428.000; -348.000
300.430;   47.075; -408.000; -291.000
300.568;  -95.000; -940.000; -874.000
300.706;  -34.300; -366.000; -469.000
300.844;  -69.350;-1108.000; -979.000
300.982;  123.425;  246.000;  282.000
301.120;  -91.025; -965.000; -866.000
301.258;  -60.600; -812.000; -705.000
301.396;   32.450;  104.000;  -41.000
301.534;  103.575; -218.000; -293.000
301.672;    2.000; -664.000; -521.000
301.810;   53.975; -613.000; -545.000
301.948;  123.800;   53.000;  149.000
302.086;  689.575; -250.000;  -32.000
302.224; 1056.000; -610.000; -585.000
302.362;   64.300; -558.000; -622.000
302.500;   -8.800; -923.000; -893.000
302.638;  143.125;  128.000;  245.000
302.776;   -7.175; -352.000; -408.000
302.913;   51.650;  447.000;  236.000
303.051;   -4.100;  -86.000;  -23.000
303.189;   70.300;   90.000;  118.000
303.327;  -47.475; -341.000; -256.000
303.465;  -74.725; -832.000; -588.000
303.603;  -97.125; -805.000; -604.000
303.740;  114.600;  417.000;  241.000
303.878;   22.000; -800.000; -759.000
304.016;  -87.700; -915.000; -790.000
304.154; -124.800;-1123.000;-1152.000
304.291;  -40.475; -505.000; -554.000
304.429;   18.700;  102.000;   74.000
304.567; -122.775; -908.000; -893.000
304.705;  -45.075; -408.000; -515.000
304.842;  119.400; -616.000; -540.000
304.980;   64.950;  215.000;   35.000
305.118;   57.100; -367.000; -365.000
305.255;  -59.000; -945.000; -927.000
305.393;   79.925;  178.000;  239.000
305.531;  -91.650;-1173.000; -956.000
305.668;  -54.900; -663.000; -582.000
305.806;  115.500; -358.000; -439.000
305.943;  133.775; -629.000; -637.000
306.081;   74.100; -378.000; -267.000
306.219;  -85.400; -863.000; -748.000
306.356;    2.350;  158.000;   27.000
306.494;  108.950;  981.000;  761.000
306.631;   -9.700;  -11.000;  -55.000
306.769;   20.050; -613.000; -485.000
306.906;  -11.550; -284.000; -258.000
307.044;  -59.550; -473.000; -488.000
307.181;  -66.125; -410.000; -332.000
307.319;   27.250;  112.000;   87.000
307.456; -173.025;-1191.000;-1153.000
307.594; -101.700; -980.000; -727.000
307.731;  -16.675; -371.000; -164.000
307.868;    6.625;  -15.000;   20.000
308.006; -136.800; -961.000; -847.000
308.143;  -52.350; -618.000; -330.000
308.281;  157.575;  -37.000; -254.000
308.418;  -11.800; -748.000; -640.000
308.555;  -72.075; -400.000; -250.000
308.693;  -69.775; -577.000; -573.000
308.830; -102.650; -712.000; -657.000
308.967;    0.250; -215.000;  -95.000
309.105;  -54.925; -507.000; -396.000
309.242;   22.975; -468.000; -367.000
309.379;  282.150; -577.000; -655.000
309.517;  -64.975; -936.000; -948.000
309.654; -100.225; -910.000; -734.000
309.791;  -72.225; -662.000; -580.000
309.928; -131.125; -977.000; -914.000
310.065;  196.575;  819.000;  697.000
310.203;    9.600; -825.000; -850.000
310.340;    5.225; -465.000; -321.000
310.477;  -81.350; -412.000; -516.000
310.614;  -59.150; -383.000; -473.000
310.751;  -76.100; -427.000; -518.000
310.889;  -29.525;    1.000;   11.000
311.026; -164.525;-1161.000; -939.000
311.163;  -47.950; -386.000; -380.000
311.300;  -75.625; -512.000; -479.000
311.437;  -68.375; -658.000; -619.000
311.574; -148.250;-1226.000; -985.000
311.711;  -57.925; -595.000; -433.000
311.848;  -40.775; -380.000; -388.000
311.985;   27.000;  270.000;   93.000
312.122; -109.375; -932.000; -762.000
312.259; -111.800; -941.000; -994.000
312.396;  -74.525; -508.000; -551.000
312.533;  -98.325; -812.000; -790.000
312.670; -119.875;-1070.000; -898.000
312.807;  -32.450; -352.000; -367.000
312.944;  -84.625; -513.000; -611.000
313.081;  -32.625; -150.000; -415.000
313.218;  -91.700;-1111.000; -867.000
313.355;   16.325; -531.000; -449.000
313.492;    7.750; -455.000; -292.000
313.629;  151.975;  815.000;  735.000
313.766; -156.400;-1176.000;-1008.000
313.902;    3.050; -186.000;   21.000
314.039;  -46.600; -372.000; -289.000
314.176;   22.825;  286.000;  192.000
314.313;  -76.625; -569.000; -473.000
314.450;  -69.425; -788.000; -684.000
314.587;  -59.825; -468.000; -480.000
314.723;   -3.275;  -78.000;  130.000
314.860;   34.175;  318.000;  332.000
314.997;   37.775;  223.000;  142.000
315.134;  -45.725; -385.000; -368.000
315.270;  -18.850; -480.000; -496.000
315.407; -118.700;-1094.000; -967.000
315.544;  -40.725; -657.000; -538.000
315.681;  -67.750; -681.000; -565.000
315.817;   38.050; -133.000; -176.000
315.954;   25.725; -613.000; -392.000
316.091; -117.925;-1045.000;-1023.000
316.227;  -13.375;  -71.000; -179.000
316.364;    1.525;   23.000;    6.000
316.500;  -42.400; -113.000; -300.000
316.637;  -32.350; -181.000; -302.000
316.774;  -81.250; -625.000; -358.000
316.910;  -82.275; -598.000; -629.000
317.047;  -71.150; -487.000; -351.000
317.183;  -42.800; -435.000; -566.000
317.320;   -8.750; -367.000; -321.000
317.456;  -68.250; -733.000; -805.000
317.593;  -97.625; -598.000; -641.000
317.729;    7.825;  168.000;  -67.000
317.866; -190.825;-1434.000;-1285.000
318.002;  -83.075; -708.000; -948.000
318.139;  -85.175; -883.000; -867.000
318.275;  -98.150;-1003.000; -738.000
318.412;  -64.250; -517.000; -336.000
318.548;  -21.575; -751.000; -720.000
318.685;  -89.575; -985.000; -888.000
318.821;  -99.475; -762.000; -735.000
318.957;  -23.425;   34.000;  -23.000
319.094;   34.600;  297.000;  154.000
319.230;  -43.550; -756.000; -742.000
319.367;  169.675; -471.000; -520.000
319.503;   64.650; -538.000; -436.000
319.639;  -84.550; -877.000; -793.000
319.775;  -47.400; -750.000; -685.000
319.912;  -47.500; -424.000; -519.000
320.048;  -73.325;-1184.000;-1184.000
320.184;   83.725;   59.000;   70.000
320.321;  -71.250; -497.000; -467.000
320.457;   65.525;  475.000;  662.000
320.593;  -68.550; -375.000; -382.000
320.729; -108.800; -732.000; -734.000
320.866;  -77.000; -577.000; -635.000
321.002;  -68.075; -759.000; -809.000
321.138;   -9.775; -135.000; -211.000
321.274;   81.750; -148.000; -115.000
321.410;  -17.850; -585.000; -353.000
321.546;   -8.125;-1011.000; -911.000
321.683;   55.800;  400.000;  185.000
321.819;    7.600;  -48.000; -117.000
321.955; -114.275; -743.000; -722.000
322.091;  -42.200; -585.000; -540.000
322.227;    1.550; -382.000; -202.000
322.363;  -14.275; -320.000; -215.000
322.499;  -39.875; -343.000; -331.000
322.635;  183.325;  636.000;  443.000
322.771;   33.000; -139.000;   12.000
322.907;  102.175;  129.000;  327.000
323.043;  -17.900; -115.000; -206.000
323.179;  -22.750; -394.000; -363.000
323.315;   29.425; -401.000; -371.000
323.451;  121.925; -328.000; -236.000
323.587;   61.050;  -60.000;  -77.000
323.723;   23.525; -682.000; -601.000
323.859;  -18.650; -258.000;  -76.000
323.995;  -26.500; -467.000; -409.000
324.131; -115.150; -967.000; -892.000
324.267;  -33.575; -254.000; -276.000
324.402; -128.350; -960.000; -983.000
324.538;  -11.175; -279.000; -104.000
324.674;   18.525;  164.000;   77.000
324.810;  137.625;  226.000;  308.000
324.946;    3.875; -810.000; -658.000
325.082;  -71.525; -568.000; -475.000
325.217;   -5.975;  -62.000;   16.000
325.353;  -97.675; -764.000; -659.000
325.489;  -80.700; -540.000; -506.000
325.625;  -61.400; -579.000; -525.000
325.760;   60.450;  517.000;  376.000
325.896;  -32.625; -515.000; -702.000
326.032;  -40.900; -403.000; -352.000
326.168;  -68.175; -462.000; -369.000
326.303;  -57.975; -352.000; -461.000
326.439;  -12.950; -336.000; -276.000
326.575;   11.675; -190.000;  -29.000
326.710;    5.325; -156.000;  -30.000
326.846;  -16.600;  146.000;  103.000
326.982;  -95.075; -530.000; -548.000
327.117;  -79.400; -481.000; -442.000
327.253;  -82.000; -745.000; -742.000
327.388; -120.175;-1137.000;-1153.000
327.524;  -30.250; -811.000; -578.000
327.659;  -26.025;  -58.000;  -22.000
327.795;   -4.800;   69.000;   45.000
327.931; -100.025; -723.000; -499.000
328.066;  -23.525; -417.000; -276.000
328.202;   -5.825;   12.000; -129.000
328.337;  119.975;  957.000;  713.000
328.473;   33.300;  -12.000;  -74.000
328.608;  -11.650; -256.000; -267.000
328.743;  -76.850; -799.000; -664.000
328.879;   15.700;  214.000;  114.000
329.014;  -36.875; -102.000; -122.000
329.150;  -79.350; -358.000; -483.000
329.285;  -76.075; -465.000; -466.000
329.421;  -46.675; -548.000; -246.000
329.556;  -27.275;  -36.000;   85.000
329.691;  -91.925; -633.000; -615.000
329.827;  -88.675; -626.000; -480.000
329.962;  -38.475;  131.000; -301.000
330.097;  -94.750; -673.000; -585.000
330.233;  -40.975; -410.000; -223.000
330.368; -124.575; -839.000; -628.000
330.503;  -13.175;    3.000;   98.000
330.638;   11.550;  -93.000; -125.000
330.774;  -58.150; -609.000; -530.000
330.909;  -37.600; -434.000; -244.000
331.044;  -81.825; -714.000; -708.000
331.179; -186.750;-1217.000;-1109.000
331.315;   15.025;   77.000;   20.000
331.450;   15.700;  157.000;  285.000
331.585;  -78.550; -805.000; -706.000
331.720;  -85.300; -510.000; -460.000
331.855;   -0.025;  -35.000; -102.000
331.990;  254.350;   62.000;  138.000
332.126;  126.975; -110.000;   71.000
332.261;  -16.100; -379.000; -265.000
332.396;  -11.975; -135.000; -242.000
332.531; -104.100;-1074.000;-1031.000
332.666;   28.425; -519.000; -363.000
332.801; -105.925; -726.000; -807.000
332.936;  -23.775; -192.000; -122.000
333.071; -127.650; -870.000; -817.000
333.206;   13.375;  307.000;  379.000
333.341;   28.975;  344.000;  418.000
333.476;  -73.700; -627.000; -623.000
333.611;  -31.100; -251.000; -173.000
333.746;  -39.250; -381.000; -464.000
333.881; -109.100; -973.000; -935.000
334.016; -123.550; -936.000; -917.000
334.151; -119.275; -746.000; -702.000
334.286;   32.550;  152.000;  186.000
334.421;  -15.900; -125.000; -178.000
334.556;  -76.325; -611.000; -567.000
334.690;  -78.000; -631.000; -577.000
334.825;   61.950;  381.000;   83.000
334.960;  -43.075; -285.000; -413.000
335.095;    2.200;  135.000;  -91.000
335.230;  -90.450; -722.000; -738.000
335.365; -126.100;-1084.000; -990.000
335.499; -134.300;-1108.000;-1037.000
335.634;   35.000;    9.000;  534.000
335.769;  -89.875; -755.000; -720.000
335.904;  -46.300; -603.000; -561.000
336.038;  -54.800; -735.000; -657.000
336.173; -105.525;-1206.000;-1194.000
336.308;   10.125; -116.000; -189.000
336.443;   25.675; -544.000; -634.000
336.577;  -67.700; -936.000; -787.000
336.712;   77.550;   -4.000;  -12.000
336.847;  -36.775; -724.000; -607.000
336.981;   88.725; -272.000; -208.000
337.116;  311.950;  615.000;  501.000
337.250;  187.875; -434.000; -421.000
337.385;  242.575; -297.000; -208.000
337.520;   78.275; -632.000; -603.000
337.654;  -36.175; -215.000; -126.000
337.789; -131.575; -989.000; -933.000
337.923;  -33.625; -104.000; -205.000
338.058;  -80.425; -673.000; -738.000
338.192;  -21.775; -611.000; -488.000
338.327;    2.650;  -18.000; -155.000
338.461;  -68.175; -299.000; -469.000
338.596;  -87.225; -780.000; -638.000
338.730;  -98.550; -767.000; -803.000
338.865;   93.775;  -46.000; -140.000
338.999;  -65.825; -846.000; -702.000
339.134;  -23.125; -634.000; -536.000
339.268;    9.100; -741.000; -603.000
339.403;  355.300; -740.000; -775.000
339.537;   95.400; -894.000; -820.000
339.671; -107.100; -829.000; -813.000
339.806;  -58.925; -556.000; -512.000
339.940;   12.500; -261.000; -235.000
340.074;  -88.625; -685.000; -510.000
340.209;  -41.925; -351.000; -230.000
340.343; -102.375; -517.000; -573.000
340.477;  169.600;  998.000; 1036.000
340.612;  -48.525;-1033.000; -900.000
340.746;  122.825; -199.000; -243.000
340.880;  -76.575; -924.000; -785.000
341.014;   -5.375;  -45.000; -154.000
341.149; -117.675; -756.000; -718.000
341.283; -106.450; -839.000; -754.000
341.417;  -89.475;-1124.000; -938.000
341.551;  155.425; -768.000; -708.000
341.685;  -19.425; -633.000; -611.000
341.820;  -53.125; -562.000; -493.000
341.954;  -32.975; -218.000; -349.000
342.088; -153.150;-1102.000;-1019.000
342.222;   55.450;  565.000;  618.000
342.356;  -59.300; -395.000; -335.000
342.490;  -80.300; -880.000; -841.000
342.624;  -29.475; -339.000; -242.000
342.758;   -4.050; -364.000; -312.000
342.892;  -53.175; -710.000; -585.000
343.026;  -29.850;  -58.000; -116.000
343.160;  -54.175; -426.000; -376.000
343.294;  -86.600; -474.000; -337.000
343.428;  -13.650; -488.000; -448.000
343.562;  -14.425; -172.000;  -23.000
343.696;  -13.425; -385.000; -314.000
343.830;  -18.600; -362.000; -356.000
343.964;   31.075; -231.000; -168.000
344.098;  996.475;  199.000;   70.000
344.232;  847.100; -266.000; -127.000
344.366;   87.375; -567.000; -453.000
344.500;   75.625; -665.000; -744.000
344.634;   42.250; -324.000; -164.000
344.768;   -3.725; -531.000; -341.000
344.902;   22.175;  278.000;  256.000
345.035;  -55.350; -556.000; -496.000
345.169; -134.400; -933.000; -656.000
345.303;  -53.950; -308.000; -482.000
345.437;  -65.275; -826.000; -717.000
345.571;  -67.000; -675.000; -594.000
345.704;  -66.825; -309.000; -532.000
345.838;   -6.050; -331.000; -284.000
345.972;  -33.150; -543.000; -495.000
346.106;  167.100; -179.000; -190.000
346.239;  422.250; -312.000; -243.000
346.373;   18.725; -343.000; -302.000
346.507; -146.725; -950.000; -962.000
346.640;  171.700;  -30.000;   13.000
346.774;  -35.875; -650.000; -797.000
346.908;  -19.325; -138.000;  -11.000
347.041;  -92.175; -646.000; -593.000
347.175;   -4.975;  259.000;   27.000
347.309;  -71.275; -698.000; -628.000
347.442;  -82.425; -883.000; -732.000
347.576;  316.325;  670.000;  668.000
347.709;  227.475; -123.000;  -52.000
347.843;  -87.875; -933.000; -825.000
347.976;   44.075;  235.000;  294.000
348.110; -193.100;-1268.000;-1186.000
348.243; -104.150; -679.000; -772.000
348.377;    2.100;  -26.000;   60.000
348.510;   54.375;  403.000;  540.000
348.644;  -39.550;  -37.000; -159.000
348.777;   -1.600;  180.000;  191.000
348.911;  -46.225; -142.000; -112.000
349.044;  194.600;  471.000;  448.000
349.178;  193.075;-1069.000;-1006.000
349.311;  133.650;  141.000;  255.000
349.444;  -17.400; -927.000; -813.000
349.578;   -5.025; -347.000; -200.000
349.711; -110.875; -959.000; -862.000
349.845;   19.725; -661.000; -591.000
349.978; -148.800;-1224.000;-1137.000
350.111;  -90.225; -546.000; -612.000
350.244;  -77.825; -596.000; -700.000
350.378;   17.675; -392.000; -393.000
350.511;  -73.275; -393.000; -426.000
350.644; -101.875; -808.000; -806.000
350.778;   25.475;  168.000;  104.000
350.911;    4.825;  134.000;  140.000
351.044;  -82.350; -685.000; -615.000
351.177;  -24.000; -321.000; -281.000
351.310;  -20.500;    3.000; -131.000
351.444;  -48.950; -888.000; -788.000
351.577;  129.475;  140.000;   90.000
351.710;  112.175;  593.000;  417.000
351.843;  -24.025; -165.000;  -77.000
351.976;   16.875;  149.000;  -79.000
352.109;  -93.250; -621.000; -612.000
352.242;   -4.350; -464.000; -419.000
352.376;  -55.975; -580.000; -636.000
352.509;  218.275; -437.000; -356.000
352.642;   30.750; -654.000; -604.000
352.775;   67.900; -141.000;  -98.000
352.908; -114.900; -933.000; -904.000
353.041; -104.525; -814.000; -824.000
353.174;  -57.175; -551.000; -424.000
353.307;  -67.000; -753.000; -764.000
353.440;   67.825;  541.000;  453.000
353.573; -111.975; -957.000;-1008.000
353.706;  -23.075; -384.000; -558.000
353.839;  -11.975; -264.000; -220.000
353.971;  -89.900; -657.000; -512.000
354.104;  -66.150; -896.000; -835.000
354.237;  -31.250; -627.000; -662.000
354.370;  -75.275; -846.000; -879.000
354.503; -172.550;-1231.000;-1308.000
354.636;  -28.100; -529.000; -348.000
354.769; -113.450; -937.000; -860.000
354.902;   -0.325; -230.000; -139.000
355.034;  -22.400; -164.000; -220.000
355.167;   -9.350; -262.000; -162.000
355.300;  -84.225;-1061.000; -880.000
355.433;  938.400;  -71.000;  -14.000
355.565; 1431.125; -402.000; -384.000
355.698;  373.350; -356.000; -296.000
355.831;    1.000; -882.000; -801.000
355.964;  108.450; -285.000; -170.000
356.096;  -72.600; -856.000; -843.000
356.229;   10.825; -523.000; -530.000
356.362;  287.425; -373.000; -266.000
356.494;  575.825; -229.000; -162.000
356.627;  518.850;  269.000;  377.000
356.760;  649.925;  120.000;   53.000
356.892;  907.100; -286.000; -601.000
357.025;  719.400;  403.000;  389.000
357.157;  669.050; -167.000; -179.000
357.290;  617.950; -856.000; -713.000
357.423;  211.875; -667.000; -556.000
357.555;  127.725; -217.000; -228.000
357.688;  143.350; -483.000; -364.000
357.820;  504.650; -870.000; -877.000
357.953; 4005.775; -563.000; -589.000
358.085;  876.775; -632.000; -612.000
358.218; 1303.975;-1131.000; -932.000
358.350;  251.375;  -58.000;  312.000
358.483; -113.850;-1300.000;-1187.000
358.615;   12.850;-1182.000;-1078.000
358.747;  -32.025;-1187.000;-1058.000
358.880;   48.550; -810.000; -744.000
359.012;   -6.125; -376.000; -202.000
359.145;  -31.050; -480.000; -511.000
359.277;   75.950; -962.000; -913.000
359.409; 3354.150;  536.000;  231.000
359.542;  860.950; -738.000; -688.000
359.674;   78.925;   46.000;   13.000
359.806;  -54.650; -565.000; -438.000
359.939;  -44.325; -617.000; -516.000
360.071;   -6.100; -583.000; -579.000
360.203;   -4.175; -411.000; -364.000
360.335;   49.150;  164.000;  -16.000
360.468;  201.100; -249.000; -307.000
360.600; 2635.025; -547.000; -454.000
360.732; 2738.000; -546.000; -423.000
360.864;  374.925;-1216.000;-1044.000
360.996;  321.700; -516.000; -554.000
361.129;   41.300; -389.000; -598.000
361.261;   27.825;  110.000; -113.000
361.393;  -42.200; -252.000; -214.000
361.525;   41.250;   94.000;  244.000
361.657;  -42.325; -821.000; -703.000
361.789;   29.825; -139.000; -155.000
361.921;  274.000; -642.000; -593.000
362.053;  291.800;  524.000;  541.000
362.185;   61.275;  288.000;   72.000
362.318;  -71.650; -709.000; -705.000
362.450;  133.625;  294.000;  444.000
362.582;  151.350; -913.000; -870.000
362.714;  -35.325; -353.000; -332.000
362.846;  -89.550; -606.000; -490.000
362.978; -142.450; -941.000; -811.000
363.109;   60.600; -161.000; -260.000
363.241;  490.450; -739.000; -749.000
363.373;  414.925; -649.000; -564.000
363.505;  616.025; -186.000;  -91.000
363.637;  156.125; -787.000; -601.000
363.769; -112.450;-1067.000;-1080.000
363.901;  -57.850; -596.000; -654.000
364.033; -114.725;-1103.000;-1062.000
364.165;   23.075; -283.000; -283.000
364.296;   56.475; -316.000; -177.000
364.428;   65.225;-1344.000;-1220.000
364.560;  -59.975; -679.000; -661.000
364.692;  -52.500; -738.000; -835.000
364.824;  307.025; -588.000; -456.000
364.955;  436.650; -402.000; -564.000
365.087;  857.475;-1097.000; -852.000
365.219;   18.275; -686.000; -816.000
365.351;  -62.300; -526.000; -572.000
365.482;   67.200;  300.000;  240.000
365.614;  -48.550; -402.000; -314.000
365.746;  -91.650; -729.000; -752.000
365.877; -106.625; -706.000; -672.000
366.009;  250.050;  -35.000;  -62.000
366.141;  -91.175;-1249.000;-1134.000
366.272; -106.200; -803.000; -719.000
366.404; -112.900;-1005.000; -874.000
366.535;   -1.500; -139.000;  -12.000
366.667; -114.500; -644.000; -649.000
366.799;   38.400;  353.000;  203.000
366.930; -107.825; -862.000; -996.000
367.062;  118.050; -639.000; -613.000
367.193;  143.950; -872.000; -842.000
367.325;  -54.725; -580.000; -684.000
367.456;   55.475; -246.000;   31.000
367.588;  154.250; -371.000; -318.000
367.719;   20.375;  -44.000;  -45.000
367.851;  -24.550; -222.000; -241.000
367.982;  -50.200; -875.000; -732.000
368.113;  146.025; -475.000; -358.000
368.245; -125.875; -960.000; -841.000
368.376;  -11.550; -254.000; -302.000
368.508;  -28.350; -188.000; -263.000
368.639; -124.725;-1166.000;-1034.000
368.770;   -0.450; -670.000; -589.000
368.902;  -47.675; -836.000; -926.000
369.033; -116.200; -906.000; -855.000
369.164;  -50.300; -720.000; -653.000
369.296; -112.225; -452.000; -601.000
369.427;   -0.250; -209.000; -144.000
369.558;  -35.975; -593.000; -377.000
369.689;  -72.575; -721.000; -569.000
369.821; -141.200; -951.000; -845.000
369.952;   -3.175;   42.000; -108.000
370.083;  -66.025; -229.000; -108.000
370.214;  -88.325; -735.000; -650.000
370.345;  -18.200;   65.000;   81.000
370.477;  -74.175; -810.000; -790.000
370.608;  270.525; -328.000; -264.000
370.739;  -26.600;-1233.000;-1292.000
370.870;  -15.175;-1102.000; -923.000
371.001;  100.975; -378.000; -467.000
371.132;  -70.500; -754.000; -735.000
371.263;  -11.925;  -42.000; -148.000
371.394; -135.750; -841.000; -748.000
371.525;   31.525;  345.000;  225.000
371.657;  -83.575; -808.000; -670.000
371.788;   86.550;  103.000;  199.000
371.919;  187.050; -384.000; -304.000
372.050; 4017.275;  -91.000; -156.000
372.181; 1190.075; -188.000; -294.000
372.311;  416.925;   42.000; -127.000
372.442;   43.850; -457.000; -451.000
372.573;    5.125; -444.000; -340.000
372.704; -125.725;-1008.000; -980.000
372.835;  104.775; -228.000; -289.000
372.966;  -56.375; -646.000; -554.000
373.097;  -57.450; -575.000; -711.000
373.228;  -24.650; -717.000; -542.000
373.359;  160.025; -824.000; -536.000
373.490; 1028.325; -881.000; -727.000
373.620; 1298.225;-1001.000; -803.000
373.751; 2009.375; -332.000; -396.000
373.882;  922.525; -663.000; -733.000
374.013;   93.625; -449.000; -262.000
374.143;  -26.975; -581.000; -659.000
374.274;  -96.300; -987.000; -908.000
374.405;  196.800; -388.000; -276.000
374.536;  504.425; -526.000; -387.000
374.666; 1271.925; -759.000; -807.000
374.797;  261.050; -817.000; -868.000
374.928; 1008.675; -710.000; -560.000
375.058; 1014.200; -535.000; -500.000
375.189;  105.400;  -59.000;  -93.000
375.320; -116.950; -928.000;-1034.000
375.450;  -27.425; -625.000; -616.000
375.581;  -51.125; -526.000; -436.000
375.712;  -21.700; -574.000; -250.000
375.842;  344.525; -438.000; -415.000
375.973;  257.050; -554.000; -513.000
376.103;  -32.300; -665.000; -648.000
376.234;  -68.875; -531.000; -552.000
376.364;  -14.950; -944.000; -867.000
376.495;  349.100;  925.000;  529.000
376.625;    6.225; -472.000; -485.000
376.756;   85.575; -709.000; -678.000
376.886;  -65.725;-1178.000;-1026.000
377.017;   39.075;-1048.000;-1061.000
377.147;  324.050; -786.000; -782.000
377.278;   48.050;  174.000;  228.000
377.408; -126.725; -801.000; -815.000
377.538; -104.250; -707.000; -693.000
377.669;  -81.025; -537.000; -613.000
377.799;  -74.475; -645.000; -635.000
377.929;  -62.150; -610.000; -428.000
378.060; -124.225; -781.000; -847.000
378.190;  -54.600; -726.000; -531.000
378.320;  -43.150; -401.000; -406.000
378.451;  -16.500; -131.000;  -22.000
378.581;    6.675;  -67.000; -110.000
378.711;  168.875; 1035.000;  866.000
378.841;    1.350; -533.000; -675.000
378.972;  -61.875; -871.000; -751.000
379.102;    6.875; -652.000; -579.000
379.232;   -5.525; -126.000;  -73.000
379.362; -103.175;-1001.000; -885.000
379.492;   19.125; -373.000; -424.000
379.623;  127.050;    0.000;  111.000
379.753;  -84.800;-1107.000; -974.000
379.883;  232.675;   59.000;  156.000
380.013;   22.500;-1081.000;-1017.000
380.143;  -97.600;-1097.000;-1056.000
380.273;  -96.275; -985.000; -861.000
380.403;    8.575; -344.000; -257.000
380.533;  -22.050; -651.000; -664.000
380.663;   80.625;  173.000;  128.000
380.793;  -88.325;-1027.000;-1074.000
380.923;   -7.875; -103.000;  -34.000
381.053;  -89.300; -613.000; -623.000
381.183;  -24.925; -106.000; -248.000
381.313;   49.300; -656.000; -470.000
381.443;   56.800; -692.000; -473.000
381.573;  247.650; -402.000; -409.000
381.703;  341.075;-1249.000;-1095.000
381.833; -118.675;-1454.000;-1336.000
381.963;  121.675; -134.000;  -87.000
382.093; 1523.100; -925.000; -909.000
382.223;  490.975; -713.000; -602.000
382.353;    7.875; -801.000; -608.000
382.482;  426.800;-1091.000; -964.000
382.612;  857.450; -872.000; -644.000
382.742;  493.475; -695.000; -622.000
382.872;  306.225; -565.000; -551.000
383.002;   86.375;  347.000; -132.000
383.131;  -14.425; -226.000; -160.000
383.261;  -38.350; -706.000; -768.000
383.391;  287.975; -552.000; -377.000
383.521; 3046.175;  451.000;  263.000
383.650;  688.775; -947.000; -904.000
383.780;  -14.050; -783.000; -656.000
383.910;  119.300;  880.000;  802.000
384.039;   54.725; -794.000; -656.000
384.169;  259.900;-1205.000;-1017.000
384.299;    5.875; -650.000; -662.000
384.428;  -74.400; -764.000; -680.000
384.558;  -35.750; -308.000; -275.000
384.687;  -20.200; -414.000; -334.000
384.817;   20.350;   75.000;   -2.000
384.947;   24.000; -234.000; -141.000
385.076;  305.275;  982.000;  912.000
385.206;  113.575;  369.000;  480.000
385.335;  -28.125; -549.000; -417.000
385.465;  -75.350; -655.000; -663.000
385.594;  156.225;  -53.000;  -44.000
385.724;  503.900; -868.000; -838.000
385.853;  139.600; -296.000; -270.000
385.982; 1540.375; -743.000; -787.000
386.112; 2415.500;-1052.000; -871.000
386.241;  152.325; -307.000; -312.000
386.371;   37.825; -174.000;  -87.000
386.500;  -12.800; -825.000; -789.000
386.629;   28.950; -874.000; -817.000
386.759;   75.100;  -43.000;   68.000
386.888;   -2.775; -170.000; -250.000
387.017;  -75.075; -648.000; -620.000
387.147;  -80.350; -771.000; -798.000
387.276;    3.750; -410.000; -397.000
387.405;   18.275; -398.000; -342.000
387.535;  -40.000; -452.000; -361.000
387.664;  -56.225; -692.000; -620.000
387.793;   76.375; -198.000; -113.000
387.922;  589.100;  255.000;  200.000
388.052;   32.100; -576.000; -423.000
388.181;   23.550; -342.000; -472.000
388.310;   18.250; -889.000; -710.000
388.439;  -27.625; -749.000; -742.000
388.568;  198.050;  365.000;  244.000
388.697; 1175.775; -756.000; -653.000
388.826;  242.725; -768.000; -666.000
388.956;   81.275; -285.000; -307.000
389.085;  -36.800; -347.000; -287.000
389.214; -106.325; -842.000; -872.000
389.343;  -62.725; -645.000; -413.000
389.472;  394.100;  126.000;  149.000
389.601;  534.750;   91.000;    0.000
389.730;   23.450; -568.000; -687.000
389.859;   57.350;  226.000;   46.000
389.988;  218.675; -423.000; -408.000
390.117;  154.750; -168.000; -146.000
390.246;   -3.075; -331.000; -320.000
390.375;  116.275; -673.000; -626.000
390.504;  -41.300; -703.000; -621.000
390.633;  -93.975; -672.000; -726.000
390.761;  -50.475; -732.000; -645.000
390.890;   28.150;   -4.000; -130.000
391.019;  -17.250; -421.000; -441.000
391.148; -121.825; -826.000; -855.000
391.277;  -61.100; -576.000; -493.000
391.406;  -68.025; -821.000; -805.000
391.534;   14.600;  574.000; -301.000
391.663;  -64.125; -583.000; -645.000
391.792;  -83.700; -673.000; -701.000
391.921;  115.850;   -3.000;   15.000
392.050;  244.775; -287.000; -228.000
392.178;  -33.275;-1206.000;-1061.000
392.307;  178.525; -758.000; -712.000
392.436;  104.750; -427.000; -641.000
392.564;   27.300;  166.000;   -6.000
392.693;  -81.575; -860.000; -682.000
392.822;  240.700; -529.000; -534.000
392.950;  118.225; -880.000; -714.000
393.079;  380.150; -188.000; -328.000
393.208;   30.075; -488.000; -511.000
393.336;   -3.825; -170.000; -145.000
393.465;  -47.325; -317.000; -199.000
393.593;   11.175;   62.000;   79.000
393.722; -154.825;-1121.000; -916.000
393.850;  -21.550; -188.000;  -61.000
393.979; -152.975; -926.000; -805.000
394.107;  -47.575; -517.000; -537.000
394.236;  -37.600; -570.000; -507.000
394.364;  221.800;  383.000;  206.000
394.493;  323.250; -911.000; -767.000
394.621;  -22.400; -955.000; -916.000
394.750;  673.575; -873.000; -923.000
394.878; 2820.825; -247.000; -149.000
395.007; 3815.400; -721.000; -807.000
395.135;  301.050; -790.000; -721.000
395.263;  -96.400;-1038.000;-1040.000
395.392;   -2.000;  -25.000; -107.000
395.520; -145.725; -818.000; -679.000
395.648;  -66.075; -865.000; -915.000
395.777;  -19.650; -366.000; -405.000
395.905;  -46.850; -449.000; -564.000
396.033;   14.650;  217.000;  172.000
396.162;  526.675; -399.000; -453.000
396.290;  462.550;  -17.000;   -2.000
396.418;  127.725; -555.000; -514.000
396.546;  -67.875; -571.000; -466.000
396.674;  -94.600; -850.000; -878.000
396.803;   22.075;  -72.000;  -23.000
396.931;  100.575; -179.000; -199.000
397.059;   72.025;-1026.000; -989.000
397.187; -102.050;-1026.000; -975.000
397.315; -130.850; -884.000; -649.000
397.443;  -81.375; -592.000; -443.000
397.572;  -93.850; -578.000; -424.000
397.700;   11.150; -607.000; -614.000
397.828;   16.775;  120.000;  -90.000
397.956;  -48.800; -508.000; -478.000
398.084;  -71.000; -767.000; -626.000
398.212;   40.725;  137.000;  124.000
398.340;    9.700;  -56.000;  159.000
398.468;   51.000; -390.000; -169.000
398.596; -132.725; -993.000; -953.000
398.724; -117.050; -762.000; -767.000
398.852; -163.500;-1024.000; -976.000
398.980;  -58.650; -560.000; -560.000
399.108;  -57.325; -982.000; -735.000
399.236;   40.300;   13.000;    8.000
399.363;   22.875;  222.000;  196.000
399.491;  -58.525; -404.000; -398.000
399.619; -137.775; -829.000; -800.000
399.747;  -89.025; -859.000; -771.000
399.875;   75.550;  220.000;  234.000
400.003;  -47.250; -359.000; -284.000
400.130;  -95.000; -421.000; -341.000
400.258;  -24.175;  -83.000;   38.000
400.386;  -64.775; -352.000; -168.000
400.514;  -42.475; -526.000; -587.000
400.641;  -89.625; -928.000; -802.000
400.769; -134.025; -979.000; -888.000
400.897; -116.125; -838.000; -793.000
401.025;  -18.425; -166.000; -152.000
401.152;   -7.175;  220.000;   38.000
401.280;  -81.575; -430.000; -429.000
401.408; -109.725; -712.000; -576.000
401.535; -109.775; -735.000; -758.000
401.663; -187.575;-1134.000;-1054.000
401.790;  -81.350; -514.000; -525.000
401.918;   35.450;  436.000;  405.000
402.046;  -16.525;  134.000;  122.000
402.173;  -37.550;  -18.000;    7.000
402.301;  -68.575; -519.000; -397.000
402.428;   47.650;  528.000;  383.000
402.556; -149.875;-1188.000; -913.000
402.683;  -29.600;  -20.000;   -1.000
402.811;  -21.800;  -37.000; -206.000
402.938;  -15.850;   20.000;   27.000
403.066;  243.200; -574.000; -558.000
403.193;  361.200;  299.000;  239.000
403.321;  306.900; -396.000; -574.000
403.448;  356.525;   83.000;   27.000
403.575;  166.775;  -90.000;  -46.000
403.703;  -92.875; -732.000; -557.000
403.830;  -49.325; -531.000; -496.000
403.957; -150.475;-1117.000;-1023.000
404.085;   11.125;  -61.000; -172.000
404.212;  102.525;  -50.000;   63.000
404.339;  260.875; -566.000; -306.000
404.467; 5565.625; -612.000; -524.000
404.594; 3776.750; -287.000; -227.000
404.721;  924.000; -869.000; -764.000
404.848;  102.525; -113.000; -202.000
404.976; -105.175; -856.000; -783.000
405.103;   -0.350;  -14.000;  -82.000
405.230;  -14.400;  190.000;  226.000
405.357;   19.500;  117.000;   44.000
405.484;  253.100;  -49.000;    5.000
405.612;   42.775; -548.000; -563.000
405.739;  -60.200; -488.000; -243.000
405.866;   97.625;  669.000;  385.000
405.993;  -47.125; -398.000; -102.000
406.120; -145.475; -801.000; -887.000
406.247;  -56.400; -323.000; -342.000
406.374;  477.550;  540.000;  629.000
406.501;  132.400; -632.000; -702.000
406.628;  -66.725; -621.000; -589.000
406.755; -101.775; -803.000; -620.000
406.882;  -39.325; -228.000; -277.000
407.009; -112.875; -719.000; -628.000
407.136;   78.325; -480.000; -401.000
407.263;  172.925; -939.000; -829.000
407.390;  -53.550; -692.000; -614.000
407.517; -176.150;-1139.000;-1187.000
407.644;  -50.825; -332.000; -256.000
407.771; -143.350; -249.000; -287.000
407.898;   12.125;  168.000;  328.000
408.025;  -66.750; -421.000; -313.000
408.151;  -14.750;   82.000;  153.000
408.278;  -72.425; -267.000; -216.000
408.405; -103.250; -931.000; -899.000
408.532;  -75.075; -549.000; -542.000
408.659; -104.550; -677.000; -648.000
408.785; -208.975;-1298.000;-1170.000
408.912;  -69.400; -412.000; -296.000
409.039; -109.500; -610.000; -686.000
409.166; -107.500; -591.000; -555.000
409.292; -109.950; -571.000; -534.000
409.419; -120.300; -665.000; -649.000
409.546;  -91.650; -431.000; -192.000
409.672; -105.300; -713.000; -545.000
409.799;  -21.425;  -36.000;   34.000
409.926;  -30.275; -180.000; -179.000
410.052; -173.425;-1127.000;-1091.000
410.179;  -51.550; -368.000; -392.000
410.305;  -93.250; -375.000; -493.000
410.432;  -54.475; -220.000; -333.000
410.558;  -74.325; -305.000; -380.000
410.685; -103.000; -688.000; -431.000
410.812;  -99.150; -409.000; -588.000
410.938; -138.725; -964.000; -808.000
411.065; -101.375; -671.000; -645.000
411.191;  -11.125; -189.000; -174.000
411.317; -117.900; -823.000; -742.000
411.444;  -58.650; -317.000; -246.000
411.570;  -85.750; -339.000; -294.000
411.697; -128.050; -758.000; -752.000
411.823; -165.225; -989.000; -999.000
411.949;  -22.300;  -56.000;   17.000
412.076; -111.525; -539.000; -519.000
412.202; -125.225; -758.000; -757.000
412.329; -128.275; -798.000; -752.000
412.455; -123.975; -821.000; -657.000
412.581;  -25.000;  -15.000;  172.000
412.707;  -60.150; -540.000; -457.000
412.834;   14.400;  156.000;  219.000
412.960;  -67.450; -785.000; -784.000
413.086; -104.250; -743.000; -701.000
413.212;  166.925;  604.000;  578.000
413.339;  -64.850; -685.000; -701.000
413.465;   12.775; -364.000; -310.000
413.591;  -82.100; -757.000; -474.000
413.717;  -45.775; -358.000; -366.000
413.843; -154.850; -839.000; -861.000
413.969;  -58.000;  -47.000; -292.000
414.096;  -98.500; -679.000; -679.000
414.222;    7.050;  -33.000;   85.000
414.348;  -21.000; -652.000; -385.000
414.474;  110.225;   38.000;  -52.000
414.600;  -20.750; -126.000; -144.000
414.726;  -13.575;  -96.000;  -55.000
414.852;  -69.150; -365.000; -342.000
414.978;   40.525;  104.000;  -18.000
415.104;   34.200;   38.000;   80.000
415.230;   19.175; -329.000; -330.000
415.356;   24.150; -409.000; -514.000
415.482;  200.300;   13.000;  -35.000
415.608;  279.400; -247.000; -323.000
415.734;  943.825;   67.000;   38.000
415.860;19598.675; -875.000; -767.000
415.986;14181.450; -685.000; -607.000
416.111; 1179.525; -798.000; -652.000
416.237;  230.900; -424.000; -571.000
416.363; 1089.550; -765.000; -733.000
416.489; 4038.800; -324.000; -251.000
416.615;  422.650; -707.000; -742.000
416.741;  -21.925; -677.000; -784.000
416.866;  -94.400; -673.000; -736.000
416.992; -118.025; -801.000; -818.000
417.118;  -22.375;  -41.000;  -80.000
417.244;  -63.450; -798.000; -531.000
417.369;  -78.525; -801.000; -612.000
417.495;   -2.250; -325.000; -254.000
417.621;  -84.400;-1015.000; -803.000
417.746;    4.200; -579.000; -572.000
417.872;   54.000; -254.000; -144.000
417.998;   29.400; -515.000; -530.000
418.123; 1018.900;-1073.000; -845.000
418.249; 5228.225; -512.000; -601.000
418.374;  720.000; -916.000; -824.000
418.500;  115.800; -383.000; -482.000
418.626;  103.700;   70.000;  -59.000
418.751;  132.725; -549.000; -448.000
418.877;  185.425; -637.000; -643.000
419.002; 1739.950; -688.000; -560.000
419.128;12156.025; -930.000; -721.000
419.253; 2962.000; -967.000; -837.000
419.379;  400.225; -391.000; -338.000
419.504;  388.800;  325.000;  415.000
419.629;  494.075; -393.000; -212.000
419.755; 3439.950; -317.000; -254.000
419.880;20219.525;  -98.000;   67.000
420.006;11068.875; -280.000; -221.000
420.131;28641.475; -662.000; -775.000
420.256; 4131.550; -315.000; -316.000
420.382;  541.775; -665.000; -687.000
420.507;   72.500; -649.000; -778.000
420.632;  151.025; -337.000; -339.000
420.758;  287.725; -251.000; -425.000
420.883;  -90.525; -876.000; -672.000
421.008; -105.150; -775.000; -619.000
421.133;  -89.925; -509.000; -467.000
421.259;  -43.575; -325.000; -259.000
421.384; -123.250; -834.000; -693.000
421.509;  -20.500;-1052.000; -862.000
421.634; 1359.650; -936.000; -820.000
421.759;  583.425; -359.000; -327.000
421.885;  -50.425; -717.000; -656.000
422.010;  -63.900; -673.000; -542.000
422.135; -143.000; -695.000; -727.000
422.260;   39.750;  340.000;  280.000
422.385;  -40.150;   12.000;  -98.000
422.510;    2.800;  151.000;  -26.000
422.635;   13.550;  -87.000;  -43.000
422.760;  109.925; -766.000; -791.000
422.885;   59.700;  -57.000;  -80.000
423.010;  -23.450; -112.000; -169.000
423.135;  -93.575; -481.000; -561.000
423.260;   -0.300; -150.000; -245.000
423.385;   76.250;  476.000;  222.000
423.510;   29.475;   71.000;  -22.000
423.635;   80.200;  133.000;   45.000
423.760;   72.650;  383.000;  328.000
423.885;   46.025;  336.000;  391.000
424.010;   22.775;  -68.000;  -13.000
424.135;  -24.475;    5.000;  -33.000
424.259;  -83.400; -654.000; -457.000
424.384;  -69.900; -279.000; -272.000
424.509;  -18.100; -260.000; -186.000
424.634; -106.300; -761.000; -623.000
424.759;  -27.625; -688.000; -544.000
424.883;  -28.000; -506.000; -527.000
425.008;  164.600; -502.000; -410.000
425.133; 1949.675; -679.000; -653.000
425.258;  916.925; -517.000; -381.000
425.382; 1129.075; -867.000; -774.000
425.507; 2887.650; -487.000; -543.000
425.632;  461.825; -802.000; -663.000
425.756;  452.675; -256.000; -146.000
425.881; 6260.225; -831.000; -857.000
426.006;16773.475; -604.000; -355.000
426.130; 2632.475; -696.000; -508.000
426.255;  341.475; -611.000; -491.000
426.379;  146.325; -189.000; -577.000
426.504;  382.925;  660.000;  544.000
426.629; 3980.925; -519.000; -466.000
426.753; 2718.150;   64.000;  -46.000
426.878;  314.250; -252.000; -288.000
427.002;  142.600; -651.000; -668.000
427.127; 1567.050;  -35.000; -158.000
427.251;11079.500;  372.000;  401.000
427.375; 3128.575; -191.000; -173.000
427.500; 2530.150; -616.000; -610.000
427.624;  868.325; -234.000; -400.000
427.749;   99.125; -216.000; -225.000
427.873;  -48.525; -499.000; -412.000
427.997;  -51.100; -222.000; -230.000
428.122;   79.900;  795.000;  703.000
428.246;   66.550;  433.000;  434.000
428.371; -126.025; -869.000; -773.000
428.495;  -96.425; -624.000; -646.000
428.619;  -34.250; -186.000; -117.000
428.743;   32.475;   65.000;  132.000
428.868;   38.125; -732.000; -643.000
428.992; 1558.325; -219.000; -326.000
429.116;  617.775; -329.000; -357.000
429.240;  304.975;  419.000;  426.000
429.365;  -10.975; -454.000; -574.000
429.489;  -31.600; -638.000; -647.000
429.613;   17.550; -236.000; -177.000
429.737;   36.150; -563.000; -432.000
429.861;  266.725; -247.000; -133.000
429.985; 5484.925; -425.000; -305.000
430.109; 5918.050; -770.000; -908.000
430.234;  674.775;   76.000;  -50.000
430.358;   57.350; -250.000; -160.000
430.482;  -65.725; -672.000; -564.000
430.606;  -72.550; -655.000; -375.000
430.730;    8.700; -437.000; -388.000
430.854;  148.350; -909.000; -835.000
430.978;  -58.450; -795.000; -764.000
431.102;  -89.450; -499.000; -422.000
431.226; -119.400; -874.000; -815.000
431.350;   28.525;  345.000;  422.000
431.474;  -76.725; -661.000; -373.000
431.597; -155.625;-1060.000; -848.000
431.721;  -79.650; -276.000; -267.000
431.845; -123.425; -704.000; -472.000
431.969;  -82.075; -304.000; -349.000
432.093;  -95.525; -395.000; -317.000
432.217;  -21.150;   32.000;   82.000
432.341; -103.300; -523.000; -518.000
432.464;   11.900;   96.000;   40.000
432.588;  225.350; -401.000; -329.000
432.712;  105.750;  -52.000;  -52.000
432.836;   41.325;  213.000;  263.000
432.959;  -17.125; -372.000; -311.000
433.083;   64.800;   11.000;    2.000
433.207;  370.800;  285.000;  930.000
433.330; 4867.700; -391.000; -200.000
433.454; 5998.525; -654.000; -638.000
433.578; 3478.450;  583.000;  278.000
433.701;  649.475; -623.000; -675.000
433.825;  158.475; -292.000; -299.000
433.949;  198.025;   28.000;  -72.000
434.072;   70.100; -410.000; -323.000
434.196;   -5.950; -309.000; -117.000
434.319; 3828.650;25482.000;25124.000
434.443;  747.150; -656.000; -603.000
434.566; 2602.025;  281.000;   62.000
434.690;  425.225; -637.000; -383.000
434.813;   50.850; -251.000; -173.000
434.937;  -79.150; -569.000; -696.000
435.060;  -54.300; -423.000; -332.000
435.184;  368.750; -492.000; -217.000
435.307;  197.675;  159.000;  102.000
435.431;    6.825;  -40.000;   24.000
435.554;  -75.250; -399.000; -240.000
435.677;  -78.000; -350.000; -258.000
435.801;  -46.875;  -25.000;   49.000
435.924;  -16.400;    1.000;  -67.000
436.048; -112.550;-1019.000; -732.000
436.171;  -66.400; -240.000;  -66.000
436.294;  -36.375; -248.000; -229.000
436.417;   78.300; -963.000; -849.000
436.541;  -92.325; -814.000; -840.000
436.664;  -55.450; -242.000; -316.000
436.787;  -38.000;   13.000;  113.000
436.910; -104.050; -792.000; -422.000
437.034;    6.700;  142.000;  143.000
437.157;   65.825;  -11.000;    0.000
437.280;  -49.800; -392.000; -292.000
437.403;  -71.850; -982.000; -869.000
437.526;  736.575; -903.000; -865.000
437.649; 2645.100; -505.000; -332.000
437.772;  393.500; -692.000; -540.000
437.896;  113.175;  700.000;  544.000
438.019;  -93.350; -758.000; -503.000
438.142;  -87.100; -596.000; -506.000
438.265;  -16.075; -639.000; -670.000
438.388;  664.350; -520.000; -410.000
438.511;  117.975; -597.000; -394.000
438.634;  -43.475; -247.000; -125.000
438.757; -137.725; -693.000; -619.000
438.880;  -17.700;  -34.000;  -57.000
439.003;  -81.700; -417.000; -437.000
439.126;  -66.225; -287.000; -167.000
439.248;  -60.900;  -98.000; -139.000
439.371;  -55.050;    9.000;  -53.000
439.494;   25.725;  510.000;  439.000
439.617;  -54.400;   65.000;  -88.000
439.740; -181.975; -968.000; -816.000
439.863; -135.600; -755.000; -595.000
439.986; -125.775; -476.000; -431.000
440.108;  -30.675; -161.000; -112.000
440.231; -164.825; -950.000; -836.000
440.354;  -38.625;  -64.000; -150.000
440.477;   54.525; -566.000; -542.000
440.599;    7.075; -200.000; -225.000
440.722; -132.625; -709.000; -586.000
440.845;   70.725;  751.000;  928.000
440.968; -119.425; -415.000; -311.000
441.090;  -74.475; -199.000;  -33.000
441.213; -169.450;-1021.000; -825.000
441.336;  -48.475; -159.000;   -5.000
441.458;  -78.150; -549.000; -396.000
441.581;  -85.800; -628.000; -629.000
441.703;  -68.050; -152.000;   13.000
441.826; -113.525; -557.000; -400.000
441.948;  -50.825;   56.000;   51.000
442.071;   29.875;  555.000;  424.000
442.193; -124.625; -531.000; -485.000
442.316;   23.425;  152.000;   97.000
442.438;   45.900; -233.000;  -10.000
442.561;   86.950;  272.000;  262.000
442.683;  615.200; -809.000; -522.000
442.806; 1336.075;   -8.000;   74.000
442.928;   49.400; -859.000; -604.000
443.051;  -59.525; -577.000; -373.000
443.173;  -88.875; -341.000; -339.000
443.295;  -82.575; -263.000; -371.000
443.418;  -75.075; -321.000;  -29.000
443.540;   11.925; -106.000;   -4.000
443.662; -130.075; -563.000; -465.000
443.785;  -10.875;  335.000;  199.000
443.907; -101.100; -362.000; -208.000
444.029; -120.025; -767.000; -494.000
444.152; -147.850; -644.000; -554.000
444.274;  -28.675;  -18.000;  -24.000
444.396; -109.500; -461.000; -221.000
444.518; -130.700; -691.000; -454.000
444.640; -105.700; -268.000; -111.000
444.763;  -18.350;  388.000;  249.000
444.885; -125.375; -432.000; -392.000
445.007;  -39.875;   35.000;   86.000
445.129; -103.350; -610.000; -515.000
445.251; -116.100; -372.000; -439.000
445.373; -141.150; -537.000; -386.000
445.495;   14.450;  242.000;  350.000
445.617;   51.525;  853.000;  753.000
445.739;  -57.450; -215.000;  -97.000
445.861;  -43.775; -245.000; -112.000
445.984;  -29.050; -267.000; -101.000
446.105;  242.375; -418.000; -251.000
446.227;  699.975; -176.000;  -19.000
446.349;   18.775; -358.000; -249.000
446.471;  -94.725; -615.000; -448.000
446.593;  -66.700; -316.000;   19.000
446.715;   10.225;  -67.000;   41.000
446.837;   56.200;  697.000;  832.000
446.959; -107.650; -457.000; -478.000
447.081; -141.500; -628.000; -518.000
447.203;   59.875;  862.000;  834.000
447.325;  -87.400; -270.000;   42.000
447.446;   -6.425;  286.000;  530.000
447.568; -165.550; -921.000; -803.000
447.690;  -84.050; -236.000; -245.000
447.812; -162.275; -798.000; -519.000
447.933;  -24.750;  155.000;  127.000
448.055;  -74.500; -306.000; -261.000
448.177;  157.325;   31.000;   79.000
448.299;  114.400; -935.000; -727.000
448.420;   31.175;  -25.000;  159.000
448.542;  -46.050;   -3.000;   33.000
448.664;  -17.000;  109.000;  322.000
448.785;  -49.650;  265.000;   83.000
448.907;  -76.925; -614.000; -353.000
449.028;  -20.800; -771.000; -471.000
449.150;   64.125;  492.000;  589.000
449.272; -189.200;-1044.000; -913.000
449.393;   33.225;  612.000;  694.000
449.515; -145.900; -634.000; -581.000
449.636;  -44.725; -264.000; -155.000
449.758;   79.400;  763.000;  622.000
449.879;  -78.050; -498.000; -396.000
450.001;  -80.225; -149.000;  -49.000
450.122;  -33.450;  -95.000;  162.000
450.244;  -28.650;   37.000;  364.000
450.365;  -94.475; -495.000; -301.000
450.486;  -32.325;   80.000;  268.000
450.608;   12.625;  393.000;  326.000
450.729;   56.525;  578.000;  645.000
450.850;  -15.225; -574.000; -466.000
450.972;  710.175; -552.000; -389.000
451.093; 4698.700;  190.000;  588.000
451.214; 2053.750; -516.000; -337.000
451.336;  375.525;  773.000;  579.000
451.457;   69.300;  264.000;  393.000
451.578;  -39.050; -118.000;  -74.000
451.699; -129.675; -546.000; -540.000
451.821;  -56.550; -284.000;  -50.000
451.942;  -12.700;  278.000;  285.000
452.063;   22.500;  228.000;  419.000
452.184;  519.300;  -54.000;  -49.000
452.305; 1082.050;  103.000;  170.000
452.427;  111.400; -549.000; -301.000
452.548;  -32.375;   23.000;   79.000
452.669;  -47.825; -257.000;  -89.000
452.790;  -45.925;    3.000;  -18.000
452.911;   -6.875;  195.000;  259.000
453.032;  -63.475; -289.000;  -60.000
453.153;  -41.350;  -29.000;   81.000
453.274;   72.300;  737.000;  868.000
453.395;  -54.125;  -51.000;  175.000
453.516;  104.525; 1317.000; 1388.000
453.637;  -57.625; -205.000; -150.000
453.758;  -67.500;   15.000;   69.000
453.879; -125.450; -462.000; -250.000
454.000;   86.975; 1086.000;  948.000
454.121; -110.175; -554.000; -326.000
454.242; -121.325; -599.000; -383.000
454.362;  -67.225;  -99.000;  114.000
454.483;  -33.725; -309.000; -229.000
454.604;   40.625;  512.000;  580.000
454.725; -130.750; -627.000; -555.000
454.846; -144.975; -474.000; -406.000
454.967;  -24.575;  230.000;  539.000
455.087;  -42.825;  179.000;  153.000
455.208;   28.650;  554.000;  856.000
455.329;  -73.950;  -22.000;   82.000
455.450;   43.250;  473.000;  633.000
455.570; -100.875; -234.000; -211.000
455.691;  -45.625;  201.000;  407.000
455.812; -106.500; -270.000;  -92.000
455.932;  -47.100;  107.000;  -97.000
456.053;  -97.425;   36.000;   24.000
456.173; -115.450; -433.000; -355.000
456.294; -148.000; -476.000; -303.000
456.415;  -63.350;  -73.000;   70.000
456.535;  -42.150;  297.000;  273.000
456.656;  -41.225;  132.000;  240.000
456.776;  -80.050;    3.000;  298.000
456.897;   -7.350;  308.000;  513.000
457.017;  -69.375; -153.000;   -3.000
457.138; -116.275; -402.000; -249.000
457.258;  -33.375;  263.000;  224.000
457.379;    0.550;  509.000;  521.000
457.499;  -19.275;  443.000;  432.000
457.620; -124.875; -407.000; -231.000
457.740;  -95.550; -132.000;  -11.000
457.860;  -63.000;   87.000;   44.000
457.981;  -48.300;  132.000;  124.000
458.101;  -67.750;  -89.000;   40.000
458.221;  -31.050;  336.000;  402.000
458.342;  -59.350;   -4.000;  -37.000
458.462;   17.125;  617.000;  352.000
458.582;  -43.300; -302.000; -294.000
458.703;  -15.975;  303.000;  154.000
458.823;  -31.475;   22.000;  163.000
458.943;    1.825;  341.000;  467.000
459.063;   -1.050; 1124.000;  192.000
459.183;  -35.875;  328.000;  313.000
459.304;    6.550;  315.000;  517.000
459.424;  -75.975; -246.000;  -89.000
459.544;  309.975;  388.000;  764.000
459.664;  790.075;  499.000;  506.000
459.784;  309.100; 1004.000; 1175.000
459.904;   36.000;  867.000;  744.000
460.024;   60.950;  867.000;  684.000
460.144;   13.575;  449.000;  554.000
460.264;   -0.275;  515.000;  327.000
460.385;  -94.525; -145.000; -119.000
460.505;   38.300;  905.000;  858.000
460.625;  -96.950;  -17.000;  -68.000
460.745;  -34.625;  396.000;  541.000
460.864;  -42.575;  153.000;  469.000
460.984;   19.925;  499.000;  573.000
461.104;  132.350; 1656.000; 1775.000
461.224;   21.275;  657.000;  650.000
461.344;  -41.000;  431.000;  360.000
461.464;  -25.275;  258.000;  513.000
461.584;  -13.800;  283.000;  466.000
461.704;  -39.000;   58.000;  108.000
461.824;  -59.775;  238.000;  259.000
461.943;  -54.250;  191.000;  130.000
462.063;  -83.200;    2.000;  324.000
462.183;   40.675;  639.000;  717.000
462.303;   99.800; 1678.000; 1230.000
462.422;   21.600;  781.000;  840.000
462.542;  -43.000;  271.000;  391.000
462.662;   36.000;  353.000;  380.000
462.782;  231.400;  833.000;  572.000
462.901;  476.750;  545.000;  717.000
463.021;  260.000; 1702.000; 1638.000
463.141;   -4.200;  337.000;  770.000
463.260;   -7.500;  614.000;  474.000
463.380;   26.025;  902.000;  884.000
463.499;  -47.950;  342.000;  332.000
463.619;  -24.550;  581.000;  559.000
463.738;  101.200; 1644.000;  903.000
463.858;   17.575;  657.000;  811.000
463.978;  -40.800;  542.000;  396.000
464.097;   56.650;  921.000; 1114.000
464.217;  112.650; 1196.000; 1143.000
464.336;  106.025; 1068.000; 1130.000
464.455;  -37.125;  328.000;  659.000
464.575;   45.925;  597.000;  602.000
464.694;  174.925; 1204.000; 1179.000
464.814;  123.425; 1190.000; 1138.000
464.933;   65.975; 1095.000; 1027.000
465.052;  104.925; 1412.000; 1054.000
465.172;   86.550;  922.000;  799.000
465.291;  138.575; 1376.000; 1320.000
465.410;   17.625;  462.000;  735.000
465.530;   91.725; 1355.000; 1310.000
465.649;   74.475; 1209.000; 1273.000
465.768;  157.675; 1673.000; 1508.000
465.888;   44.375;  941.000; 1174.000
466.007;   88.850; 1335.000; 1440.000
466.126;   -8.925;  721.000;  641.000
466.245;   53.575; 1176.000; 1187.000
466.364;    9.000;  950.000; 1060.000
466.484;   63.400; 1024.000; 1213.000
466.603;   32.425; 1101.000; 1222.000
466.722;  106.025; 1490.000; 1769.000
466.841;   67.900; 1151.000; 1401.000
466.960;   43.600; 1069.000;  972.000
467.079;  134.600; 1971.000; 1786.000
467.198;   50.350; 1238.000; 1181.000
467.317;   78.275; 1768.000; 1162.000
467.436;   60.825; 1709.000; 1261.000
467.555;  116.125; 1796.000; 1746.000
467.674;   62.975; 1227.000; 1329.000
467.793;   32.000; 1376.000; 1374.000
467.912;   87.725; 1658.000; 1539.000
468.031;  135.225; 2038.000; 1930.000
468.150;  142.900; 1842.000; 1837.000
468.269;  187.225; 2313.000; 2090.000
468.388;  194.825; 2168.000; 2339.000
468.507;  248.175; 2884.000; 2903.000
468.626;  236.150; 2555.000; 2541.000
468.744;  123.175; 2018.000; 2174.000
468.863;  203.425; 2312.000; 2523.000
468.982;  105.625; 1503.000; 1555.000
469.101;  228.850; 2788.000; 2692.000
469.220;  146.475; 2333.000; 2176.000
469.338;  262.550; 2935.000; 3051.000
469.457;  186.475; 2719.000; 2545.000
469.576;  338.850; 3953.000; 3784.000
469.695;  241.550; 2877.000; 3066.000
469.813;  433.875; 4148.000; 4192.000
469.932;  399.500; 4255.000; 4485.000
470.051;  430.150; 4075.000; 4161.000
470.169;  832.400; 4470.000; 4338.000
470.288; 1431.625; 4700.000; 4809.000
470.406;  853.100; 5059.000; 5194.000
470.525;  640.025; 6101.000; 5787.000
470.644;  656.675; 6847.000; 6794.000
470.762;  831.025; 8397.000; 7873.000
470.881;  913.925; 8651.000; 8464.000
470.999; 1033.375; 9685.000; 9151.000
471.118; 1085.450;11174.000;10711.000

