
Integration time [ms]: 100.000
Averaging Nr. [scans]: 40
Smoothing Nr. [pixels]: 0
Data measured with spectrometer [name]: 2101012U2
Wave   ;Sample   ;Dark     ;Reference
[nm]   ;[counts] ;[counts] ;[counts] 

197.733;   61.600;  516.000;  404.000
197.879;  -77.525; -610.000; -634.000
198.025;  -34.300; -475.000; -420.000
198.171;  -79.825; -602.000; -612.000
198.317;  -20.400; -401.000; -316.000
198.463;  -52.425; -655.000; -404.000
198.609;   26.250;  181.000; -137.000
198.755;  -76.550; -644.000; -410.000
198.901;  -57.725; -505.000; -424.000
199.047;  -68.175; -615.000; -488.000
199.193;  -34.200; -230.000; -468.000
199.339;  -39.125; -222.000; -369.000
199.485;   26.375;  330.000;  271.000
199.631;    4.150;  227.000;  310.000
199.777;  -47.125; -466.000; -398.000
199.923;  -70.700; -610.000; -424.000
200.069;  -12.925; -141.000;  -58.000
200.215;   52.875;  128.000;  453.000
200.361;   49.975;  243.000;  477.000
200.507;  -63.050; -600.000; -373.000
200.653;  -12.375; -371.000; -194.000
200.798;  -41.100; -215.000; -125.000
200.944;   -3.925; -146.000;  -41.000
201.090;   23.175;   61.000;  222.000
201.236;   -5.025; -116.000; -158.000
201.382;   97.175;  874.000;  903.000
201.528;    2.125;  -58.000;  -48.000
201.674;  -56.125; -386.000; -293.000
201.819;  -59.925; -540.000; -439.000
201.965;  -85.500; -699.000; -447.000
202.111;  -19.500; -273.000; -226.000
202.257;  -30.575; -250.000; -238.000
202.402;    0.450;   13.000;  -36.000
202.548;  -18.450; -169.000; -116.000
202.694;   86.050;  410.000; -183.000
202.840;  -80.800; -603.000; -531.000
202.985;  -64.000; -681.000; -639.000
203.131; -102.075; -832.000; -666.000
203.277;   -9.725; -199.000; -262.000
203.423;  -43.400; -434.000; -520.000
203.568;  -25.175; -462.000; -237.000
203.714;  -61.875; -535.000; -542.000
203.860;  -73.750; -682.000; -641.000
204.005;   15.625;  112.000;  167.000
204.151;   78.925;  561.000;  556.000
204.296;  -47.600; -354.000; -221.000
204.442;  -63.925; -600.000; -547.000
204.588;  -67.850; -592.000; -579.000
204.733;    6.150;  178.000;  168.000
204.879; -121.400;-1018.000; -822.000
205.025;    6.800;  -99.000;  126.000
205.170;    3.675;  -17.000;   94.000
205.316;   75.975;  438.000;  661.000
205.461;  -81.400; -698.000; -554.000
205.607;   74.550;  609.000;  665.000
205.752;  -81.150; -626.000; -551.000
205.898;  -46.325; -501.000; -391.000
206.043;  -62.300; -578.000; -506.000
206.189;  -30.900; -243.000; -285.000
206.334;   65.675;  554.000;  606.000
206.480;   65.125;  409.000;  239.000
206.625;  -95.200; -529.000; -552.000
206.771;  -47.300; -451.000; -373.000
206.916;  -26.300; -210.000; -537.000
207.062;  -66.050; -545.000; -591.000
207.207;  -55.500; -546.000; -443.000
207.353;   48.350;  185.000;  460.000
207.498;    6.950;  196.000;   85.000
207.643;  -38.150; -501.000; -370.000
207.789; -124.325;-1069.000; -910.000
207.934;  -68.650; -665.000; -713.000
208.080;  -32.225; -154.000;   66.000
208.225;   -3.300;  -22.000;  -57.000
208.370;  -93.625; -727.000; -619.000
208.516;  -69.175; -741.000; -487.000
208.661;  -28.950; -127.000;  -69.000
208.806;  -22.675; -165.000; -171.000
208.952; -121.925;-1044.000; -731.000
209.097;   80.075;  378.000;  349.000
209.242;  -36.700; -307.000; -382.000
209.387;   72.950;  392.000;  350.000
209.533;  -46.600; -321.000; -350.000
209.678;   80.875;  472.000;  543.000
209.823;  -44.500; -408.000; -310.000
209.969;  -89.475; -860.000; -757.000
210.114;  -98.775; -907.000; -719.000
210.259; -105.500; -939.000; -889.000
210.404;  -19.300; -171.000;  103.000
210.549;   -3.050;  108.000;    3.000
210.695;  -22.300;   -3.000;  -95.000
210.840;   21.900;   94.000;   67.000
210.985;  -67.325; -484.000; -303.000
211.130;   68.150;  268.000;  406.000
211.275;    5.275;  207.000;  199.000
211.420;  -40.675; -300.000; -289.000
211.566;  -69.525; -536.000; -489.000
211.711;   21.300;  218.000;  157.000
211.856;  -76.000; -545.000; -519.000
212.001;    1.000;  151.000;   44.000
212.146;   24.150;  153.000;   49.000
212.291;  -26.875; -210.000; -186.000
212.436;  -32.925; -280.000;   -6.000
212.581;  -72.575; -685.000; -653.000
212.726;  -71.125; -487.000; -538.000
212.871;  -38.025; -552.000; -217.000
213.016; -143.900;-1172.000;-1029.000
213.161;   62.225;  406.000;  291.000
213.306;  -70.150; -435.000; -577.000
213.451;  -81.250; -778.000; -689.000
213.596;  -41.875; -455.000; -347.000
213.741;  -42.575; -448.000; -538.000
213.886;  -63.400; -498.000; -517.000
214.031;  -11.950; -294.000; -124.000
214.176;  -50.675; -408.000; -341.000
214.321;  -13.750; -296.000; -157.000
214.466;  -21.475; -163.000;  -43.000
214.611;   -4.700;  -61.000;  -10.000
214.756; -123.625; -948.000; -858.000
214.901;  -17.925; -388.000; -226.000
215.046; -106.025; -797.000; -825.000
215.191;   36.575;  128.000;   35.000
215.336;  -13.100; -157.000;  -19.000
215.480;  -61.425; -684.000; -505.000
215.625;   -8.625; -175.000;  -19.000
215.770;  -73.525; -757.000; -662.000
215.915;   -1.900;   -5.000;  -97.000
216.060;    5.300; -113.000;  -21.000
216.205; -114.775; -731.000; -779.000
216.349;  -65.650; -470.000; -533.000
216.494; -121.825; -939.000; -867.000
216.639; -104.150; -823.000; -888.000
216.784;  -83.950; -577.000; -525.000
216.929;   54.025;  392.000;  281.000
217.073;  -17.950; -244.000;  -31.000
217.218;   13.325;   78.000;  -47.000
217.363;  -81.300; -656.000; -618.000
217.507;  -81.250; -623.000; -588.000
217.652; -126.175; -845.000; -874.000
217.797;  -88.875; -708.000; -659.000
217.942; -102.775; -856.000; -720.000
218.086;   58.800;  608.000;  539.000
218.231;  -12.375; -174.000;  -26.000
218.376;  -28.250; -337.000; -229.000
218.520;  -11.475;  -41.000;   96.000
218.665;  -24.200; -338.000; -204.000
218.810;  -34.550; -275.000; -233.000
218.954;   22.975;  201.000;   35.000
219.099; -101.525; -713.000; -963.000
219.243;  -60.775; -589.000; -554.000
219.388;  -35.700; -264.000; -136.000
219.532;  -16.400; -116.000; -116.000
219.677;  -84.625; -564.000; -521.000
219.822;    4.275;   33.000;   89.000
219.966;   -4.200;   17.000;  -99.000
220.111;  -19.450; -328.000;  -40.000
220.255;  -78.250; -797.000; -750.000
220.400;  -18.075; -180.000; -146.000
220.544;  -72.525; -516.000; -450.000
220.689;  -44.900; -422.000; -451.000
220.833;  -17.250; -123.000;  -58.000
220.978;  -36.075; -393.000; -563.000
221.122;   16.775;  319.000;  307.000
221.267;  -91.925; -906.000; -837.000
221.411;  -63.150; -478.000; -394.000
221.555;    0.175; -104.000;  -23.000
221.700;  -44.375; -329.000; -222.000
221.844;   43.425;  255.000;  272.000
221.989;  -45.800; -328.000; -311.000
222.133;  -33.750; -289.000; -307.000
222.277;  -17.875;    5.000;   78.000
222.422;   12.375;  227.000;  113.000
222.566;  -40.675; -381.000; -214.000
222.711;  -51.975; -414.000; -479.000
222.855;  -87.850; -643.000; -586.000
222.999;  -76.025; -642.000; -717.000
223.144;  -33.800; -195.000; -194.000
223.288;   54.025;  423.000;  251.000
223.432;   23.825;  184.000;  230.000
223.576;   30.625;  152.000;  -21.000
223.721;   32.175;  364.000;  273.000
223.865;  -50.700; -472.000; -475.000
224.009;  208.075; 1673.000; 1631.000
224.153;  -66.800; -660.000; -671.000
224.298;  -74.475; -531.000; -489.000
224.442;  -26.325;  -74.000;  -33.000
224.586;   -4.325; -169.000; -106.000
224.730;  -85.250; -858.000; -670.000
224.875;  -97.750; -739.000; -688.000
225.019;   20.125;  102.000;  188.000
225.163;   51.075;  208.000;  341.000
225.307;   11.575;   97.000;  -91.000
225.451;   40.150;  360.000;  481.000
225.595;   37.725;  264.000;  176.000
225.739;  -12.575; -170.000;  -94.000
225.884;    4.200;   86.000;    5.000
226.028;  -91.225; -760.000; -626.000
226.172;  -33.700; -260.000; -273.000
226.316; -115.075; -941.000; -902.000
226.460;  -63.775; -645.000; -493.000
226.604;  -61.000; -406.000; -400.000
226.748;  -93.025; -836.000; -733.000
226.892;  -25.050; -227.000; -181.000
227.036;  -53.425; -537.000; -447.000
227.180;  -46.650; -551.000; -375.000
227.324;  -55.325; -561.000; -580.000
227.468; -101.675; -819.000; -717.000
227.612;   15.800;  242.000;  -28.000
227.756;  -92.325; -845.000; -698.000
227.900;   46.375;  342.000;  441.000
228.044;  -54.525; -509.000; -290.000
228.188;   51.250;  448.000;  568.000
228.332; -100.225; -546.000; -472.000
228.476;  -19.125; -223.000; -149.000
228.620;  -16.675; -210.000; -150.000
228.764;   72.400;  431.000;  349.000
228.908;  -34.000; -155.000;   30.000
229.052;  -60.100; -615.000; -528.000
229.195;  -14.750; -172.000;   13.000
229.339;  -25.125; -235.000; -305.000
229.483;  -27.575;    5.000; -162.000
229.627;  -11.650; -156.000;  139.000
229.771;  -45.000; -218.000; -294.000
229.915;   11.000;  230.000;   79.000
230.059; -103.225; -648.000; -663.000
230.202;  -26.625; -370.000; -317.000
230.346;  -16.875; -107.000;  107.000
230.490;  -65.675; -489.000; -521.000
230.634;  -94.300; -736.000; -553.000
230.777;   71.500;  478.000;  509.000
230.921;  -55.400; -450.000; -359.000
231.065;  -45.800; -246.000; -286.000
231.209;   19.225;  261.000;  265.000
231.352;    5.575;   54.000;   40.000
231.496;    2.150;  568.000;  188.000
231.640;  -82.350; -693.000; -621.000
231.783;   57.175;  546.000;  525.000
231.927;  -40.875; -294.000; -365.000
232.071; -117.275; -962.000; -736.000
232.214; -105.875; -980.000; -764.000
232.358;  -92.750; -683.000; -599.000
232.502;   -0.225;  -19.000;    7.000
232.645; -136.625;-1090.000; -927.000
232.789;  -31.600; -257.000; -218.000
232.933;  -38.975; -407.000; -224.000
233.076; -120.825;-1038.000; -897.000
233.220; -100.275; -752.000; -777.000
233.363;  -74.275; -669.000; -477.000
233.507;   49.025;  371.000;  129.000
233.650;  -87.150; -764.000; -834.000
233.794;   35.725;  438.000;  461.000
233.938;  -44.925; -530.000; -362.000
234.081;  -28.475;  -93.000;   31.000
234.225;  -50.800; -631.000; -539.000
234.368; -110.525; -773.000; -723.000
234.512;  -49.175; -385.000; -299.000
234.655;  -81.250; -582.000; -555.000
234.798;  -59.175; -493.000; -466.000
234.942; -122.850; -884.000;-1002.000
235.085;  -56.275; -651.000; -443.000
235.229;  -76.175; -405.000; -410.000
235.372;  -61.650; -247.000; -191.000
235.516;  -60.175; -397.000; -321.000
235.659;   23.500;   92.000;  121.000
235.802;   -9.350;  -38.000;  -22.000
235.946;   20.200;  335.000;  215.000
236.089;   20.950;  126.000;  250.000
236.233;   35.150;  275.000;  298.000
236.376;  -51.475; -235.000; -378.000
236.519;  -41.900; -297.000; -319.000
236.663;  -32.750; -215.000; -117.000
236.806; -117.275;-1029.000; -999.000
236.949;   64.200;  543.000;  431.000
237.092;   53.750;  412.000;  391.000
237.236;  -86.925; -589.000; -502.000
237.379;   70.925;  352.000;  428.000
237.522; -108.000; -879.000; -768.000
237.666;  -23.200; -271.000;   18.000
237.809; -112.300; -851.000; -823.000
237.952;   29.100;  469.000;  271.000
238.095;  -64.025; -447.000; -442.000
238.238;   79.725;  688.000;  700.000
238.382;    3.800;  166.000;  103.000
238.525;  -58.950; -598.000; -511.000
238.668; -129.900;-1060.000; -985.000
238.811;  -67.975; -638.000; -643.000
238.954;  -60.800; -483.000; -334.000
239.097;   88.775;  617.000;  664.000
239.241;   19.300;  394.000;  326.000
239.384;  -27.650; -254.000; -214.000
239.527;  -61.075; -424.000; -224.000
239.670; -130.800; -994.000;-1091.000
239.813;  -98.400; -696.000; -658.000
239.956;   74.950;  579.000;  473.000
240.099; -102.850; -778.000; -725.000
240.242;   69.200;  428.000;  432.000
240.385;   35.200;  466.000;  450.000
240.528;  -69.275; -706.000; -473.000
240.671;   26.750;  189.000;  134.000
240.814;  -39.625; -441.000; -158.000
240.957; -101.875; -767.000; -578.000
241.100;  -86.850; -779.000; -755.000
241.243; -141.575;-1234.000; -893.000
241.386;  -63.625; -508.000; -379.000
241.529;  -90.050; -735.000; -547.000
241.672;  -71.575; -566.000; -495.000
241.815; -118.575; -832.000; -808.000
241.958;  -12.125; -125.000; -182.000
242.101;  -86.300; -545.000; -390.000
242.244;  -22.425; -270.000; -325.000
242.387;  -48.425; -304.000; -246.000
242.530;   46.200;  470.000;  134.000
242.673;  -50.600; -381.000; -309.000
242.815; -106.050; -925.000; -899.000
242.958;  -81.150; -482.000; -381.000
243.101;    2.625;  132.000;  187.000
243.244;  -99.150; -564.000; -521.000
243.387;  -32.250; -313.000; -316.000
243.530; -101.650; -657.000; -674.000
243.672;    1.875;   43.000;  -92.000
243.815;  -43.750; -355.000; -283.000
243.958;    6.625;   98.000;  -26.000
244.101;    1.850;   59.000;  -16.000
244.243;   -9.700;  -47.000;  101.000
244.386;  -87.500; -761.000; -630.000
244.529;  -19.750; -132.000; -139.000
244.672; -147.700;-1154.000; -951.000
244.814;  -92.700; -621.000; -794.000
244.957;  -43.400; -380.000; -304.000
245.100;  -72.325; -489.000; -489.000
245.242;  -62.675; -387.000; -374.000
245.385;    0.850;  -59.000;  -39.000
245.528; -116.700; -871.000; -705.000
245.670;   85.600;  612.000;  634.000
245.813;  -80.725; -599.000; -547.000
245.956;  -19.925; -324.000; -275.000
246.098;  -68.250; -508.000; -650.000
246.241;   10.125;  194.000;   48.000
246.383;  -19.000; -119.000;  -73.000
246.526;  -66.050; -454.000; -525.000
246.669; -118.875; -889.000; -780.000
246.811;    7.875;  172.000;   -1.000
246.954;  -74.400; -512.000; -426.000
247.096;  -19.225;  -84.000;   -6.000
247.239;  -69.875; -482.000; -445.000
247.381;  -68.450; -647.000; -488.000
247.524;   70.675;  645.000;  679.000
247.666;    1.200;   58.000;   11.000
247.809; -112.850; -887.000; -691.000
247.951;   -5.350;  -75.000;  138.000
248.094;   26.750;  432.000;  308.000
248.236; -152.325;-1262.000;-1238.000
248.378;  -14.575; -356.000;  -81.000
248.521;  -31.850; -334.000; -337.000
248.663;  -44.125; -236.000; -267.000
248.806;  -23.975; -300.000; -266.000
248.948; -107.325; -886.000; -763.000
249.090;  -57.325; -428.000; -398.000
249.233;  -62.200; -344.000; -381.000
249.375;  -62.850; -474.000; -451.000
249.518;  -29.375;  -83.000; -133.000
249.660;   -6.200; -103.000;    3.000
249.802; -181.500;-1303.000;-1189.000
249.945;  -79.375; -612.000; -540.000
250.087; -103.100; -834.000; -768.000
250.229;  -52.550; -362.000; -480.000
250.371;  -75.500; -494.000; -439.000
250.514;  -46.950; -310.000; -244.000
250.656;  -10.700;   69.000;  102.000
250.798; -101.425; -849.000; -800.000
250.940;  -80.250; -322.000; -322.000
251.083;  -29.175; -335.000; -111.000
251.225;   42.400;  338.000;  310.000
251.367;  -31.075; -274.000; -373.000
251.509;  -42.625; -265.000; -210.000
251.651;  -94.350; -731.000; -671.000
251.794;   56.150;  538.000;  632.000
251.936; -105.600; -821.000; -747.000
252.078;  -80.525; -540.000; -461.000
252.220;  -65.000; -645.000; -477.000
252.362;   58.875;  344.000;  462.000
252.504;  -65.975; -677.000; -584.000
252.646; -105.000; -875.000; -722.000
252.788;    5.450;   14.000; -128.000
252.931;  -44.050; -257.000; -253.000
253.073;  -51.300; -376.000; -317.000
253.215;  -10.150;  141.000;  122.000
253.357;  -15.500;   82.000; -153.000
253.499;  -55.125; -374.000; -234.000
253.641;  -90.400; -749.000; -594.000
253.783;  -96.450; -609.000; -527.000
253.925;  -85.375; -586.000; -591.000
254.067; -112.650; -744.000; -667.000
254.209;  -47.025; -391.000; -259.000
254.351; -133.575; -865.000; -883.000
254.493;  -56.825; -441.000; -417.000
254.635; -131.350; -936.000; -818.000
254.777;  -78.050; -752.000; -687.000
254.918;  -64.125; -512.000; -430.000
255.060;  -55.025; -551.000; -395.000
255.202;  -56.325; -473.000; -261.000
255.344;  -71.350; -658.000; -455.000
255.486;  -86.375; -471.000; -406.000
255.628;  -95.850; -780.000; -781.000
255.770;  -86.550; -676.000; -536.000
255.912;  -67.525; -559.000; -468.000
256.053;  -84.575; -730.000; -508.000
256.195;  154.300; 1008.000;  903.000
256.337;  -93.300; -861.000; -595.000
256.479;   49.750;  532.000;  416.000
256.621;  -51.725; -394.000; -212.000
256.762;  -94.900; -789.000; -742.000
256.904;   34.000;  485.000;  487.000
257.046;  -48.100; -381.000; -271.000
257.188;  -45.950; -351.000; -264.000
257.329;  -72.675; -525.000; -464.000
257.471; -101.850; -939.000; -807.000
257.613;  -70.775; -584.000; -498.000
257.755; -133.425;-1073.000; -982.000
257.896;   18.675;  286.000;  392.000
258.038;  -72.050; -403.000; -352.000
258.180;  -40.775; -354.000; -279.000
258.321;  -88.825; -581.000; -457.000
258.463;   -2.975;  -71.000;  133.000
258.605;  -85.700; -562.000; -570.000
258.746; -101.175; -886.000; -772.000
258.888; -141.200;-1026.000;-1020.000
259.029;   13.250;  121.000;   -8.000
259.171;  -91.975; -614.000; -550.000
259.313;   -0.550;  -49.000;  -47.000
259.454;  -74.525; -536.000; -414.000
259.596;  -55.625; -483.000; -390.000
259.737;  -73.925; -590.000; -474.000
259.879;   34.650;  217.000;  311.000
260.020;   68.400;  901.000;  636.000
260.162;  -27.875; -146.000; -253.000
260.303; -123.950; -768.000; -687.000
260.445;  -75.925; -609.000; -613.000
260.586;   21.350;  392.000;  157.000
260.728;  -30.075; -360.000; -248.000
260.869;  -79.400; -350.000; -343.000
261.011;   74.875;  706.000;  537.000
261.152;  -58.325; -479.000; -319.000
261.293;  -78.900; -576.000; -595.000
261.435;  -27.950; -219.000; -184.000
261.576;  -48.675; -455.000; -325.000
261.718;   51.225;  420.000;  470.000
261.859; -115.400; -940.000; -949.000
262.000; -135.125; -951.000;-1016.000
262.142;  -22.900;  -52.000;  -60.000
262.283; -102.550; -808.000; -691.000
262.424;  -92.950; -666.000; -625.000
262.566; -146.525;-1161.000; -983.000
262.707; -113.350; -840.000; -830.000
262.848; -116.875; -769.000; -726.000
262.990;  -48.875; -362.000; -345.000
263.131;   60.675;  650.000;  681.000
263.272;   -9.650;  -61.000;  -41.000
263.413;  -84.700; -589.000; -561.000
263.555;  -56.325; -669.000; -143.000
263.696;  -83.375; -550.000; -641.000
263.837;  -47.775; -449.000; -551.000
263.978;  -11.175;   -5.000;  -77.000
264.119;  -39.975; -283.000; -264.000
264.261; -103.000; -847.000; -630.000
264.402;    8.600;   33.000;   40.000
264.543;  -79.925; -509.000; -524.000
264.684;   -4.550;   61.000;  -50.000
264.825; -100.875; -816.000; -538.000
264.966;  -15.150;  -84.000;  -67.000
265.107; -109.650; -646.000; -670.000
265.248;  -97.775; -825.000; -812.000
265.390;   -8.500;  152.000;   -9.000
265.531;  -28.925; -238.000; -107.000
265.672;  -79.425; -557.000; -630.000
265.813;   65.200;  563.000;  439.000
265.954; -144.575; -959.000; -940.000
266.095;  -22.900; -372.000; -322.000
266.236; -104.775; -686.000; -548.000
266.377;  -45.775; -243.000; -297.000
266.518;  -69.575; -619.000; -547.000
266.659;   32.700;  170.000;  268.000
266.800;    0.775;   83.000;   85.000
266.941;  -71.625; -487.000; -478.000
267.082;   -3.350;  354.000;   99.000
267.223;  -48.100; -344.000; -273.000
267.364; -116.125; -892.000; -686.000
267.504;   -3.375;    3.000;  135.000
267.645;  -10.250;  160.000;   67.000
267.786;  -28.100; -147.000;  -86.000
267.927;  -71.625; -473.000; -379.000
268.068;  -25.925; -186.000;  -61.000
268.209;  -42.600; -175.000; -413.000
268.350;  -48.850; -388.000; -532.000
268.490;  -89.000; -648.000; -521.000
268.631;   19.325;  127.000;  225.000
268.772; -105.800; -874.000; -647.000
268.913;  -43.050; -328.000; -476.000
269.054;  -20.150; -117.000;   12.000
269.194;  -44.525; -418.000; -402.000
269.335; -153.975;-1137.000;-1074.000
269.476;   -8.150;   33.000;  -35.000
269.617;  -51.075; -347.000; -392.000
269.757;  -87.125; -713.000; -646.000
269.898; -115.850; -856.000; -613.000
270.039;  -53.900; -415.000; -405.000
270.180; -117.650; -952.000; -816.000
270.320;  -20.975; -190.000; -250.000
270.461;  -47.800; -277.000; -249.000
270.602;  -13.075; -186.000; -156.000
270.742; -132.800; -868.000; -943.000
270.883;  -33.225; -442.000; -390.000
271.023;  -64.950; -358.000; -357.000
271.164;  -57.975; -607.000; -528.000
271.305; -111.500; -666.000; -654.000
271.445;  -78.825; -722.000; -683.000
271.586;  -59.775; -462.000; -283.000
271.726;  -34.375; -397.000; -322.000
271.867;  -78.950; -594.000; -534.000
272.008;   65.300; -473.000; -285.000
272.148;   80.125;  462.000;  468.000
272.289;   -8.175; -113.000; -181.000
272.429;   -1.025;   19.000;  185.000
272.570;  -86.450; -633.000; -737.000
272.710; -105.700; -825.000; -775.000
272.851;  -31.200;  113.000; -130.000
272.991; -165.600;-1173.000;-1077.000
273.131;  -52.525; -419.000; -459.000
273.272;  -89.275; -683.000; -723.000
273.412;   -3.875; -143.000;  -31.000
273.553;  -60.550; -488.000; -507.000
273.693;  106.975;  913.000;  858.000
273.834; -116.875; -894.000; -692.000
273.974;  -64.425; -664.000; -615.000
274.114; -108.925; -772.000; -560.000
274.255;   53.275;  414.000;  373.000
274.395;  -16.775; -180.000; -125.000
274.535;   36.675;  199.000;  350.000
274.676;    8.800;  225.000;   94.000
274.816;   15.425;  110.000;   34.000
274.956;  -98.675; -624.000; -690.000
275.097;  -91.175;-1014.000; -922.000
275.237; -112.000; -913.000; -803.000
275.377;  -96.275; -778.000; -689.000
275.517; -144.575; -878.000; -937.000
275.658;  -60.325; -590.000; -555.000
275.798;  -89.775; -606.000; -413.000
275.938;   20.425;  215.000;  323.000
276.078;  -76.050; -626.000; -395.000
276.218;   16.175;   99.000;  104.000
276.359; -128.425;-1026.000;-1024.000
276.499;  -61.175; -605.000; -446.000
276.639;  -34.175; -305.000; -151.000
276.779;  -58.000; -475.000; -357.000
276.919; -101.500; -783.000; -624.000
277.059;   -7.775; -261.000; -212.000
277.199;  -51.350; -357.000; -259.000
277.340;   39.350;  287.000;  175.000
277.480; -112.950; -840.000; -693.000
277.620;   24.100;  192.000;   16.000
277.760; -197.075;-1533.000;-1294.000
277.900;    6.750;  113.000;   33.000
278.040;    3.800;  137.000;  159.000
278.180;   25.325;  270.000;  170.000
278.320;    3.825;   21.000;   56.000
278.460;  -53.450; -443.000; -469.000
278.600;  -92.750; -708.000; -598.000
278.740;   48.975;  448.000;  224.000
278.880; -104.450; -768.000; -791.000
279.020;  -23.800; -194.000; -144.000
279.160;  -82.675; -672.000; -595.000
279.300; -104.400; -926.000; -873.000
279.440;  -97.950; -709.000; -622.000
279.579;  -71.125;-1014.000; -929.000
279.719;  -60.400; -410.000; -394.000
279.859;   30.125;   -4.000;   41.000
279.999;   -2.675; -208.000;  101.000
280.139;  -31.250; -435.000; -387.000
280.279;  -93.150; -708.000; -745.000
280.419;   -4.900; -229.000; -147.000
280.559;  -35.925; -259.000; -180.000
280.698;  -92.150; -790.000; -639.000
280.838; -110.125; -778.000; -800.000
280.978;  -95.150; -846.000; -790.000
281.118; -101.600; -811.000; -704.000
281.257;   11.700;   24.000;    6.000
281.397; -131.575;-1094.000; -960.000
281.537;  -87.550; -599.000; -712.000
281.677;  -16.625; -150.000; -101.000
281.816;  -75.500; -700.000; -630.000
281.956;  -33.400; -193.000; -257.000
282.096;  -49.050; -539.000; -396.000
282.235; -104.700; -672.000; -638.000
282.375;  -12.300; -243.000;  -98.000
282.515;  -84.400; -715.000; -707.000
282.654;   12.650;   29.000;  106.000
282.794;   33.250;  388.000;  244.000
282.934;  -52.075; -530.000; -491.000
283.073; -118.050;-1030.000; -857.000
283.213;  -48.900; -460.000; -467.000
283.353;  -42.925; -408.000; -349.000
283.492;  -22.975; -264.000; -296.000
283.632;  -21.325; -254.000; -168.000
283.771;  -80.300; -859.000; -730.000
283.911;  -58.525; -369.000; -260.000
284.050;  -92.025; -794.000; -748.000
284.190; -152.600;-1229.000;-1096.000
284.329; -129.025;-1055.000; -964.000
284.469;  -77.175; -516.000; -591.000
284.608;  -44.100; -559.000; -598.000
284.748;  -81.625; -614.000; -570.000
284.887;  -10.775;  -87.000;  -20.000
285.027; -117.200; -844.000; -892.000
285.166;  -16.675; -192.000; -249.000
285.306;  -26.800; -116.000;  -33.000
285.445;  -21.300; -229.000; -343.000
285.584;  -91.400; -630.000; -494.000
285.724;  -35.450; -282.000; -322.000
285.863; -102.500; -857.000; -507.000
286.002;  -45.175; -366.000; -276.000
286.142;  -94.700; -715.000; -622.000
286.281;  -68.800; -525.000; -493.000
286.420;  -74.750; -554.000; -417.000
286.560;   81.375;  653.000;  623.000
286.699; -135.975; -958.000; -912.000
286.838;  -72.175; -590.000; -591.000
286.978;  -78.950; -533.000; -537.000
287.117; -117.400;-1085.000; -950.000
287.256;  -23.350; -228.000; -211.000
287.395;  -52.800; -197.000; -378.000
287.535;  -45.550; -370.000; -298.000
287.674;  -63.150; -509.000; -484.000
287.813;   45.550;  661.000;  533.000
287.952; -125.100;-1010.000; -871.000
288.091; -140.400;-1049.000; -915.000
288.231;   13.700;   13.000;   15.000
288.370; -158.275;-1217.000;-1200.000
288.509;  -76.000; -728.000; -645.000
288.648;  -80.475; -770.000; -548.000
288.787;  -19.350; -243.000;  -87.000
288.926;  -59.350; -454.000; -475.000
289.065;  116.725;  859.000;  672.000
289.204;  -40.750; -377.000; -217.000
289.344;  -83.800; -791.000; -690.000
289.483;   21.175;  416.000;  304.000
289.622;  -20.025; -291.000; -149.000
289.761;  -26.425; -309.000; -166.000
289.900; -104.425; -785.000; -626.000
290.039;  -22.875;  -12.000;  -95.000
290.178;  -34.425; -274.000; -180.000
290.317;  -84.875; -618.000; -479.000
290.456;  -64.800; -463.000; -451.000
290.595; -114.950; -961.000; -833.000
290.734; -117.300; -904.000; -891.000
290.873;  -68.250; -456.000; -420.000
291.011; -113.900; -833.000; -843.000
291.150; -103.200; -770.000; -682.000
291.289;  -26.650; -343.000; -110.000
291.428;  -89.325; -599.000; -480.000
291.567;  -43.700; -370.000; -442.000
291.706;   -1.275;  109.000;  154.000
291.845;  -71.025; -597.000; -505.000
291.984; -160.800;-1234.000;-1061.000
292.122;   64.550;  602.000;  582.000
292.261;   47.700;  620.000;  463.000
292.400;   13.150; -144.000;  211.000
292.539; -127.150; -959.000; -813.000
292.678;  -25.925; -325.000; -300.000
292.816; -141.025;-1136.000; -965.000
292.955;  -74.600; -844.000; -684.000
293.094;  -33.150; -173.000; -337.000
293.233;  -37.200; -556.000; -400.000
293.371;  -21.950; -225.000;  -84.000
293.510; -106.075; -866.000; -780.000
293.649; -114.775; -959.000; -924.000
293.787;  -89.425;-1083.000;-1012.000
293.926;  -22.750; -113.000;  -32.000
294.065;  -41.150; -379.000; -290.000
294.203;   36.150;  298.000;  406.000
294.342;   38.800;   74.000;  156.000
294.481; 5308.475;51180.000; -836.000
294.619;  -28.650; -425.000; -582.000
294.758; -142.275;-1230.000;-1137.000
294.896;   17.150; -125.000;    5.000
295.035; -142.700;-1040.000;-1006.000
295.174; -112.875;-1082.000; -954.000
295.312;  -43.125; -323.000; -203.000
295.451;  -30.550; -307.000; -428.000
295.589;  -67.750; -389.000; -518.000
295.728;   25.725; -292.000; -165.000
295.866;  -17.925;  -36.000;  -51.000
296.005;  -61.450; -584.000; -341.000
296.143;  -63.175; -558.000; -596.000
296.282;  -89.475; -957.000; -881.000
296.420;  -76.500; -657.000; -557.000
296.559;  -80.425; -892.000; -633.000
296.697;  -38.725; -847.000; -665.000
296.835;  -46.575;-1141.000;-1002.000
296.974;   38.425;  -23.000;   39.000
297.112;  -16.175; -443.000; -504.000
297.251;  -72.025; -815.000; -755.000
297.389;   20.550; -576.000; -438.000
297.527;   20.975; -145.000;  -83.000
297.666;  -53.600; -486.000; -438.000
297.804;  -48.975; -404.000; -264.000
297.942;   12.975; -136.000; -161.000
298.081;  -14.750; -183.000;   63.000
298.219;   24.300;  -17.000;  -19.000
298.357;  -10.875; -144.000;  -71.000
298.495;  -55.750; -810.000; -812.000
298.634;   15.525;  245.000;  219.000
298.772;   -8.200; -220.000; -338.000
298.910;  -50.325; -309.000; -182.000
299.048;  -18.300; -130.000; -153.000
299.187;  -43.850; -350.000; -250.000
299.325;    3.800;   52.000;  122.000
299.463;  -11.450; -389.000; -299.000
299.601;   15.300; -327.000; -271.000
299.739; -109.100; -908.000; -883.000
299.877;  -83.625; -791.000; -703.000
300.016; -102.000;-1095.000; -935.000
300.154;   75.250;  -19.000; -161.000
300.292;  -29.600; -428.000; -348.000
300.430;  -11.625; -408.000; -291.000
300.568; -113.900; -940.000; -874.000
300.706;  -45.525; -366.000; -469.000
300.844; -110.375;-1108.000; -979.000
300.982;   70.250;  246.000;  282.000
301.120; -135.100; -965.000; -866.000
301.258;  -78.025; -812.000; -705.000
301.396;   13.800;  104.000;  -41.000
301.534;    6.400; -218.000; -293.000
301.672;  -57.625; -664.000; -521.000
301.810;  -47.475; -613.000; -545.000
301.948;   59.675;   53.000;  149.000
302.086;  260.025; -250.000;  -32.000
302.224;  313.500; -610.000; -585.000
302.362;  -40.975; -558.000; -622.000
302.500;  -77.900; -923.000; -893.000
302.638;   55.200;  128.000;  245.000
302.776;  -29.550; -352.000; -408.000
302.913;   45.225;  447.000;  236.000
303.051;  -20.700;  -86.000;  -23.000
303.189;   25.400;   90.000;  118.000
303.327;  -38.225; -341.000; -256.000
303.465;  -65.575; -832.000; -588.000
303.603; -100.800; -805.000; -604.000
303.740;   68.175;  417.000;  241.000
303.878;  -47.250; -800.000; -759.000
304.016;  -84.950; -915.000; -790.000
304.154; -153.625;-1123.000;-1152.000
304.291;  -42.300; -505.000; -554.000
304.429;   10.600;  102.000;   74.000
304.567; -113.200; -908.000; -893.000
304.705;  -51.900; -408.000; -515.000
304.842;   -1.775; -616.000; -540.000
304.980;    8.025;  215.000;   35.000
305.118;    1.100; -367.000; -365.000
305.255; -102.325; -945.000; -927.000
305.393;   29.800;  178.000;  239.000
305.531; -126.075;-1173.000; -956.000
305.668;  -71.000; -663.000; -582.000
305.806;    6.275; -358.000; -439.000
305.943;   16.125; -629.000; -637.000
306.081;   -2.550; -378.000; -267.000
306.219; -101.250; -863.000; -748.000
306.356;   10.800;  158.000;   27.000
306.494;  159.425;  981.000;  761.000
306.631;   31.300;  -11.000;  -55.000
306.769;   21.250; -613.000; -485.000
306.906;   -4.425; -284.000; -258.000
307.044;  -30.750; -473.000; -488.000
307.181;  -32.250; -410.000; -332.000
307.319;   34.500;  112.000;   87.000
307.456; -156.550;-1191.000;-1153.000
307.594;  -85.775; -980.000; -727.000
307.731;  -13.700; -371.000; -164.000
307.868;    3.475;  -15.000;   20.000
308.006; -121.175; -961.000; -847.000
308.143;  -54.300; -618.000; -330.000
308.281;   73.700;  -37.000; -254.000
308.418;  -34.325; -748.000; -640.000
308.555;  -67.225; -400.000; -250.000
308.693;  -52.075; -577.000; -573.000
308.830;  -88.275; -712.000; -657.000
308.967;   -3.400; -215.000;  -95.000
309.105;   -0.950; -507.000; -396.000
309.242;   35.075; -468.000; -367.000
309.379;  110.325; -577.000; -655.000
309.517;  -53.975; -936.000; -948.000
309.654;  -73.500; -910.000; -734.000
309.791;  -32.350; -662.000; -580.000
309.928;  -96.450; -977.000; -914.000
310.065;  169.750;  819.000;  697.000
310.203;  -42.100; -825.000; -850.000
310.340;    1.925; -465.000; -321.000
310.477;  -58.500; -412.000; -516.000
310.614;  -28.175; -383.000; -473.000
310.751;  -54.000; -427.000; -518.000
310.889;   15.275;    1.000;   11.000
311.026; -121.600;-1161.000; -939.000
311.163;  -15.150; -386.000; -380.000
311.300;  -47.475; -512.000; -479.000
311.437;  -53.700; -658.000; -619.000
311.574; -123.775;-1226.000; -985.000
311.711;  -44.575; -595.000; -433.000
311.848;  -13.350; -380.000; -388.000
311.985;   45.775;  270.000;   93.000
312.122;  -89.325; -932.000; -762.000
312.259;  -75.500; -941.000; -994.000
312.396;  -38.225; -508.000; -551.000
312.533;  -47.425; -812.000; -790.000
312.670;  -99.725;-1070.000; -898.000
312.807;    9.575; -352.000; -367.000
312.944;  -40.375; -513.000; -611.000
313.081;    7.850; -150.000; -415.000
313.218;  -73.850;-1111.000; -867.000
313.355;    3.825; -531.000; -449.000
313.492;   27.400; -455.000; -292.000
313.629;  177.775;  815.000;  735.000
313.766; -119.025;-1176.000;-1008.000
313.902;   14.325; -186.000;   21.000
314.039;  -27.775; -372.000; -289.000
314.176;   49.350;  286.000;  192.000
314.313;  -65.050; -569.000; -473.000
314.450;  -55.950; -788.000; -684.000
314.587;  -32.775; -468.000; -480.000
314.723;   38.850;  -78.000;  130.000
314.860;   60.300;  318.000;  332.000
314.997;   46.250;  223.000;  142.000
315.134;  -11.150; -385.000; -368.000
315.270;    6.100; -480.000; -496.000
315.407;  -80.450;-1094.000; -967.000
315.544;  -18.350; -657.000; -538.000
315.681;  -38.425; -681.000; -565.000
315.817;   57.150; -133.000; -176.000
315.954;   72.250; -613.000; -392.000
316.091;  -85.125;-1045.000;-1023.000
316.227;   -9.075;  -71.000; -179.000
316.364;   17.550;   23.000;    6.000
316.500;  -25.250; -113.000; -300.000
316.637;  -15.625; -181.000; -302.000
316.774;  -67.300; -625.000; -358.000
316.910;  -79.825; -598.000; -629.000
317.047;  -62.400; -487.000; -351.000
317.183;  -48.525; -435.000; -566.000
317.320;   30.325; -367.000; -321.000
317.456;  -22.125; -733.000; -805.000
317.593;  -66.475; -598.000; -641.000
317.729;   -2.000;  168.000;  -67.000
317.866; -173.300;-1434.000;-1285.000
318.002;  -65.525; -708.000; -948.000
318.139; -114.750; -883.000; -867.000
318.275; -100.850;-1003.000; -738.000
318.412;  -62.750; -517.000; -336.000
318.548;  -50.350; -751.000; -720.000
318.685;  -98.975; -985.000; -888.000
318.821;  -71.250; -762.000; -735.000
318.957;  -23.000;   34.000;  -23.000
319.094;   33.550;  297.000;  154.000
319.230;  -86.875; -756.000; -742.000
319.367;   26.500; -471.000; -520.000
319.503;  -23.625; -538.000; -436.000
319.639;  -79.250; -877.000; -793.000
319.775;  -71.500; -750.000; -685.000
319.912;  -40.325; -424.000; -519.000
320.048;  -90.975;-1184.000;-1184.000
320.184;  101.625;   59.000;   70.000
320.321;  -47.950; -497.000; -467.000
320.457;   71.075;  475.000;  662.000
320.593;  -59.350; -375.000; -382.000
320.729;  -87.925; -732.000; -734.000
320.866;  -72.225; -577.000; -635.000
321.002;  -71.800; -759.000; -809.000
321.138;  -37.750; -135.000; -211.000
321.274;   14.250; -148.000; -115.000
321.410;  -64.525; -585.000; -353.000
321.546;  -81.650;-1011.000; -911.000
321.683;   39.775;  400.000;  185.000
321.819;    0.450;  -48.000; -117.000
321.955; -116.200; -743.000; -722.000
322.091;  -46.525; -585.000; -540.000
322.227;  -33.375; -382.000; -202.000
322.363;  -37.900; -320.000; -215.000
322.499;  -47.875; -343.000; -331.000
322.635;  118.675;  636.000;  443.000
322.771;  -10.150; -139.000;   12.000
322.907;   70.250;  129.000;  327.000
323.043;  -38.575; -115.000; -206.000
323.179;  -41.375; -394.000; -363.000
323.315;  -17.575; -401.000; -371.000
323.451;   30.700; -328.000; -236.000
323.587;   43.425;  -60.000;  -77.000
323.723;  -36.875; -682.000; -601.000
323.859;  -24.500; -258.000;  -76.000
323.995;  -48.350; -467.000; -409.000
324.131; -107.675; -967.000; -892.000
324.267;  -26.925; -254.000; -276.000
324.402; -129.475; -960.000; -983.000
324.538;  -22.450; -279.000; -104.000
324.674;    2.875;  164.000;   77.000
324.810;   67.075;  226.000;  308.000
324.946;  -25.350; -810.000; -658.000
325.082;  -61.300; -568.000; -475.000
325.217;  -22.175;  -62.000;   16.000
325.353;  -92.350; -764.000; -659.000
325.489;  -89.450; -540.000; -506.000
325.625;  -57.750; -579.000; -525.000
325.760;   74.250;  517.000;  376.000
325.896;   -5.825; -515.000; -702.000
326.032;  -44.400; -403.000; -352.000
326.168;  -59.525; -462.000; -369.000
326.303;  -45.025; -352.000; -461.000
326.439;    1.775; -336.000; -276.000
326.575;   -4.050; -190.000;  -29.000
326.710;   -1.000; -156.000;  -30.000
326.846;  -12.700;  146.000;  103.000
326.982;  -90.675; -530.000; -548.000
327.117;  -71.450; -481.000; -442.000
327.253;  -56.575; -745.000; -742.000
327.388; -126.525;-1137.000;-1153.000
327.524;  -72.325; -811.000; -578.000
327.659;  -18.400;  -58.000;  -22.000
327.795;  -18.150;   69.000;   45.000
327.931;  -78.400; -723.000; -499.000
328.066;  -16.575; -417.000; -276.000
328.202;  -25.000;   12.000; -129.000
328.337;   88.650;  957.000;  713.000
328.473;   40.300;  -12.000;  -74.000
328.608;  -13.025; -256.000; -267.000
328.743;  -99.850; -799.000; -664.000
328.879;    6.825;  214.000;  114.000
329.014;  -32.550; -102.000; -122.000
329.150;  -65.875; -358.000; -483.000
329.285;  -72.700; -465.000; -466.000
329.421;  -39.025; -548.000; -246.000
329.556;  -19.925;  -36.000;   85.000
329.691;  -80.725; -633.000; -615.000
329.827;  -77.275; -626.000; -480.000
329.962;  -40.775;  131.000; -301.000
330.097;  -61.600; -673.000; -585.000
330.233;  -37.625; -410.000; -223.000
330.368; -119.100; -839.000; -628.000
330.503;   -2.325;    3.000;   98.000
330.638;  -18.625;  -93.000; -125.000
330.774;  -66.975; -609.000; -530.000
330.909;  -50.175; -434.000; -244.000
331.044;  -79.425; -714.000; -708.000
331.179; -164.600;-1217.000;-1109.000
331.315;   21.650;   77.000;   20.000
331.450;    8.525;  157.000;  285.000
331.585;  -78.675; -805.000; -706.000
331.720;  -83.800; -510.000; -460.000
331.855;   20.975;  -35.000; -102.000
331.990;  368.475;   62.000;  138.000
332.126;  199.825; -110.000;   71.000
332.261;   15.275; -379.000; -265.000
332.396;   18.975; -135.000; -242.000
332.531;  -65.600;-1074.000;-1031.000
332.666;   82.925; -519.000; -363.000
332.801;  -87.700; -726.000; -807.000
332.936;   -7.300; -192.000; -122.000
333.071; -118.225; -870.000; -817.000
333.206;   25.350;  307.000;  379.000
333.341;   24.125;  344.000;  418.000
333.476;  -58.725; -627.000; -623.000
333.611;  -37.000; -251.000; -173.000
333.746;  -25.475; -381.000; -464.000
333.881; -100.600; -973.000; -935.000
334.016;  -98.650; -936.000; -917.000
334.151;  -98.475; -746.000; -702.000
334.286;   25.225;  152.000;  186.000
334.421;   -1.900; -125.000; -178.000
334.556;  -62.875; -611.000; -567.000
334.690;  -62.150; -631.000; -577.000
334.825;   70.900;  381.000;   83.000
334.960;  -37.350; -285.000; -413.000
335.095;   26.575;  135.000;  -91.000
335.230;  -77.850; -722.000; -738.000
335.365;  -87.700;-1084.000; -990.000
335.499; -115.625;-1108.000;-1037.000
335.634;   40.950;    9.000;  534.000
335.769;  -66.475; -755.000; -720.000
335.904;  -27.850; -603.000; -561.000
336.038;  -12.100; -735.000; -657.000
336.173;  -68.200;-1206.000;-1194.000
336.308;   43.975; -116.000; -189.000
336.443;   78.900; -544.000; -634.000
336.577;   -1.050; -936.000; -787.000
336.712;  123.200;   -4.000;  -12.000
336.847;   26.075; -724.000; -607.000
336.981;  124.850; -272.000; -208.000
337.116;  375.800;  615.000;  501.000
337.250;  174.375; -434.000; -421.000
337.385;  371.800; -297.000; -208.000
337.520;  176.500; -632.000; -603.000
337.654;  -30.625; -215.000; -126.000
337.789; -118.950; -989.000; -933.000
337.923;  -37.675; -104.000; -205.000
338.058;  -96.325; -673.000; -738.000
338.192;  -56.550; -611.000; -488.000
338.327;   -8.400;  -18.000; -155.000
338.461;  -70.500; -299.000; -469.000
338.596;  -78.250; -780.000; -638.000
338.730; -100.025; -767.000; -803.000
338.865;  142.975;  -46.000; -140.000
338.999;   -8.050; -846.000; -702.000
339.134;   10.375; -634.000; -536.000
339.268;   40.725; -741.000; -603.000
339.403;  465.750; -740.000; -775.000
339.537;  223.300; -894.000; -820.000
339.671;  -81.925; -829.000; -813.000
339.806;  -27.625; -556.000; -512.000
339.940;   21.700; -261.000; -235.000
340.074;  -94.600; -685.000; -510.000
340.209;  -37.550; -351.000; -230.000
340.343; -104.600; -517.000; -573.000
340.477;  140.900;  998.000; 1036.000
340.612;  -10.400;-1033.000; -900.000
340.746;  176.500; -199.000; -243.000
340.880;  -90.475; -924.000; -785.000
341.014;  -20.800;  -45.000; -154.000
341.149; -119.700; -756.000; -718.000
341.283; -106.425; -839.000; -754.000
341.417; -129.575;-1124.000; -938.000
341.551;    5.950; -768.000; -708.000
341.685;  -64.125; -633.000; -611.000
341.820;  -40.975; -562.000; -493.000
341.954;  -63.600; -218.000; -349.000
342.088; -129.050;-1102.000;-1019.000
342.222;   43.300;  565.000;  618.000
342.356;  -65.150; -395.000; -335.000
342.490; -118.125; -880.000; -841.000
342.624;  -49.600; -339.000; -242.000
342.758;  -53.625; -364.000; -312.000
342.892;  -88.000; -710.000; -585.000
343.026;  -40.525;  -58.000; -116.000
343.160;  -61.175; -426.000; -376.000
343.294;  -72.500; -474.000; -337.000
343.428;  -62.250; -488.000; -448.000
343.562;  -31.250; -172.000;  -23.000
343.696;  -34.700; -385.000; -314.000
343.830;  -43.675; -362.000; -356.000
343.964;   -8.300; -231.000; -168.000
344.098;  387.800;  199.000;   70.000
344.232;  334.550; -266.000; -127.000
344.366;   55.325; -567.000; -453.000
344.500;  -24.700; -665.000; -744.000
344.634;  -25.400; -324.000; -164.000
344.768;  -38.450; -531.000; -341.000
344.902;   21.050;  278.000;  256.000
345.035;  -64.425; -556.000; -496.000
345.169; -119.025; -933.000; -656.000
345.303;  -35.250; -308.000; -482.000
345.437;  -90.925; -826.000; -717.000
345.571;  -65.250; -675.000; -594.000
345.704;  -61.625; -309.000; -532.000
345.838;  -17.325; -331.000; -284.000
345.972;  -56.525; -543.000; -495.000
346.106;  231.000; -179.000; -190.000
346.239;  429.300; -312.000; -243.000
346.373;   -1.725; -343.000; -302.000
346.507; -120.375; -950.000; -962.000
346.640;   49.750;  -30.000;   13.000
346.774;  -73.075; -650.000; -797.000
346.908;  -26.700; -138.000;  -11.000
347.041; -100.650; -646.000; -593.000
347.175;    7.975;  259.000;   27.000
347.309;  -98.675; -698.000; -628.000
347.442;  -97.200; -883.000; -732.000
347.576;  157.950;  670.000;  668.000
347.709;   84.075; -123.000;  -52.000
347.843; -103.850; -933.000; -825.000
347.976;   17.275;  235.000;  294.000
348.110; -154.125;-1268.000;-1186.000
348.243;  -87.900; -679.000; -772.000
348.377;   -3.600;  -26.000;   60.000
348.510;   62.475;  403.000;  540.000
348.644;  -42.375;  -37.000; -159.000
348.777;   11.400;  180.000;  191.000
348.911;  -47.125; -142.000; -112.000
349.044;  105.325;  471.000;  448.000
349.178;   11.975;-1069.000;-1006.000
349.311;  111.450;  141.000;  255.000
349.444;   12.175; -927.000; -813.000
349.578;  -23.250; -347.000; -200.000
349.711; -118.350; -959.000; -862.000
349.845;  -62.325; -661.000; -591.000
349.978; -141.850;-1224.000;-1137.000
350.111;  -83.350; -546.000; -612.000
350.244;  -96.325; -596.000; -700.000
350.378;  -56.100; -392.000; -393.000
350.511;  -63.575; -393.000; -426.000
350.644;  -99.100; -808.000; -806.000
350.778;   16.550;  168.000;  104.000
350.911;    3.025;  134.000;  140.000
351.044;  -87.200; -685.000; -615.000
351.177;  -29.900; -321.000; -281.000
351.310;  -26.025;    3.000; -131.000
351.444;  -97.600; -888.000; -788.000
351.577;   46.225;  140.000;   90.000
351.710;   91.850;  593.000;  417.000
351.843;  -29.400; -165.000;  -77.000
351.976;   13.700;  149.000;  -79.000
352.109;  -89.175; -621.000; -612.000
352.242;  -35.825; -464.000; -419.000
352.376;  -60.550; -580.000; -636.000
352.509;   50.025; -437.000; -356.000
352.642;  -61.750; -654.000; -604.000
352.775;   18.950; -141.000;  -98.000
352.908; -104.750; -933.000; -904.000
353.041;  -91.800; -814.000; -824.000
353.174;  -54.500; -551.000; -424.000
353.307;  -70.300; -753.000; -764.000
353.440;   82.075;  541.000;  453.000
353.573;  -80.575; -957.000;-1008.000
353.706;  -38.550; -384.000; -558.000
353.839;  -23.850; -264.000; -220.000
353.971;  -86.000; -657.000; -512.000
354.104;  -87.150; -896.000; -835.000
354.237;  -71.400; -627.000; -662.000
354.370;  -72.300; -846.000; -879.000
354.503; -160.325;-1231.000;-1308.000
354.636;   -4.975; -529.000; -348.000
354.769;  -95.350; -937.000; -860.000
354.902;  -14.425; -230.000; -139.000
355.034;  -12.475; -164.000; -220.000
355.167;   -1.425; -262.000; -162.000
355.300;  -58.100;-1061.000; -880.000
355.433; 1368.900;  -71.000;  -14.000
355.565; 2155.975; -402.000; -384.000
355.698;  565.950; -356.000; -296.000
355.831;   -1.175; -882.000; -801.000
355.964;   61.850; -285.000; -170.000
356.096;  -47.650; -856.000; -843.000
356.229;   34.200; -523.000; -530.000
356.362;  483.575; -373.000; -266.000
356.494;  841.925; -229.000; -162.000
356.627;  346.150;  269.000;  377.000
356.760;  857.375;  120.000;   53.000
356.892; 1380.675; -286.000; -601.000
357.025;  402.900;  403.000;  389.000
357.157;  307.900; -167.000; -179.000
357.290;  985.800; -856.000; -713.000
357.423;  328.325; -667.000; -556.000
357.555;  135.425; -217.000; -228.000
357.688;  205.750; -483.000; -364.000
357.820;  234.500; -870.000; -877.000
357.953; 1783.600; -563.000; -589.000
358.085;  319.175; -632.000; -612.000
358.218;  281.225;-1131.000; -932.000
358.350;   91.125;  -58.000;  312.000
358.483; -143.400;-1300.000;-1187.000
358.615; -103.700;-1182.000;-1078.000
358.747; -131.975;-1187.000;-1058.000
358.880;  -35.875; -810.000; -744.000
359.012;  -20.600; -376.000; -202.000
359.145;  -55.275; -480.000; -511.000
359.277;  -31.075; -962.000; -913.000
359.409; 1511.975;  536.000;  231.000
359.542;  353.350; -738.000; -688.000
359.674;   34.400;   46.000;   13.000
359.806;  -78.750; -565.000; -438.000
359.939;  -29.600; -617.000; -516.000
360.071;   20.925; -583.000; -579.000
360.203;  -18.575; -411.000; -364.000
360.335;   25.075;  164.000;  -16.000
360.468;  118.475; -249.000; -307.000
360.600; 1434.950; -547.000; -454.000
360.732; 3587.225; -546.000; -423.000
360.864;  549.325;-1216.000;-1044.000
360.996;  113.925; -516.000; -554.000
361.129;  -22.325; -389.000; -598.000
361.261;  -10.775;  110.000; -113.000
361.393;  -57.225; -252.000; -214.000
361.525;   -5.625;   94.000;  244.000
361.657;  -91.900; -821.000; -703.000
361.789;  -33.325; -139.000; -155.000
361.921;   -0.250; -642.000; -593.000
362.053;  123.250;  524.000;  541.000
362.185;   19.750;  288.000;   72.000
362.318;  -96.075; -709.000; -705.000
362.450;   64.125;  294.000;  444.000
362.582;  -28.175; -913.000; -870.000
362.714;  -46.825; -353.000; -332.000
362.846;  -72.650; -606.000; -490.000
362.978; -123.025; -941.000; -811.000
363.109;   -8.525; -161.000; -260.000
363.241;  182.875; -739.000; -749.000
363.373;  588.800; -649.000; -564.000
363.505;  908.775; -186.000;  -91.000
363.637;  223.200; -787.000; -601.000
363.769; -136.400;-1067.000;-1080.000
363.901;  -62.775; -596.000; -654.000
364.033; -142.850;-1103.000;-1062.000
364.165;   -9.350; -283.000; -283.000
364.296;   93.600; -316.000; -177.000
364.428;  179.600;-1344.000;-1220.000
364.560;  -54.125; -679.000; -661.000
364.692;  -73.500; -738.000; -835.000
364.824;   37.275; -588.000; -456.000
364.955;  435.250; -402.000; -564.000
365.087; 1339.425;-1097.000; -852.000
365.219;   76.175; -686.000; -816.000
365.351;  -77.575; -526.000; -572.000
365.482;   34.125;  300.000;  240.000
365.614;  -58.000; -402.000; -314.000
365.746; -105.525; -729.000; -752.000
365.877; -101.300; -706.000; -672.000
366.009;  378.500;  -35.000;  -62.000
366.141;  -34.875;-1249.000;-1134.000
366.272; -100.275; -803.000; -719.000
366.404; -113.950;-1005.000; -874.000
366.535;   -6.625; -139.000;  -12.000
366.667; -112.250; -644.000; -649.000
366.799;   27.350;  353.000;  203.000
366.930; -119.050; -862.000; -996.000
367.062;  170.350; -639.000; -613.000
367.193;  281.225; -872.000; -842.000
367.325;  -42.400; -580.000; -684.000
367.456;   22.275; -246.000;   31.000
367.588;  228.750; -371.000; -318.000
367.719;   37.425;  -44.000;  -45.000
367.851;  -47.875; -222.000; -241.000
367.982; -101.625; -875.000; -732.000
368.113;   13.850; -475.000; -358.000
368.245; -132.925; -960.000; -841.000
368.376;  -28.650; -254.000; -302.000
368.508;  -42.525; -188.000; -263.000
368.639; -133.900;-1166.000;-1034.000
368.770;  -86.575; -670.000; -589.000
368.902;  -87.050; -836.000; -926.000
369.033; -118.000; -906.000; -855.000
369.164;  -16.875; -720.000; -653.000
369.296;  -99.850; -452.000; -601.000
369.427;  -23.250; -209.000; -144.000
369.558;  -64.975; -593.000; -377.000
369.689;  -62.650; -721.000; -569.000
369.821; -131.775; -951.000; -845.000
369.952;  -21.250;   42.000; -108.000
370.083;  -55.625; -229.000; -108.000
370.214;  -85.500; -735.000; -650.000
370.345;  -18.275;   65.000;   81.000
370.477; -100.675; -810.000; -790.000
370.608;   64.575; -328.000; -264.000
370.739; -115.600;-1233.000;-1292.000
370.870; -101.925;-1102.000; -923.000
371.001;    6.225; -378.000; -467.000
371.132;  -87.300; -754.000; -735.000
371.263;  -25.825;  -42.000; -148.000
371.394; -109.975; -841.000; -748.000
371.525;   29.525;  345.000;  225.000
371.657; -116.025; -808.000; -670.000
371.788;   42.275;  103.000;  199.000
371.919;   33.750; -384.000; -304.000
372.050; 1574.550;  -91.000; -156.000
372.181;  507.500; -188.000; -294.000
372.311;  159.700;   42.000; -127.000
372.442;  -27.450; -457.000; -451.000
372.573;  -32.950; -444.000; -340.000
372.704; -139.925;-1008.000; -980.000
372.835;    4.875; -228.000; -289.000
372.966;  -57.525; -646.000; -554.000
373.097;  -82.575; -575.000; -711.000
373.228;  -87.575; -717.000; -542.000
373.359;  -14.550; -824.000; -536.000
373.490;  280.775; -881.000; -727.000
373.620;  376.975;-1001.000; -803.000
373.751;  742.250; -332.000; -396.000
373.882;  344.150; -663.000; -733.000
374.013;   -1.200; -449.000; -262.000
374.143;  -61.500; -581.000; -659.000
374.274; -113.750; -987.000; -908.000
374.405;   73.225; -388.000; -276.000
374.536;  164.950; -526.000; -387.000
374.666;  436.900; -759.000; -807.000
374.797;   33.475; -817.000; -868.000
374.928;  306.825; -710.000; -560.000
375.058;  286.375; -535.000; -500.000
375.189;   32.000;  -59.000;  -93.000
375.320; -116.250; -928.000;-1034.000
375.450;  -34.600; -625.000; -616.000
375.581;  -30.025; -526.000; -436.000
375.712;  -46.775; -574.000; -250.000
375.842;   48.775; -438.000; -415.000
375.973;   38.750; -554.000; -513.000
376.103;  -90.000; -665.000; -648.000
376.234;  -93.775; -531.000; -552.000
376.364; -113.750; -944.000; -867.000
376.495;  179.250;  925.000;  529.000
376.625;  -51.050; -472.000; -485.000
376.756;  -23.225; -709.000; -678.000
376.886; -116.625;-1178.000;-1026.000
377.017;  113.200;-1048.000;-1061.000
377.147;  599.200; -786.000; -782.000
377.278;   84.575;  174.000;  228.000
377.408; -119.350; -801.000; -815.000
377.538;  -69.650; -707.000; -693.000
377.669;  -80.400; -537.000; -613.000
377.799;  -88.775; -645.000; -635.000
377.929;  -72.525; -610.000; -428.000
378.060; -114.075; -781.000; -847.000
378.190;  -30.425; -726.000; -531.000
378.320;  -23.525; -401.000; -406.000
378.451;  -23.825; -131.000;  -22.000
378.581;  -17.975;  -67.000; -110.000
378.711;   92.525; 1035.000;  866.000
378.841;  -56.025; -533.000; -675.000
378.972;  -95.975; -871.000; -751.000
379.102;  -38.850; -652.000; -579.000
379.232;  -26.100; -126.000;  -73.000
379.362; -102.600;-1001.000; -885.000
379.492;  -37.625; -373.000; -424.000
379.623;   62.575;    0.000;  111.000
379.753;  -99.725;-1107.000; -974.000
379.883;  102.900;   59.000;  156.000
380.013;  -70.175;-1081.000;-1017.000
380.143; -110.000;-1097.000;-1056.000
380.273;  -88.000; -985.000; -861.000
380.403;   34.800; -344.000; -257.000
380.533;  -11.275; -651.000; -664.000
380.663;   39.125;  173.000;  128.000
380.793; -133.875;-1027.000;-1074.000
380.923;  -19.925; -103.000;  -34.000
381.053;  -91.600; -613.000; -623.000
381.183;  -37.600; -106.000; -248.000
381.313;  -46.300; -656.000; -470.000
381.443;  -20.500; -692.000; -473.000
381.573;   12.150; -402.000; -409.000
381.703;  -14.800;-1249.000;-1095.000
381.833; -168.500;-1454.000;-1336.000
381.963;   32.125; -134.000;  -87.000
382.093;  490.525; -925.000; -909.000
382.223;  149.975; -713.000; -602.000
382.353;  -70.275; -801.000; -608.000
382.482;   80.025;-1091.000; -964.000
382.612;  264.575; -872.000; -644.000
382.742;  135.925; -695.000; -622.000
382.872;   26.250; -565.000; -551.000
383.002;   33.075;  347.000; -132.000
383.131;  -31.300; -226.000; -160.000
383.261;  -40.225; -706.000; -768.000
383.391;  282.625; -552.000; -377.000
383.521; 4196.675;  451.000;  263.000
383.650; 1266.075; -947.000; -904.000
383.780;   28.650; -783.000; -656.000
383.910;   83.325;  880.000;  802.000
384.039;  -46.025; -794.000; -656.000
384.169;  -50.825;-1205.000;-1017.000
384.299;  -69.950; -650.000; -662.000
384.428; -113.950; -764.000; -680.000
384.558;  -44.100; -308.000; -275.000
384.687;  -61.000; -414.000; -334.000
384.817;   -9.775;   75.000;   -2.000
384.947;  -23.275; -234.000; -141.000
385.076;  178.825;  982.000;  912.000
385.206;   55.700;  369.000;  480.000
385.335;  -45.550; -549.000; -417.000
385.465;  -85.650; -655.000; -663.000
385.594;   37.850;  -53.000;  -44.000
385.724;  112.825; -868.000; -838.000
385.853;   31.800; -296.000; -270.000
385.982;  509.775; -743.000; -787.000
386.112;  894.075;-1052.000; -871.000
386.241;   23.050; -307.000; -312.000
386.371;   -4.425; -174.000;  -87.000
386.500;  -54.100; -825.000; -789.000
386.629;    1.525; -874.000; -817.000
386.759;   80.250;  -43.000;   68.000
386.888;   -2.950; -170.000; -250.000
387.017;  -77.475; -648.000; -620.000
387.147;  -85.775; -771.000; -798.000
387.276;  -48.175; -410.000; -397.000
387.405;  -30.725; -398.000; -342.000
387.535;  -68.300; -452.000; -361.000
387.664;  -58.875; -692.000; -620.000
387.793;    1.525; -198.000; -113.000
387.922;  229.525;  255.000;  200.000
388.052;  -25.925; -576.000; -423.000
388.181;  -21.375; -342.000; -472.000
388.310;  -69.475; -889.000; -710.000
388.439;  -83.150; -749.000; -742.000
388.568;   62.475;  365.000;  244.000
388.697;  391.850; -756.000; -653.000
388.826;   34.875; -768.000; -666.000
388.956;  -14.950; -285.000; -307.000
389.085;  -30.500; -347.000; -287.000
389.214; -103.250; -842.000; -872.000
389.343;  -80.225; -645.000; -413.000
389.472;  494.025;  126.000;  149.000
389.601;  587.425;   91.000;    0.000
389.730;   -3.550; -568.000; -687.000
389.859;   34.750;  226.000;   46.000
389.988;   54.475; -423.000; -408.000
390.117;   65.175; -168.000; -146.000
390.246;  -31.600; -331.000; -320.000
390.375;  -30.375; -673.000; -626.000
390.504;  -74.550; -703.000; -621.000
390.633; -121.600; -672.000; -726.000
390.761;  -73.825; -732.000; -645.000
390.890;   -3.950;   -4.000; -130.000
391.019;  -44.300; -421.000; -441.000
391.148; -128.600; -826.000; -855.000
391.277;  -76.525; -576.000; -493.000
391.406; -109.400; -821.000; -805.000
391.534;    5.025;  574.000; -301.000
391.663;  -99.525; -583.000; -645.000
391.792;  -94.975; -673.000; -701.000
391.921;   15.600;   -3.000;   15.000
392.050;   44.975; -287.000; -228.000
392.178; -113.625;-1206.000;-1061.000
392.307;    9.625; -758.000; -712.000
392.436;  -27.175; -427.000; -641.000
392.564;    8.525;  166.000;   -6.000
392.693;  -94.225; -860.000; -682.000
392.822;   51.550; -529.000; -534.000
392.950;  -10.925; -880.000; -714.000
393.079;   96.050; -188.000; -328.000
393.208;  -30.550; -488.000; -511.000
393.336;  -21.675; -170.000; -145.000
393.465;  -60.700; -317.000; -199.000
393.593;   12.450;   62.000;   79.000
393.722; -132.450;-1121.000; -916.000
393.850;  -26.250; -188.000;  -61.000
393.979; -138.575; -926.000; -805.000
394.107;  -62.825; -517.000; -537.000
394.236;  -43.500; -570.000; -507.000
394.364;  131.975;  383.000;  206.000
394.493;  124.350; -911.000; -767.000
394.621;   27.275; -955.000; -916.000
394.750; 1061.375; -873.000; -923.000
394.878; 4234.350; -247.000; -149.000
395.007; 6274.200; -721.000; -807.000
395.135;  573.075; -790.000; -721.000
395.263;  -51.800;-1038.000;-1040.000
395.392;    2.750;  -25.000; -107.000
395.520; -118.800; -818.000; -679.000
395.648; -110.475; -865.000; -915.000
395.777;  -68.700; -366.000; -405.000
395.905;  -81.675; -449.000; -564.000
396.033;  -17.050;  217.000;  172.000
396.162;  175.200; -399.000; -453.000
396.290;  179.150;  -17.000;   -2.000
396.418;  -25.500; -555.000; -514.000
396.546;  -73.375; -571.000; -466.000
396.674; -122.700; -850.000; -878.000
396.803;  -27.425;  -72.000;  -23.000
396.931;  -11.575; -179.000; -199.000
397.059; -102.600;-1026.000; -989.000
397.187; -125.800;-1026.000; -975.000
397.315; -128.975; -884.000; -649.000
397.443; -103.825; -592.000; -443.000
397.572;  -89.400; -578.000; -424.000
397.700;  -68.000; -607.000; -614.000
397.828;  -22.475;  120.000;  -90.000
397.956;  -22.850; -508.000; -478.000
398.084;  -48.100; -767.000; -626.000
398.212;    8.400;  137.000;  124.000
398.340;  -17.325;  -56.000;  159.000
398.468;  -38.625; -390.000; -169.000
398.596; -153.750; -993.000; -953.000
398.724; -126.475; -762.000; -767.000
398.852; -147.425;-1024.000; -976.000
398.980;  -81.450; -560.000; -560.000
399.108;  -93.525; -982.000; -735.000
399.236;    9.250;   13.000;    8.000
399.363;    1.775;  222.000;  196.000
399.491;  -60.050; -404.000; -398.000
399.619; -102.775; -829.000; -800.000
399.747;  -91.100; -859.000; -771.000
399.875;   41.300;  220.000;  234.000
400.003;  -57.525; -359.000; -284.000
400.130;  -88.850; -421.000; -341.000
400.258;  -39.775;  -83.000;   38.000
400.386;  -73.000; -352.000; -168.000
400.514;  -89.025; -526.000; -587.000
400.641; -136.500; -928.000; -802.000
400.769; -137.450; -979.000; -888.000
400.897; -120.900; -838.000; -793.000
401.025;  -37.625; -166.000; -152.000
401.152;  -12.325;  220.000;   38.000
401.280;  -62.575; -430.000; -429.000
401.408; -101.000; -712.000; -576.000
401.535; -102.450; -735.000; -758.000
401.663; -178.850;-1134.000;-1054.000
401.790;  -70.950; -514.000; -525.000
401.918;   35.050;  436.000;  405.000
402.046;  -18.725;  134.000;  122.000
402.173;  -46.825;  -18.000;    7.000
402.301;  -70.875; -519.000; -397.000
402.428;   29.975;  528.000;  383.000
402.556; -135.825;-1188.000; -913.000
402.683;  -52.200;  -20.000;   -1.000
402.811;  -22.000;  -37.000; -206.000
402.938;  -14.050;   20.000;   27.000
403.066;   30.975; -574.000; -558.000
403.193;  150.225;  299.000;  239.000
403.321;  108.775; -396.000; -574.000
403.448;  142.525;   83.000;   27.000
403.575;   63.800;  -90.000;  -46.000
403.703;  -80.825; -732.000; -557.000
403.830;  -54.975; -531.000; -496.000
403.957; -127.725;-1117.000;-1023.000
404.085;   31.275;  -61.000; -172.000
404.212;  109.825;  -50.000;   63.000
404.339;  420.425; -566.000; -306.000
404.467; 8306.675; -612.000; -524.000
404.594; 5296.550; -287.000; -227.000
404.721;  978.150; -869.000; -764.000
404.848;  109.325; -113.000; -202.000
404.976; -109.825; -856.000; -783.000
405.103;    0.525;  -14.000;  -82.000
405.230;   10.750;  190.000;  226.000
405.357;   59.700;  117.000;   44.000
405.484;  383.625;  -49.000;    5.000
405.612;  120.325; -548.000; -563.000
405.739;  -49.675; -488.000; -243.000
405.866;   74.525;  669.000;  385.000
405.993;  -52.425; -398.000; -102.000
406.120; -127.975; -801.000; -887.000
406.247;  -79.200; -323.000; -342.000
406.374;  149.825;  540.000;  629.000
406.501;  -46.350; -632.000; -702.000
406.628;  -73.650; -621.000; -589.000
406.755; -114.775; -803.000; -620.000
406.882;  -41.400; -228.000; -277.000
407.009; -104.850; -719.000; -628.000
407.136;  -16.150; -480.000; -401.000
407.263;   -5.050; -939.000; -829.000
407.390;  -79.825; -692.000; -614.000
407.517; -164.375;-1139.000;-1187.000
407.644;  -64.200; -332.000; -256.000
407.771;  -75.425; -249.000; -287.000
407.898;    3.225;  168.000;  328.000
408.025;  -68.175; -421.000; -313.000
408.151;   -6.225;   82.000;  153.000
408.278;  -63.300; -267.000; -216.000
408.405; -127.725; -931.000; -899.000
408.532;  -94.525; -549.000; -542.000
408.659;  -99.350; -677.000; -648.000
408.785; -177.400;-1298.000;-1170.000
408.912;  -62.950; -412.000; -296.000
409.039;  -99.625; -610.000; -686.000
409.166;  -96.050; -591.000; -555.000
409.292; -115.225; -571.000; -534.000
409.419; -119.250; -665.000; -649.000
409.546;  -81.100; -431.000; -192.000
409.672; -102.050; -713.000; -545.000
409.799;  -32.700;  -36.000;   34.000
409.926;  -47.975; -180.000; -179.000
410.052; -189.100;-1127.000;-1091.000
410.179;  -73.675; -368.000; -392.000
410.305;  -89.825; -375.000; -493.000
410.432;   -8.950; -220.000; -333.000
410.558;  -91.050; -305.000; -380.000
410.685; -103.400; -688.000; -431.000
410.812; -100.925; -409.000; -588.000
410.938; -125.150; -964.000; -808.000
411.065; -110.625; -671.000; -645.000
411.191;  -30.950; -189.000; -174.000
411.317; -119.450; -823.000; -742.000
411.444;  -69.800; -317.000; -246.000
411.570;  -80.025; -339.000; -294.000
411.697; -110.375; -758.000; -752.000
411.823; -168.725; -989.000; -999.000
411.949;  -36.000;  -56.000;   17.000
412.076; -109.075; -539.000; -519.000
412.202; -121.525; -758.000; -757.000
412.329; -127.300; -798.000; -752.000
412.455; -104.625; -821.000; -657.000
412.581;  -28.700;  -15.000;  172.000
412.707;  -77.075; -540.000; -457.000
412.834;    2.800;  156.000;  219.000
412.960;  -91.425; -785.000; -784.000
413.086; -110.350; -743.000; -701.000
413.212;  138.300;  604.000;  578.000
413.339;  -83.225; -685.000; -701.000
413.465;  -39.825; -364.000; -310.000
413.591; -103.875; -757.000; -474.000
413.717;  -51.950; -358.000; -366.000
413.843; -133.675; -839.000; -861.000
413.969;  -59.125;  -47.000; -292.000
414.096; -101.700; -679.000; -679.000
414.222;   -8.275;  -33.000;   85.000
414.348;  -77.025; -652.000; -385.000
414.474;   30.225;   38.000;  -52.000
414.600;  -27.175; -126.000; -144.000
414.726;   -8.575;  -96.000;  -55.000
414.852;  -34.550; -365.000; -342.000
414.978;   39.250;  104.000;  -18.000
415.104;   49.650;   38.000;   80.000
415.230;   45.800; -329.000; -330.000
415.356;   68.075; -409.000; -514.000
415.482;  250.625;   13.000;  -35.000
415.608;  415.125; -247.000; -323.000
415.734; 1335.625;   67.000;   38.000
415.860;27385.675; -875.000; -767.000
415.986;22984.800; -685.000; -607.000
416.111; 2129.250; -798.000; -652.000
416.237;  464.875; -424.000; -571.000
416.363; 1531.025; -765.000; -733.000
416.489; 6362.375; -324.000; -251.000
416.615;  872.700; -707.000; -742.000
416.741;   45.800; -677.000; -784.000
416.866;  -66.200; -673.000; -736.000
416.992;  -94.800; -801.000; -818.000
417.118;  -24.550;  -41.000;  -80.000
417.244;  -54.925; -798.000; -531.000
417.369;  -75.950; -801.000; -612.000
417.495;    4.800; -325.000; -254.000
417.621;  -83.825;-1015.000; -803.000
417.746;   10.775; -579.000; -572.000
417.872;   62.375; -254.000; -144.000
417.998;  124.400; -515.000; -530.000
418.123; 1450.125;-1073.000; -845.000
418.249; 8172.575; -512.000; -601.000
418.374; 1430.675; -916.000; -824.000
418.500;  227.200; -383.000; -482.000
418.626;  170.050;   70.000;  -59.000
418.751;  158.275; -549.000; -448.000
418.877;  291.925; -637.000; -643.000
419.002; 2439.150; -688.000; -560.000
419.128;18374.075; -930.000; -721.000
419.253; 5291.825; -967.000; -837.000
419.379;  724.275; -391.000; -338.000
419.504;  548.225;  325.000;  415.000
419.629;  770.525; -393.000; -212.000
419.755; 4815.350; -317.000; -254.000
419.880;31636.700;  -98.000;   67.000
420.006;16454.625; -280.000; -221.000
420.131;41986.800; -662.000; -775.000
420.256; 6985.200; -315.000; -316.000
420.382;  957.200; -665.000; -687.000
420.507;  157.425; -649.000; -778.000
420.632;   60.125; -337.000; -339.000
420.758;  103.825; -251.000; -425.000
420.883;  -90.650; -876.000; -672.000
421.008; -100.800; -775.000; -619.000
421.133;  -89.875; -509.000; -467.000
421.259;  -42.325; -325.000; -259.000
421.384; -129.075; -834.000; -693.000
421.509;  -97.900;-1052.000; -862.000
421.634;  399.675; -936.000; -820.000
421.759;  216.600; -359.000; -327.000
421.885;  -76.100; -717.000; -656.000
422.010;  -89.100; -673.000; -542.000
422.135; -144.375; -695.000; -727.000
422.260;   19.450;  340.000;  280.000
422.385;  -31.600;   12.000;  -98.000
422.510;    7.275;  151.000;  -26.000
422.635;  -29.875;  -87.000;  -43.000
422.760;    7.650; -766.000; -791.000
422.885;   34.500;  -57.000;  -80.000
423.010;  -29.900; -112.000; -169.000
423.135;  -91.875; -481.000; -561.000
423.260;  -25.075; -150.000; -245.000
423.385;   34.725;  476.000;  222.000
423.510;   18.425;   71.000;  -22.000
423.635;   13.725;  133.000;   45.000
423.760;   58.175;  383.000;  328.000
423.885;   26.250;  336.000;  391.000
424.010;    9.725;  -68.000;  -13.000
424.135;  -21.325;    5.000;  -33.000
424.259;  -68.375; -654.000; -457.000
424.384;  -49.000; -279.000; -272.000
424.509;  -15.475; -260.000; -186.000
424.634;  -98.350; -761.000; -623.000
424.759;  -33.275; -688.000; -544.000
424.883;    2.075; -506.000; -527.000
425.008;  198.500; -502.000; -410.000
425.133; 2726.800; -679.000; -653.000
425.258; 1500.700; -517.000; -381.000
425.382;  565.025; -867.000; -774.000
425.507; 1423.550; -487.000; -543.000
425.632;  388.975; -802.000; -663.000
425.756;  618.875; -256.000; -146.000
425.881; 8668.725; -831.000; -857.000
426.006;26990.875; -604.000; -355.000
426.130; 4588.375; -696.000; -508.000
426.255;  628.050; -611.000; -491.000
426.379;  255.600; -189.000; -577.000
426.504;  498.950;  660.000;  544.000
426.629; 5738.875; -519.000; -466.000
426.753; 4581.200;   64.000;  -46.000
426.878;  566.350; -252.000; -288.000
427.002;  321.925; -651.000; -668.000
427.127; 1949.875;  -35.000; -158.000
427.251;16184.600;  372.000;  401.000
427.375; 5377.075; -191.000; -173.000
427.500; 1487.025; -616.000; -610.000
427.624;  502.400; -234.000; -400.000
427.749;  145.950; -216.000; -225.000
427.873;   12.225; -499.000; -412.000
427.997;  -34.025; -222.000; -230.000
428.122;   63.225;  795.000;  703.000
428.246;   24.300;  433.000;  434.000
428.371; -134.025; -869.000; -773.000
428.495;  -88.650; -624.000; -646.000
428.619;  -42.625; -186.000; -117.000
428.743;   -6.450;   65.000;  132.000
428.868;  -66.900; -732.000; -643.000
428.992;  625.175; -219.000; -326.000
429.116;  286.525; -329.000; -357.000
429.240;  174.325;  419.000;  426.000
429.365;  -28.275; -454.000; -574.000
429.489;  -52.100; -638.000; -647.000
429.613;   37.050; -236.000; -177.000
429.737;  100.350; -563.000; -432.000
429.861;  380.825; -247.000; -133.000
429.985; 7537.100; -425.000; -305.000
430.109; 9745.050; -770.000; -908.000
430.234; 1241.000;   76.000;  -50.000
430.358;  166.500; -250.000; -160.000
430.482;  -23.475; -672.000; -564.000
430.606;  -64.050; -655.000; -375.000
430.730;  -29.875; -437.000; -388.000
430.854;  -42.525; -909.000; -835.000
430.978;  -70.625; -795.000; -764.000
431.102;  -67.450; -499.000; -422.000
431.226;  -94.775; -874.000; -815.000
431.350;   38.875;  345.000;  422.000
431.474;  -67.125; -661.000; -373.000
431.597; -161.900;-1060.000; -848.000
431.721;  -68.600; -276.000; -267.000
431.845; -117.925; -704.000; -472.000
431.969;  -76.375; -304.000; -349.000
432.093;  -90.800; -395.000; -317.000
432.217;  -11.525;   32.000;   82.000
432.341;  -83.825; -523.000; -518.000
432.464;   -3.325;   96.000;   40.000
432.588;    0.975; -401.000; -329.000
432.712;   47.650;  -52.000;  -52.000
432.836;   50.600;  213.000;  263.000
432.959;   16.125; -372.000; -311.000
433.083;  145.800;   11.000;    2.000
433.207;  552.975;  285.000;  930.000
433.330; 7057.050; -391.000; -200.000
433.454; 9997.125; -654.000; -638.000
433.578; 5538.150;  583.000;  278.000
433.701; 1221.425; -623.000; -675.000
433.825;  150.125; -292.000; -299.000
433.949;   79.950;   28.000;  -72.000
434.072;   -6.550; -410.000; -323.000
434.196;   -1.875; -309.000; -117.000
434.319; 3556.625;25482.000;25124.000
434.443;  823.575; -656.000; -603.000
434.566; 3805.000;  281.000;   62.000
434.690;  848.225; -637.000; -383.000
434.813;  167.800; -251.000; -173.000
434.937;  -19.300; -569.000; -696.000
435.060;  -53.600; -423.000; -332.000
435.184;   59.475; -492.000; -217.000
435.307;   35.200;  159.000;  102.000
435.431;  -21.975;  -40.000;   24.000
435.554;  -64.275; -399.000; -240.000
435.677;  -90.600; -350.000; -258.000
435.801;  -58.600;  -25.000;   49.000
435.924;  -17.775;    1.000;  -67.000
436.048; -130.875;-1019.000; -732.000
436.171;  -59.225; -240.000;  -66.000
436.294;  -12.375; -248.000; -229.000
436.417;  211.275; -963.000; -849.000
436.541;  -27.000; -814.000; -840.000
436.664;  -34.550; -242.000; -316.000
436.787;  -26.375;   13.000;  113.000
436.910; -105.850; -792.000; -422.000
437.034;   -4.675;  142.000;  143.000
437.157;   27.425;  -11.000;    0.000
437.280;  -71.375; -392.000; -292.000
437.403; -115.550; -982.000; -869.000
437.526;  153.325; -903.000; -865.000
437.649;  933.250; -505.000; -332.000
437.772;  122.125; -692.000; -540.000
437.896;   57.525;  700.000;  544.000
438.019;  -96.800; -758.000; -503.000
438.142;  -83.375; -596.000; -506.000
438.265; -117.650; -639.000; -670.000
438.388;   95.400; -520.000; -410.000
438.511;  -26.625; -597.000; -394.000
438.634;  -68.700; -247.000; -125.000
438.757; -130.125; -693.000; -619.000
438.880;  -46.975;  -34.000;  -57.000
439.003;  -98.400; -417.000; -437.000
439.126;  -74.550; -287.000; -167.000
439.248;  -62.225;  -98.000; -139.000
439.371;  -40.625;    9.000;  -53.000
439.494;    9.100;  510.000;  439.000
439.617;  -50.250;   65.000;  -88.000
439.740; -170.275; -968.000; -816.000
439.863; -130.750; -755.000; -595.000
439.986; -112.575; -476.000; -431.000
440.108;  -27.375; -161.000; -112.000
440.231; -160.700; -950.000; -836.000
440.354;  -52.075;  -64.000; -150.000
440.477;  -82.225; -566.000; -542.000
440.599;  -70.550; -200.000; -225.000
440.722; -129.050; -709.000; -586.000
440.845;   53.400;  751.000;  928.000
440.968; -120.275; -415.000; -311.000
441.090;  -61.250; -199.000;  -33.000
441.213; -171.600;-1021.000; -825.000
441.336;  -52.000; -159.000;   -5.000
441.458; -104.825; -549.000; -396.000
441.581; -106.550; -628.000; -629.000
441.703;  -70.850; -152.000;   13.000
441.826; -105.975; -557.000; -400.000
441.948;  -52.850;   56.000;   51.000
442.071;   20.175;  555.000;  424.000
442.193; -125.350; -531.000; -485.000
442.316;    5.625;  152.000;   97.000
442.438;   71.800; -233.000;  -10.000
442.561;   74.450;  272.000;  262.000
442.683;  161.575; -809.000; -522.000
442.806;  474.800;   -8.000;   74.000
442.928;  -58.200; -859.000; -604.000
443.051;  -62.400; -577.000; -373.000
443.173;  -98.700; -341.000; -339.000
443.295;  -80.700; -263.000; -371.000
443.418;  -65.675; -321.000;  -29.000
443.540;  -34.475; -106.000;   -4.000
443.662; -125.775; -563.000; -465.000
443.785;  -19.600;  335.000;  199.000
443.907; -104.000; -362.000; -208.000
444.029; -127.425; -767.000; -494.000
444.152; -130.125; -644.000; -554.000
444.274;  -46.400;  -18.000;  -24.000
444.396; -116.300; -461.000; -221.000
444.518; -129.350; -691.000; -454.000
444.640; -103.900; -268.000; -111.000
444.763;  -26.475;  388.000;  249.000
444.885; -125.025; -432.000; -392.000
445.007;  -40.925;   35.000;   86.000
445.129; -115.475; -610.000; -515.000
445.251; -105.450; -372.000; -439.000
445.373; -138.950; -537.000; -386.000
445.495;   -9.800;  242.000;  350.000
445.617;   40.500;  853.000;  753.000
445.739;  -56.325; -215.000;  -97.000
445.861;  -64.200; -245.000; -112.000
445.984;  -66.900; -267.000; -101.000
446.105;    1.425; -418.000; -251.000
446.227;  206.425; -176.000;  -19.000
446.349;  -58.675; -358.000; -249.000
446.471; -101.775; -615.000; -448.000
446.593;  -90.675; -316.000;   19.000
446.715;  -36.650;  -67.000;   41.000
446.837;   34.675;  697.000;  832.000
446.959; -110.350; -457.000; -478.000
447.081; -139.225; -628.000; -518.000
447.203;   38.525;  862.000;  834.000
447.325;  -96.650; -270.000;   42.000
447.446;   -5.775;  286.000;  530.000
447.568; -158.125; -921.000; -803.000
447.690;  -79.875; -236.000; -245.000
447.812; -153.400; -798.000; -519.000
447.933;  -21.725;  155.000;  127.000
448.055;  -57.625; -306.000; -261.000
448.177;   44.025;   31.000;   79.000
448.299;  -67.250; -935.000; -727.000
448.420;  -17.525;  -25.000;  159.000
448.542;  -47.850;   -3.000;   33.000
448.664;  -19.150;  109.000;  322.000
448.785;  -38.150;  265.000;   83.000
448.907;  -98.425; -614.000; -353.000
449.028;  -95.775; -771.000; -471.000
449.150;   46.050;  492.000;  589.000
449.272; -180.650;-1044.000; -913.000
449.393;   12.375;  612.000;  694.000
449.515; -140.650; -634.000; -581.000
449.636;  -61.975; -264.000; -155.000
449.758;   56.475;  763.000;  622.000
449.879;  -71.150; -498.000; -396.000
450.001;  -81.050; -149.000;  -49.000
450.122;  -23.500;  -95.000;  162.000
450.244;  -35.000;   37.000;  364.000
450.365;  -62.575; -495.000; -301.000
450.486;  -21.875;   80.000;  268.000
450.608;   25.900;  393.000;  326.000
450.729;   97.650;  578.000;  645.000
450.850;   75.275; -574.000; -466.000
450.972; 1090.525; -552.000; -389.000
451.093; 7240.600;  190.000;  588.000
451.214; 3861.225; -516.000; -337.000
451.336;  675.450;  773.000;  579.000
451.457;  101.175;  264.000;  393.000
451.578;  -11.325; -118.000;  -74.000
451.699; -107.625; -546.000; -540.000
451.821;  -58.600; -284.000;  -50.000
451.942;    8.125;  278.000;  285.000
452.063;   61.100;  228.000;  419.000
452.184;  764.450;  -54.000;  -49.000
452.305; 1644.575;  103.000;  170.000
452.427;  295.700; -549.000; -301.000
452.548;   -1.100;   23.000;   79.000
452.669;  -72.125; -257.000;  -89.000
452.790;  -42.325;    3.000;  -18.000
452.911;  -17.100;  195.000;  259.000
453.032;  -67.825; -289.000;  -60.000
453.153;  -53.725;  -29.000;   81.000
453.274;   52.650;  737.000;  868.000
453.395;  -64.175;  -51.000;  175.000
453.516;   15.100; 1317.000; 1388.000
453.637; -101.725; -205.000; -150.000
453.758;  -56.150;   15.000;   69.000
453.879; -106.850; -462.000; -250.000
454.000;   68.575; 1086.000;  948.000
454.121; -133.575; -554.000; -326.000
454.242; -103.250; -599.000; -383.000
454.362;  -61.225;  -99.000;  114.000
454.483;   -1.825; -309.000; -229.000
454.604;   57.650;  512.000;  580.000
454.725; -115.775; -627.000; -555.000
454.846; -118.450; -474.000; -406.000
454.967;  -25.150;  230.000;  539.000
455.087;  -47.500;  179.000;  153.000
455.208;   10.950;  554.000;  856.000
455.329;  -64.250;  -22.000;   82.000
455.450;   59.275;  473.000;  633.000
455.570;  -63.050; -234.000; -211.000
455.691;  -36.550;  201.000;  407.000
455.812; -100.700; -270.000;  -92.000
455.932;  -48.650;  107.000;  -97.000
456.053;  -79.900;   36.000;   24.000
456.173; -107.975; -433.000; -355.000
456.294; -126.625; -476.000; -303.000
456.415;  -56.775;  -73.000;   70.000
456.535;  -41.750;  297.000;  273.000
456.656;  -41.050;  132.000;  240.000
456.776;  -73.975;    3.000;  298.000
456.897;  -14.550;  308.000;  513.000
457.017;  -71.450; -153.000;   -3.000
457.138;  -85.700; -402.000; -249.000
457.258;  -41.500;  263.000;  224.000
457.379;  -20.750;  509.000;  521.000
457.499;  -34.225;  443.000;  432.000
457.620; -102.250; -407.000; -231.000
457.740;  -84.225; -132.000;  -11.000
457.860;  -42.600;   87.000;   44.000
457.981;  -37.350;  132.000;  124.000
458.101;  -62.075;  -89.000;   40.000
458.221;  -10.400;  336.000;  402.000
458.342;  -65.300;   -4.000;  -37.000
458.462;   31.725;  617.000;  352.000
458.582;    4.400; -302.000; -294.000
458.703;   30.850;  303.000;  154.000
458.823;    9.075;   22.000;  163.000
458.943;   50.875;  341.000;  467.000
459.063;   35.475; 1124.000;  192.000
459.183;  -14.375;  328.000;  313.000
459.304;   17.525;  315.000;  517.000
459.424;  -40.200; -246.000;  -89.000
459.544;  457.650;  388.000;  764.000
459.664; 1209.100;  499.000;  506.000
459.784;  510.175; 1004.000; 1175.000
459.904;   81.800;  867.000;  744.000
460.024;   57.000;  867.000;  684.000
460.144;  -13.725;  449.000;  554.000
460.264;  -23.300;  515.000;  327.000
460.385;  -91.175; -145.000; -119.000
460.505;   37.675;  905.000;  858.000
460.625;  -85.000;  -17.000;  -68.000
460.745;  -26.650;  396.000;  541.000
460.864;  -31.100;  153.000;  469.000
460.984;   53.300;  499.000;  573.000
461.104;  165.750; 1656.000; 1775.000
461.224;   20.500;  657.000;  650.000
461.344;  -45.350;  431.000;  360.000
461.464;  -33.750;  258.000;  513.000
461.584;  -36.125;  283.000;  466.000
461.704;  -54.825;   58.000;  108.000
461.824;  -68.300;  238.000;  259.000
461.943;  -32.050;  191.000;  130.000
462.063;  -80.875;    2.000;  324.000
462.183;   25.325;  639.000;  717.000
462.303;   82.125; 1678.000; 1230.000
462.422;   18.225;  781.000;  840.000
462.542;  -37.000;  271.000;  391.000
462.662;   52.500;  353.000;  380.000
462.782;  333.600;  833.000;  572.000
462.901;  718.300;  545.000;  717.000
463.021;  386.375; 1702.000; 1638.000
463.141;    1.300;  337.000;  770.000
463.260;  -23.050;  614.000;  474.000
463.380;   14.725;  902.000;  884.000
463.499;  -38.525;  342.000;  332.000
463.619;  -21.650;  581.000;  559.000
463.738;  103.250; 1644.000;  903.000
463.858;   17.300;  657.000;  811.000
463.978;  -28.400;  542.000;  396.000
464.097;   63.250;  921.000; 1114.000
464.217;  139.275; 1196.000; 1143.000
464.336;  128.725; 1068.000; 1130.000
464.455;  -33.950;  328.000;  659.000
464.575;    7.075;  597.000;  602.000
464.694;  123.650; 1204.000; 1179.000
464.814;  133.625; 1190.000; 1138.000
464.933;   82.725; 1095.000; 1027.000
465.052;   91.100; 1412.000; 1054.000
465.172;   61.125;  922.000;  799.000
465.291;  108.475; 1376.000; 1320.000
465.410;    4.975;  462.000;  735.000
465.530;   85.850; 1355.000; 1310.000
465.649;   48.025; 1209.000; 1273.000
465.768;  137.850; 1673.000; 1508.000
465.888;   77.200;  941.000; 1174.000
466.007;  100.650; 1335.000; 1440.000
466.126;   -8.375;  721.000;  641.000
466.245;   50.150; 1176.000; 1187.000
466.364;   20.325;  950.000; 1060.000
466.484;   48.525; 1024.000; 1213.000
466.603;   22.500; 1101.000; 1222.000
466.722;  103.100; 1490.000; 1769.000
466.841;   72.725; 1151.000; 1401.000
466.960;   45.975; 1069.000;  972.000
467.079;  133.350; 1971.000; 1786.000
467.198;   53.700; 1238.000; 1181.000
467.317;   83.675; 1768.000; 1162.000
467.436;   81.775; 1709.000; 1261.000
467.555;  117.500; 1796.000; 1746.000
467.674;   67.500; 1227.000; 1329.000
467.793;   54.450; 1376.000; 1374.000
467.912;   79.150; 1658.000; 1539.000
468.031;  142.075; 2038.000; 1930.000
468.150;  136.625; 1842.000; 1837.000
468.269;  190.400; 2313.000; 2090.000
468.388;  180.125; 2168.000; 2339.000
468.507;  242.700; 2884.000; 2903.000
468.626;  230.825; 2555.000; 2541.000
468.744;  134.975; 2018.000; 2174.000
468.863;  204.250; 2312.000; 2523.000
468.982;   90.725; 1503.000; 1555.000
469.101;  213.600; 2788.000; 2692.000
469.220;  152.300; 2333.000; 2176.000
469.338;  263.275; 2935.000; 3051.000
469.457;  197.450; 2719.000; 2545.000
469.576;  338.725; 3953.000; 3784.000
469.695;  238.900; 2877.000; 3066.000
469.813;  398.675; 4148.000; 4192.000
469.932;  401.350; 4255.000; 4485.000
470.051;  431.175; 4075.000; 4161.000
470.169;  995.450; 4470.000; 4338.000
470.288; 1944.875; 4700.000; 4809.000
470.406; 1144.925; 5059.000; 5194.000
470.525;  663.500; 6101.000; 5787.000
470.644;  637.375; 6847.000; 6794.000
470.762;  803.475; 8397.000; 7873.000
470.881;  887.650; 8651.000; 8464.000
470.999; 1045.400; 9685.000; 9151.000
471.118; 1091.275;11174.000;10711.000

