
Integration time [ms]: 100.000
Averaging Nr. [scans]: 40
Smoothing Nr. [pixels]: 0
Data measured with spectrometer [name]: 2101012U2
Wave   ;Sample   ;Dark     ;Reference
[nm]   ;[counts] ;[counts] ;[counts] 

197.733;   42.225;  516.000;  404.000
197.879;  -86.025; -610.000; -634.000
198.025;  -45.150; -475.000; -420.000
198.171;  -60.500; -602.000; -612.000
198.317;  -37.675; -401.000; -316.000
198.463;  -49.250; -655.000; -404.000
198.609;   17.050;  181.000; -137.000
198.755;  -71.850; -644.000; -410.000
198.901;  -60.275; -505.000; -424.000
199.047;  -71.075; -615.000; -488.000
199.193;  -35.675; -230.000; -468.000
199.339;  -47.550; -222.000; -369.000
199.485;   38.350;  330.000;  271.000
199.631;   14.125;  227.000;  310.000
199.777;  -45.775; -466.000; -398.000
199.923;  -58.400; -610.000; -424.000
200.069;   -2.825; -141.000;  -58.000
200.215;   61.225;  128.000;  453.000
200.361;   35.100;  243.000;  477.000
200.507;  -57.375; -600.000; -373.000
200.653;  -20.625; -371.000; -194.000
200.798;  -35.675; -215.000; -125.000
200.944;   -6.750; -146.000;  -41.000
201.090;   27.800;   61.000;  222.000
201.236;    5.075; -116.000; -158.000
201.382;  122.425;  874.000;  903.000
201.528;    5.600;  -58.000;  -48.000
201.674;  -41.650; -386.000; -293.000
201.819;  -61.400; -540.000; -439.000
201.965;  -81.825; -699.000; -447.000
202.111;  -21.675; -273.000; -226.000
202.257;  -36.575; -250.000; -238.000
202.402;    2.375;   13.000;  -36.000
202.548;  -26.375; -169.000; -116.000
202.694;   83.925;  410.000; -183.000
202.840;  -71.850; -603.000; -531.000
202.985;  -65.675; -681.000; -639.000
203.131; -100.200; -832.000; -666.000
203.277;  -25.200; -199.000; -262.000
203.423;  -50.350; -434.000; -520.000
203.568;  -27.550; -462.000; -237.000
203.714;  -58.300; -535.000; -542.000
203.860;  -88.400; -682.000; -641.000
204.005;   19.925;  112.000;  167.000
204.151;   54.025;  561.000;  556.000
204.296;  -52.875; -354.000; -221.000
204.442;  -79.200; -600.000; -547.000
204.588;  -76.775; -592.000; -579.000
204.733;   15.200;  178.000;  168.000
204.879; -130.525;-1018.000; -822.000
205.025;    8.675;  -99.000;  126.000
205.170;    3.575;  -17.000;   94.000
205.316;   78.775;  438.000;  661.000
205.461;  -82.725; -698.000; -554.000
205.607;   73.550;  609.000;  665.000
205.752;  -84.450; -626.000; -551.000
205.898;  -46.000; -501.000; -391.000
206.043;  -70.275; -578.000; -506.000
206.189;  -36.000; -243.000; -285.000
206.334;   73.275;  554.000;  606.000
206.480;   91.550;  409.000;  239.000
206.625;  -70.025; -529.000; -552.000
206.771;  -39.450; -451.000; -373.000
206.916;  -35.100; -210.000; -537.000
207.062;  -70.900; -545.000; -591.000
207.207;  -56.075; -546.000; -443.000
207.353;   55.175;  185.000;  460.000
207.498;    9.375;  196.000;   85.000
207.643;  -48.375; -501.000; -370.000
207.789; -124.000;-1069.000; -910.000
207.934; -102.325; -665.000; -713.000
208.080;  -23.925; -154.000;   66.000
208.225;   -5.650;  -22.000;  -57.000
208.370;  -75.525; -727.000; -619.000
208.516;  -81.650; -741.000; -487.000
208.661;  -22.750; -127.000;  -69.000
208.806;  -17.025; -165.000; -171.000
208.952; -109.825;-1044.000; -731.000
209.097;   62.375;  378.000;  349.000
209.242;  -54.575; -307.000; -382.000
209.387;   53.800;  392.000;  350.000
209.533;  -49.975; -321.000; -350.000
209.678;   66.925;  472.000;  543.000
209.823;  -53.625; -408.000; -310.000
209.969; -100.575; -860.000; -757.000
210.114; -104.900; -907.000; -719.000
210.259;  -98.075; -939.000; -889.000
210.404;  -18.975; -171.000;  103.000
210.549;    8.875;  108.000;    3.000
210.695;  -16.625;   -3.000;  -95.000
210.840;   13.400;   94.000;   67.000
210.985;  -53.325; -484.000; -303.000
211.130;   67.950;  268.000;  406.000
211.275;    8.550;  207.000;  199.000
211.420;  -47.200; -300.000; -289.000
211.566;  -73.750; -536.000; -489.000
211.711;   28.825;  218.000;  157.000
211.856;  -54.350; -545.000; -519.000
212.001;    9.400;  151.000;   44.000
212.146;   13.825;  153.000;   49.000
212.291;  -17.925; -210.000; -186.000
212.436;  -21.700; -280.000;   -6.000
212.581;  -81.225; -685.000; -653.000
212.726;  -70.400; -487.000; -538.000
212.871;  -49.750; -552.000; -217.000
213.016; -137.675;-1172.000;-1029.000
213.161;   68.650;  406.000;  291.000
213.306;  -67.175; -435.000; -577.000
213.451;  -97.950; -778.000; -689.000
213.596;  -37.000; -455.000; -347.000
213.741;  -50.775; -448.000; -538.000
213.886;  -77.150; -498.000; -517.000
214.031;  -21.875; -294.000; -124.000
214.176;  -59.950; -408.000; -341.000
214.321;   -9.175; -296.000; -157.000
214.466;  -25.850; -163.000;  -43.000
214.611;   -4.675;  -61.000;  -10.000
214.756; -117.600; -948.000; -858.000
214.901;  -29.275; -388.000; -226.000
215.046; -125.550; -797.000; -825.000
215.191;   21.550;  128.000;   35.000
215.336;  -24.200; -157.000;  -19.000
215.480;  -72.975; -684.000; -505.000
215.625;  -19.450; -175.000;  -19.000
215.770;  -76.350; -757.000; -662.000
215.915;   -6.575;   -5.000;  -97.000
216.060;    9.300; -113.000;  -21.000
216.205; -102.950; -731.000; -779.000
216.349;  -83.250; -470.000; -533.000
216.494; -128.175; -939.000; -867.000
216.639; -121.325; -823.000; -888.000
216.784;  -91.150; -577.000; -525.000
216.929;   52.800;  392.000;  281.000
217.073;  -17.800; -244.000;  -31.000
217.218;    7.675;   78.000;  -47.000
217.363;  -81.725; -656.000; -618.000
217.507;  -72.075; -623.000; -588.000
217.652; -122.525; -845.000; -874.000
217.797;  -79.325; -708.000; -659.000
217.942; -109.425; -856.000; -720.000
218.086;   74.675;  608.000;  539.000
218.231;   -9.825; -174.000;  -26.000
218.376;  -36.600; -337.000; -229.000
218.520;   -4.175;  -41.000;   96.000
218.665;  -20.375; -338.000; -204.000
218.810;  -41.300; -275.000; -233.000
218.954;   22.200;  201.000;   35.000
219.099; -110.800; -713.000; -963.000
219.243;  -70.850; -589.000; -554.000
219.388;  -32.300; -264.000; -136.000
219.532;   -8.075; -116.000; -116.000
219.677;  -71.825; -564.000; -521.000
219.822;   -0.275;   33.000;   89.000
219.966;    5.300;   17.000;  -99.000
220.111;  -40.925; -328.000;  -40.000
220.255;  -90.225; -797.000; -750.000
220.400;  -31.025; -180.000; -146.000
220.544;  -72.875; -516.000; -450.000
220.689;  -49.625; -422.000; -451.000
220.833;  -30.600; -123.000;  -58.000
220.978;  -40.100; -393.000; -563.000
221.122;   29.350;  319.000;  307.000
221.267; -104.700; -906.000; -837.000
221.411;  -68.400; -478.000; -394.000
221.555;   -5.575; -104.000;  -23.000
221.700;  -49.450; -329.000; -222.000
221.844;   28.750;  255.000;  272.000
221.989;  -51.300; -328.000; -311.000
222.133;  -40.475; -289.000; -307.000
222.277;  -15.425;    5.000;   78.000
222.422;    8.050;  227.000;  113.000
222.566;  -29.800; -381.000; -214.000
222.711;  -60.825; -414.000; -479.000
222.855;  -90.675; -643.000; -586.000
222.999;  -79.475; -642.000; -717.000
223.144;  -31.325; -195.000; -194.000
223.288;   52.800;  423.000;  251.000
223.432;   21.550;  184.000;  230.000
223.576;   27.925;  152.000;  -21.000
223.721;   21.300;  364.000;  273.000
223.865;  -59.850; -472.000; -475.000
224.009;  218.775; 1673.000; 1631.000
224.153;  -71.725; -660.000; -671.000
224.298;  -72.125; -531.000; -489.000
224.442;  -17.550;  -74.000;  -33.000
224.586;  -10.250; -169.000; -106.000
224.730;  -86.825; -858.000; -670.000
224.875; -105.900; -739.000; -688.000
225.019;   18.250;  102.000;  188.000
225.163;   35.625;  208.000;  341.000
225.307;    3.825;   97.000;  -91.000
225.451;   44.975;  360.000;  481.000
225.595;   17.650;  264.000;  176.000
225.739;  -31.025; -170.000;  -94.000
225.884;    6.050;   86.000;    5.000
226.028;  -98.625; -760.000; -626.000
226.172;  -32.025; -260.000; -273.000
226.316; -124.900; -941.000; -902.000
226.460;  -63.675; -645.000; -493.000
226.604;  -47.725; -406.000; -400.000
226.748; -102.300; -836.000; -733.000
226.892;  -35.400; -227.000; -181.000
227.036;  -46.150; -537.000; -447.000
227.180;  -61.450; -551.000; -375.000
227.324;  -64.575; -561.000; -580.000
227.468; -115.725; -819.000; -717.000
227.612;   21.525;  242.000;  -28.000
227.756;  -93.725; -845.000; -698.000
227.900;   45.350;  342.000;  441.000
228.044;  -57.300; -509.000; -290.000
228.188;   49.450;  448.000;  568.000
228.332;  -89.000; -546.000; -472.000
228.476;  -24.625; -223.000; -149.000
228.620;  -24.675; -210.000; -150.000
228.764;   60.025;  431.000;  349.000
228.908;  -22.850; -155.000;   30.000
229.052;  -66.825; -615.000; -528.000
229.195;  -32.325; -172.000;   13.000
229.339;  -33.750; -235.000; -305.000
229.483;  -23.200;    5.000; -162.000
229.627;   -3.550; -156.000;  139.000
229.771;  -40.950; -218.000; -294.000
229.915;    4.300;  230.000;   79.000
230.059;  -95.225; -648.000; -663.000
230.202;  -44.675; -370.000; -317.000
230.346;  -15.500; -107.000;  107.000
230.490;  -70.075; -489.000; -521.000
230.634; -108.675; -736.000; -553.000
230.777;   71.725;  478.000;  509.000
230.921;  -52.200; -450.000; -359.000
231.065;  -52.975; -246.000; -286.000
231.209;   15.225;  261.000;  265.000
231.352;   18.325;   54.000;   40.000
231.496;   23.450;  568.000;  188.000
231.640;  -77.125; -693.000; -621.000
231.783;   54.575;  546.000;  525.000
231.927;  -47.175; -294.000; -365.000
232.071; -125.275; -962.000; -736.000
232.214; -124.850; -980.000; -764.000
232.358; -104.650; -683.000; -599.000
232.502;   -1.450;  -19.000;    7.000
232.645; -134.975;-1090.000; -927.000
232.789;  -27.625; -257.000; -218.000
232.933;  -44.300; -407.000; -224.000
233.076; -116.600;-1038.000; -897.000
233.220; -101.075; -752.000; -777.000
233.363;  -72.625; -669.000; -477.000
233.507;   55.050;  371.000;  129.000
233.650; -111.050; -764.000; -834.000
233.794;   41.500;  438.000;  461.000
233.938;  -69.175; -530.000; -362.000
234.081;  -21.375;  -93.000;   31.000
234.225;  -70.550; -631.000; -539.000
234.368; -107.850; -773.000; -723.000
234.512;  -51.875; -385.000; -299.000
234.655;  -80.175; -582.000; -555.000
234.798;  -63.900; -493.000; -466.000
234.942; -118.350; -884.000;-1002.000
235.085;  -66.475; -651.000; -443.000
235.229;  -76.000; -405.000; -410.000
235.372;  -39.375; -247.000; -191.000
235.516;  -62.375; -397.000; -321.000
235.659;   28.675;   92.000;  121.000
235.802;  -21.125;  -38.000;  -22.000
235.946;   15.925;  335.000;  215.000
236.089;   26.350;  126.000;  250.000
236.233;   37.075;  275.000;  298.000
236.376;  -40.200; -235.000; -378.000
236.519;  -39.875; -297.000; -319.000
236.663;  -34.150; -215.000; -117.000
236.806; -133.425;-1029.000; -999.000
236.949;   61.425;  543.000;  431.000
237.092;   58.475;  412.000;  391.000
237.236;  -91.125; -589.000; -502.000
237.379;   57.450;  352.000;  428.000
237.522; -109.225; -879.000; -768.000
237.666;  -22.200; -271.000;   18.000
237.809; -111.525; -851.000; -823.000
237.952;   37.500;  469.000;  271.000
238.095;  -71.825; -447.000; -442.000
238.238;   84.350;  688.000;  700.000
238.382;   -8.750;  166.000;  103.000
238.525;  -82.075; -598.000; -511.000
238.668; -140.300;-1060.000; -985.000
238.811;  -75.225; -638.000; -643.000
238.954;  -75.150; -483.000; -334.000
239.097;   77.050;  617.000;  664.000
239.241;   19.475;  394.000;  326.000
239.384;  -33.550; -254.000; -214.000
239.527;  -70.225; -424.000; -224.000
239.670; -143.075; -994.000;-1091.000
239.813;  -96.725; -696.000; -658.000
239.956;   81.375;  579.000;  473.000
240.099; -119.200; -778.000; -725.000
240.242;   51.375;  428.000;  432.000
240.385;   44.800;  466.000;  450.000
240.528;  -79.175; -706.000; -473.000
240.671;   12.450;  189.000;  134.000
240.814;  -52.725; -441.000; -158.000
240.957; -108.425; -767.000; -578.000
241.100;  -92.825; -779.000; -755.000
241.243; -136.375;-1234.000; -893.000
241.386;  -65.475; -508.000; -379.000
241.529;  -98.350; -735.000; -547.000
241.672;  -71.450; -566.000; -495.000
241.815; -119.450; -832.000; -808.000
241.958;  -30.725; -125.000; -182.000
242.101;  -89.775; -545.000; -390.000
242.244;  -40.800; -270.000; -325.000
242.387;  -41.850; -304.000; -246.000
242.530;   48.600;  470.000;  134.000
242.673;  -42.925; -381.000; -309.000
242.815; -117.600; -925.000; -899.000
242.958;  -73.575; -482.000; -381.000
243.101;    1.700;  132.000;  187.000
243.244;  -79.075; -564.000; -521.000
243.387;  -49.100; -313.000; -316.000
243.530;  -97.275; -657.000; -674.000
243.672;    2.775;   43.000;  -92.000
243.815;  -59.125; -355.000; -283.000
243.958;  -17.075;   98.000;  -26.000
244.101;   -0.900;   59.000;  -16.000
244.243;  -15.925;  -47.000;  101.000
244.386; -104.950; -761.000; -630.000
244.529;  -28.900; -132.000; -139.000
244.672; -160.725;-1154.000; -951.000
244.814;  -93.725; -621.000; -794.000
244.957;  -53.825; -380.000; -304.000
245.100;  -67.325; -489.000; -489.000
245.242;  -67.425; -387.000; -374.000
245.385;  -15.100;  -59.000;  -39.000
245.528; -116.225; -871.000; -705.000
245.670;   74.525;  612.000;  634.000
245.813;  -78.975; -599.000; -547.000
245.956;  -29.500; -324.000; -275.000
246.098;  -86.075; -508.000; -650.000
246.241;    5.925;  194.000;   48.000
246.383;  -12.925; -119.000;  -73.000
246.526;  -74.125; -454.000; -525.000
246.669; -119.275; -889.000; -780.000
246.811;   13.800;  172.000;   -1.000
246.954;  -65.025; -512.000; -426.000
247.096;  -23.150;  -84.000;   -6.000
247.239;  -66.775; -482.000; -445.000
247.381;  -63.050; -647.000; -488.000
247.524;   87.225;  645.000;  679.000
247.666;  -19.750;   58.000;   11.000
247.809; -114.100; -887.000; -691.000
247.951;  -18.225;  -75.000;  138.000
248.094;   24.125;  432.000;  308.000
248.236; -155.500;-1262.000;-1238.000
248.378;   -3.800; -356.000;  -81.000
248.521;  -19.325; -334.000; -337.000
248.663;  -37.250; -236.000; -267.000
248.806;  -30.450; -300.000; -266.000
248.948;  -88.775; -886.000; -763.000
249.090;  -52.825; -428.000; -398.000
249.233;  -61.300; -344.000; -381.000
249.375;  -68.600; -474.000; -451.000
249.518;  -20.475;  -83.000; -133.000
249.660;  -11.700; -103.000;    3.000
249.802; -164.250;-1303.000;-1189.000
249.945;  -84.475; -612.000; -540.000
250.087; -120.500; -834.000; -768.000
250.229;  -49.375; -362.000; -480.000
250.371;  -81.975; -494.000; -439.000
250.514;  -50.225; -310.000; -244.000
250.656;  -60.775;   69.000;  102.000
250.798; -118.325; -849.000; -800.000
250.940;  -57.150; -322.000; -322.000
251.083;  -29.000; -335.000; -111.000
251.225;   62.725;  338.000;  310.000
251.367;  -35.750; -274.000; -373.000
251.509;  -48.275; -265.000; -210.000
251.651;  -97.750; -731.000; -671.000
251.794;   44.050;  538.000;  632.000
251.936; -113.300; -821.000; -747.000
252.078;  -73.650; -540.000; -461.000
252.220;  -76.675; -645.000; -477.000
252.362;   75.000;  344.000;  462.000
252.504;  -75.875; -677.000; -584.000
252.646; -118.000; -875.000; -722.000
252.788;  -15.800;   14.000; -128.000
252.931;  -31.600; -257.000; -253.000
253.073;  -39.400; -376.000; -317.000
253.215;  -13.850;  141.000;  122.000
253.357;  -16.875;   82.000; -153.000
253.499;  -43.850; -374.000; -234.000
253.641;  -78.125; -749.000; -594.000
253.783;  -91.450; -609.000; -527.000
253.925;  -88.350; -586.000; -591.000
254.067; -116.725; -744.000; -667.000
254.209;  -37.425; -391.000; -259.000
254.351; -133.050; -865.000; -883.000
254.493;  -53.300; -441.000; -417.000
254.635; -124.775; -936.000; -818.000
254.777;  -87.675; -752.000; -687.000
254.918;  -65.300; -512.000; -430.000
255.060;  -57.225; -551.000; -395.000
255.202;  -70.600; -473.000; -261.000
255.344;  -73.925; -658.000; -455.000
255.486;  -71.850; -471.000; -406.000
255.628; -107.275; -780.000; -781.000
255.770;  -97.625; -676.000; -536.000
255.912;  -70.000; -559.000; -468.000
256.053;  -84.825; -730.000; -508.000
256.195;  141.700; 1008.000;  903.000
256.337; -105.450; -861.000; -595.000
256.479;   53.625;  532.000;  416.000
256.621;  -51.300; -394.000; -212.000
256.762;  -90.475; -789.000; -742.000
256.904;   50.175;  485.000;  487.000
257.046;  -51.900; -381.000; -271.000
257.188;  -32.300; -351.000; -264.000
257.329;  -71.875; -525.000; -464.000
257.471; -107.600; -939.000; -807.000
257.613;  -64.675; -584.000; -498.000
257.755; -155.100;-1073.000; -982.000
257.896;   37.325;  286.000;  392.000
258.038;  -60.800; -403.000; -352.000
258.180;  -42.350; -354.000; -279.000
258.321;  -75.775; -581.000; -457.000
258.463;  -14.475;  -71.000;  133.000
258.605;  -90.975; -562.000; -570.000
258.746;  -96.025; -886.000; -772.000
258.888; -147.250;-1026.000;-1020.000
259.029;   10.500;  121.000;   -8.000
259.171;  -90.200; -614.000; -550.000
259.313;  -10.925;  -49.000;  -47.000
259.454;  -89.000; -536.000; -414.000
259.596;  -52.400; -483.000; -390.000
259.737;  -74.800; -590.000; -474.000
259.879;   21.675;  217.000;  311.000
260.020;   83.500;  901.000;  636.000
260.162;  -42.700; -146.000; -253.000
260.303; -115.925; -768.000; -687.000
260.445;  -89.300; -609.000; -613.000
260.586;   15.400;  392.000;  157.000
260.728;  -49.525; -360.000; -248.000
260.869;  -69.125; -350.000; -343.000
261.011;   68.675;  706.000;  537.000
261.152;  -54.225; -479.000; -319.000
261.293;  -81.900; -576.000; -595.000
261.435;  -40.500; -219.000; -184.000
261.576;  -59.225; -455.000; -325.000
261.718;   42.875;  420.000;  470.000
261.859; -128.300; -940.000; -949.000
262.000; -129.175; -951.000;-1016.000
262.142;  -33.075;  -52.000;  -60.000
262.283; -111.525; -808.000; -691.000
262.424;  -86.225; -666.000; -625.000
262.566; -162.250;-1161.000; -983.000
262.707; -110.800; -840.000; -830.000
262.848; -123.475; -769.000; -726.000
262.990;  -58.175; -362.000; -345.000
263.131;   65.450;  650.000;  681.000
263.272;    5.750;  -61.000;  -41.000
263.413;  -80.050; -589.000; -561.000
263.555;  -61.250; -669.000; -143.000
263.696;  -81.200; -550.000; -641.000
263.837;  -61.050; -449.000; -551.000
263.978;  -17.975;   -5.000;  -77.000
264.119;  -54.675; -283.000; -264.000
264.261; -111.650; -847.000; -630.000
264.402;   -1.875;   33.000;   40.000
264.543;  -82.425; -509.000; -524.000
264.684;  -15.450;   61.000;  -50.000
264.825;  -77.475; -816.000; -538.000
264.966;  -10.500;  -84.000;  -67.000
265.107; -116.650; -646.000; -670.000
265.248; -120.850; -825.000; -812.000
265.390;  -14.675;  152.000;   -9.000
265.531;  -17.250; -238.000; -107.000
265.672;  -85.175; -557.000; -630.000
265.813;   59.225;  563.000;  439.000
265.954; -151.850; -959.000; -940.000
266.095;    0.125; -372.000; -322.000
266.236;  -97.700; -686.000; -548.000
266.377;  -34.925; -243.000; -297.000
266.518;  -68.075; -619.000; -547.000
266.659;    0.650;  170.000;  268.000
266.800;   -2.250;   83.000;   85.000
266.941;  -62.650; -487.000; -478.000
267.082;    8.075;  354.000;   99.000
267.223;  -60.275; -344.000; -273.000
267.364; -119.800; -892.000; -686.000
267.504;   -2.800;    3.000;  135.000
267.645;   -8.750;  160.000;   67.000
267.786;  -37.800; -147.000;  -86.000
267.927;  -73.450; -473.000; -379.000
268.068;  -11.225; -186.000;  -61.000
268.209;  -50.950; -175.000; -413.000
268.350;  -65.625; -388.000; -532.000
268.490;  -83.775; -648.000; -521.000
268.631;   15.350;  127.000;  225.000
268.772; -102.525; -874.000; -647.000
268.913;  -51.000; -328.000; -476.000
269.054;  -12.550; -117.000;   12.000
269.194;  -49.250; -418.000; -402.000
269.335; -158.875;-1137.000;-1074.000
269.476;  -20.075;   33.000;  -35.000
269.617;  -49.800; -347.000; -392.000
269.757;  -81.300; -713.000; -646.000
269.898; -100.175; -856.000; -613.000
270.039;  -64.725; -415.000; -405.000
270.180; -146.175; -952.000; -816.000
270.320;  -27.225; -190.000; -250.000
270.461;  -48.550; -277.000; -249.000
270.602;  -24.525; -186.000; -156.000
270.742; -115.775; -868.000; -943.000
270.883;  -52.250; -442.000; -390.000
271.023;  -67.150; -358.000; -357.000
271.164;  -68.425; -607.000; -528.000
271.305; -106.650; -666.000; -654.000
271.445;  -92.225; -722.000; -683.000
271.586;  -58.750; -462.000; -283.000
271.726;  -44.550; -397.000; -322.000
271.867;  -54.700; -594.000; -534.000
272.008;  182.525; -473.000; -285.000
272.148;  124.800;  462.000;  468.000
272.289;   15.575; -113.000; -181.000
272.429;    7.075;   19.000;  185.000
272.570;  -99.575; -633.000; -737.000
272.710; -101.600; -825.000; -775.000
272.851;   -9.825;  113.000; -130.000
272.991; -162.250;-1173.000;-1077.000
273.131;  -68.975; -419.000; -459.000
273.272;  -92.325; -683.000; -723.000
273.412;   -5.850; -143.000;  -31.000
273.553;  -66.875; -488.000; -507.000
273.693;  131.700;  913.000;  858.000
273.834;  -83.250; -894.000; -692.000
273.974;  -79.800; -664.000; -615.000
274.114; -114.475; -772.000; -560.000
274.255;   74.550;  414.000;  373.000
274.395;   -0.800; -180.000; -125.000
274.535;   31.725;  199.000;  350.000
274.676;   14.775;  225.000;   94.000
274.816;   -0.400;  110.000;   34.000
274.956;  -93.775; -624.000; -690.000
275.097;  -53.325;-1014.000; -922.000
275.237; -122.900; -913.000; -803.000
275.377;  -93.975; -778.000; -689.000
275.517; -152.300; -878.000; -937.000
275.658;  -48.875; -590.000; -555.000
275.798;  -84.775; -606.000; -413.000
275.938;   19.850;  215.000;  323.000
276.078;  -82.475; -626.000; -395.000
276.218;   -9.125;   99.000;  104.000
276.359; -125.450;-1026.000;-1024.000
276.499;  -69.900; -605.000; -446.000
276.639;  -33.250; -305.000; -151.000
276.779;  -62.075; -475.000; -357.000
276.919; -104.650; -783.000; -624.000
277.059;  -19.375; -261.000; -212.000
277.199;  -36.875; -357.000; -259.000
277.340;   35.950;  287.000;  175.000
277.480; -105.750; -840.000; -693.000
277.620;   21.550;  192.000;   16.000
277.760; -202.975;-1533.000;-1294.000
277.900;    8.950;  113.000;   33.000
278.040;    9.900;  137.000;  159.000
278.180;   22.350;  270.000;  170.000
278.320;    1.050;   21.000;   56.000
278.460;  -80.000; -443.000; -469.000
278.600;  -81.675; -708.000; -598.000
278.740;   38.475;  448.000;  224.000
278.880;  -50.150; -768.000; -791.000
279.020;  -17.800; -194.000; -144.000
279.160;  -96.700; -672.000; -595.000
279.300; -117.150; -926.000; -873.000
279.440;  -81.700; -709.000; -622.000
279.579;  -16.025;-1014.000; -929.000
279.719;  -51.025; -410.000; -394.000
279.859;   76.875;   -4.000;   41.000
279.999;   22.750; -208.000;  101.000
280.139;   -6.625; -435.000; -387.000
280.279;  -69.900; -708.000; -745.000
280.419;  -11.400; -229.000; -147.000
280.559;  -40.525; -259.000; -180.000
280.698;  -88.525; -790.000; -639.000
280.838;  -92.225; -778.000; -800.000
280.978;  -97.000; -846.000; -790.000
281.118; -125.150; -811.000; -704.000
281.257;    3.025;   24.000;    6.000
281.397; -114.750;-1094.000; -960.000
281.537;  -78.250; -599.000; -712.000
281.677;  -31.975; -150.000; -101.000
281.816;  -83.475; -700.000; -630.000
281.956;  -33.000; -193.000; -257.000
282.096;  -58.325; -539.000; -396.000
282.235; -108.675; -672.000; -638.000
282.375;  -31.750; -243.000;  -98.000
282.515; -107.650; -715.000; -707.000
282.654;   24.525;   29.000;  106.000
282.794;   24.175;  388.000;  244.000
282.934;  -60.675; -530.000; -491.000
283.073; -128.375;-1030.000; -857.000
283.213;  -60.850; -460.000; -467.000
283.353;  -25.275; -408.000; -349.000
283.492;  -35.550; -264.000; -296.000
283.632;  -47.450; -254.000; -168.000
283.771;  -84.175; -859.000; -730.000
283.911;  -57.525; -369.000; -260.000
284.050; -113.625; -794.000; -748.000
284.190; -159.975;-1229.000;-1096.000
284.329; -133.100;-1055.000; -964.000
284.469;  -64.500; -516.000; -591.000
284.608;  -53.800; -559.000; -598.000
284.748; -100.550; -614.000; -570.000
284.887;  -11.025;  -87.000;  -20.000
285.027; -131.750; -844.000; -892.000
285.166;  -39.100; -192.000; -249.000
285.306;   16.000; -116.000;  -33.000
285.445;  -43.400; -229.000; -343.000
285.584;  -85.975; -630.000; -494.000
285.724;  -53.200; -282.000; -322.000
285.863; -103.725; -857.000; -507.000
286.002;  -44.925; -366.000; -276.000
286.142; -104.050; -715.000; -622.000
286.281;  -70.125; -525.000; -493.000
286.420;  -85.850; -554.000; -417.000
286.560;   88.375;  653.000;  623.000
286.699; -140.900; -958.000; -912.000
286.838;  -76.800; -590.000; -591.000
286.978;  -94.225; -533.000; -537.000
287.117; -130.675;-1085.000; -950.000
287.256;  -28.300; -228.000; -211.000
287.395;  -39.475; -197.000; -378.000
287.535;  -43.475; -370.000; -298.000
287.674;  -68.375; -509.000; -484.000
287.813;   61.850;  661.000;  533.000
287.952; -131.925;-1010.000; -871.000
288.091; -149.950;-1049.000; -915.000
288.231;    2.850;   13.000;   15.000
288.370; -177.675;-1217.000;-1200.000
288.509;  -82.450; -728.000; -645.000
288.648;  -93.675; -770.000; -548.000
288.787;  -28.650; -243.000;  -87.000
288.926;  -58.675; -454.000; -475.000
289.065;   98.000;  859.000;  672.000
289.204;  -52.450; -377.000; -217.000
289.344;  -96.800; -791.000; -690.000
289.483;   38.175;  416.000;  304.000
289.622;  -28.875; -291.000; -149.000
289.761;  -29.525; -309.000; -166.000
289.900;  -99.550; -785.000; -626.000
290.039;  -26.600;  -12.000;  -95.000
290.178;  -43.575; -274.000; -180.000
290.317;  -79.050; -618.000; -479.000
290.456;  -65.450; -463.000; -451.000
290.595; -116.300; -961.000; -833.000
290.734; -136.175; -904.000; -891.000
290.873;  -70.675; -456.000; -420.000
291.011;  -96.750; -833.000; -843.000
291.150; -112.225; -770.000; -682.000
291.289;  -22.500; -343.000; -110.000
291.428;  -96.450; -599.000; -480.000
291.567;  -64.400; -370.000; -442.000
291.706;   -2.625;  109.000;  154.000
291.845;  -84.125; -597.000; -505.000
291.984; -166.925;-1234.000;-1061.000
292.122;   66.125;  602.000;  582.000
292.261;   45.900;  620.000;  463.000
292.400;    6.275; -144.000;  211.000
292.539; -124.175; -959.000; -813.000
292.678;  -53.325; -325.000; -300.000
292.816; -146.125;-1136.000; -965.000
292.955;  -93.075; -844.000; -684.000
293.094;  -35.975; -173.000; -337.000
293.233;  -54.350; -556.000; -400.000
293.371;  -42.050; -225.000;  -84.000
293.510; -112.750; -866.000; -780.000
293.649; -115.125; -959.000; -924.000
293.787;  -55.325;-1083.000;-1012.000
293.926;    1.825; -113.000;  -32.000
294.065;  -55.350; -379.000; -290.000
294.203;   41.300;  298.000;  406.000
294.342;    1.475;   74.000;  156.000
294.481; 6008.500;51180.000; -836.000
294.619;  -29.425; -425.000; -582.000
294.758; -138.625;-1230.000;-1137.000
294.896;   66.125; -125.000;    5.000
295.035; -116.475;-1040.000;-1006.000
295.174; -120.450;-1082.000; -954.000
295.312;  -35.025; -323.000; -203.000
295.451;   -9.100; -307.000; -428.000
295.589;  -72.400; -389.000; -518.000
295.728;   18.675; -292.000; -165.000
295.866;   -0.950;  -36.000;  -51.000
296.005;  -57.300; -584.000; -341.000
296.143;  -58.750; -558.000; -596.000
296.282; -106.025; -957.000; -881.000
296.420;  -73.325; -657.000; -557.000
296.559;  -78.625; -892.000; -633.000
296.697;   20.725; -847.000; -665.000
296.835;   70.925;-1141.000;-1002.000
296.974;   41.425;  -23.000;   39.000
297.112;   17.425; -443.000; -504.000
297.251;  -66.175; -815.000; -755.000
297.389;  105.600; -576.000; -438.000
297.527;   39.550; -145.000;  -83.000
297.666;  -48.675; -486.000; -438.000
297.804;  -65.250; -404.000; -264.000
297.942;   -9.475; -136.000; -161.000
298.081;   -7.400; -183.000;   63.000
298.219;   62.725;  -17.000;  -19.000
298.357;   55.650; -144.000;  -71.000
298.495;   37.225; -810.000; -812.000
298.634;   78.200;  245.000;  219.000
298.772;   60.750; -220.000; -338.000
298.910;  -34.050; -309.000; -182.000
299.048;  -10.550; -130.000; -153.000
299.187;  -42.975; -350.000; -250.000
299.325;   12.525;   52.000;  122.000
299.463;   52.225; -389.000; -299.000
299.601;  107.125; -327.000; -271.000
299.739;  -97.200; -908.000; -883.000
299.877;  -80.100; -791.000; -703.000
300.016;  -34.500;-1095.000; -935.000
300.154;  158.000;  -19.000; -161.000
300.292;   48.450; -428.000; -348.000
300.430;   33.475; -408.000; -291.000
300.568; -108.475; -940.000; -874.000
300.706;  -48.250; -366.000; -469.000
300.844;  -66.600;-1108.000; -979.000
300.982;  110.575;  246.000;  282.000
301.120; -102.875; -965.000; -866.000
301.258;  -55.925; -812.000; -705.000
301.396;   28.975;  104.000;  -41.000
301.534;   89.775; -218.000; -293.000
301.672;   -7.375; -664.000; -521.000
301.810;   30.600; -613.000; -545.000
301.948;  105.675;   53.000;  149.000
302.086;  671.750; -250.000;  -32.000
302.224;  969.525; -610.000; -585.000
302.362;   45.225; -558.000; -622.000
302.500;   -7.275; -923.000; -893.000
302.638;  108.400;  128.000;  245.000
302.776;   -1.725; -352.000; -408.000
302.913;   49.175;  447.000;  236.000
303.051;   13.875;  -86.000;  -23.000
303.189;   55.150;   90.000;  118.000
303.327;  -40.200; -341.000; -256.000
303.465;  -82.275; -832.000; -588.000
303.603;  -87.925; -805.000; -604.000
303.740;  103.750;  417.000;  241.000
303.878;   22.725; -800.000; -759.000
304.016;  -92.600; -915.000; -790.000
304.154; -116.625;-1123.000;-1152.000
304.291;  -39.575; -505.000; -554.000
304.429;    5.000;  102.000;   74.000
304.567; -124.950; -908.000; -893.000
304.705;  -48.550; -408.000; -515.000
304.842;  100.025; -616.000; -540.000
304.980;   41.750;  215.000;   35.000
305.118;   56.525; -367.000; -365.000
305.255;  -69.575; -945.000; -927.000
305.393;   58.000;  178.000;  239.000
305.531; -105.875;-1173.000; -956.000
305.668;  -73.625; -663.000; -582.000
305.806;  109.850; -358.000; -439.000
305.943;  114.700; -629.000; -637.000
306.081;   59.225; -378.000; -267.000
306.219; -105.575; -863.000; -748.000
306.356;    7.225;  158.000;   27.000
306.494;  112.900;  981.000;  761.000
306.631;   -7.875;  -11.000;  -55.000
306.769;   12.050; -613.000; -485.000
306.906;  -12.300; -284.000; -258.000
307.044;  -65.025; -473.000; -488.000
307.181;  -67.025; -410.000; -332.000
307.319;   18.700;  112.000;   87.000
307.456; -168.700;-1191.000;-1153.000
307.594; -102.025; -980.000; -727.000
307.731;  -22.025; -371.000; -164.000
307.868;   -6.375;  -15.000;   20.000
308.006; -121.500; -961.000; -847.000
308.143;  -69.575; -618.000; -330.000
308.281;  190.550;  -37.000; -254.000
308.418;    3.950; -748.000; -640.000
308.555;  -55.550; -400.000; -250.000
308.693;  -81.750; -577.000; -573.000
308.830; -109.450; -712.000; -657.000
308.967;  -13.425; -215.000;  -95.000
309.105;  -30.600; -507.000; -396.000
309.242;   49.875; -468.000; -367.000
309.379;  376.075; -577.000; -655.000
309.517;  -47.475; -936.000; -948.000
309.654; -104.350; -910.000; -734.000
309.791;  -70.025; -662.000; -580.000
309.928; -117.700; -977.000; -914.000
310.065;  181.700;  819.000;  697.000
310.203;   -3.125; -825.000; -850.000
310.340;    1.000; -465.000; -321.000
310.477;  -83.025; -412.000; -516.000
310.614;  -67.950; -383.000; -473.000
310.751;  -75.875; -427.000; -518.000
310.889;  -33.675;    1.000;   11.000
311.026; -151.275;-1161.000; -939.000
311.163;  -53.650; -386.000; -380.000
311.300;  -82.575; -512.000; -479.000
311.437;  -68.700; -658.000; -619.000
311.574; -159.125;-1226.000; -985.000
311.711;  -64.600; -595.000; -433.000
311.848;  -38.400; -380.000; -388.000
311.985;   11.825;  270.000;   93.000
312.122; -100.200; -932.000; -762.000
312.259; -123.875; -941.000; -994.000
312.396;  -84.750; -508.000; -551.000
312.533; -100.575; -812.000; -790.000
312.670; -125.775;-1070.000; -898.000
312.807;  -39.450; -352.000; -367.000
312.944;  -78.775; -513.000; -611.000
313.081;  -22.900; -150.000; -415.000
313.218;  -92.500;-1111.000; -867.000
313.355;    7.400; -531.000; -449.000
313.492;    7.175; -455.000; -292.000
313.629;  115.575;  815.000;  735.000
313.766; -154.025;-1176.000;-1008.000
313.902;  -11.800; -186.000;   21.000
314.039;  -45.875; -372.000; -289.000
314.176;   41.725;  286.000;  192.000
314.313;  -66.650; -569.000; -473.000
314.450;  -62.925; -788.000; -684.000
314.587;  -51.725; -468.000; -480.000
314.723;    1.075;  -78.000;  130.000
314.860;   26.600;  318.000;  332.000
314.997;   24.900;  223.000;  142.000
315.134;  -40.700; -385.000; -368.000
315.270;  -39.025; -480.000; -496.000
315.407; -137.225;-1094.000; -967.000
315.544;  -49.175; -657.000; -538.000
315.681;  -62.100; -681.000; -565.000
315.817;   26.600; -133.000; -176.000
315.954;   24.900; -613.000; -392.000
316.091; -117.125;-1045.000;-1023.000
316.227;  -16.600;  -71.000; -179.000
316.364;    1.875;   23.000;    6.000
316.500;  -48.575; -113.000; -300.000
316.637;  -30.825; -181.000; -302.000
316.774;  -92.325; -625.000; -358.000
316.910;  -88.275; -598.000; -629.000
317.047;  -66.400; -487.000; -351.000
317.183;  -44.800; -435.000; -566.000
317.320;  -10.300; -367.000; -321.000
317.456;  -56.000; -733.000; -805.000
317.593;  -81.250; -598.000; -641.000
317.729;   -6.325;  168.000;  -67.000
317.866; -188.675;-1434.000;-1285.000
318.002;  -85.075; -708.000; -948.000
318.139;  -89.575; -883.000; -867.000
318.275; -110.525;-1003.000; -738.000
318.412;  -70.125; -517.000; -336.000
318.548;  -33.425; -751.000; -720.000
318.685; -105.525; -985.000; -888.000
318.821;  -95.425; -762.000; -735.000
318.957;  -27.925;   34.000;  -23.000
319.094;   41.425;  297.000;  154.000
319.230;  -60.150; -756.000; -742.000
319.367;  127.725; -471.000; -520.000
319.503;   57.900; -538.000; -436.000
319.639;  -87.475; -877.000; -793.000
319.775;  -54.650; -750.000; -685.000
319.912;  -53.400; -424.000; -519.000
320.048;  -76.225;-1184.000;-1184.000
320.184;   77.725;   59.000;   70.000
320.321;  -56.275; -497.000; -467.000
320.457;   66.700;  475.000;  662.000
320.593;  -51.350; -375.000; -382.000
320.729; -100.625; -732.000; -734.000
320.866;  -68.275; -577.000; -635.000
321.002;  -78.725; -759.000; -809.000
321.138;   -9.050; -135.000; -211.000
321.274;   67.100; -148.000; -115.000
321.410;  -18.600; -585.000; -353.000
321.546;  -19.350;-1011.000; -911.000
321.683;   46.000;  400.000;  185.000
321.819;   -0.300;  -48.000; -117.000
321.955; -102.650; -743.000; -722.000
322.091;  -51.000; -585.000; -540.000
322.227;  -14.875; -382.000; -202.000
322.363;   -7.650; -320.000; -215.000
322.499;  -42.675; -343.000; -331.000
322.635;  179.875;  636.000;  443.000
322.771;   29.475; -139.000;   12.000
322.907;   82.200;  129.000;  327.000
323.043;  -21.900; -115.000; -206.000
323.179;  -44.125; -394.000; -363.000
323.315;   22.825; -401.000; -371.000
323.451;  100.075; -328.000; -236.000
323.587;   70.775;  -60.000;  -77.000
323.723;   12.650; -682.000; -601.000
323.859;   -9.925; -258.000;  -76.000
323.995;  -29.475; -467.000; -409.000
324.131; -123.325; -967.000; -892.000
324.267;  -44.525; -254.000; -276.000
324.402; -119.325; -960.000; -983.000
324.538;  -13.900; -279.000; -104.000
324.674;   25.650;  164.000;   77.000
324.810;  124.550;  226.000;  308.000
324.946;   12.150; -810.000; -658.000
325.082;  -67.500; -568.000; -475.000
325.217;  -12.375;  -62.000;   16.000
325.353; -103.100; -764.000; -659.000
325.489;  -75.825; -540.000; -506.000
325.625;  -72.850; -579.000; -525.000
325.760;   48.275;  517.000;  376.000
325.896;  -27.375; -515.000; -702.000
326.032;  -68.875; -403.000; -352.000
326.168;  -60.150; -462.000; -369.000
326.303;  -67.825; -352.000; -461.000
326.439;  -24.075; -336.000; -276.000
326.575;  -13.350; -190.000;  -29.000
326.710;  -17.225; -156.000;  -30.000
326.846;  -17.100;  146.000;  103.000
326.982;  -83.650; -530.000; -548.000
327.117;  -72.775; -481.000; -442.000
327.253;  -78.200; -745.000; -742.000
327.388; -138.050;-1137.000;-1153.000
327.524;  -47.925; -811.000; -578.000
327.659;  -34.125;  -58.000;  -22.000
327.795;  -16.025;   69.000;   45.000
327.931;  -89.050; -723.000; -499.000
328.066;  -29.150; -417.000; -276.000
328.202;  -15.275;   12.000; -129.000
328.337;   92.000;  957.000;  713.000
328.473;   29.475;  -12.000;  -74.000
328.608;  -12.675; -256.000; -267.000
328.743;  -92.375; -799.000; -664.000
328.879;   20.550;  214.000;  114.000
329.014;  -37.575; -102.000; -122.000
329.150;  -90.125; -358.000; -483.000
329.285;  -73.900; -465.000; -466.000
329.421;  -50.300; -548.000; -246.000
329.556;  -17.050;  -36.000;   85.000
329.691; -103.400; -633.000; -615.000
329.827;  -92.375; -626.000; -480.000
329.962;  -54.150;  131.000; -301.000
330.097;  -86.700; -673.000; -585.000
330.233;  -64.250; -410.000; -223.000
330.368; -123.250; -839.000; -628.000
330.503;  -11.950;    3.000;   98.000
330.638;  -12.275;  -93.000; -125.000
330.774;  -44.025; -609.000; -530.000
330.909;  -60.975; -434.000; -244.000
331.044;  -98.475; -714.000; -708.000
331.179; -169.800;-1217.000;-1109.000
331.315;    6.650;   77.000;   20.000
331.450;   16.925;  157.000;  285.000
331.585;  -81.400; -805.000; -706.000
331.720;  -79.275; -510.000; -460.000
331.855;  -12.775;  -35.000; -102.000
331.990;  253.550;   62.000;  138.000
332.126;  120.500; -110.000;   71.000
332.261;  -26.400; -379.000; -265.000
332.396;  -11.775; -135.000; -242.000
332.531; -103.025;-1074.000;-1031.000
332.666;   36.150; -519.000; -363.000
332.801; -111.125; -726.000; -807.000
332.936;  -18.500; -192.000; -122.000
333.071; -141.400; -870.000; -817.000
333.206;    4.625;  307.000;  379.000
333.341;   17.900;  344.000;  418.000
333.476;  -84.300; -627.000; -623.000
333.611;  -47.475; -251.000; -173.000
333.746;  -52.975; -381.000; -464.000
333.881; -115.575; -973.000; -935.000
334.016; -126.200; -936.000; -917.000
334.151; -117.775; -746.000; -702.000
334.286;   16.475;  152.000;  186.000
334.421;  -27.900; -125.000; -178.000
334.556;  -71.200; -611.000; -567.000
334.690;  -92.275; -631.000; -577.000
334.825;   43.400;  381.000;   83.000
334.960;  -55.750; -285.000; -413.000
335.095;   -2.525;  135.000;  -91.000
335.230; -109.475; -722.000; -738.000
335.365; -123.225;-1084.000; -990.000
335.499; -129.225;-1108.000;-1037.000
335.634;   14.950;    9.000;  534.000
335.769;  -98.900; -755.000; -720.000
335.904;  -56.825; -603.000; -561.000
336.038;  -57.100; -735.000; -657.000
336.173; -114.850;-1206.000;-1194.000
336.308;    9.750; -116.000; -189.000
336.443;   21.700; -544.000; -634.000
336.577;  -76.400; -936.000; -787.000
336.712;   68.025;   -4.000;  -12.000
336.847;  -41.475; -724.000; -607.000
336.981;   79.025; -272.000; -208.000
337.116;  276.250;  615.000;  501.000
337.250;  162.750; -434.000; -421.000
337.385;  252.350; -297.000; -208.000
337.520;   81.625; -632.000; -603.000
337.654;  -38.400; -215.000; -126.000
337.789; -120.050; -989.000; -933.000
337.923;  -37.350; -104.000; -205.000
338.058;  -90.200; -673.000; -738.000
338.192;  -34.675; -611.000; -488.000
338.327;   -6.325;  -18.000; -155.000
338.461;  -45.750; -299.000; -469.000
338.596;  -90.475; -780.000; -638.000
338.730;  -96.975; -767.000; -803.000
338.865;   92.050;  -46.000; -140.000
338.999;  -48.200; -846.000; -702.000
339.134;  -34.400; -634.000; -536.000
339.268;   17.775; -741.000; -603.000
339.403;  372.250; -740.000; -775.000
339.537;  127.250; -894.000; -820.000
339.671; -111.325; -829.000; -813.000
339.806;  -65.925; -556.000; -512.000
339.940;   12.325; -261.000; -235.000
340.074;  -91.875; -685.000; -510.000
340.209;  -47.725; -351.000; -230.000
340.343;  -91.825; -517.000; -573.000
340.477;  147.875;  998.000; 1036.000
340.612;  -61.950;-1033.000; -900.000
340.746;  136.600; -199.000; -243.000
340.880;  -67.925; -924.000; -785.000
341.014;  -35.400;  -45.000; -154.000
341.149; -115.625; -756.000; -718.000
341.283;  -97.075; -839.000; -754.000
341.417; -103.100;-1124.000; -938.000
341.551;  138.800; -768.000; -708.000
341.685;  -23.800; -633.000; -611.000
341.820;  -45.200; -562.000; -493.000
341.954;  -43.475; -218.000; -349.000
342.088; -158.825;-1102.000;-1019.000
342.222;   40.125;  565.000;  618.000
342.356;  -51.300; -395.000; -335.000
342.490;  -84.150; -880.000; -841.000
342.624;  -36.800; -339.000; -242.000
342.758;   -5.375; -364.000; -312.000
342.892;  -56.075; -710.000; -585.000
343.026;  -43.900;  -58.000; -116.000
343.160;  -69.150; -426.000; -376.000
343.294;  -82.200; -474.000; -337.000
343.428;  -23.800; -488.000; -448.000
343.562;   -4.875; -172.000;  -23.000
343.696;  -19.475; -385.000; -314.000
343.830;  -30.500; -362.000; -356.000
343.964;   19.950; -231.000; -168.000
344.098;  919.775;  199.000;   70.000
344.232;  794.150; -266.000; -127.000
344.366;   95.200; -567.000; -453.000
344.500;   68.075; -665.000; -744.000
344.634;   38.275; -324.000; -164.000
344.768;  -10.300; -531.000; -341.000
344.902;   15.375;  278.000;  256.000
345.035;  -81.625; -556.000; -496.000
345.169; -128.325; -933.000; -656.000
345.303;  -25.025; -308.000; -482.000
345.437;  -81.425; -826.000; -717.000
345.571;  -77.225; -675.000; -594.000
345.704;  -50.625; -309.000; -532.000
345.838;  -11.475; -331.000; -284.000
345.972;  -33.250; -543.000; -495.000
346.106;  167.775; -179.000; -190.000
346.239;  427.875; -312.000; -243.000
346.373;    6.300; -343.000; -302.000
346.507; -117.475; -950.000; -962.000
346.640;  149.275;  -30.000;   13.000
346.774;  -29.400; -650.000; -797.000
346.908;  -24.825; -138.000;  -11.000
347.041; -102.400; -646.000; -593.000
347.175;   -1.750;  259.000;   27.000
347.309;  -68.900; -698.000; -628.000
347.442;  -95.050; -883.000; -732.000
347.576;  277.925;  670.000;  668.000
347.709;  211.500; -123.000;  -52.000
347.843;  -92.050; -933.000; -825.000
347.976;   34.100;  235.000;  294.000
348.110; -172.025;-1268.000;-1186.000
348.243;  -90.050; -679.000; -772.000
348.377;   -0.700;  -26.000;   60.000
348.510;   45.150;  403.000;  540.000
348.644;  -32.200;  -37.000; -159.000
348.777;    3.950;  180.000;  191.000
348.911;  -56.825; -142.000; -112.000
349.044;  169.150;  471.000;  448.000
349.178;  171.000;-1069.000;-1006.000
349.311;  117.850;  141.000;  255.000
349.444;    5.650; -927.000; -813.000
349.578;  -23.500; -347.000; -200.000
349.711;  -96.600; -959.000; -862.000
349.845;  -20.050; -661.000; -591.000
349.978; -133.725;-1224.000;-1137.000
350.111;  -81.200; -546.000; -612.000
350.244;  -83.575; -596.000; -700.000
350.378;    6.650; -392.000; -393.000
350.511;  -68.075; -393.000; -426.000
350.644;  -96.100; -808.000; -806.000
350.778;   11.250;  168.000;  104.000
350.911;  -12.275;  134.000;  140.000
351.044;  -91.775; -685.000; -615.000
351.177;  -39.100; -321.000; -281.000
351.310;  -21.750;    3.000; -131.000
351.444;  -64.475; -888.000; -788.000
351.577;  106.750;  140.000;   90.000
351.710;   87.550;  593.000;  417.000
351.843;  -41.575; -165.000;  -77.000
351.976;  -18.050;  149.000;  -79.000
352.109;  -84.850; -621.000; -612.000
352.242;  -26.625; -464.000; -419.000
352.376;  -60.600; -580.000; -636.000
352.509;  164.350; -437.000; -356.000
352.642;   13.300; -654.000; -604.000
352.775;   62.950; -141.000;  -98.000
352.908; -106.925; -933.000; -904.000
353.041;  -96.350; -814.000; -824.000
353.174;  -73.475; -551.000; -424.000
353.307;  -89.575; -753.000; -764.000
353.440;   70.425;  541.000;  453.000
353.573; -116.125; -957.000;-1008.000
353.706;  -22.950; -384.000; -558.000
353.839;  -16.250; -264.000; -220.000
353.971;  -93.625; -657.000; -512.000
354.104;  -79.350; -896.000; -835.000
354.237;  -32.025; -627.000; -662.000
354.370;  -77.750; -846.000; -879.000
354.503; -171.850;-1231.000;-1308.000
354.636;  -43.250; -529.000; -348.000
354.769; -123.900; -937.000; -860.000
354.902;   -9.300; -230.000; -139.000
355.034;  -17.700; -164.000; -220.000
355.167;  -19.600; -262.000; -162.000
355.300;  -77.200;-1061.000; -880.000
355.433;  994.250;  -71.000;  -14.000
355.565; 1537.325; -402.000; -384.000
355.698;  401.600; -356.000; -296.000
355.831;    5.275; -882.000; -801.000
355.964;   72.800; -285.000; -170.000
356.096;  -69.625; -856.000; -843.000
356.229;    6.550; -523.000; -530.000
356.362;  324.225; -373.000; -266.000
356.494;  609.400; -229.000; -162.000
356.627;  492.175;  269.000;  377.000
356.760;  672.475;  120.000;   53.000
356.892;  963.350; -286.000; -601.000
357.025;  677.900;  403.000;  389.000
357.157;  622.275; -167.000; -179.000
357.290;  663.625; -856.000; -713.000
357.423;  199.700; -667.000; -556.000
357.555;  118.175; -217.000; -228.000
357.688;  124.500; -483.000; -364.000
357.820;  465.750; -870.000; -877.000
357.953; 3780.550; -563.000; -589.000
358.085;  842.450; -632.000; -612.000
358.218; 1188.500;-1131.000; -932.000
358.350;  220.350;  -58.000;  312.000
358.483; -100.325;-1300.000;-1187.000
358.615;  -11.200;-1182.000;-1078.000
358.747;  -56.875;-1187.000;-1058.000
358.880;   26.375; -810.000; -744.000
359.012;  -14.175; -376.000; -202.000
359.145;  -48.925; -480.000; -511.000
359.277;   76.975; -962.000; -913.000
359.409; 3083.875;  536.000;  231.000
359.542;  846.675; -738.000; -688.000
359.674;   65.450;   46.000;   13.000
359.806;  -61.450; -565.000; -438.000
359.939;  -34.075; -617.000; -516.000
360.071;   -8.900; -583.000; -579.000
360.203;  -18.425; -411.000; -364.000
360.335;   56.550;  164.000;  -16.000
360.468;  197.400; -249.000; -307.000
360.600; 2521.575; -547.000; -454.000
360.732; 2832.800; -546.000; -423.000
360.864;  435.325;-1216.000;-1044.000
360.996;  294.550; -516.000; -554.000
361.129;   62.550; -389.000; -598.000
361.261;   21.500;  110.000; -113.000
361.393;  -24.325; -252.000; -214.000
361.525;   32.450;   94.000;  244.000
361.657;  -27.425; -821.000; -703.000
361.789;   24.100; -139.000; -155.000
361.921;  243.025; -642.000; -593.000
362.053;  267.650;  524.000;  541.000
362.185;   58.550;  288.000;   72.000
362.318;  -72.250; -709.000; -705.000
362.450;  115.850;  294.000;  444.000
362.582;   94.525; -913.000; -870.000
362.714;  -30.225; -353.000; -332.000
362.846;  -84.150; -606.000; -490.000
362.978; -140.650; -941.000; -811.000
363.109;   43.725; -161.000; -260.000
363.241;  446.625; -739.000; -749.000
363.373;  445.700; -649.000; -564.000
363.505;  654.700; -186.000;  -91.000
363.637;  174.300; -787.000; -601.000
363.769;  -96.525;-1067.000;-1080.000
363.901;  -70.925; -596.000; -654.000
364.033; -118.800;-1103.000;-1062.000
364.165;    2.825; -283.000; -283.000
364.296;   66.925; -316.000; -177.000
364.428;   88.100;-1344.000;-1220.000
364.560;  -57.675; -679.000; -661.000
364.692;  -50.325; -738.000; -835.000
364.824;  273.775; -588.000; -456.000
364.955;  451.975; -402.000; -564.000
365.087;  953.350;-1097.000; -852.000
365.219;   42.825; -686.000; -816.000
365.351;  -68.500; -526.000; -572.000
365.482;   64.875;  300.000;  240.000
365.614;  -52.825; -402.000; -314.000
365.746; -101.600; -729.000; -752.000
365.877;  -88.575; -706.000; -672.000
366.009;  265.650;  -35.000;  -62.000
366.141;  -84.925;-1249.000;-1134.000
366.272; -110.950; -803.000; -719.000
366.404; -114.875;-1005.000; -874.000
366.535;   -9.325; -139.000;  -12.000
366.667; -102.275; -644.000; -649.000
366.799;   28.275;  353.000;  203.000
366.930; -106.600; -862.000; -996.000
367.062;  121.600; -639.000; -613.000
367.193;  147.150; -872.000; -842.000
367.325;  -55.200; -580.000; -684.000
367.456;   53.250; -246.000;   31.000
367.588;  167.250; -371.000; -318.000
367.719;   30.575;  -44.000;  -45.000
367.851;  -17.800; -222.000; -241.000
367.982;  -49.675; -875.000; -732.000
368.113;   96.850; -475.000; -358.000
368.245; -109.875; -960.000; -841.000
368.376;  -21.675; -254.000; -302.000
368.508;  -29.150; -188.000; -263.000
368.639; -122.250;-1166.000;-1034.000
368.770;   -6.150; -670.000; -589.000
368.902;  -44.425; -836.000; -926.000
369.033; -110.275; -906.000; -855.000
369.164;  -48.275; -720.000; -653.000
369.296; -113.675; -452.000; -601.000
369.427;  -11.250; -209.000; -144.000
369.558;  -41.225; -593.000; -377.000
369.689;  -77.250; -721.000; -569.000
369.821; -126.975; -951.000; -845.000
369.952;  -20.375;   42.000; -108.000
370.083;  -39.925; -229.000; -108.000
370.214;  -83.600; -735.000; -650.000
370.345;   -5.750;   65.000;   81.000
370.477;  -95.350; -810.000; -790.000
370.608;  245.375; -328.000; -264.000
370.739;  -40.050;-1233.000;-1292.000
370.870;  -32.075;-1102.000; -923.000
371.001;  113.775; -378.000; -467.000
371.132;  -72.575; -754.000; -735.000
371.263;  -19.650;  -42.000; -148.000
371.394; -135.850; -841.000; -748.000
371.525;   26.225;  345.000;  225.000
371.657;  -90.925; -808.000; -670.000
371.788;   78.375;  103.000;  199.000
371.919;  186.275; -384.000; -304.000
372.050; 3651.775;  -91.000; -156.000
372.181; 1147.900; -188.000; -294.000
372.311;  370.525;   42.000; -127.000
372.442;   40.750; -457.000; -451.000
372.573;  -19.525; -444.000; -340.000
372.704; -122.975;-1008.000; -980.000
372.835;   93.950; -228.000; -289.000
372.966;  -41.625; -646.000; -554.000
373.097;  -63.025; -575.000; -711.000
373.228;  -36.525; -717.000; -542.000
373.359;  124.525; -824.000; -536.000
373.490;  945.775; -881.000; -727.000
373.620; 1240.850;-1001.000; -803.000
373.751; 1794.975; -332.000; -396.000
373.882;  859.250; -663.000; -733.000
374.013;   73.025; -449.000; -262.000
374.143;  -33.975; -581.000; -659.000
374.274;  -97.975; -987.000; -908.000
374.405;  175.700; -388.000; -276.000
374.536;  438.525; -526.000; -387.000
374.666; 1159.225; -759.000; -807.000
374.797;  230.900; -817.000; -868.000
374.928;  882.100; -710.000; -560.000
375.058;  939.725; -535.000; -500.000
375.189;   98.300;  -59.000;  -93.000
375.320; -114.975; -928.000;-1034.000
375.450;  -45.375; -625.000; -616.000
375.581;  -51.550; -526.000; -436.000
375.712;  -28.700; -574.000; -250.000
375.842;  316.700; -438.000; -415.000
375.973;  234.950; -554.000; -513.000
376.103;  -32.375; -665.000; -648.000
376.234;  -81.500; -531.000; -552.000
376.364;  -29.800; -944.000; -867.000
376.495;  336.525;  925.000;  529.000
376.625;    2.350; -472.000; -485.000
376.756;   73.025; -709.000; -678.000
376.886;  -66.125;-1178.000;-1026.000
377.017;   53.300;-1048.000;-1061.000
377.147;  357.625; -786.000; -782.000
377.278;   70.575;  174.000;  228.000
377.408; -139.700; -801.000; -815.000
377.538; -116.700; -707.000; -693.000
377.669;  -80.650; -537.000; -613.000
377.799;  -86.775; -645.000; -635.000
377.929;  -59.450; -610.000; -428.000
378.060; -116.100; -781.000; -847.000
378.190;  -79.025; -726.000; -531.000
378.320;  -62.300; -401.000; -406.000
378.451;   -9.850; -131.000;  -22.000
378.581;   -6.125;  -67.000; -110.000
378.711;  146.375; 1035.000;  866.000
378.841;  -17.900; -533.000; -675.000
378.972;  -69.525; -871.000; -751.000
379.102;    0.600; -652.000; -579.000
379.232;  -17.600; -126.000;  -73.000
379.362; -103.650;-1001.000; -885.000
379.492;   14.800; -373.000; -424.000
379.623;  117.825;    0.000;  111.000
379.753;  -98.250;-1107.000; -974.000
379.883;  202.950;   59.000;  156.000
380.013;   26.100;-1081.000;-1017.000
380.143;  -97.950;-1097.000;-1056.000
380.273; -105.500; -985.000; -861.000
380.403;   -6.625; -344.000; -257.000
380.533;  -20.375; -651.000; -664.000
380.663;   72.225;  173.000;  128.000
380.793;  -96.300;-1027.000;-1074.000
380.923;  -19.450; -103.000;  -34.000
381.053;  -88.800; -613.000; -623.000
381.183;  -17.650; -106.000; -248.000
381.313;   40.450; -656.000; -470.000
381.443;   40.900; -692.000; -473.000
381.573;  210.525; -402.000; -409.000
381.703;  305.950;-1249.000;-1095.000
381.833; -120.550;-1454.000;-1336.000
381.963;  110.175; -134.000;  -87.000
382.093; 1435.550; -925.000; -909.000
382.223;  475.275; -713.000; -602.000
382.353;   -0.350; -801.000; -608.000
382.482;  362.725;-1091.000; -964.000
382.612;  803.550; -872.000; -644.000
382.742;  470.950; -695.000; -622.000
382.872;  293.975; -565.000; -551.000
383.002;   70.100;  347.000; -132.000
383.131;  -23.950; -226.000; -160.000
383.261;  -39.825; -706.000; -768.000
383.391;  290.275; -552.000; -377.000
383.521; 3204.375;  451.000;  263.000
383.650;  821.175; -947.000; -904.000
383.780;   -6.375; -783.000; -656.000
383.910;  107.475;  880.000;  802.000
384.039;   26.850; -794.000; -656.000
384.169;  220.600;-1205.000;-1017.000
384.299;  -21.350; -650.000; -662.000
384.428; -106.525; -764.000; -680.000
384.558;  -41.850; -308.000; -275.000
384.687;  -51.000; -414.000; -334.000
384.817;   16.900;   75.000;   -2.000
384.947;   17.650; -234.000; -141.000
385.076;  290.825;  982.000;  912.000
385.206;   98.875;  369.000;  480.000
385.335;  -41.475; -549.000; -417.000
385.465;  -79.775; -655.000; -663.000
385.594;  132.000;  -53.000;  -44.000
385.724;  435.100; -868.000; -838.000
385.853;  119.850; -296.000; -270.000
385.982; 1326.300; -743.000; -787.000
386.112; 2256.850;-1052.000; -871.000
386.241;  167.025; -307.000; -312.000
386.371;   32.725; -174.000;  -87.000
386.500;    9.450; -825.000; -789.000
386.629;   34.700; -874.000; -817.000
386.759;   67.050;  -43.000;   68.000
386.888;   -7.425; -170.000; -250.000
387.017;  -66.125; -648.000; -620.000
387.147;  -82.225; -771.000; -798.000
387.276;    6.525; -410.000; -397.000
387.405;   27.700; -398.000; -342.000
387.535;  -39.350; -452.000; -361.000
387.664;  -52.875; -692.000; -620.000
387.793;   66.950; -198.000; -113.000
387.922;  521.675;  255.000;  200.000
388.052;   31.075; -576.000; -423.000
388.181;    5.975; -342.000; -472.000
388.310;    2.650; -889.000; -710.000
388.439;  -25.625; -749.000; -742.000
388.568;  186.875;  365.000;  244.000
388.697; 1094.675; -756.000; -653.000
388.826;  227.150; -768.000; -666.000
388.956;   64.650; -285.000; -307.000
389.085;  -36.675; -347.000; -287.000
389.214; -112.525; -842.000; -872.000
389.343;  -73.650; -645.000; -413.000
389.472;  392.475;  126.000;  149.000
389.601;  529.525;   91.000;    0.000
389.730;   33.675; -568.000; -687.000
389.859;   59.175;  226.000;   46.000
389.988;  162.025; -423.000; -408.000
390.117;  155.650; -168.000; -146.000
390.246;  -15.225; -331.000; -320.000
390.375;  111.725; -673.000; -626.000
390.504;  -62.750; -703.000; -621.000
390.633; -115.600; -672.000; -726.000
390.761;  -69.375; -732.000; -645.000
390.890;   21.700;   -4.000; -130.000
391.019;  -21.675; -421.000; -441.000
391.148; -120.775; -826.000; -855.000
391.277;  -73.050; -576.000; -493.000
391.406;  -83.600; -821.000; -805.000
391.534;   25.025;  574.000; -301.000
391.663;  -67.825; -583.000; -645.000
391.792;  -75.025; -673.000; -701.000
391.921;  104.350;   -3.000;   15.000
392.050;  178.375; -287.000; -228.000
392.178;  -30.800;-1206.000;-1061.000
392.307;  140.550; -758.000; -712.000
392.436;   85.850; -427.000; -641.000
392.564;   19.625;  166.000;   -6.000
392.693;  -88.900; -860.000; -682.000
392.822;  200.450; -529.000; -534.000
392.950;   90.925; -880.000; -714.000
393.079;  332.600; -188.000; -328.000
393.208;   30.900; -488.000; -511.000
393.336;  -20.900; -170.000; -145.000
393.465;  -50.175; -317.000; -199.000
393.593;   -4.150;   62.000;   79.000
393.722; -141.650;-1121.000; -916.000
393.850;  -30.775; -188.000;  -61.000
393.979; -146.900; -926.000; -805.000
394.107;  -59.800; -517.000; -537.000
394.236;  -12.175; -570.000; -507.000
394.364;  239.950;  383.000;  206.000
394.493;  432.675; -911.000; -767.000
394.621;   10.775; -955.000; -916.000
394.750;  698.575; -873.000; -923.000
394.878; 2921.450; -247.000; -149.000
395.007; 4177.975; -721.000; -807.000
395.135;  338.150; -790.000; -721.000
395.263;  -76.975;-1038.000;-1040.000
395.392;    2.525;  -25.000; -107.000
395.520; -120.300; -818.000; -679.000
395.648;  -86.050; -865.000; -915.000
395.777;  -15.550; -366.000; -405.000
395.905;  -55.050; -449.000; -564.000
396.033;   22.050;  217.000;  172.000
396.162;  644.275; -399.000; -453.000
396.290;  628.375;  -17.000;   -2.000
396.418;  122.800; -555.000; -514.000
396.546;  -63.900; -571.000; -466.000
396.674; -102.600; -850.000; -878.000
396.803;   -1.300;  -72.000;  -23.000
396.931;   98.300; -179.000; -199.000
397.059;   60.250;-1026.000; -989.000
397.187; -101.250;-1026.000; -975.000
397.315; -141.775; -884.000; -649.000
397.443;  -96.900; -592.000; -443.000
397.572; -104.275; -578.000; -424.000
397.700;  -10.975; -607.000; -614.000
397.828;   18.900;  120.000;  -90.000
397.956;  -49.725; -508.000; -478.000
398.084;  -57.975; -767.000; -626.000
398.212;   41.250;  137.000;  124.000
398.340;   18.200;  -56.000;  159.000
398.468;   34.825; -390.000; -169.000
398.596; -135.625; -993.000; -953.000
398.724; -126.250; -762.000; -767.000
398.852; -161.750;-1024.000; -976.000
398.980;  -75.425; -560.000; -560.000
399.108;  -37.125; -982.000; -735.000
399.236;   39.350;   13.000;    8.000
399.363;    6.175;  222.000;  196.000
399.491;  -70.625; -404.000; -398.000
399.619; -127.800; -829.000; -800.000
399.747;  -99.750; -859.000; -771.000
399.875;   83.100;  220.000;  234.000
400.003;  -47.800; -359.000; -284.000
400.130;  -95.025; -421.000; -341.000
400.258;  -34.950;  -83.000;   38.000
400.386;  -82.625; -352.000; -168.000
400.514;  -46.550; -526.000; -587.000
400.641;  -90.450; -928.000; -802.000
400.769; -140.250; -979.000; -888.000
400.897; -107.050; -838.000; -793.000
401.025;   -6.400; -166.000; -152.000
401.152;  -23.525;  220.000;   38.000
401.280;  -87.800; -430.000; -429.000
401.408; -119.725; -712.000; -576.000
401.535;  -91.050; -735.000; -758.000
401.663; -184.575;-1134.000;-1054.000
401.790;  -81.200; -514.000; -525.000
401.918;   34.875;  436.000;  405.000
402.046;  -28.950;  134.000;  122.000
402.173;  -34.950;  -18.000;    7.000
402.301;  -67.850; -519.000; -397.000
402.428;   24.350;  528.000;  383.000
402.556; -133.225;-1188.000; -913.000
402.683;  -36.875;  -20.000;   -1.000
402.811;  -26.250;  -37.000; -206.000
402.938;  -23.875;   20.000;   27.000
403.066;  178.150; -574.000; -558.000
403.193;  346.425;  299.000;  239.000
403.321;  253.975; -396.000; -574.000
403.448;  333.700;   83.000;   27.000
403.575;  148.975;  -90.000;  -46.000
403.703;  -91.050; -732.000; -557.000
403.830;  -64.500; -531.000; -496.000
403.957; -133.275;-1117.000;-1023.000
404.085;   25.700;  -61.000; -172.000
404.212;  102.775;  -50.000;   63.000
404.339;  271.325; -566.000; -306.000
404.467; 5727.575; -612.000; -524.000
404.594; 4121.225; -287.000; -227.000
404.721;  964.525; -869.000; -764.000
404.848;   76.275; -113.000; -202.000
404.976; -101.700; -856.000; -783.000
405.103;  -23.575;  -14.000;  -82.000
405.230;    0.350;  190.000;  226.000
405.357;   12.875;  117.000;   44.000
405.484;  257.325;  -49.000;    5.000
405.612;   52.750; -548.000; -563.000
405.739;  -54.850; -488.000; -243.000
405.866;   76.275;  669.000;  385.000
405.993;  -47.375; -398.000; -102.000
406.120; -133.000; -801.000; -887.000
406.247;  -58.900; -323.000; -342.000
406.374;  446.800;  540.000;  629.000
406.501;  132.675; -632.000; -702.000
406.628;  -64.250; -621.000; -589.000
406.755;  -90.200; -803.000; -620.000
406.882;  -43.850; -228.000; -277.000
407.009; -107.575; -719.000; -628.000
407.136;   40.350; -480.000; -401.000
407.263;  145.925; -939.000; -829.000
407.390;  -71.150; -692.000; -614.000
407.517; -161.800;-1139.000;-1187.000
407.644;  -61.350; -332.000; -256.000
407.771;  -61.425; -249.000; -287.000
407.898;   -1.000;  168.000;  328.000
408.025;  -72.275; -421.000; -313.000
408.151;  -19.325;   82.000;  153.000
408.278;  -73.450; -267.000; -216.000
408.405; -101.150; -931.000; -899.000
408.532;  -80.525; -549.000; -542.000
408.659; -105.000; -677.000; -648.000
408.785; -190.475;-1298.000;-1170.000
408.912;  -70.000; -412.000; -296.000
409.039; -124.525; -610.000; -686.000
409.166; -108.475; -591.000; -555.000
409.292; -125.725; -571.000; -534.000
409.419; -115.050; -665.000; -649.000
409.546;  -85.000; -431.000; -192.000
409.672; -113.025; -713.000; -545.000
409.799;  -27.775;  -36.000;   34.000
409.926;  -44.350; -180.000; -179.000
410.052; -162.875;-1127.000;-1091.000
410.179;  -48.125; -368.000; -392.000
410.305; -100.700; -375.000; -493.000
410.432;  -50.125; -220.000; -333.000
410.558;  -92.275; -305.000; -380.000
410.685; -110.950; -688.000; -431.000
410.812;  -95.425; -409.000; -588.000
410.938; -126.900; -964.000; -808.000
411.065; -100.650; -671.000; -645.000
411.191;  -18.375; -189.000; -174.000
411.317; -109.900; -823.000; -742.000
411.444;  -56.750; -317.000; -246.000
411.570;  -72.325; -339.000; -294.000
411.697; -134.825; -758.000; -752.000
411.823; -175.175; -989.000; -999.000
411.949;  -27.200;  -56.000;   17.000
412.076; -112.525; -539.000; -519.000
412.202; -114.475; -758.000; -757.000
412.329; -118.925; -798.000; -752.000
412.455; -110.350; -821.000; -657.000
412.581;  -14.875;  -15.000;  172.000
412.707;  -60.600; -540.000; -457.000
412.834;    0.200;  156.000;  219.000
412.960;  -79.800; -785.000; -784.000
413.086; -108.300; -743.000; -701.000
413.212;  131.550;  604.000;  578.000
413.339;  -51.350; -685.000; -701.000
413.465;   -3.800; -364.000; -310.000
413.591;  -90.400; -757.000; -474.000
413.717;  -59.175; -358.000; -366.000
413.843; -140.350; -839.000; -861.000
413.969;  -67.150;  -47.000; -292.000
414.096; -100.250; -679.000; -679.000
414.222;  -11.000;  -33.000;   85.000
414.348;  -30.100; -652.000; -385.000
414.474;  103.375;   38.000;  -52.000
414.600;  -15.625; -126.000; -144.000
414.726;   -9.725;  -96.000;  -55.000
414.852;  -61.350; -365.000; -342.000
414.978;   34.600;  104.000;  -18.000
415.104;   33.075;   38.000;   80.000
415.230;   26.775; -329.000; -330.000
415.356;   45.650; -409.000; -514.000
415.482;  203.275;   13.000;  -35.000
415.608;  284.000; -247.000; -323.000
415.734;  971.475;   67.000;   38.000
415.860;19872.350; -875.000; -767.000
415.986;15906.900; -685.000; -607.000
416.111; 1446.450; -798.000; -652.000
416.237;  294.200; -424.000; -571.000
416.363; 1069.650; -765.000; -733.000
416.489; 4329.575; -324.000; -251.000
416.615;  531.000; -707.000; -742.000
416.741;   -9.450; -677.000; -784.000
416.866; -103.025; -673.000; -736.000
416.992; -120.150; -801.000; -818.000
417.118;  -12.500;  -41.000;  -80.000
417.244;  -68.275; -798.000; -531.000
417.369;  -76.875; -801.000; -612.000
417.495;  -11.625; -325.000; -254.000
417.621;  -74.825;-1015.000; -803.000
417.746;   13.775; -579.000; -572.000
417.872;   54.350; -254.000; -144.000
417.998;   61.375; -515.000; -530.000
418.123;  998.950;-1073.000; -845.000
418.249; 5590.750; -512.000; -601.000
418.374;  864.675; -916.000; -824.000
418.500;  132.075; -383.000; -482.000
418.626;  121.625;   70.000;  -59.000
418.751;  131.050; -549.000; -448.000
418.877;  214.175; -637.000; -643.000
419.002; 1684.000; -688.000; -560.000
419.128;12862.600; -930.000; -721.000
419.253; 3475.575; -967.000; -837.000
419.379;  438.500; -391.000; -338.000
419.504;  411.350;  325.000;  415.000
419.629;  515.500; -393.000; -212.000
419.755; 3356.950; -317.000; -254.000
419.880;21569.400;  -98.000;   67.000
420.006;11668.500; -280.000; -221.000
420.131;30901.125; -662.000; -775.000
420.256; 4892.675; -315.000; -316.000
420.382;  640.300; -665.000; -687.000
420.507;   93.500; -649.000; -778.000
420.632;  117.825; -337.000; -339.000
420.758;  240.650; -251.000; -425.000
420.883;  -71.825; -876.000; -672.000
421.008;  -88.750; -775.000; -619.000
421.133;  -81.100; -509.000; -467.000
421.259;  -54.925; -325.000; -259.000
421.384; -118.425; -834.000; -693.000
421.509;  -43.675;-1052.000; -862.000
421.634; 1104.300; -936.000; -820.000
421.759;  550.975; -359.000; -327.000
421.885;  -46.200; -717.000; -656.000
422.010;  -82.450; -673.000; -542.000
422.135; -143.850; -695.000; -727.000
422.260;   25.000;  340.000;  280.000
422.385;  -41.425;   12.000;  -98.000
422.510;   23.150;  151.000;  -26.000
422.635;   19.900;  -87.000;  -43.000
422.760;  116.050; -766.000; -791.000
422.885;   57.775;  -57.000;  -80.000
423.010;  -19.925; -112.000; -169.000
423.135;  -96.350; -481.000; -561.000
423.260;  -18.125; -150.000; -245.000
423.385;   71.950;  476.000;  222.000
423.510;   29.800;   71.000;  -22.000
423.635;   77.675;  133.000;   45.000
423.760;   56.175;  383.000;  328.000
423.885;   45.250;  336.000;  391.000
424.010;    3.750;  -68.000;  -13.000
424.135;  -17.375;    5.000;  -33.000
424.259;  -77.575; -654.000; -457.000
424.384;  -65.675; -279.000; -272.000
424.509;  -32.500; -260.000; -186.000
424.634; -110.775; -761.000; -623.000
424.759;  -23.400; -688.000; -544.000
424.883;   -1.675; -506.000; -527.000
425.008;  161.550; -502.000; -410.000
425.133; 1973.975; -679.000; -653.000
425.258; 1051.800; -517.000; -381.000
425.382;  988.150; -867.000; -774.000
425.507; 2732.425; -487.000; -543.000
425.632;  493.125; -802.000; -663.000
425.756;  470.175; -256.000; -146.000
425.881; 6147.550; -831.000; -857.000
426.006;18436.000; -604.000; -355.000
426.130; 3201.125; -696.000; -508.000
426.255;  417.300; -611.000; -491.000
426.379;  174.750; -189.000; -577.000
426.504;  368.775;  660.000;  544.000
426.629; 4051.600; -519.000; -466.000
426.753; 3041.175;   64.000;  -46.000
426.878;  357.300; -252.000; -288.000
427.002;  192.575; -651.000; -668.000
427.127; 1501.475;  -35.000; -158.000
427.251;11484.075;  372.000;  401.000
427.375; 3698.700; -191.000; -173.000
427.500; 2351.825; -616.000; -610.000
427.624;  850.525; -234.000; -400.000
427.749;  114.625; -216.000; -225.000
427.873;  -31.875; -499.000; -412.000
427.997;  -33.625; -222.000; -230.000
428.122;   73.400;  795.000;  703.000
428.246;   63.350;  433.000;  434.000
428.371; -122.475; -869.000; -773.000
428.495; -103.825; -624.000; -646.000
428.619;  -37.075; -186.000; -117.000
428.743;   25.225;   65.000;  132.000
428.868;   12.950; -732.000; -643.000
428.992; 1375.000; -219.000; -326.000
429.116;  624.000; -329.000; -357.000
429.240;  289.450;  419.000;  426.000
429.365;  -18.050; -454.000; -574.000
429.489;  -28.025; -638.000; -647.000
429.613;   34.025; -236.000; -177.000
429.737;   48.025; -563.000; -432.000
429.861;  264.400; -247.000; -133.000
429.985; 5400.625; -425.000; -305.000
430.109; 6625.375; -770.000; -908.000
430.234;  813.700;   76.000;  -50.000
430.358;   85.550; -250.000; -160.000
430.482;  -55.275; -672.000; -564.000
430.606;  -54.500; -655.000; -375.000
430.730;   17.350; -437.000; -388.000
430.854;  142.725; -909.000; -835.000
430.978;  -56.725; -795.000; -764.000
431.102;  -75.250; -499.000; -422.000
431.226; -118.275; -874.000; -815.000
431.350;   29.025;  345.000;  422.000
431.474;  -80.850; -661.000; -373.000
431.597; -139.875;-1060.000; -848.000
431.721;  -80.125; -276.000; -267.000
431.845; -124.825; -704.000; -472.000
431.969;  -93.250; -304.000; -349.000
432.093;  -90.350; -395.000; -317.000
432.217;  -10.875;   32.000;   82.000
432.341;  -79.125; -523.000; -518.000
432.464;    3.275;   96.000;   40.000
432.588;  203.875; -401.000; -329.000
432.712;  113.600;  -52.000;  -52.000
432.836;   45.400;  213.000;  263.000
432.959;  -19.000; -372.000; -311.000
433.083;   81.875;   11.000;    2.000
433.207;  353.150;  285.000;  930.000
433.330; 4889.100; -391.000; -200.000
433.454; 6689.200; -654.000; -638.000
433.578; 3786.700;  583.000;  278.000
433.701;  773.575; -623.000; -675.000
433.825;  143.100; -292.000; -299.000
433.949;  167.100;   28.000;  -72.000
434.072;   69.400; -410.000; -323.000
434.196;   -4.800; -309.000; -117.000
434.319; 3508.550;25482.000;25124.000
434.443;  703.200; -656.000; -603.000
434.566; 2743.925;  281.000;   62.000
434.690;  541.475; -637.000; -383.000
434.813;   63.575; -251.000; -173.000
434.937;  -66.550; -569.000; -696.000
435.060;  -55.725; -423.000; -332.000
435.184;  294.675; -492.000; -217.000
435.307;  166.850;  159.000;  102.000
435.431;   -3.425;  -40.000;   24.000
435.554;  -70.825; -399.000; -240.000
435.677;  -94.375; -350.000; -258.000
435.801;  -42.525;  -25.000;   49.000
435.924;  -29.500;    1.000;  -67.000
436.048; -123.900;-1019.000; -732.000
436.171;  -81.575; -240.000;  -66.000
436.294;  -26.150; -248.000; -229.000
436.417;  100.025; -963.000; -849.000
436.541;  -65.200; -814.000; -840.000
436.664;  -62.500; -242.000; -316.000
436.787;  -21.175;   13.000;  113.000
436.910; -121.400; -792.000; -422.000
437.034;   -1.600;  142.000;  143.000
437.157;   42.300;  -11.000;    0.000
437.280;  -41.675; -392.000; -292.000
437.403;  -93.975; -982.000; -869.000
437.526;  536.425; -903.000; -865.000
437.649; 2218.825; -505.000; -332.000
437.772;  382.000; -692.000; -540.000
437.896;  114.550;  700.000;  544.000
438.019; -104.100; -758.000; -503.000
438.142;  -85.100; -596.000; -506.000
438.265;   -6.200; -639.000; -670.000
438.388;  559.975; -520.000; -410.000
438.511;  123.450; -597.000; -394.000
438.634;  -52.825; -247.000; -125.000
438.757; -128.225; -693.000; -619.000
438.880;  -18.300;  -34.000;  -57.000
439.003;  -81.550; -417.000; -437.000
439.126;  -64.725; -287.000; -167.000
439.248;  -65.675;  -98.000; -139.000
439.371;  -52.600;    9.000;  -53.000
439.494;   22.600;  510.000;  439.000
439.617;  -57.850;   65.000;  -88.000
439.740; -169.650; -968.000; -816.000
439.863; -140.225; -755.000; -595.000
439.986; -120.125; -476.000; -431.000
440.108;  -38.325; -161.000; -112.000
440.231; -162.875; -950.000; -836.000
440.354;  -33.850;  -64.000; -150.000
440.477;   16.675; -566.000; -542.000
440.599;   13.325; -200.000; -225.000
440.722; -122.675; -709.000; -586.000
440.845;   67.700;  751.000;  928.000
440.968; -107.600; -415.000; -311.000
441.090;  -72.025; -199.000;  -33.000
441.213; -176.100;-1021.000; -825.000
441.336;  -50.225; -159.000;   -5.000
441.458;  -81.550; -549.000; -396.000
441.581;  -95.200; -628.000; -629.000
441.703;  -68.075; -152.000;   13.000
441.826; -105.500; -557.000; -400.000
441.948;  -57.425;   56.000;   51.000
442.071;   13.750;  555.000;  424.000
442.193; -103.475; -531.000; -485.000
442.316;   18.825;  152.000;   97.000
442.438;   47.600; -233.000;  -10.000
442.561;   69.475;  272.000;  262.000
442.683;  476.275; -809.000; -522.000
442.806; 1169.525;   -8.000;   74.000
442.928;   50.750; -859.000; -604.000
443.051;  -60.625; -577.000; -373.000
443.173; -108.050; -341.000; -339.000
443.295;  -85.000; -263.000; -371.000
443.418;  -59.875; -321.000;  -29.000
443.540;    0.075; -106.000;   -4.000
443.662; -110.475; -563.000; -465.000
443.785;  -12.050;  335.000;  199.000
443.907;  -99.600; -362.000; -208.000
444.029; -123.525; -767.000; -494.000
444.152; -138.875; -644.000; -554.000
444.274;  -35.750;  -18.000;  -24.000
444.396; -101.550; -461.000; -221.000
444.518; -135.050; -691.000; -454.000
444.640; -114.775; -268.000; -111.000
444.763;  -22.125;  388.000;  249.000
444.885; -110.625; -432.000; -392.000
445.007;  -29.950;   35.000;   86.000
445.129; -118.600; -610.000; -515.000
445.251; -114.250; -372.000; -439.000
445.373; -133.450; -537.000; -386.000
445.495;   12.225;  242.000;  350.000
445.617;   44.975;  853.000;  753.000
445.739;  -68.800; -215.000;  -97.000
445.861;  -26.775; -245.000; -112.000
445.984;  -37.200; -267.000; -101.000
446.105;  178.000; -418.000; -251.000
446.227;  611.975; -176.000;  -19.000
446.349;    8.625; -358.000; -249.000
446.471; -102.325; -615.000; -448.000
446.593;  -71.275; -316.000;   19.000
446.715;    5.300;  -67.000;   41.000
446.837;   45.325;  697.000;  832.000
446.959; -105.800; -457.000; -478.000
447.081; -126.125; -628.000; -518.000
447.203;   41.825;  862.000;  834.000
447.325;  -98.975; -270.000;   42.000
447.446;  -23.775;  286.000;  530.000
447.568; -162.475; -921.000; -803.000
447.690;  -70.325; -236.000; -245.000
447.812; -163.675; -798.000; -519.000
447.933;  -36.975;  155.000;  127.000
448.055;  -63.300; -306.000; -261.000
448.177;  129.725;   31.000;   79.000
448.299;   99.425; -935.000; -727.000
448.420;   28.650;  -25.000;  159.000
448.542;  -43.850;   -3.000;   33.000
448.664;  -13.425;  109.000;  322.000
448.785;  -29.900;  265.000;   83.000
448.907;  -76.400; -614.000; -353.000
449.028;  -43.725; -771.000; -471.000
449.150;   60.425;  492.000;  589.000
449.272; -170.350;-1044.000; -913.000
449.393;   28.625;  612.000;  694.000
449.515; -135.750; -634.000; -581.000
449.636;  -65.775; -264.000; -155.000
449.758;   76.075;  763.000;  622.000
449.879;  -97.200; -498.000; -396.000
450.001;  -85.175; -149.000;  -49.000
450.122;  -32.100;  -95.000;  162.000
450.244;  -44.350;   37.000;  364.000
450.365;  -76.850; -495.000; -301.000
450.486;  -38.050;   80.000;  268.000
450.608;   11.700;  393.000;  326.000
450.729;   64.675;  578.000;  645.000
450.850;    2.350; -574.000; -466.000
450.972;  690.650; -552.000; -389.000
451.093; 4897.250;  190.000;  588.000
451.214; 2427.425; -516.000; -337.000
451.336;  438.200;  773.000;  579.000
451.457;   56.450;  264.000;  393.000
451.578;  -33.850; -118.000;  -74.000
451.699; -125.550; -546.000; -540.000
451.821;  -55.825; -284.000;  -50.000
451.942;   -1.400;  278.000;  285.000
452.063;   18.200;  228.000;  419.000
452.184;  538.725;  -54.000;  -49.000
452.305; 1173.475;  103.000;  170.000
452.427;  169.500; -549.000; -301.000
452.548;   -6.450;   23.000;   79.000
452.669;  -60.800; -257.000;  -89.000
452.790;  -34.825;    3.000;  -18.000
452.911;   -8.400;  195.000;  259.000
453.032;  -70.275; -289.000;  -60.000
453.153;  -63.150;  -29.000;   81.000
453.274;   77.700;  737.000;  868.000
453.395;  -67.975;  -51.000;  175.000
453.516;  113.300; 1317.000; 1388.000
453.637;  -67.000; -205.000; -150.000
453.758;  -50.475;   15.000;   69.000
453.879; -118.225; -462.000; -250.000
454.000;   65.750; 1086.000;  948.000
454.121; -116.650; -554.000; -326.000
454.242; -112.675; -599.000; -383.000
454.362;  -70.200;  -99.000;  114.000
454.483;  -38.175; -309.000; -229.000
454.604;   43.150;  512.000;  580.000
454.725; -124.650; -627.000; -555.000
454.846; -118.350; -474.000; -406.000
454.967;  -28.925;  230.000;  539.000
455.087;  -51.750;  179.000;  153.000
455.208;   18.875;  554.000;  856.000
455.329;  -71.775;  -22.000;   82.000
455.450;   25.525;  473.000;  633.000
455.570;  -84.150; -234.000; -211.000
455.691;  -39.325;  201.000;  407.000
455.812; -111.825; -270.000;  -92.000
455.932;  -56.800;  107.000;  -97.000
456.053;  -78.000;   36.000;   24.000
456.173; -106.950; -433.000; -355.000
456.294; -127.200; -476.000; -303.000
456.415;  -58.700;  -73.000;   70.000
456.535;  -43.825;  297.000;  273.000
456.656;  -52.200;  132.000;  240.000
456.776;  -79.875;    3.000;  298.000
456.897;  -12.650;  308.000;  513.000
457.017;  -80.850; -153.000;   -3.000
457.138; -106.325; -402.000; -249.000
457.258;  -35.875;  263.000;  224.000
457.379;  -18.500;  509.000;  521.000
457.499;  -46.625;  443.000;  432.000
457.620; -115.525; -407.000; -231.000
457.740;  -98.600; -132.000;  -11.000
457.860;  -41.275;   87.000;   44.000
457.981;  -48.450;  132.000;  124.000
458.101;  -78.775;  -89.000;   40.000
458.221;  -12.125;  336.000;  402.000
458.342;  -63.200;   -4.000;  -37.000
458.462;    9.700;  617.000;  352.000
458.582;  -48.000; -302.000; -294.000
458.703;   -2.375;  303.000;  154.000
458.823;  -22.625;   22.000;  163.000
458.943;   16.400;  341.000;  467.000
459.063;  -13.750; 1124.000;  192.000
459.183;  -19.325;  328.000;  313.000
459.304;    5.250;  315.000;  517.000
459.424;  -49.025; -246.000;  -89.000
459.544;  317.175;  388.000;  764.000
459.664;  842.600;  499.000;  506.000
459.784;  347.000; 1004.000; 1175.000
459.904;   46.775;  867.000;  744.000
460.024;   61.550;  867.000;  684.000
460.144;   18.550;  449.000;  554.000
460.264;   -5.700;  515.000;  327.000
460.385;  -96.600; -145.000; -119.000
460.505;   31.000;  905.000;  858.000
460.625;  -91.475;  -17.000;  -68.000
460.745;  -25.375;  396.000;  541.000
460.864;  -44.350;  153.000;  469.000
460.984;   15.500;  499.000;  573.000
461.104;  123.125; 1656.000; 1775.000
461.224;   13.275;  657.000;  650.000
461.344;  -34.725;  431.000;  360.000
461.464;  -30.425;  258.000;  513.000
461.584;  -21.200;  283.000;  466.000
461.704;  -45.475;   58.000;  108.000
461.824;  -66.650;  238.000;  259.000
461.943;  -39.500;  191.000;  130.000
462.063;  -84.725;    2.000;  324.000
462.183;   23.750;  639.000;  717.000
462.303;   90.300; 1678.000; 1230.000
462.422;   30.425;  781.000;  840.000
462.542;  -45.450;  271.000;  391.000
462.662;   30.450;  353.000;  380.000
462.782;  218.800;  833.000;  572.000
462.901;  476.775;  545.000;  717.000
463.021;  307.300; 1702.000; 1638.000
463.141;   -9.600;  337.000;  770.000
463.260;  -23.775;  614.000;  474.000
463.380;    8.925;  902.000;  884.000
463.499;  -40.200;  342.000;  332.000
463.619;  -43.425;  581.000;  559.000
463.738;   94.550; 1644.000;  903.000
463.858;    2.775;  657.000;  811.000
463.978;  -36.175;  542.000;  396.000
464.097;   34.200;  921.000; 1114.000
464.217;  103.375; 1196.000; 1143.000
464.336;  105.700; 1068.000; 1130.000
464.455;  -43.175;  328.000;  659.000
464.575;   28.250;  597.000;  602.000
464.694;  172.100; 1204.000; 1179.000
464.814;  132.800; 1190.000; 1138.000
464.933;   79.650; 1095.000; 1027.000
465.052;   88.800; 1412.000; 1054.000
465.172;   94.500;  922.000;  799.000
465.291;  138.150; 1376.000; 1320.000
465.410;   12.675;  462.000;  735.000
465.530;   86.975; 1355.000; 1310.000
465.649;   68.950; 1209.000; 1273.000
465.768;  134.000; 1673.000; 1508.000
465.888;   48.250;  941.000; 1174.000
466.007;   87.275; 1335.000; 1440.000
466.126;   -1.950;  721.000;  641.000
466.245;   49.250; 1176.000; 1187.000
466.364;   23.575;  950.000; 1060.000
466.484;   41.025; 1024.000; 1213.000
466.603;   19.750; 1101.000; 1222.000
466.722;  117.700; 1490.000; 1769.000
466.841;   77.350; 1151.000; 1401.000
466.960;   31.475; 1069.000;  972.000
467.079;  125.125; 1971.000; 1786.000
467.198;   41.775; 1238.000; 1181.000
467.317;   83.300; 1768.000; 1162.000
467.436;   67.825; 1709.000; 1261.000
467.555;  118.000; 1796.000; 1746.000
467.674;   67.900; 1227.000; 1329.000
467.793;   41.800; 1376.000; 1374.000
467.912;   84.750; 1658.000; 1539.000
468.031;  130.625; 2038.000; 1930.000
468.150;  149.525; 1842.000; 1837.000
468.269;  184.900; 2313.000; 2090.000
468.388;  183.525; 2168.000; 2339.000
468.507;  248.275; 2884.000; 2903.000
468.626;  262.875; 2555.000; 2541.000
468.744;  138.750; 2018.000; 2174.000
468.863;  200.500; 2312.000; 2523.000
468.982;   94.100; 1503.000; 1555.000
469.101;  226.975; 2788.000; 2692.000
469.220;  167.050; 2333.000; 2176.000
469.338;  232.225; 2935.000; 3051.000
469.457;  199.425; 2719.000; 2545.000
469.576;  343.575; 3953.000; 3784.000
469.695;  222.975; 2877.000; 3066.000
469.813;  425.025; 4148.000; 4192.000
469.932;  389.775; 4255.000; 4485.000
470.051;  423.400; 4075.000; 4161.000
470.169;  834.275; 4470.000; 4338.000
470.288; 1518.100; 4700.000; 4809.000
470.406;  943.375; 5059.000; 5194.000
470.525;  632.450; 6101.000; 5787.000
470.644;  641.275; 6847.000; 6794.000
470.762;  829.325; 8397.000; 7873.000
470.881;  896.900; 8651.000; 8464.000
470.999; 1028.300; 9685.000; 9151.000
471.118; 1093.300;11174.000;10711.000

