
Integration time [ms]: 100.000
Averaging Nr. [scans]: 40
Smoothing Nr. [pixels]: 0
Data measured with spectrometer [name]: 2101012U2
Wave   ;Sample   ;Dark     ;Reference
[nm]   ;[counts] ;[counts] ;[counts] 

197.733;   50.100;  516.000;  404.000
197.879;  -71.300; -610.000; -634.000
198.025;  -51.175; -475.000; -420.000
198.171;  -72.800; -602.000; -612.000
198.317;  -26.625; -401.000; -316.000
198.463;  -50.075; -655.000; -404.000
198.609;   23.575;  181.000; -137.000
198.755;  -77.525; -644.000; -410.000
198.901;  -69.800; -505.000; -424.000
199.047;  -61.875; -615.000; -488.000
199.193;  -51.200; -230.000; -468.000
199.339;  -29.250; -222.000; -369.000
199.485;   27.375;  330.000;  271.000
199.631;   17.850;  227.000;  310.000
199.777;  -57.400; -466.000; -398.000
199.923;  -58.500; -610.000; -424.000
200.069;   -3.525; -141.000;  -58.000
200.215;   55.325;  128.000;  453.000
200.361;   24.475;  243.000;  477.000
200.507;  -61.125; -600.000; -373.000
200.653;  -39.750; -371.000; -194.000
200.798;  -33.775; -215.000; -125.000
200.944;   -2.625; -146.000;  -41.000
201.090;   49.450;   61.000;  222.000
201.236;  -19.725; -116.000; -158.000
201.382;  128.550;  874.000;  903.000
201.528;    0.375;  -58.000;  -48.000
201.674;  -22.700; -386.000; -293.000
201.819;  -63.775; -540.000; -439.000
201.965;  -66.550; -699.000; -447.000
202.111;  -24.225; -273.000; -226.000
202.257;  -42.050; -250.000; -238.000
202.402;   -6.475;   13.000;  -36.000
202.548;  -17.300; -169.000; -116.000
202.694;   78.900;  410.000; -183.000
202.840;  -67.650; -603.000; -531.000
202.985;  -72.700; -681.000; -639.000
203.131; -104.475; -832.000; -666.000
203.277;  -34.725; -199.000; -262.000
203.423;  -44.725; -434.000; -520.000
203.568;  -34.575; -462.000; -237.000
203.714;  -42.400; -535.000; -542.000
203.860;  -85.075; -682.000; -641.000
204.005;   28.850;  112.000;  167.000
204.151;   83.200;  561.000;  556.000
204.296;  -38.000; -354.000; -221.000
204.442;  -73.350; -600.000; -547.000
204.588;  -84.075; -592.000; -579.000
204.733;   18.075;  178.000;  168.000
204.879; -121.175;-1018.000; -822.000
205.025;    8.125;  -99.000;  126.000
205.170;    1.375;  -17.000;   94.000
205.316;   66.375;  438.000;  661.000
205.461;  -68.275; -698.000; -554.000
205.607;   82.325;  609.000;  665.000
205.752;  -74.825; -626.000; -551.000
205.898;  -57.500; -501.000; -391.000
206.043;  -47.175; -578.000; -506.000
206.189;  -42.500; -243.000; -285.000
206.334;   75.025;  554.000;  606.000
206.480;   73.875;  409.000;  239.000
206.625;  -75.125; -529.000; -552.000
206.771;  -37.150; -451.000; -373.000
206.916;  -36.875; -210.000; -537.000
207.062;  -71.600; -545.000; -591.000
207.207;  -56.475; -546.000; -443.000
207.353;   46.650;  185.000;  460.000
207.498;   20.875;  196.000;   85.000
207.643;  -47.150; -501.000; -370.000
207.789; -131.925;-1069.000; -910.000
207.934; -102.375; -665.000; -713.000
208.080;  -13.625; -154.000;   66.000
208.225;  -14.850;  -22.000;  -57.000
208.370;  -74.850; -727.000; -619.000
208.516;  -79.900; -741.000; -487.000
208.661;  -27.350; -127.000;  -69.000
208.806;  -29.950; -165.000; -171.000
208.952; -124.300;-1044.000; -731.000
209.097;   78.475;  378.000;  349.000
209.242;  -40.050; -307.000; -382.000
209.387;   49.025;  392.000;  350.000
209.533;  -54.625; -321.000; -350.000
209.678;   79.050;  472.000;  543.000
209.823;  -53.925; -408.000; -310.000
209.969;  -90.375; -860.000; -757.000
210.114; -112.750; -907.000; -719.000
210.259; -115.725; -939.000; -889.000
210.404;   -9.425; -171.000;  103.000
210.549;   -6.225;  108.000;    3.000
210.695;  -10.625;   -3.000;  -95.000
210.840;   37.475;   94.000;   67.000
210.985;  -59.825; -484.000; -303.000
211.130;   71.100;  268.000;  406.000
211.275;   18.475;  207.000;  199.000
211.420;  -54.975; -300.000; -289.000
211.566;  -67.325; -536.000; -489.000
211.711;   22.075;  218.000;  157.000
211.856;  -58.900; -545.000; -519.000
212.001;   12.350;  151.000;   44.000
212.146;   26.200;  153.000;   49.000
212.291;  -27.975; -210.000; -186.000
212.436;  -23.700; -280.000;   -6.000
212.581;  -87.175; -685.000; -653.000
212.726;  -67.100; -487.000; -538.000
212.871;  -50.350; -552.000; -217.000
213.016; -143.650;-1172.000;-1029.000
213.161;   59.250;  406.000;  291.000
213.306;  -55.600; -435.000; -577.000
213.451;  -96.950; -778.000; -689.000
213.596;  -43.950; -455.000; -347.000
213.741;  -59.675; -448.000; -538.000
213.886;  -72.200; -498.000; -517.000
214.031;  -31.250; -294.000; -124.000
214.176;  -35.950; -408.000; -341.000
214.321;  -25.325; -296.000; -157.000
214.466;  -31.750; -163.000;  -43.000
214.611;    3.250;  -61.000;  -10.000
214.756; -121.725; -948.000; -858.000
214.901;  -17.850; -388.000; -226.000
215.046; -125.725; -797.000; -825.000
215.191;    7.525;  128.000;   35.000
215.336;  -17.675; -157.000;  -19.000
215.480;  -64.875; -684.000; -505.000
215.625;   -8.100; -175.000;  -19.000
215.770;  -87.575; -757.000; -662.000
215.915;  -13.225;   -5.000;  -97.000
216.060;   -5.650; -113.000;  -21.000
216.205;  -99.875; -731.000; -779.000
216.349;  -68.950; -470.000; -533.000
216.494; -123.100; -939.000; -867.000
216.639; -118.150; -823.000; -888.000
216.784;  -79.600; -577.000; -525.000
216.929;   43.475;  392.000;  281.000
217.073;  -18.050; -244.000;  -31.000
217.218;   -1.250;   78.000;  -47.000
217.363;  -87.975; -656.000; -618.000
217.507;  -91.625; -623.000; -588.000
217.652; -120.500; -845.000; -874.000
217.797;  -89.650; -708.000; -659.000
217.942; -106.750; -856.000; -720.000
218.086;   67.400;  608.000;  539.000
218.231;  -18.225; -174.000;  -26.000
218.376;  -32.000; -337.000; -229.000
218.520;    7.925;  -41.000;   96.000
218.665;  -42.700; -338.000; -204.000
218.810;  -38.775; -275.000; -233.000
218.954;   27.400;  201.000;   35.000
219.099; -116.950; -713.000; -963.000
219.243;  -68.900; -589.000; -554.000
219.388;  -31.850; -264.000; -136.000
219.532;  -11.025; -116.000; -116.000
219.677;  -79.850; -564.000; -521.000
219.822;   -1.525;   33.000;   89.000
219.966;    2.100;   17.000;  -99.000
220.111;  -30.025; -328.000;  -40.000
220.255;  -94.650; -797.000; -750.000
220.400;  -20.350; -180.000; -146.000
220.544;  -75.550; -516.000; -450.000
220.689;  -61.125; -422.000; -451.000
220.833;  -29.000; -123.000;  -58.000
220.978;  -52.675; -393.000; -563.000
221.122;   24.275;  319.000;  307.000
221.267; -124.200; -906.000; -837.000
221.411;  -65.875; -478.000; -394.000
221.555;    0.250; -104.000;  -23.000
221.700;  -48.125; -329.000; -222.000
221.844;   36.675;  255.000;  272.000
221.989;  -43.375; -328.000; -311.000
222.133;  -42.575; -289.000; -307.000
222.277;   -4.050;    5.000;   78.000
222.422;   27.075;  227.000;  113.000
222.566;  -17.100; -381.000; -214.000
222.711;  -64.575; -414.000; -479.000
222.855;  -71.700; -643.000; -586.000
222.999; -100.375; -642.000; -717.000
223.144;  -33.025; -195.000; -194.000
223.288;   55.025;  423.000;  251.000
223.432;   25.875;  184.000;  230.000
223.576;    4.900;  152.000;  -21.000
223.721;   54.825;  364.000;  273.000
223.865;  -50.875; -472.000; -475.000
224.009;  251.550; 1673.000; 1631.000
224.153;  -82.425; -660.000; -671.000
224.298;  -77.050; -531.000; -489.000
224.442;  -20.100;  -74.000;  -33.000
224.586;  -14.900; -169.000; -106.000
224.730; -103.675; -858.000; -670.000
224.875; -100.225; -739.000; -688.000
225.019;   11.450;  102.000;  188.000
225.163;   58.225;  208.000;  341.000
225.307;   24.050;   97.000;  -91.000
225.451;   34.525;  360.000;  481.000
225.595;   41.200;  264.000;  176.000
225.739;   -7.125; -170.000;  -94.000
225.884;   -7.725;   86.000;    5.000
226.028;  -97.675; -760.000; -626.000
226.172;  -41.425; -260.000; -273.000
226.316; -117.450; -941.000; -902.000
226.460;  -56.875; -645.000; -493.000
226.604;  -51.450; -406.000; -400.000
226.748;  -99.075; -836.000; -733.000
226.892;  -40.300; -227.000; -181.000
227.036;  -46.250; -537.000; -447.000
227.180;  -55.200; -551.000; -375.000
227.324;  -65.750; -561.000; -580.000
227.468; -120.875; -819.000; -717.000
227.612;   12.250;  242.000;  -28.000
227.756; -100.725; -845.000; -698.000
227.900;   45.325;  342.000;  441.000
228.044;  -53.825; -509.000; -290.000
228.188;   46.600;  448.000;  568.000
228.332;  -84.950; -546.000; -472.000
228.476;  -38.425; -223.000; -149.000
228.620;  -33.825; -210.000; -150.000
228.764;   70.125;  431.000;  349.000
228.908;  -26.525; -155.000;   30.000
229.052;  -58.550; -615.000; -528.000
229.195;  -15.225; -172.000;   13.000
229.339;  -26.400; -235.000; -305.000
229.483;  -24.125;    5.000; -162.000
229.627;   -5.800; -156.000;  139.000
229.771;  -48.675; -218.000; -294.000
229.915;  -10.925;  230.000;   79.000
230.059;  -81.575; -648.000; -663.000
230.202;  -23.250; -370.000; -317.000
230.346;   -6.825; -107.000;  107.000
230.490;  -75.650; -489.000; -521.000
230.634; -102.025; -736.000; -553.000
230.777;   72.650;  478.000;  509.000
230.921;  -61.225; -450.000; -359.000
231.065;  -47.350; -246.000; -286.000
231.209;   33.775;  261.000;  265.000
231.352;   17.675;   54.000;   40.000
231.496;   16.975;  568.000;  188.000
231.640;  -85.800; -693.000; -621.000
231.783;   59.525;  546.000;  525.000
231.927;  -48.625; -294.000; -365.000
232.071; -118.950; -962.000; -736.000
232.214; -118.225; -980.000; -764.000
232.358;  -95.550; -683.000; -599.000
232.502;   11.025;  -19.000;    7.000
232.645; -135.825;-1090.000; -927.000
232.789;  -25.625; -257.000; -218.000
232.933;  -47.925; -407.000; -224.000
233.076; -128.700;-1038.000; -897.000
233.220; -114.625; -752.000; -777.000
233.363;  -72.975; -669.000; -477.000
233.507;   52.450;  371.000;  129.000
233.650;  -93.175; -764.000; -834.000
233.794;   47.675;  438.000;  461.000
233.938;  -51.275; -530.000; -362.000
234.081;  -19.075;  -93.000;   31.000
234.225;  -76.525; -631.000; -539.000
234.368; -115.975; -773.000; -723.000
234.512;  -32.650; -385.000; -299.000
234.655;  -89.725; -582.000; -555.000
234.798;  -72.225; -493.000; -466.000
234.942; -129.150; -884.000;-1002.000
235.085;  -76.900; -651.000; -443.000
235.229;  -73.550; -405.000; -410.000
235.372;  -50.150; -247.000; -191.000
235.516;  -71.725; -397.000; -321.000
235.659;   14.025;   92.000;  121.000
235.802;  -14.300;  -38.000;  -22.000
235.946;   14.875;  335.000;  215.000
236.089;   21.100;  126.000;  250.000
236.233;   34.475;  275.000;  298.000
236.376;  -43.850; -235.000; -378.000
236.519;  -53.950; -297.000; -319.000
236.663;  -16.350; -215.000; -117.000
236.806; -134.800;-1029.000; -999.000
236.949;   76.250;  543.000;  431.000
237.092;   66.975;  412.000;  391.000
237.236;  -79.550; -589.000; -502.000
237.379;   65.150;  352.000;  428.000
237.522; -119.200; -879.000; -768.000
237.666;  -22.025; -271.000;   18.000
237.809; -127.100; -851.000; -823.000
237.952;   27.450;  469.000;  271.000
238.095;  -74.800; -447.000; -442.000
238.238;   78.025;  688.000;  700.000
238.382;   -7.025;  166.000;  103.000
238.525;  -74.350; -598.000; -511.000
238.668; -148.775;-1060.000; -985.000
238.811;  -90.075; -638.000; -643.000
238.954;  -67.600; -483.000; -334.000
239.097;   88.800;  617.000;  664.000
239.241;   22.325;  394.000;  326.000
239.384;  -44.375; -254.000; -214.000
239.527;  -70.325; -424.000; -224.000
239.670; -153.350; -994.000;-1091.000
239.813; -108.725; -696.000; -658.000
239.956;   66.300;  579.000;  473.000
240.099; -107.150; -778.000; -725.000
240.242;   60.475;  428.000;  432.000
240.385;   46.950;  466.000;  450.000
240.528;  -75.150; -706.000; -473.000
240.671;   24.925;  189.000;  134.000
240.814;  -37.625; -441.000; -158.000
240.957;  -83.800; -767.000; -578.000
241.100;  -90.000; -779.000; -755.000
241.243; -143.575;-1234.000; -893.000
241.386;  -72.725; -508.000; -379.000
241.529;  -80.875; -735.000; -547.000
241.672;  -71.000; -566.000; -495.000
241.815; -124.150; -832.000; -808.000
241.958;  -25.600; -125.000; -182.000
242.101;  -79.150; -545.000; -390.000
242.244;  -32.775; -270.000; -325.000
242.387;  -40.400; -304.000; -246.000
242.530;   50.225;  470.000;  134.000
242.673;  -59.275; -381.000; -309.000
242.815; -120.625; -925.000; -899.000
242.958;  -69.250; -482.000; -381.000
243.101;    3.925;  132.000;  187.000
243.244;  -78.950; -564.000; -521.000
243.387;  -52.500; -313.000; -316.000
243.530;  -88.900; -657.000; -674.000
243.672;   -9.300;   43.000;  -92.000
243.815;  -45.550; -355.000; -283.000
243.958;    7.175;   98.000;  -26.000
244.101;    4.600;   59.000;  -16.000
244.243;  -18.825;  -47.000;  101.000
244.386; -105.700; -761.000; -630.000
244.529;  -32.475; -132.000; -139.000
244.672; -159.075;-1154.000; -951.000
244.814; -107.725; -621.000; -794.000
244.957;  -62.775; -380.000; -304.000
245.100;  -71.575; -489.000; -489.000
245.242;  -58.300; -387.000; -374.000
245.385;  -14.825;  -59.000;  -39.000
245.528; -116.750; -871.000; -705.000
245.670;   89.275;  612.000;  634.000
245.813;  -91.950; -599.000; -547.000
245.956;  -15.225; -324.000; -275.000
246.098;  -73.275; -508.000; -650.000
246.241;    8.250;  194.000;   48.000
246.383;  -18.525; -119.000;  -73.000
246.526;  -87.200; -454.000; -525.000
246.669; -113.525; -889.000; -780.000
246.811;   22.800;  172.000;   -1.000
246.954;  -65.800; -512.000; -426.000
247.096;  -25.325;  -84.000;   -6.000
247.239;  -66.150; -482.000; -445.000
247.381;  -61.675; -647.000; -488.000
247.524;   80.075;  645.000;  679.000
247.666;  -22.425;   58.000;   11.000
247.809; -109.600; -887.000; -691.000
247.951;  -32.775;  -75.000;  138.000
248.094;   25.200;  432.000;  308.000
248.236; -151.000;-1262.000;-1238.000
248.378;   13.175; -356.000;  -81.000
248.521;  -29.900; -334.000; -337.000
248.663;  -32.875; -236.000; -267.000
248.806;  -27.975; -300.000; -266.000
248.948;  -94.275; -886.000; -763.000
249.090;  -43.925; -428.000; -398.000
249.233;  -64.350; -344.000; -381.000
249.375;  -74.900; -474.000; -451.000
249.518;  -15.450;  -83.000; -133.000
249.660;  -16.875; -103.000;    3.000
249.802; -164.775;-1303.000;-1189.000
249.945;  -77.775; -612.000; -540.000
250.087; -106.800; -834.000; -768.000
250.229;  -44.400; -362.000; -480.000
250.371;  -73.550; -494.000; -439.000
250.514;  -40.625; -310.000; -244.000
250.656;   -8.350;   69.000;  102.000
250.798; -120.525; -849.000; -800.000
250.940;  -51.775; -322.000; -322.000
251.083;  -26.600; -335.000; -111.000
251.225;   58.775;  338.000;  310.000
251.367;  -45.200; -274.000; -373.000
251.509;  -33.350; -265.000; -210.000
251.651;  -97.000; -731.000; -671.000
251.794;   59.075;  538.000;  632.000
251.936; -112.750; -821.000; -747.000
252.078;  -74.075; -540.000; -461.000
252.220;  -72.750; -645.000; -477.000
252.362;   90.125;  344.000;  462.000
252.504;  -78.925; -677.000; -584.000
252.646; -119.025; -875.000; -722.000
252.788;   -2.125;   14.000; -128.000
252.931;  -38.275; -257.000; -253.000
253.073;  -42.375; -376.000; -317.000
253.215;   -9.525;  141.000;  122.000
253.357;  -13.575;   82.000; -153.000
253.499;  -65.125; -374.000; -234.000
253.641;  -92.375; -749.000; -594.000
253.783;  -88.400; -609.000; -527.000
253.925;  -98.075; -586.000; -591.000
254.067; -113.550; -744.000; -667.000
254.209;  -36.700; -391.000; -259.000
254.351; -129.900; -865.000; -883.000
254.493;  -61.375; -441.000; -417.000
254.635; -139.050; -936.000; -818.000
254.777;  -96.575; -752.000; -687.000
254.918;  -54.225; -512.000; -430.000
255.060;  -59.750; -551.000; -395.000
255.202;  -67.925; -473.000; -261.000
255.344;  -84.675; -658.000; -455.000
255.486;  -72.675; -471.000; -406.000
255.628; -105.700; -780.000; -781.000
255.770;  -89.875; -676.000; -536.000
255.912;  -79.900; -559.000; -468.000
256.053;  -81.400; -730.000; -508.000
256.195;  141.950; 1008.000;  903.000
256.337; -105.900; -861.000; -595.000
256.479;   61.600;  532.000;  416.000
256.621;  -44.200; -394.000; -212.000
256.762;  -93.750; -789.000; -742.000
256.904;   45.275;  485.000;  487.000
257.046;  -48.650; -381.000; -271.000
257.188;  -52.925; -351.000; -264.000
257.329;  -85.550; -525.000; -464.000
257.471; -103.825; -939.000; -807.000
257.613;  -62.775; -584.000; -498.000
257.755; -156.200;-1073.000; -982.000
257.896;   24.675;  286.000;  392.000
258.038;  -69.200; -403.000; -352.000
258.180;  -56.950; -354.000; -279.000
258.321;  -92.250; -581.000; -457.000
258.463;  -17.000;  -71.000;  133.000
258.605;  -83.925; -562.000; -570.000
258.746; -120.725; -886.000; -772.000
258.888; -151.600;-1026.000;-1020.000
259.029;   11.325;  121.000;   -8.000
259.171;  -86.450; -614.000; -550.000
259.313;   -2.775;  -49.000;  -47.000
259.454;  -63.950; -536.000; -414.000
259.596;  -60.150; -483.000; -390.000
259.737;  -85.600; -590.000; -474.000
259.879;   34.450;  217.000;  311.000
260.020;   90.625;  901.000;  636.000
260.162;  -26.800; -146.000; -253.000
260.303; -113.575; -768.000; -687.000
260.445;  -81.325; -609.000; -613.000
260.586;   20.425;  392.000;  157.000
260.728;  -43.650; -360.000; -248.000
260.869; -113.650; -350.000; -343.000
261.011;   65.500;  706.000;  537.000
261.152;  -61.325; -479.000; -319.000
261.293;  -78.700; -576.000; -595.000
261.435;  -22.625; -219.000; -184.000
261.576;  -57.100; -455.000; -325.000
261.718;   43.375;  420.000;  470.000
261.859; -137.725; -940.000; -949.000
262.000; -124.450; -951.000;-1016.000
262.142;  -25.400;  -52.000;  -60.000
262.283; -113.825; -808.000; -691.000
262.424;  -96.975; -666.000; -625.000
262.566; -150.775;-1161.000; -983.000
262.707; -113.150; -840.000; -830.000
262.848; -124.275; -769.000; -726.000
262.990;  -52.700; -362.000; -345.000
263.131;   70.275;  650.000;  681.000
263.272;  -14.150;  -61.000;  -41.000
263.413;  -91.175; -589.000; -561.000
263.555;  -67.650; -669.000; -143.000
263.696; -102.475; -550.000; -641.000
263.837;  -72.425; -449.000; -551.000
263.978;   -2.325;   -5.000;  -77.000
264.119;  -50.475; -283.000; -264.000
264.261; -109.825; -847.000; -630.000
264.402;   -9.450;   33.000;   40.000
264.543;  -74.025; -509.000; -524.000
264.684;  -11.425;   61.000;  -50.000
264.825;  -76.225; -816.000; -538.000
264.966;  -24.500;  -84.000;  -67.000
265.107; -103.200; -646.000; -670.000
265.248; -126.775; -825.000; -812.000
265.390;  -12.000;  152.000;   -9.000
265.531;  -12.225; -238.000; -107.000
265.672;  -93.675; -557.000; -630.000
265.813;   53.775;  563.000;  439.000
265.954; -149.100; -959.000; -940.000
266.095;  -21.225; -372.000; -322.000
266.236; -101.975; -686.000; -548.000
266.377;  -57.175; -243.000; -297.000
266.518;  -81.075; -619.000; -547.000
266.659;   29.175;  170.000;  268.000
266.800;    1.025;   83.000;   85.000
266.941;  -82.950; -487.000; -478.000
267.082;   25.825;  354.000;   99.000
267.223;  -56.700; -344.000; -273.000
267.364; -113.150; -892.000; -686.000
267.504;  -19.275;    3.000;  135.000
267.645;   14.900;  160.000;   67.000
267.786;  -30.650; -147.000;  -86.000
267.927;  -80.675; -473.000; -379.000
268.068;  -38.425; -186.000;  -61.000
268.209;  -44.775; -175.000; -413.000
268.350;  -58.900; -388.000; -532.000
268.490;  -85.750; -648.000; -521.000
268.631;   27.975;  127.000;  225.000
268.772; -107.250; -874.000; -647.000
268.913;  -62.925; -328.000; -476.000
269.054;  -18.325; -117.000;   12.000
269.194;  -47.250; -418.000; -402.000
269.335; -156.150;-1137.000;-1074.000
269.476;  -23.775;   33.000;  -35.000
269.617;  -43.350; -347.000; -392.000
269.757;  -90.500; -713.000; -646.000
269.898; -110.800; -856.000; -613.000
270.039;  -67.625; -415.000; -405.000
270.180; -143.150; -952.000; -816.000
270.320;  -33.425; -190.000; -250.000
270.461;  -36.250; -277.000; -249.000
270.602;  -15.000; -186.000; -156.000
270.742; -132.550; -868.000; -943.000
270.883;  -60.300; -442.000; -390.000
271.023;  -48.550; -358.000; -357.000
271.164; -100.525; -607.000; -528.000
271.305; -110.625; -666.000; -654.000
271.445;  -95.125; -722.000; -683.000
271.586;  -65.425; -462.000; -283.000
271.726;  -58.000; -397.000; -322.000
271.867;  -61.900; -594.000; -534.000
272.008;  161.525; -473.000; -285.000
272.148;  127.700;  462.000;  468.000
272.289;   -2.850; -113.000; -181.000
272.429;   17.375;   19.000;  185.000
272.570;  -99.100; -633.000; -737.000
272.710; -108.950; -825.000; -775.000
272.851;  -27.550;  113.000; -130.000
272.991; -169.125;-1173.000;-1077.000
273.131;  -73.275; -419.000; -459.000
273.272;  -96.150; -683.000; -723.000
273.412;   -3.475; -143.000;  -31.000
273.553;  -62.325; -488.000; -507.000
273.693;  128.000;  913.000;  858.000
273.834;  -87.975; -894.000; -692.000
273.974;  -71.300; -664.000; -615.000
274.114;  -98.100; -772.000; -560.000
274.255;   53.375;  414.000;  373.000
274.395;   -0.475; -180.000; -125.000
274.535;   37.475;  199.000;  350.000
274.676;   23.200;  225.000;   94.000
274.816;  -10.575;  110.000;   34.000
274.956;  -87.975; -624.000; -690.000
275.097;  -84.800;-1014.000; -922.000
275.237; -122.200; -913.000; -803.000
275.377; -106.750; -778.000; -689.000
275.517; -155.550; -878.000; -937.000
275.658;  -63.850; -590.000; -555.000
275.798;  -70.500; -606.000; -413.000
275.938;   14.225;  215.000;  323.000
276.078;  -98.425; -626.000; -395.000
276.218;   -3.575;   99.000;  104.000
276.359; -131.300;-1026.000;-1024.000
276.499;  -83.000; -605.000; -446.000
276.639;  -20.050; -305.000; -151.000
276.779;  -47.850; -475.000; -357.000
276.919;  -96.850; -783.000; -624.000
277.059;  -24.925; -261.000; -212.000
277.199;  -40.650; -357.000; -259.000
277.340;   27.450;  287.000;  175.000
277.480; -100.025; -840.000; -693.000
277.620;   10.125;  192.000;   16.000
277.760; -197.925;-1533.000;-1294.000
277.900;    1.250;  113.000;   33.000
278.040;   30.550;  137.000;  159.000
278.180;   35.100;  270.000;  170.000
278.320;   -4.225;   21.000;   56.000
278.460;  -80.925; -443.000; -469.000
278.600; -102.750; -708.000; -598.000
278.740;   47.400;  448.000;  224.000
278.880;  -45.400; -768.000; -791.000
279.020;  -22.725; -194.000; -144.000
279.160;  -96.225; -672.000; -595.000
279.300; -127.175; -926.000; -873.000
279.440;  -98.525; -709.000; -622.000
279.579;  -24.675;-1014.000; -929.000
279.719;  -51.175; -410.000; -394.000
279.859;   59.100;   -4.000;   41.000
279.999;   24.900; -208.000;  101.000
280.139;  -24.575; -435.000; -387.000
280.279;  -79.950; -708.000; -745.000
280.419;   -7.100; -229.000; -147.000
280.559;  -55.850; -259.000; -180.000
280.698;  -92.325; -790.000; -639.000
280.838; -104.425; -778.000; -800.000
280.978;  -98.475; -846.000; -790.000
281.118; -105.825; -811.000; -704.000
281.257;   -0.075;   24.000;    6.000
281.397; -123.775;-1094.000; -960.000
281.537; -101.575; -599.000; -712.000
281.677;  -27.800; -150.000; -101.000
281.816;  -98.225; -700.000; -630.000
281.956;  -37.525; -193.000; -257.000
282.096;  -64.375; -539.000; -396.000
282.235; -102.225; -672.000; -638.000
282.375;  -26.225; -243.000;  -98.000
282.515; -112.050; -715.000; -707.000
282.654;    2.800;   29.000;  106.000
282.794;   19.300;  388.000;  244.000
282.934;  -60.575; -530.000; -491.000
283.073; -125.025;-1030.000; -857.000
283.213;  -63.900; -460.000; -467.000
283.353;  -27.050; -408.000; -349.000
283.492;  -44.300; -264.000; -296.000
283.632;  -41.775; -254.000; -168.000
283.771; -113.625; -859.000; -730.000
283.911;  -46.425; -369.000; -260.000
284.050; -117.225; -794.000; -748.000
284.190; -153.750;-1229.000;-1096.000
284.329; -146.100;-1055.000; -964.000
284.469;  -81.250; -516.000; -591.000
284.608;  -69.650; -559.000; -598.000
284.748;  -79.625; -614.000; -570.000
284.887;  -16.050;  -87.000;  -20.000
285.027; -114.350; -844.000; -892.000
285.166;  -32.525; -192.000; -249.000
285.306;    2.050; -116.000;  -33.000
285.445;  -53.350; -229.000; -343.000
285.584;  -92.225; -630.000; -494.000
285.724;  -64.375; -282.000; -322.000
285.863; -110.175; -857.000; -507.000
286.002;  -52.325; -366.000; -276.000
286.142; -117.325; -715.000; -622.000
286.281;  -73.000; -525.000; -493.000
286.420;  -75.375; -554.000; -417.000
286.560;   92.075;  653.000;  623.000
286.699; -148.675; -958.000; -912.000
286.838;  -98.675; -590.000; -591.000
286.978;  -86.425; -533.000; -537.000
287.117; -134.500;-1085.000; -950.000
287.256;  -45.925; -228.000; -211.000
287.395;  -43.925; -197.000; -378.000
287.535;  -59.375; -370.000; -298.000
287.674;  -82.900; -509.000; -484.000
287.813;   47.825;  661.000;  533.000
287.952; -143.350;-1010.000; -871.000
288.091; -148.800;-1049.000; -915.000
288.231;    5.700;   13.000;   15.000
288.370; -166.100;-1217.000;-1200.000
288.509;  -95.000; -728.000; -645.000
288.648;  -96.650; -770.000; -548.000
288.787;  -38.425; -243.000;  -87.000
288.926;  -75.425; -454.000; -475.000
289.065;  105.050;  859.000;  672.000
289.204;  -59.600; -377.000; -217.000
289.344;  -94.575; -791.000; -690.000
289.483;   16.950;  416.000;  304.000
289.622;  -21.800; -291.000; -149.000
289.761;  -23.425; -309.000; -166.000
289.900; -113.100; -785.000; -626.000
290.039;  -24.750;  -12.000;  -95.000
290.178;  -47.875; -274.000; -180.000
290.317;  -82.050; -618.000; -479.000
290.456;  -83.950; -463.000; -451.000
290.595; -141.925; -961.000; -833.000
290.734; -144.725; -904.000; -891.000
290.873;  -75.950; -456.000; -420.000
291.011; -123.625; -833.000; -843.000
291.150; -111.550; -770.000; -682.000
291.289;  -27.575; -343.000; -110.000
291.428;  -95.900; -599.000; -480.000
291.567;  -67.500; -370.000; -442.000
291.706;   -5.450;  109.000;  154.000
291.845;  -92.175; -597.000; -505.000
291.984; -173.125;-1234.000;-1061.000
292.122;   63.200;  602.000;  582.000
292.261;   44.775;  620.000;  463.000
292.400;   -9.600; -144.000;  211.000
292.539; -109.650; -959.000; -813.000
292.678;  -33.800; -325.000; -300.000
292.816; -150.100;-1136.000; -965.000
292.955;  -92.250; -844.000; -684.000
293.094;  -30.050; -173.000; -337.000
293.233;  -53.000; -556.000; -400.000
293.371;  -37.350; -225.000;  -84.000
293.510; -102.300; -866.000; -780.000
293.649; -145.500; -959.000; -924.000
293.787;  -74.325;-1083.000;-1012.000
293.926;  -10.800; -113.000;  -32.000
294.065;  -52.450; -379.000; -290.000
294.203;   37.575;  298.000;  406.000
294.342;    5.475;   74.000;  156.000
294.481; 6486.475;51180.000; -836.000
294.619;  -28.750; -425.000; -582.000
294.758; -148.175;-1230.000;-1137.000
294.896;   50.325; -125.000;    5.000
295.035; -114.325;-1040.000;-1006.000
295.174; -138.000;-1082.000; -954.000
295.312;  -41.850; -323.000; -203.000
295.451;  -16.175; -307.000; -428.000
295.589;  -60.650; -389.000; -518.000
295.728;   12.725; -292.000; -165.000
295.866;    0.450;  -36.000;  -51.000
296.005;  -69.900; -584.000; -341.000
296.143;  -69.600; -558.000; -596.000
296.282; -114.900; -957.000; -881.000
296.420; -103.350; -657.000; -557.000
296.559;  -91.050; -892.000; -633.000
296.697;    5.600; -847.000; -665.000
296.835;   23.225;-1141.000;-1002.000
296.974;   49.000;  -23.000;   39.000
297.112;   -2.850; -443.000; -504.000
297.251;  -78.750; -815.000; -755.000
297.389;   64.225; -576.000; -438.000
297.527;   32.925; -145.000;  -83.000
297.666;  -67.725; -486.000; -438.000
297.804;  -50.650; -404.000; -264.000
297.942;  -17.350; -136.000; -161.000
298.081;  -15.925; -183.000;   63.000
298.219;   44.325;  -17.000;  -19.000
298.357;   46.575; -144.000;  -71.000
298.495;   12.650; -810.000; -812.000
298.634;   61.500;  245.000;  219.000
298.772;   46.125; -220.000; -338.000
298.910;  -34.525; -309.000; -182.000
299.048;  -19.500; -130.000; -153.000
299.187;  -38.675; -350.000; -250.000
299.325;    6.050;   52.000;  122.000
299.463;   50.050; -389.000; -299.000
299.601;   84.700; -327.000; -271.000
299.739; -108.950; -908.000; -883.000
299.877;  -87.025; -791.000; -703.000
300.016;  -58.300;-1095.000; -935.000
300.154;  134.950;  -19.000; -161.000
300.292;   20.625; -428.000; -348.000
300.430;   10.275; -408.000; -291.000
300.568; -119.775; -940.000; -874.000
300.706;  -52.475; -366.000; -469.000
300.844;  -86.725;-1108.000; -979.000
300.982;   92.575;  246.000;  282.000
301.120; -120.100; -965.000; -866.000
301.258;  -86.425; -812.000; -705.000
301.396;   19.725;  104.000;  -41.000
301.534;   52.925; -218.000; -293.000
301.672;  -21.475; -664.000; -521.000
301.810;    6.750; -613.000; -545.000
301.948;   85.925;   53.000;  149.000
302.086;  540.650; -250.000;  -32.000
302.224;  828.950; -610.000; -585.000
302.362;    9.775; -558.000; -622.000
302.500;  -37.500; -923.000; -893.000
302.638;   94.425;  128.000;  245.000
302.776;  -10.650; -352.000; -408.000
302.913;   46.625;  447.000;  236.000
303.051;   -0.400;  -86.000;  -23.000
303.189;   37.850;   90.000;  118.000
303.327;  -40.800; -341.000; -256.000
303.465;  -93.575; -832.000; -588.000
303.603; -109.525; -805.000; -604.000
303.740;   98.200;  417.000;  241.000
303.878;   -4.700; -800.000; -759.000
304.016;  -88.550; -915.000; -790.000
304.154; -128.925;-1123.000;-1152.000
304.291;  -44.850; -505.000; -554.000
304.429;    1.800;  102.000;   74.000
304.567; -137.175; -908.000; -893.000
304.705;  -59.100; -408.000; -515.000
304.842;   59.025; -616.000; -540.000
304.980;   41.950;  215.000;   35.000
305.118;   27.175; -367.000; -365.000
305.255;  -85.400; -945.000; -927.000
305.393;   45.350;  178.000;  239.000
305.531; -117.100;-1173.000; -956.000
305.668;  -75.325; -663.000; -582.000
305.806;   87.975; -358.000; -439.000
305.943;   85.725; -629.000; -637.000
306.081;   44.175; -378.000; -267.000
306.219; -107.000; -863.000; -748.000
306.356;    1.025;  158.000;   27.000
306.494;   93.725;  981.000;  761.000
306.631;   13.825;  -11.000;  -55.000
306.769;   -1.100; -613.000; -485.000
306.906;  -25.425; -284.000; -258.000
307.044;  -69.175; -473.000; -488.000
307.181;  -65.825; -410.000; -332.000
307.319;    5.100;  112.000;   87.000
307.456; -181.100;-1191.000;-1153.000
307.594; -107.150; -980.000; -727.000
307.731;   -8.600; -371.000; -164.000
307.868;   -3.175;  -15.000;   20.000
308.006; -133.375; -961.000; -847.000
308.143;  -72.125; -618.000; -330.000
308.281;  134.325;  -37.000; -254.000
308.418;  -24.300; -748.000; -640.000
308.555;  -78.825; -400.000; -250.000
308.693;  -85.475; -577.000; -573.000
308.830; -113.475; -712.000; -657.000
308.967;  -17.675; -215.000;  -95.000
309.105;  -49.200; -507.000; -396.000
309.242;   -3.025; -468.000; -367.000
309.379;  239.950; -577.000; -655.000
309.517;  -87.500; -936.000; -948.000
309.654; -112.475; -910.000; -734.000
309.791;  -79.575; -662.000; -580.000
309.928; -128.050; -977.000; -914.000
310.065;  171.400;  819.000;  697.000
310.203;  -19.925; -825.000; -850.000
310.340;  -25.175; -465.000; -321.000
310.477;  -69.875; -412.000; -516.000
310.614;  -61.725; -383.000; -473.000
310.751;  -88.750; -427.000; -518.000
310.889;  -29.475;    1.000;   11.000
311.026; -158.125;-1161.000; -939.000
311.163;  -53.875; -386.000; -380.000
311.300;  -74.500; -512.000; -479.000
311.437;  -91.575; -658.000; -619.000
311.574; -163.450;-1226.000; -985.000
311.711;  -65.100; -595.000; -433.000
311.848;  -47.825; -380.000; -388.000
311.985;  -10.000;  270.000;   93.000
312.122; -116.925; -932.000; -762.000
312.259; -127.650; -941.000; -994.000
312.396;  -99.325; -508.000; -551.000
312.533; -102.550; -812.000; -790.000
312.670; -126.300;-1070.000; -898.000
312.807;  -56.325; -352.000; -367.000
312.944;  -81.750; -513.000; -611.000
313.081;  -44.225; -150.000; -415.000
313.218; -106.050;-1111.000; -867.000
313.355;   -1.875; -531.000; -449.000
313.492;    1.625; -455.000; -292.000
313.629;  106.800;  815.000;  735.000
313.766; -150.375;-1176.000;-1008.000
313.902;  -22.550; -186.000;   21.000
314.039;  -56.000; -372.000; -289.000
314.176;   29.025;  286.000;  192.000
314.313;  -83.375; -569.000; -473.000
314.450;  -82.050; -788.000; -684.000
314.587;  -66.025; -468.000; -480.000
314.723;   -6.400;  -78.000;  130.000
314.860;   15.900;  318.000;  332.000
314.997;   18.350;  223.000;  142.000
315.134;  -43.825; -385.000; -368.000
315.270;  -36.575; -480.000; -496.000
315.407; -137.675;-1094.000; -967.000
315.544;  -56.025; -657.000; -538.000
315.681;  -74.150; -681.000; -565.000
315.817;   18.600; -133.000; -176.000
315.954;    1.650; -613.000; -392.000
316.091; -133.875;-1045.000;-1023.000
316.227;  -21.975;  -71.000; -179.000
316.364;  -12.975;   23.000;    6.000
316.500;  -65.300; -113.000; -300.000
316.637;  -45.550; -181.000; -302.000
316.774;  -74.400; -625.000; -358.000
316.910;  -88.575; -598.000; -629.000
317.047;  -69.050; -487.000; -351.000
317.183;  -55.300; -435.000; -566.000
317.320;  -18.325; -367.000; -321.000
317.456;  -59.000; -733.000; -805.000
317.593;  -96.550; -598.000; -641.000
317.729;  -13.025;  168.000;  -67.000
317.866; -198.150;-1434.000;-1285.000
318.002;  -82.075; -708.000; -948.000
318.139; -104.775; -883.000; -867.000
318.275; -111.375;-1003.000; -738.000
318.412;  -66.175; -517.000; -336.000
318.548;  -57.000; -751.000; -720.000
318.685; -103.775; -985.000; -888.000
318.821; -105.125; -762.000; -735.000
318.957;  -12.125;   34.000;  -23.000
319.094;   25.175;  297.000;  154.000
319.230;  -67.075; -756.000; -742.000
319.367;  101.775; -471.000; -520.000
319.503;   38.525; -538.000; -436.000
319.639;  -94.575; -877.000; -793.000
319.775;  -66.375; -750.000; -685.000
319.912;  -61.325; -424.000; -519.000
320.048;  -97.650;-1184.000;-1184.000
320.184;   69.400;   59.000;   70.000
320.321;  -64.900; -497.000; -467.000
320.457;   56.750;  475.000;  662.000
320.593;  -55.100; -375.000; -382.000
320.729; -109.900; -732.000; -734.000
320.866;  -72.550; -577.000; -635.000
321.002;  -89.125; -759.000; -809.000
321.138;  -12.600; -135.000; -211.000
321.274;   61.475; -148.000; -115.000
321.410;  -36.100; -585.000; -353.000
321.546;  -50.825;-1011.000; -911.000
321.683;   65.550;  400.000;  185.000
321.819;   -6.850;  -48.000; -117.000
321.955; -107.175; -743.000; -722.000
322.091;  -44.250; -585.000; -540.000
322.227;  -13.750; -382.000; -202.000
322.363;  -19.400; -320.000; -215.000
322.499;  -51.300; -343.000; -331.000
322.635;  153.350;  636.000;  443.000
322.771;   12.750; -139.000;   12.000
322.907;   73.750;  129.000;  327.000
323.043;  -24.975; -115.000; -206.000
323.179;  -46.475; -394.000; -363.000
323.315;    4.925; -401.000; -371.000
323.451;   73.150; -328.000; -236.000
323.587;   45.000;  -60.000;  -77.000
323.723;   -0.400; -682.000; -601.000
323.859;  -14.300; -258.000;  -76.000
323.995;  -35.625; -467.000; -409.000
324.131; -130.000; -967.000; -892.000
324.267;  -46.675; -254.000; -276.000
324.402; -143.625; -960.000; -983.000
324.538;  -24.925; -279.000; -104.000
324.674;   18.225;  164.000;   77.000
324.810;   99.200;  226.000;  308.000
324.946;  -13.600; -810.000; -658.000
325.082;  -76.050; -568.000; -475.000
325.217;   -1.900;  -62.000;   16.000
325.353; -113.525; -764.000; -659.000
325.489;  -87.400; -540.000; -506.000
325.625;  -85.300; -579.000; -525.000
325.760;   48.600;  517.000;  376.000
325.896;  -31.750; -515.000; -702.000
326.032;  -58.775; -403.000; -352.000
326.168;  -65.475; -462.000; -369.000
326.303;  -72.975; -352.000; -461.000
326.439;  -26.625; -336.000; -276.000
326.575;   -4.775; -190.000;  -29.000
326.710;  -20.725; -156.000;  -30.000
326.846;  -16.100;  146.000;  103.000
326.982; -109.825; -530.000; -548.000
327.117;  -75.500; -481.000; -442.000
327.253;  -85.375; -745.000; -742.000
327.388; -125.950;-1137.000;-1153.000
327.524;  -81.225; -811.000; -578.000
327.659;  -42.300;  -58.000;  -22.000
327.795;  -17.175;   69.000;   45.000
327.931;  -95.975; -723.000; -499.000
328.066;  -33.175; -417.000; -276.000
328.202;   -8.450;   12.000; -129.000
328.337;   90.125;  957.000;  713.000
328.473;   14.650;  -12.000;  -74.000
328.608;  -31.750; -256.000; -267.000
328.743;  -88.875; -799.000; -664.000
328.879;    2.600;  214.000;  114.000
329.014;  -35.025; -102.000; -122.000
329.150;  -88.775; -358.000; -483.000
329.285;  -96.625; -465.000; -466.000
329.421;  -51.900; -548.000; -246.000
329.556;  -25.600;  -36.000;   85.000
329.691;  -98.450; -633.000; -615.000
329.827;  -98.075; -626.000; -480.000
329.962;  -57.150;  131.000; -301.000
330.097;  -86.425; -673.000; -585.000
330.233;  -74.325; -410.000; -223.000
330.368; -139.625; -839.000; -628.000
330.503;  -26.175;    3.000;   98.000
330.638;    0.925;  -93.000; -125.000
330.774;  -68.375; -609.000; -530.000
330.909;  -47.000; -434.000; -244.000
331.044;  -95.875; -714.000; -708.000
331.179; -180.875;-1217.000;-1109.000
331.315;    4.200;   77.000;   20.000
331.450;  -12.075;  157.000;  285.000
331.585;  -94.400; -805.000; -706.000
331.720;  -88.000; -510.000; -460.000
331.855;  -17.000;  -35.000; -102.000
331.990;  248.925;   62.000;  138.000
332.126;  121.900; -110.000;   71.000
332.261;  -18.575; -379.000; -265.000
332.396;   -4.375; -135.000; -242.000
332.531;  -97.275;-1074.000;-1031.000
332.666;   44.275; -519.000; -363.000
332.801; -101.975; -726.000; -807.000
332.936;  -36.850; -192.000; -122.000
333.071; -158.425; -870.000; -817.000
333.206;   13.950;  307.000;  379.000
333.341;   22.975;  344.000;  418.000
333.476;  -90.900; -627.000; -623.000
333.611;  -37.150; -251.000; -173.000
333.746;  -46.450; -381.000; -464.000
333.881; -119.825; -973.000; -935.000
334.016; -135.550; -936.000; -917.000
334.151; -123.100; -746.000; -702.000
334.286;   10.500;  152.000;  186.000
334.421;  -13.300; -125.000; -178.000
334.556;  -99.075; -611.000; -567.000
334.690;  -87.150; -631.000; -577.000
334.825;   49.675;  381.000;   83.000
334.960;  -67.375; -285.000; -413.000
335.095;    0.650;  135.000;  -91.000
335.230; -110.775; -722.000; -738.000
335.365; -139.700;-1084.000; -990.000
335.499; -128.875;-1108.000;-1037.000
335.634;    1.150;    9.000;  534.000
335.769; -103.150; -755.000; -720.000
335.904;  -78.075; -603.000; -561.000
336.038;  -61.850; -735.000; -657.000
336.173; -126.625;-1206.000;-1194.000
336.308;   -8.625; -116.000; -189.000
336.443;    0.325; -544.000; -634.000
336.577;  -73.250; -936.000; -787.000
336.712;   44.475;   -4.000;  -12.000
336.847;  -48.225; -724.000; -607.000
336.981;   50.400; -272.000; -208.000
337.116;  266.450;  615.000;  501.000
337.250;  108.625; -434.000; -421.000
337.385;  269.450; -297.000; -208.000
337.520;  105.625; -632.000; -603.000
337.654;  -39.200; -215.000; -126.000
337.789; -144.975; -989.000; -933.000
337.923;  -35.300; -104.000; -205.000
338.058;  -92.600; -673.000; -738.000
338.192;  -43.900; -611.000; -488.000
338.327;   -8.075;  -18.000; -155.000
338.461;  -77.625; -299.000; -469.000
338.596;  -92.625; -780.000; -638.000
338.730; -102.150; -767.000; -803.000
338.865;   83.850;  -46.000; -140.000
338.999;  -35.400; -846.000; -702.000
339.134;  -38.925; -634.000; -536.000
339.268;   17.950; -741.000; -603.000
339.403;  353.575; -740.000; -775.000
339.537;  119.325; -894.000; -820.000
339.671; -115.300; -829.000; -813.000
339.806;  -43.700; -556.000; -512.000
339.940;    9.300; -261.000; -235.000
340.074; -100.975; -685.000; -510.000
340.209;  -49.300; -351.000; -230.000
340.343;  -93.700; -517.000; -573.000
340.477;  136.475;  998.000; 1036.000
340.612;  -42.275;-1033.000; -900.000
340.746;  131.325; -199.000; -243.000
340.880;  -73.275; -924.000; -785.000
341.014;  -38.100;  -45.000; -154.000
341.149; -128.425; -756.000; -718.000
341.283; -115.875; -839.000; -754.000
341.417; -100.325;-1124.000; -938.000
341.551;   94.775; -768.000; -708.000
341.685;  -42.675; -633.000; -611.000
341.820;  -46.025; -562.000; -493.000
341.954;  -54.525; -218.000; -349.000
342.088; -158.675;-1102.000;-1019.000
342.222;   64.150;  565.000;  618.000
342.356;  -68.325; -395.000; -335.000
342.490; -108.550; -880.000; -841.000
342.624;  -36.900; -339.000; -242.000
342.758;  -14.075; -364.000; -312.000
342.892;  -77.725; -710.000; -585.000
343.026;  -39.925;  -58.000; -116.000
343.160;  -62.600; -426.000; -376.000
343.294;  -79.250; -474.000; -337.000
343.428;  -39.950; -488.000; -448.000
343.562;  -22.775; -172.000;  -23.000
343.696;  -50.075; -385.000; -314.000
343.830;  -17.700; -362.000; -356.000
343.964;    8.275; -231.000; -168.000
344.098;  809.650;  199.000;   70.000
344.232;  654.200; -266.000; -127.000
344.366;   79.825; -567.000; -453.000
344.500;   24.150; -665.000; -744.000
344.634;   17.600; -324.000; -164.000
344.768;  -41.350; -531.000; -341.000
344.902;    7.800;  278.000;  256.000
345.035;  -71.550; -556.000; -496.000
345.169; -129.625; -933.000; -656.000
345.303;  -37.900; -308.000; -482.000
345.437;  -78.125; -826.000; -717.000
345.571;  -75.350; -675.000; -594.000
345.704;  -67.250; -309.000; -532.000
345.838;  -22.325; -331.000; -284.000
345.972;  -46.375; -543.000; -495.000
346.106;  155.575; -179.000; -190.000
346.239;  401.325; -312.000; -243.000
346.373;    1.975; -343.000; -302.000
346.507; -153.925; -950.000; -962.000
346.640;  111.525;  -30.000;   13.000
346.774;  -59.700; -650.000; -797.000
346.908;  -23.950; -138.000;  -11.000
347.041;  -99.925; -646.000; -593.000
347.175;   -2.450;  259.000;   27.000
347.309;  -93.600; -698.000; -628.000
347.442; -113.300; -883.000; -732.000
347.576;  233.900;  670.000;  668.000
347.709;  149.225; -123.000;  -52.000
347.843;  -94.850; -933.000; -825.000
347.976;   19.850;  235.000;  294.000
348.110; -193.625;-1268.000;-1186.000
348.243;  -95.550; -679.000; -772.000
348.377;   13.175;  -26.000;   60.000
348.510;   49.075;  403.000;  540.000
348.644;  -37.750;  -37.000; -159.000
348.777;  -10.450;  180.000;  191.000
348.911;  -52.425; -142.000; -112.000
349.044;  153.975;  471.000;  448.000
349.178;   97.900;-1069.000;-1006.000
349.311;  107.750;  141.000;  255.000
349.444;  -13.550; -927.000; -813.000
349.578;  -17.450; -347.000; -200.000
349.711;  -96.775; -959.000; -862.000
349.845;  -17.775; -661.000; -591.000
349.978; -143.600;-1224.000;-1137.000
350.111;  -85.900; -546.000; -612.000
350.244;  -79.250; -596.000; -700.000
350.378;  -20.625; -392.000; -393.000
350.511;  -74.650; -393.000; -426.000
350.644; -115.875; -808.000; -806.000
350.778;    5.000;  168.000;  104.000
350.911;  -28.700;  134.000;  140.000
351.044; -110.100; -685.000; -615.000
351.177;  -50.400; -321.000; -281.000
351.310;  -20.825;    3.000; -131.000
351.444;  -96.400; -888.000; -788.000
351.577;   98.500;  140.000;   90.000
351.710;   84.025;  593.000;  417.000
351.843;  -38.100; -165.000;  -77.000
351.976;  -16.825;  149.000;  -79.000
352.109;  -93.600; -621.000; -612.000
352.242;  -39.075; -464.000; -419.000
352.376;  -75.825; -580.000; -636.000
352.509;  124.950; -437.000; -356.000
352.642;  -14.775; -654.000; -604.000
352.775;   34.625; -141.000;  -98.000
352.908; -116.750; -933.000; -904.000
353.041; -122.325; -814.000; -824.000
353.174;  -58.475; -551.000; -424.000
353.307;  -84.725; -753.000; -764.000
353.440;   54.200;  541.000;  453.000
353.573; -120.725; -957.000;-1008.000
353.706;  -76.925; -384.000; -558.000
353.839;  -36.200; -264.000; -220.000
353.971;  -96.025; -657.000; -512.000
354.104;  -83.750; -896.000; -835.000
354.237;  -45.925; -627.000; -662.000
354.370; -104.450; -846.000; -879.000
354.503; -179.150;-1231.000;-1308.000
354.636;  -42.800; -529.000; -348.000
354.769; -127.850; -937.000; -860.000
354.902;   -7.725; -230.000; -139.000
355.034;  -26.825; -164.000; -220.000
355.167;  -18.275; -262.000; -162.000
355.300;  -98.650;-1061.000; -880.000
355.433;  990.150;  -71.000;  -14.000
355.565; 1543.250; -402.000; -384.000
355.698;  380.950; -356.000; -296.000
355.831;  -14.650; -882.000; -801.000
355.964;   42.700; -285.000; -170.000
356.096;  -95.900; -856.000; -843.000
356.229;  -17.825; -523.000; -530.000
356.362;  319.425; -373.000; -266.000
356.494;  599.050; -229.000; -162.000
356.627;  448.100;  269.000;  377.000
356.760;  661.800;  120.000;   53.000
356.892; 1006.050; -286.000; -601.000
357.025;  569.425;  403.000;  389.000
357.157;  525.575; -167.000; -179.000
357.290;  710.875; -856.000; -713.000
357.423;  217.200; -667.000; -556.000
357.555;   94.775; -217.000; -228.000
357.688;  120.250; -483.000; -364.000
357.820;  406.675; -870.000; -877.000
357.953; 3471.725; -563.000; -589.000
358.085;  707.425; -632.000; -612.000
358.218;  897.075;-1131.000; -932.000
358.350;  156.075;  -58.000;  312.000
358.483; -136.725;-1300.000;-1187.000
358.615;  -54.500;-1182.000;-1078.000
358.747;  -71.400;-1187.000;-1058.000
358.880;   -8.000; -810.000; -744.000
359.012;  -10.000; -376.000; -202.000
359.145;  -36.975; -480.000; -511.000
359.277;   47.025; -962.000; -913.000
359.409; 2813.000;  536.000;  231.000
359.542;  738.025; -738.000; -688.000
359.674;   63.725;   46.000;   13.000
359.806;  -68.550; -565.000; -438.000
359.939;  -52.425; -617.000; -516.000
360.071;  -12.575; -583.000; -579.000
360.203;  -33.825; -411.000; -364.000
360.335;   41.575;  164.000;  -16.000
360.468;  168.650; -249.000; -307.000
360.600; 2307.325; -547.000; -454.000
360.732; 2993.025; -546.000; -423.000
360.864;  396.150;-1216.000;-1044.000
360.996;  208.675; -516.000; -554.000
361.129;   19.350; -389.000; -598.000
361.261;    4.750;  110.000; -113.000
361.393;  -35.900; -252.000; -214.000
361.525;   31.125;   94.000;  244.000
361.657;  -49.725; -821.000; -703.000
361.789;   -9.625; -139.000; -155.000
361.921;  170.700; -642.000; -593.000
362.053;  212.725;  524.000;  541.000
362.185;   24.525;  288.000;   72.000
362.318;  -95.200; -709.000; -705.000
362.450;   89.700;  294.000;  444.000
362.582;   34.350; -913.000; -870.000
362.714;  -48.300; -353.000; -332.000
362.846; -100.700; -606.000; -490.000
362.978; -151.050; -941.000; -811.000
363.109;   11.075; -161.000; -260.000
363.241;  355.500; -739.000; -749.000
363.373;  452.725; -649.000; -564.000
363.505;  685.850; -186.000;  -91.000
363.637;  158.950; -787.000; -601.000
363.769; -123.550;-1067.000;-1080.000
363.901;  -81.400; -596.000; -654.000
364.033; -131.525;-1103.000;-1062.000
364.165;  -13.650; -283.000; -283.000
364.296;   57.175; -316.000; -177.000
364.428;   69.875;-1344.000;-1220.000
364.560;  -67.575; -679.000; -661.000
364.692;  -68.625; -738.000; -835.000
364.824;  206.475; -588.000; -456.000
364.955;  416.700; -402.000; -564.000
365.087;  992.700;-1097.000; -852.000
365.219;   32.200; -686.000; -816.000
365.351;  -72.925; -526.000; -572.000
365.482;   49.425;  300.000;  240.000
365.614;  -51.950; -402.000; -314.000
365.746; -100.250; -729.000; -752.000
365.877; -102.000; -706.000; -672.000
366.009;  279.625;  -35.000;  -62.000
366.141;  -82.600;-1249.000;-1134.000
366.272; -111.575; -803.000; -719.000
366.404; -116.575;-1005.000; -874.000
366.535;  -10.700; -139.000;  -12.000
366.667;  -96.125; -644.000; -649.000
366.799;   31.900;  353.000;  203.000
366.930; -131.425; -862.000; -996.000
367.062;  103.650; -639.000; -613.000
367.193;  159.225; -872.000; -842.000
367.325;  -74.650; -580.000; -684.000
367.456;   24.775; -246.000;   31.000
367.588;  159.050; -371.000; -318.000
367.719;   23.750;  -44.000;  -45.000
367.851;  -18.775; -222.000; -241.000
367.982;  -62.075; -875.000; -732.000
368.113;   59.825; -475.000; -358.000
368.245; -134.975; -960.000; -841.000
368.376;  -37.525; -254.000; -302.000
368.508;  -44.400; -188.000; -263.000
368.639; -146.375;-1166.000;-1034.000
368.770;  -33.675; -670.000; -589.000
368.902;  -79.875; -836.000; -926.000
369.033; -120.600; -906.000; -855.000
369.164;  -62.225; -720.000; -653.000
369.296; -104.750; -452.000; -601.000
369.427;  -10.300; -209.000; -144.000
369.558;  -51.300; -593.000; -377.000
369.689;  -84.575; -721.000; -569.000
369.821; -126.825; -951.000; -845.000
369.952;  -31.625;   42.000; -108.000
370.083;  -43.075; -229.000; -108.000
370.214; -105.475; -735.000; -650.000
370.345;  -10.525;   65.000;   81.000
370.477;  -95.775; -810.000; -790.000
370.608;  178.900; -328.000; -264.000
370.739;  -78.850;-1233.000;-1292.000
370.870;  -61.125;-1102.000; -923.000
371.001;   56.525; -378.000; -467.000
371.132;  -72.100; -754.000; -735.000
371.263;  -48.050;  -42.000; -148.000
371.394; -142.975; -841.000; -748.000
371.525;   27.950;  345.000;  225.000
371.657;  -78.000; -808.000; -670.000
371.788;   67.675;  103.000;  199.000
371.919;  143.225; -384.000; -304.000
372.050; 3271.250;  -91.000; -156.000
372.181;  958.675; -188.000; -294.000
372.311;  309.550;   42.000; -127.000
372.442;   27.125; -457.000; -451.000
372.573;  -44.375; -444.000; -340.000
372.704; -136.575;-1008.000; -980.000
372.835;   43.125; -228.000; -289.000
372.966;  -70.600; -646.000; -554.000
373.097;  -79.400; -575.000; -711.000
373.228;  -48.250; -717.000; -542.000
373.359;   98.750; -824.000; -536.000
373.490;  791.875; -881.000; -727.000
373.620; 1010.625;-1001.000; -803.000
373.751; 1542.900; -332.000; -396.000
373.882;  648.975; -663.000; -733.000
374.013;   32.150; -449.000; -262.000
374.143;  -51.475; -581.000; -659.000
374.274; -115.650; -987.000; -908.000
374.405;  132.250; -388.000; -276.000
374.536;  371.250; -526.000; -387.000
374.666;  946.050; -759.000; -807.000
374.797;  171.975; -817.000; -868.000
374.928;  712.100; -710.000; -560.000
375.058;  763.550; -535.000; -500.000
375.189;   60.575;  -59.000;  -93.000
375.320; -114.725; -928.000;-1034.000
375.450;  -50.600; -625.000; -616.000
375.581;  -55.225; -526.000; -436.000
375.712;  -48.150; -574.000; -250.000
375.842;  241.475; -438.000; -415.000
375.973;  186.725; -554.000; -513.000
376.103;  -60.525; -665.000; -648.000
376.234;  -81.800; -531.000; -552.000
376.364;  -56.225; -944.000; -867.000
376.495;  271.225;  925.000;  529.000
376.625;  -14.350; -472.000; -485.000
376.756;   35.200; -709.000; -678.000
376.886; -100.825;-1178.000;-1026.000
377.017;   49.375;-1048.000;-1061.000
377.147;  379.975; -786.000; -782.000
377.278;   55.800;  174.000;  228.000
377.408; -133.175; -801.000; -815.000
377.538; -121.100; -707.000; -693.000
377.669;  -88.225; -537.000; -613.000
377.799; -102.100; -645.000; -635.000
377.929;  -73.050; -610.000; -428.000
378.060; -131.450; -781.000; -847.000
378.190;  -53.675; -726.000; -531.000
378.320;  -59.400; -401.000; -406.000
378.451;  -23.600; -131.000;  -22.000
378.581;  -27.525;  -67.000; -110.000
378.711;  143.525; 1035.000;  866.000
378.841;  -39.700; -533.000; -675.000
378.972;  -71.475; -871.000; -751.000
379.102;  -33.225; -652.000; -579.000
379.232;  -29.850; -126.000;  -73.000
379.362; -124.850;-1001.000; -885.000
379.492;   -8.150; -373.000; -424.000
379.623;   72.925;    0.000;  111.000
379.753; -103.350;-1107.000; -974.000
379.883;  178.925;   59.000;  156.000
380.013;  -20.675;-1081.000;-1017.000
380.143; -123.225;-1097.000;-1056.000
380.273; -112.300; -985.000; -861.000
380.403;  -17.275; -344.000; -257.000
380.533;  -38.225; -651.000; -664.000
380.663;   46.825;  173.000;  128.000
380.793; -105.150;-1027.000;-1074.000
380.923;  -32.025; -103.000;  -34.000
381.053; -101.625; -613.000; -623.000
381.183;  -42.100; -106.000; -248.000
381.313;   -0.200; -656.000; -470.000
381.443;    0.900; -692.000; -473.000
381.573;  143.375; -402.000; -409.000
381.703;  192.150;-1249.000;-1095.000
381.833; -143.000;-1454.000;-1336.000
381.963;   95.350; -134.000;  -87.000
382.093; 1262.450; -925.000; -909.000
382.223;  376.125; -713.000; -602.000
382.353;  -32.725; -801.000; -608.000
382.482;  286.575;-1091.000; -964.000
382.612;  685.800; -872.000; -644.000
382.742;  370.725; -695.000; -622.000
382.872;  196.200; -565.000; -551.000
383.002;   37.575;  347.000; -132.000
383.131;  -30.875; -226.000; -160.000
383.261;  -55.700; -706.000; -768.000
383.391;  283.100; -552.000; -377.000
383.521; 3375.475;  451.000;  263.000
383.650;  809.375; -947.000; -904.000
383.780;  -26.300; -783.000; -656.000
383.910;  100.950;  880.000;  802.000
384.039;    3.150; -794.000; -656.000
384.169;  140.725;-1205.000;-1017.000
384.299;  -40.425; -650.000; -662.000
384.428;  -99.275; -764.000; -680.000
384.558;  -62.250; -308.000; -275.000
384.687;  -53.750; -414.000; -334.000
384.817;    4.375;   75.000;   -2.000
384.947;    1.300; -234.000; -141.000
385.076;  243.925;  982.000;  912.000
385.206;   88.725;  369.000;  480.000
385.335;  -46.625; -549.000; -417.000
385.465;  -86.125; -655.000; -663.000
385.594;  123.400;  -53.000;  -44.000
385.724;  345.475; -868.000; -838.000
385.853;   88.025; -296.000; -270.000
385.982; 1167.750; -743.000; -787.000
386.112; 1893.250;-1052.000; -871.000
386.241;  124.625; -307.000; -312.000
386.371;   -7.050; -174.000;  -87.000
386.500;  -18.025; -825.000; -789.000
386.629;   -2.900; -874.000; -817.000
386.759;   71.675;  -43.000;   68.000
386.888;  -22.275; -170.000; -250.000
387.017;  -87.475; -648.000; -620.000
387.147;  -94.525; -771.000; -798.000
387.276;  -30.875; -410.000; -397.000
387.405;  -15.125; -398.000; -342.000
387.535;  -58.825; -452.000; -361.000
387.664;  -80.800; -692.000; -620.000
387.793;   33.200; -198.000; -113.000
387.922;  440.925;  255.000;  200.000
388.052;   -0.600; -576.000; -423.000
388.181;  -29.925; -342.000; -472.000
388.310;  -34.200; -889.000; -710.000
388.439;  -67.575; -749.000; -742.000
388.568;  146.600;  365.000;  244.000
388.697;  902.300; -756.000; -653.000
388.826;  163.850; -768.000; -666.000
388.956;   33.925; -285.000; -307.000
389.085;  -37.750; -347.000; -287.000
389.214; -125.500; -842.000; -872.000
389.343;  -71.825; -645.000; -413.000
389.472;  401.975;  126.000;  149.000
389.601;  508.925;   91.000;    0.000
389.730;  -14.200; -568.000; -687.000
389.859;   52.075;  226.000;   46.000
389.988;  145.900; -423.000; -408.000
390.117;  107.150; -168.000; -146.000
390.246;  -28.050; -331.000; -320.000
390.375;   57.450; -673.000; -626.000
390.504;  -90.725; -703.000; -621.000
390.633; -114.875; -672.000; -726.000
390.761;  -75.000; -732.000; -645.000
390.890;    1.850;   -4.000; -130.000
391.019;  -57.575; -421.000; -441.000
391.148; -129.175; -826.000; -855.000
391.277;  -87.525; -576.000; -493.000
391.406;  -95.525; -821.000; -805.000
391.534;    6.850;  574.000; -301.000
391.663;  -80.925; -583.000; -645.000
391.792;  -99.875; -673.000; -701.000
391.921;   70.600;   -3.000;   15.000
392.050;  126.500; -287.000; -228.000
392.178;  -72.600;-1206.000;-1061.000
392.307;  102.275; -758.000; -712.000
392.436;   49.025; -427.000; -641.000
392.564;   -0.775;  166.000;   -6.000
392.693; -108.750; -860.000; -682.000
392.822;  143.175; -529.000; -534.000
392.950;   59.800; -880.000; -714.000
393.079;  257.125; -188.000; -328.000
393.208;   -9.700; -488.000; -511.000
393.336;  -37.925; -170.000; -145.000
393.465;  -61.825; -317.000; -199.000
393.593;  -21.850;   62.000;   79.000
393.722; -164.475;-1121.000; -916.000
393.850;  -45.500; -188.000;  -61.000
393.979; -158.975; -926.000; -805.000
394.107;  -78.875; -517.000; -537.000
394.236;  -42.200; -570.000; -507.000
394.364;  190.425;  383.000;  206.000
394.493;  282.450; -911.000; -767.000
394.621;  -29.300; -955.000; -916.000
394.750;  735.950; -873.000; -923.000
394.878; 3040.975; -247.000; -149.000
395.007; 4121.175; -721.000; -807.000
395.135;  317.025; -790.000; -721.000
395.263;  -87.075;-1038.000;-1040.000
395.392;   -1.475;  -25.000; -107.000
395.520; -140.075; -818.000; -679.000
395.648; -106.900; -865.000; -915.000
395.777;  -18.725; -366.000; -405.000
395.905;  -66.175; -449.000; -564.000
396.033;   11.675;  217.000;  172.000
396.162;  464.525; -399.000; -453.000
396.290;  418.450;  -17.000;   -2.000
396.418;   58.450; -555.000; -514.000
396.546;  -86.700; -571.000; -466.000
396.674; -116.925; -850.000; -878.000
396.803;   -0.325;  -72.000;  -23.000
396.931;   63.250; -179.000; -199.000
397.059;   -1.550;-1026.000; -989.000
397.187; -118.350;-1026.000; -975.000
397.315; -142.725; -884.000; -649.000
397.443; -107.150; -592.000; -443.000
397.572;  -99.175; -578.000; -424.000
397.700;  -52.125; -607.000; -614.000
397.828;    2.025;  120.000;  -90.000
397.956;  -57.625; -508.000; -478.000
398.084;  -67.400; -767.000; -626.000
398.212;   16.200;  137.000;  124.000
398.340;  -18.850;  -56.000;  159.000
398.468;   11.275; -390.000; -169.000
398.596; -132.850; -993.000; -953.000
398.724; -129.300; -762.000; -767.000
398.852; -168.925;-1024.000; -976.000
398.980;  -67.750; -560.000; -560.000
399.108;  -66.375; -982.000; -735.000
399.236;   27.225;   13.000;    8.000
399.363;    7.675;  222.000;  196.000
399.491;  -72.175; -404.000; -398.000
399.619; -127.525; -829.000; -800.000
399.747; -108.650; -859.000; -771.000
399.875;   69.775;  220.000;  234.000
400.003;  -74.725; -359.000; -284.000
400.130;  -99.675; -421.000; -341.000
400.258;  -25.300;  -83.000;   38.000
400.386;  -69.825; -352.000; -168.000
400.514;  -68.250; -526.000; -587.000
400.641; -105.025; -928.000; -802.000
400.769; -166.600; -979.000; -888.000
400.897; -117.725; -838.000; -793.000
401.025;  -33.275; -166.000; -152.000
401.152;   -4.975;  220.000;   38.000
401.280;  -85.375; -430.000; -429.000
401.408; -120.100; -712.000; -576.000
401.535; -106.000; -735.000; -758.000
401.663; -193.750;-1134.000;-1054.000
401.790; -102.300; -514.000; -525.000
401.918;   35.275;  436.000;  405.000
402.046;  -40.800;  134.000;  122.000
402.173;  -34.925;  -18.000;    7.000
402.301;  -83.200; -519.000; -397.000
402.428;   27.950;  528.000;  383.000
402.556; -153.225;-1188.000; -913.000
402.683;  -51.150;  -20.000;   -1.000
402.811;  -27.000;  -37.000; -206.000
402.938;  -15.325;   20.000;   27.000
403.066;  145.825; -574.000; -558.000
403.193;  299.950;  299.000;  239.000
403.321;  220.825; -396.000; -574.000
403.448;  269.975;   83.000;   27.000
403.575;  103.425;  -90.000;  -46.000
403.703; -108.975; -732.000; -557.000
403.830;  -82.900; -531.000; -496.000
403.957; -130.825;-1117.000;-1023.000
404.085;   -6.150;  -61.000; -172.000
404.212;   92.075;  -50.000;   63.000
404.339;  276.425; -566.000; -306.000
404.467; 5960.475; -612.000; -524.000
404.594; 3855.800; -287.000; -227.000
404.721;  868.075; -869.000; -764.000
404.848;   73.750; -113.000; -202.000
404.976; -108.975; -856.000; -783.000
405.103;  -24.175;  -14.000;  -82.000
405.230;  -15.850;  190.000;  226.000
405.357;   25.800;  117.000;   44.000
405.484;  275.350;  -49.000;    5.000
405.612;   44.900; -548.000; -563.000
405.739;  -85.000; -488.000; -243.000
405.866;   61.075;  669.000;  385.000
405.993;  -56.000; -398.000; -102.000
406.120; -142.300; -801.000; -887.000
406.247;  -68.650; -323.000; -342.000
406.374;  353.125;  540.000;  629.000
406.501;   56.350; -632.000; -702.000
406.628;  -86.025; -621.000; -589.000
406.755; -114.250; -803.000; -620.000
406.882;  -45.425; -228.000; -277.000
407.009; -112.975; -719.000; -628.000
407.136;   12.650; -480.000; -401.000
407.263;   78.125; -939.000; -829.000
407.390;  -94.475; -692.000; -614.000
407.517; -184.500;-1139.000;-1187.000
407.644;  -74.225; -332.000; -256.000
407.771;  -63.125; -249.000; -287.000
407.898;   -9.350;  168.000;  328.000
408.025;  -88.700; -421.000; -313.000
408.151;  -12.725;   82.000;  153.000
408.278;  -70.775; -267.000; -216.000
408.405; -124.100; -931.000; -899.000
408.532;  -72.900; -549.000; -542.000
408.659; -123.375; -677.000; -648.000
408.785; -210.100;-1298.000;-1170.000
408.912;  -73.600; -412.000; -296.000
409.039; -111.875; -610.000; -686.000
409.166; -114.475; -591.000; -555.000
409.292; -107.350; -571.000; -534.000
409.419; -125.775; -665.000; -649.000
409.546;  -86.725; -431.000; -192.000
409.672; -103.275; -713.000; -545.000
409.799;  -29.400;  -36.000;   34.000
409.926;  -55.850; -180.000; -179.000
410.052; -172.400;-1127.000;-1091.000
410.179;  -62.750; -368.000; -392.000
410.305;  -93.800; -375.000; -493.000
410.432;  -53.900; -220.000; -333.000
410.558;  -85.850; -305.000; -380.000
410.685; -116.950; -688.000; -431.000
410.812; -106.325; -409.000; -588.000
410.938; -146.100; -964.000; -808.000
411.065;  -97.075; -671.000; -645.000
411.191;  -34.750; -189.000; -174.000
411.317; -120.625; -823.000; -742.000
411.444;  -72.950; -317.000; -246.000
411.570;  -78.450; -339.000; -294.000
411.697; -127.300; -758.000; -752.000
411.823; -174.300; -989.000; -999.000
411.949;  -45.475;  -56.000;   17.000
412.076; -113.900; -539.000; -519.000
412.202; -128.950; -758.000; -757.000
412.329; -139.600; -798.000; -752.000
412.455; -115.275; -821.000; -657.000
412.581;  -28.725;  -15.000;  172.000
412.707;  -77.325; -540.000; -457.000
412.834;   13.175;  156.000;  219.000
412.960;  -84.850; -785.000; -784.000
413.086;  -92.000; -743.000; -701.000
413.212;  125.100;  604.000;  578.000
413.339;  -84.200; -685.000; -701.000
413.465;  -12.050; -364.000; -310.000
413.591; -104.125; -757.000; -474.000
413.717;  -62.850; -358.000; -366.000
413.843; -153.575; -839.000; -861.000
413.969;  -61.075;  -47.000; -292.000
414.096;  -94.875; -679.000; -679.000
414.222;  -26.625;  -33.000;   85.000
414.348;  -36.050; -652.000; -385.000
414.474;   62.125;   38.000;  -52.000
414.600;  -23.850; -126.000; -144.000
414.726;  -16.975;  -96.000;  -55.000
414.852;  -60.000; -365.000; -342.000
414.978;   16.850;  104.000;  -18.000
415.104;   21.175;   38.000;   80.000
415.230;    1.475; -329.000; -330.000
415.356;   27.475; -409.000; -514.000
415.482;  172.625;   13.000;  -35.000
415.608;  265.250; -247.000; -323.000
415.734;  967.275;   67.000;   38.000
415.860;20141.075; -875.000; -767.000
415.986;15040.375; -685.000; -607.000
416.111; 1302.150; -798.000; -652.000
416.237;  266.050; -424.000; -571.000
416.363; 1148.925; -765.000; -733.000
416.489; 4380.750; -324.000; -251.000
416.615;  476.825; -707.000; -742.000
416.741;  -18.950; -677.000; -784.000
416.866;  -84.575; -673.000; -736.000
416.992; -134.700; -801.000; -818.000
417.118;  -32.325;  -41.000;  -80.000
417.244;  -84.650; -798.000; -531.000
417.369;  -80.525; -801.000; -612.000
417.495;  -30.625; -325.000; -254.000
417.621; -105.875;-1015.000; -803.000
417.746;    3.200; -579.000; -572.000
417.872;   43.950; -254.000; -144.000
417.998;   50.175; -515.000; -530.000
418.123; 1078.375;-1073.000; -845.000
418.249; 5588.050; -512.000; -601.000
418.374;  789.225; -916.000; -824.000
418.500;  105.300; -383.000; -482.000
418.626;  112.000;   70.000;  -59.000
418.751;  105.675; -549.000; -448.000
418.877;  196.525; -637.000; -643.000
419.002; 1819.925; -688.000; -560.000
419.128;13098.250; -930.000; -721.000
419.253; 3269.100; -967.000; -837.000
419.379;  420.125; -391.000; -338.000
419.504;  402.925;  325.000;  415.000
419.629;  549.325; -393.000; -212.000
419.755; 3706.175; -317.000; -254.000
419.880;22355.175;  -98.000;   67.000
420.006;11869.075; -280.000; -221.000
420.131;30483.675; -662.000; -775.000
420.256; 4491.200; -315.000; -316.000
420.382;  586.675; -665.000; -687.000
420.507;   58.975; -649.000; -778.000
420.632;  106.125; -337.000; -339.000
420.758;  198.150; -251.000; -425.000
420.883;  -99.775; -876.000; -672.000
421.008; -113.150; -775.000; -619.000
421.133;  -89.650; -509.000; -467.000
421.259;  -61.625; -325.000; -259.000
421.384; -130.150; -834.000; -693.000
421.509;  -70.350;-1052.000; -862.000
421.634;  927.125; -936.000; -820.000
421.759;  411.525; -359.000; -327.000
421.885;  -68.225; -717.000; -656.000
422.010;  -82.325; -673.000; -542.000
422.135; -166.150; -695.000; -727.000
422.260;   20.275;  340.000;  280.000
422.385;  -39.625;   12.000;  -98.000
422.510;   -9.650;  151.000;  -26.000
422.635;    8.750;  -87.000;  -43.000
422.760;   84.000; -766.000; -791.000
422.885;   55.400;  -57.000;  -80.000
423.010;  -42.525; -112.000; -169.000
423.135; -103.350; -481.000; -561.000
423.260;  -24.250; -150.000; -245.000
423.385;   52.825;  476.000;  222.000
423.510;   26.025;   71.000;  -22.000
423.635;   67.250;  133.000;   45.000
423.760;   33.525;  383.000;  328.000
423.885;   42.500;  336.000;  391.000
424.010;    5.400;  -68.000;  -13.000
424.135;  -36.350;    5.000;  -33.000
424.259; -104.700; -654.000; -457.000
424.384;  -58.000; -279.000; -272.000
424.509;  -34.425; -260.000; -186.000
424.634; -118.275; -761.000; -623.000
424.759;  -32.050; -688.000; -544.000
424.883;  -17.075; -506.000; -527.000
425.008;  156.750; -502.000; -410.000
425.133; 2068.900; -679.000; -653.000
425.258;  986.950; -517.000; -381.000
425.382;  945.025; -867.000; -774.000
425.507; 2413.275; -487.000; -543.000
425.632;  411.250; -802.000; -663.000
425.756;  476.425; -256.000; -146.000
425.881; 6946.000; -831.000; -857.000
426.006;19208.300; -604.000; -355.000
426.130; 2985.550; -696.000; -508.000
426.255;  382.025; -611.000; -491.000
426.379;  163.550; -189.000; -577.000
426.504;  374.250;  660.000;  544.000
426.629; 4118.425; -519.000; -466.000
426.753; 2891.350;   64.000;  -46.000
426.878;  314.375; -252.000; -288.000
427.002;  138.700; -651.000; -668.000
427.127; 1623.050;  -35.000; -158.000
427.251;11861.175;  372.000;  401.000
427.375; 3506.125; -191.000; -173.000
427.500; 2119.700; -616.000; -610.000
427.624;  721.850; -234.000; -400.000
427.749;   72.875; -216.000; -225.000
427.873;  -43.700; -499.000; -412.000
427.997;  -45.375; -222.000; -230.000
428.122;   66.125;  795.000;  703.000
428.246;   55.425;  433.000;  434.000
428.371; -135.350; -869.000; -773.000
428.495; -104.400; -624.000; -646.000
428.619;  -38.525; -186.000; -117.000
428.743;   22.700;   65.000;  132.000
428.868;   -4.925; -732.000; -643.000
428.992; 1280.525; -219.000; -326.000
429.116;  500.450; -329.000; -357.000
429.240;  220.800;  419.000;  426.000
429.365;  -49.500; -454.000; -574.000
429.489;  -53.600; -638.000; -647.000
429.613;   27.025; -236.000; -177.000
429.737;   12.725; -563.000; -432.000
429.861;  266.150; -247.000; -133.000
429.985; 5682.350; -425.000; -305.000
430.109; 6414.625; -770.000; -908.000
430.234;  727.500;   76.000;  -50.000
430.358;   70.375; -250.000; -160.000
430.482;  -78.350; -672.000; -564.000
430.606;  -74.800; -655.000; -375.000
430.730;  -17.575; -437.000; -388.000
430.854;   59.000; -909.000; -835.000
430.978;  -87.175; -795.000; -764.000
431.102;  -99.325; -499.000; -422.000
431.226; -139.225; -874.000; -815.000
431.350;    4.900;  345.000;  422.000
431.474;  -82.050; -661.000; -373.000
431.597; -159.775;-1060.000; -848.000
431.721;  -91.000; -276.000; -267.000
431.845; -127.500; -704.000; -472.000
431.969;  -91.275; -304.000; -349.000
432.093;  -82.425; -395.000; -317.000
432.217;  -30.400;   32.000;   82.000
432.341;  -98.175; -523.000; -518.000
432.464;  -13.075;   96.000;   40.000
432.588;  141.600; -401.000; -329.000
432.712;   79.725;  -52.000;  -52.000
432.836;   39.600;  213.000;  263.000
432.959;  -35.300; -372.000; -311.000
433.083;   74.325;   11.000;    2.000
433.207;  383.875;  285.000;  930.000
433.330; 5197.850; -391.000; -200.000
433.454; 6578.750; -654.000; -638.000
433.578; 3747.950;  583.000;  278.000
433.701;  713.625; -623.000; -675.000
433.825;  113.550; -292.000; -299.000
433.949;  124.625;   28.000;  -72.000
434.072;   22.175; -410.000; -323.000
434.196;  -20.125; -309.000; -117.000
434.319; 3750.250;25482.000;25124.000
434.443;  692.700; -656.000; -603.000
434.566; 2741.200;  281.000;   62.000
434.690;  477.800; -637.000; -383.000
434.813;   41.675; -251.000; -173.000
434.937; -110.500; -569.000; -696.000
435.060;  -68.450; -423.000; -332.000
435.184;  192.400; -492.000; -217.000
435.307;  112.650;  159.000;  102.000
435.431;  -18.150;  -40.000;   24.000
435.554;  -88.325; -399.000; -240.000
435.677;  -98.150; -350.000; -258.000
435.801;  -56.000;  -25.000;   49.000
435.924;  -34.175;    1.000;  -67.000
436.048; -120.550;-1019.000; -732.000
436.171;  -74.275; -240.000;  -66.000
436.294;  -36.375; -248.000; -229.000
436.417;   86.575; -963.000; -849.000
436.541;  -85.550; -814.000; -840.000
436.664;  -51.725; -242.000; -316.000
436.787;  -29.750;   13.000;  113.000
436.910; -136.225; -792.000; -422.000
437.034;   -7.675;  142.000;  143.000
437.157;   15.625;  -11.000;    0.000
437.280;  -59.975; -392.000; -292.000
437.403; -108.150; -982.000; -869.000
437.526;  435.325; -903.000; -865.000
437.649; 1759.500; -505.000; -332.000
437.772;  245.550; -692.000; -540.000
437.896;  103.775;  700.000;  544.000
438.019; -107.050; -758.000; -503.000
438.142; -101.500; -596.000; -506.000
438.265;  -60.575; -639.000; -670.000
438.388;  445.000; -520.000; -410.000
438.511;   57.800; -597.000; -394.000
438.634;  -67.650; -247.000; -125.000
438.757; -145.250; -693.000; -619.000
438.880;  -44.375;  -34.000;  -57.000
439.003;  -77.050; -417.000; -437.000
439.126;  -80.875; -287.000; -167.000
439.248;  -69.525;  -98.000; -139.000
439.371;  -59.000;    9.000;  -53.000
439.494;   27.725;  510.000;  439.000
439.617;  -49.175;   65.000;  -88.000
439.740; -178.250; -968.000; -816.000
439.863; -150.475; -755.000; -595.000
439.986; -121.200; -476.000; -431.000
440.108;  -57.875; -161.000; -112.000
440.231; -173.100; -950.000; -836.000
440.354;  -71.175;  -64.000; -150.000
440.477;   -5.050; -566.000; -542.000
440.599;  -21.350; -200.000; -225.000
440.722; -131.100; -709.000; -586.000
440.845;   52.250;  751.000;  928.000
440.968; -117.350; -415.000; -311.000
441.090;  -82.750; -199.000;  -33.000
441.213; -163.400;-1021.000; -825.000
441.336;  -53.875; -159.000;   -5.000
441.458;  -82.300; -549.000; -396.000
441.581; -117.275; -628.000; -629.000
441.703;  -70.250; -152.000;   13.000
441.826; -129.925; -557.000; -400.000
441.948;  -56.700;   56.000;   51.000
442.071;   21.600;  555.000;  424.000
442.193; -125.400; -531.000; -485.000
442.316;    1.600;  152.000;   97.000
442.438;   23.900; -233.000;  -10.000
442.561;   60.950;  272.000;  262.000
442.683;  388.325; -809.000; -522.000
442.806;  917.975;   -8.000;   74.000
442.928;    3.225; -859.000; -604.000
443.051;  -84.075; -577.000; -373.000
443.173; -107.525; -341.000; -339.000
443.295;  -96.950; -263.000; -371.000
443.418;  -72.175; -321.000;  -29.000
443.540;   -9.200; -106.000;   -4.000
443.662; -115.100; -563.000; -465.000
443.785;  -24.750;  335.000;  199.000
443.907; -117.150; -362.000; -208.000
444.029; -137.575; -767.000; -494.000
444.152; -150.950; -644.000; -554.000
444.274;  -46.575;  -18.000;  -24.000
444.396; -130.675; -461.000; -221.000
444.518; -133.425; -691.000; -454.000
444.640; -115.725; -268.000; -111.000
444.763;  -33.700;  388.000;  249.000
444.885; -121.975; -432.000; -392.000
445.007;  -41.800;   35.000;   86.000
445.129; -129.550; -610.000; -515.000
445.251; -114.850; -372.000; -439.000
445.373; -148.275; -537.000; -386.000
445.495;  -18.975;  242.000;  350.000
445.617;   40.925;  853.000;  753.000
445.739;  -78.450; -215.000;  -97.000
445.861;  -43.350; -245.000; -112.000
445.984;  -55.375; -267.000; -101.000
446.105;  145.950; -418.000; -251.000
446.227;  467.125; -176.000;  -19.000
446.349;   -7.300; -358.000; -249.000
446.471; -109.625; -615.000; -448.000
446.593;  -71.300; -316.000;   19.000
446.715;  -22.975;  -67.000;   41.000
446.837;   52.750;  697.000;  832.000
446.959; -118.125; -457.000; -478.000
447.081; -128.850; -628.000; -518.000
447.203;   28.925;  862.000;  834.000
447.325; -107.050; -270.000;   42.000
447.446;  -13.225;  286.000;  530.000
447.568; -152.650; -921.000; -803.000
447.690;  -93.425; -236.000; -245.000
447.812; -151.100; -798.000; -519.000
447.933;  -39.825;  155.000;  127.000
448.055;  -63.125; -306.000; -261.000
448.177;  111.425;   31.000;   79.000
448.299;   28.475; -935.000; -727.000
448.420;    8.475;  -25.000;  159.000
448.542;  -29.225;   -3.000;   33.000
448.664;  -33.450;  109.000;  322.000
448.785;  -35.300;  265.000;   83.000
448.907;  -98.675; -614.000; -353.000
449.028;  -61.425; -771.000; -471.000
449.150;   47.925;  492.000;  589.000
449.272; -178.425;-1044.000; -913.000
449.393;   17.375;  612.000;  694.000
449.515; -149.175; -634.000; -581.000
449.636;  -71.125; -264.000; -155.000
449.758;   64.925;  763.000;  622.000
449.879; -104.825; -498.000; -396.000
450.001;  -84.625; -149.000;  -49.000
450.122;  -48.175;  -95.000;  162.000
450.244;  -27.275;   37.000;  364.000
450.365;  -98.275; -495.000; -301.000
450.486;  -30.875;   80.000;  268.000
450.608;   23.975;  393.000;  326.000
450.729;   75.600;  578.000;  645.000
450.850;    5.175; -574.000; -466.000
450.972;  797.600; -552.000; -389.000
451.093; 5178.950;  190.000;  588.000
451.214; 2344.900; -516.000; -337.000
451.336;  413.575;  773.000;  579.000
451.457;   62.825;  264.000;  393.000
451.578;  -48.000; -118.000;  -74.000
451.699; -105.875; -546.000; -540.000
451.821;  -68.325; -284.000;  -50.000
451.942;  -13.700;  278.000;  285.000
452.063;   12.500;  228.000;  419.000
452.184;  564.900;  -54.000;  -49.000
452.305; 1137.150;  103.000;  170.000
452.427;  149.300; -549.000; -301.000
452.548;  -19.100;   23.000;   79.000
452.669;  -47.150; -257.000;  -89.000
452.790;  -61.400;    3.000;  -18.000
452.911;   -4.350;  195.000;  259.000
453.032;  -85.650; -289.000;  -60.000
453.153;  -54.150;  -29.000;   81.000
453.274;   49.150;  737.000;  868.000
453.395;  -60.825;  -51.000;  175.000
453.516;  102.400; 1317.000; 1388.000
453.637;  -93.325; -205.000; -150.000
453.758;  -54.950;   15.000;   69.000
453.879; -118.775; -462.000; -250.000
454.000;   75.575; 1086.000;  948.000
454.121; -128.175; -554.000; -326.000
454.242; -133.250; -599.000; -383.000
454.362;  -62.000;  -99.000;  114.000
454.483;  -46.200; -309.000; -229.000
454.604;   50.350;  512.000;  580.000
454.725; -125.825; -627.000; -555.000
454.846; -130.975; -474.000; -406.000
454.967;  -39.400;  230.000;  539.000
455.087;  -43.300;  179.000;  153.000
455.208;   10.600;  554.000;  856.000
455.329;  -61.800;  -22.000;   82.000
455.450;   39.100;  473.000;  633.000
455.570;  -90.850; -234.000; -211.000
455.691;  -51.950;  201.000;  407.000
455.812;  -97.900; -270.000;  -92.000
455.932;  -62.850;  107.000;  -97.000
456.053;  -88.525;   36.000;   24.000
456.173; -112.600; -433.000; -355.000
456.294; -135.325; -476.000; -303.000
456.415;  -74.275;  -73.000;   70.000
456.535;  -39.875;  297.000;  273.000
456.656;  -39.450;  132.000;  240.000
456.776;  -70.825;    3.000;  298.000
456.897;  -16.175;  308.000;  513.000
457.017;  -94.175; -153.000;   -3.000
457.138; -110.375; -402.000; -249.000
457.258;  -41.900;  263.000;  224.000
457.379;  -19.075;  509.000;  521.000
457.499;  -20.275;  443.000;  432.000
457.620; -125.250; -407.000; -231.000
457.740; -104.875; -132.000;  -11.000
457.860;  -54.275;   87.000;   44.000
457.981;  -51.950;  132.000;  124.000
458.101;  -90.950;  -89.000;   40.000
458.221;  -28.700;  336.000;  402.000
458.342;  -76.100;   -4.000;  -37.000
458.462;   17.850;  617.000;  352.000
458.582;  -40.300; -302.000; -294.000
458.703;   12.425;  303.000;  154.000
458.823;  -26.550;   22.000;  163.000
458.943;   18.675;  341.000;  467.000
459.063;  -10.000; 1124.000;  192.000
459.183;  -22.825;  328.000;  313.000
459.304;   -2.525;  315.000;  517.000
459.424;  -72.200; -246.000;  -89.000
459.544;  326.300;  388.000;  764.000
459.664;  862.625;  499.000;  506.000
459.784;  327.600; 1004.000; 1175.000
459.904;   52.525;  867.000;  744.000
460.024;   49.800;  867.000;  684.000
460.144;    8.400;  449.000;  554.000
460.264;  -14.150;  515.000;  327.000
460.385;  -96.200; -145.000; -119.000
460.505;   29.550;  905.000;  858.000
460.625;  -93.700;  -17.000;  -68.000
460.745;  -28.175;  396.000;  541.000
460.864;  -61.675;  153.000;  469.000
460.984;   -7.900;  499.000;  573.000
461.104;  133.600; 1656.000; 1775.000
461.224;   10.050;  657.000;  650.000
461.344;  -25.025;  431.000;  360.000
461.464;  -49.600;  258.000;  513.000
461.584;  -20.625;  283.000;  466.000
461.704;  -43.475;   58.000;  108.000
461.824;  -63.675;  238.000;  259.000
461.943;  -40.650;  191.000;  130.000
462.063;  -93.050;    2.000;  324.000
462.183;   23.875;  639.000;  717.000
462.303;   90.350; 1678.000; 1230.000
462.422;   26.750;  781.000;  840.000
462.542;  -45.725;  271.000;  391.000
462.662;   27.325;  353.000;  380.000
462.782;  250.500;  833.000;  572.000
462.901;  496.425;  545.000;  717.000
463.021;  292.200; 1702.000; 1638.000
463.141;   -5.050;  337.000;  770.000
463.260;  -14.550;  614.000;  474.000
463.380;    8.625;  902.000;  884.000
463.499;  -44.525;  342.000;  332.000
463.619;  -53.850;  581.000;  559.000
463.738;  104.375; 1644.000;  903.000
463.858;    2.325;  657.000;  811.000
463.978;  -27.525;  542.000;  396.000
464.097;   36.450;  921.000; 1114.000
464.217;  122.175; 1196.000; 1143.000
464.336;  109.850; 1068.000; 1130.000
464.455;  -38.625;  328.000;  659.000
464.575;   23.475;  597.000;  602.000
464.694;  155.525; 1204.000; 1179.000
464.814;  135.200; 1190.000; 1138.000
464.933;   62.450; 1095.000; 1027.000
465.052;   84.100; 1412.000; 1054.000
465.172;   78.100;  922.000;  799.000
465.291;  118.825; 1376.000; 1320.000
465.410;   10.200;  462.000;  735.000
465.530;   73.000; 1355.000; 1310.000
465.649;   62.975; 1209.000; 1273.000
465.768;  132.100; 1673.000; 1508.000
465.888;   45.725;  941.000; 1174.000
466.007;   88.925; 1335.000; 1440.000
466.126;   -9.625;  721.000;  641.000
466.245;   37.500; 1176.000; 1187.000
466.364;   11.400;  950.000; 1060.000
466.484;   35.050; 1024.000; 1213.000
466.603;   27.875; 1101.000; 1222.000
466.722;  111.875; 1490.000; 1769.000
466.841;   75.800; 1151.000; 1401.000
466.960;   16.375; 1069.000;  972.000
467.079;  130.975; 1971.000; 1786.000
467.198;   44.500; 1238.000; 1181.000
467.317;   76.375; 1768.000; 1162.000
467.436;   81.225; 1709.000; 1261.000
467.555;  102.325; 1796.000; 1746.000
467.674;   69.275; 1227.000; 1329.000
467.793;   52.750; 1376.000; 1374.000
467.912;   67.325; 1658.000; 1539.000
468.031;  132.300; 2038.000; 1930.000
468.150;  119.600; 1842.000; 1837.000
468.269;  192.550; 2313.000; 2090.000
468.388;  183.850; 2168.000; 2339.000
468.507;  240.925; 2884.000; 2903.000
468.626;  254.350; 2555.000; 2541.000
468.744;  134.675; 2018.000; 2174.000
468.863;  185.575; 2312.000; 2523.000
468.982;  101.075; 1503.000; 1555.000
469.101;  220.375; 2788.000; 2692.000
469.220;  152.825; 2333.000; 2176.000
469.338;  255.625; 2935.000; 3051.000
469.457;  213.950; 2719.000; 2545.000
469.576;  343.000; 3953.000; 3784.000
469.695;  238.500; 2877.000; 3066.000
469.813;  410.100; 4148.000; 4192.000
469.932;  409.150; 4255.000; 4485.000
470.051;  408.700; 4075.000; 4161.000
470.169;  865.925; 4470.000; 4338.000
470.288; 1510.650; 4700.000; 4809.000
470.406;  895.825; 5059.000; 5194.000
470.525;  626.200; 6101.000; 5787.000
470.644;  656.425; 6847.000; 6794.000
470.762;  795.200; 8397.000; 7873.000
470.881;  903.975; 8651.000; 8464.000
470.999; 1044.250; 9685.000; 9151.000
471.118; 1119.375;11174.000;10711.000

