
Integration time [ms]: 100.000
Averaging Nr. [scans]: 40
Smoothing Nr. [pixels]: 0
Data measured with spectrometer [name]: 2101012U2
Wave   ;Sample   ;Dark     ;Reference
[nm]   ;[counts] ;[counts] ;[counts] 

197.733;   56.550;  516.000;  404.000
197.879;  -79.050; -610.000; -634.000
198.025;  -42.000; -475.000; -420.000
198.171;  -63.250; -602.000; -612.000
198.317;  -30.075; -401.000; -316.000
198.463;  -42.275; -655.000; -404.000
198.609;   16.900;  181.000; -137.000
198.755;  -78.700; -644.000; -410.000
198.901;  -60.475; -505.000; -424.000
199.047;  -65.825; -615.000; -488.000
199.193;  -13.300; -230.000; -468.000
199.339;  -28.975; -222.000; -369.000
199.485;   39.225;  330.000;  271.000
199.631;   25.100;  227.000;  310.000
199.777;  -60.475; -466.000; -398.000
199.923;  -58.650; -610.000; -424.000
200.069;  -17.100; -141.000;  -58.000
200.215;   61.600;  128.000;  453.000
200.361;   48.625;  243.000;  477.000
200.507;  -68.025; -600.000; -373.000
200.653;  -24.750; -371.000; -194.000
200.798;  -33.275; -215.000; -125.000
200.944;   11.200; -146.000;  -41.000
201.090;   44.675;   61.000;  222.000
201.236;  -11.100; -116.000; -158.000
201.382;  114.925;  874.000;  903.000
201.528;    8.900;  -58.000;  -48.000
201.674;  -37.800; -386.000; -293.000
201.819;  -67.175; -540.000; -439.000
201.965;  -84.700; -699.000; -447.000
202.111;  -23.575; -273.000; -226.000
202.257;  -41.950; -250.000; -238.000
202.402;   14.825;   13.000;  -36.000
202.548;  -24.925; -169.000; -116.000
202.694;   80.125;  410.000; -183.000
202.840;  -58.125; -603.000; -531.000
202.985;  -72.225; -681.000; -639.000
203.131;  -95.950; -832.000; -666.000
203.277;  -19.025; -199.000; -262.000
203.423;  -57.600; -434.000; -520.000
203.568;  -40.500; -462.000; -237.000
203.714;  -55.350; -535.000; -542.000
203.860;  -62.025; -682.000; -641.000
204.005;   18.075;  112.000;  167.000
204.151;   86.200;  561.000;  556.000
204.296;  -45.700; -354.000; -221.000
204.442;  -61.700; -600.000; -547.000
204.588;  -70.100; -592.000; -579.000
204.733;   23.750;  178.000;  168.000
204.879; -125.075;-1018.000; -822.000
205.025;   19.675;  -99.000;  126.000
205.170;    1.275;  -17.000;   94.000
205.316;   81.850;  438.000;  661.000
205.461;  -82.250; -698.000; -554.000
205.607;   85.900;  609.000;  665.000
205.752;  -67.775; -626.000; -551.000
205.898;  -43.650; -501.000; -391.000
206.043;  -55.225; -578.000; -506.000
206.189;  -42.375; -243.000; -285.000
206.334;   79.750;  554.000;  606.000
206.480;   74.225;  409.000;  239.000
206.625;  -77.800; -529.000; -552.000
206.771;  -46.525; -451.000; -373.000
206.916;  -21.250; -210.000; -537.000
207.062;  -73.200; -545.000; -591.000
207.207;  -67.650; -546.000; -443.000
207.353;   62.825;  185.000;  460.000
207.498;    7.800;  196.000;   85.000
207.643;  -42.050; -501.000; -370.000
207.789; -127.525;-1069.000; -910.000
207.934;  -89.425; -665.000; -713.000
208.080;  -25.050; -154.000;   66.000
208.225;    5.150;  -22.000;  -57.000
208.370;  -87.000; -727.000; -619.000
208.516;  -57.600; -741.000; -487.000
208.661;  -25.800; -127.000;  -69.000
208.806;  -16.550; -165.000; -171.000
208.952; -120.550;-1044.000; -731.000
209.097;   73.375;  378.000;  349.000
209.242;  -30.300; -307.000; -382.000
209.387;   59.575;  392.000;  350.000
209.533;  -44.625; -321.000; -350.000
209.678;   77.725;  472.000;  543.000
209.823;  -38.400; -408.000; -310.000
209.969;  -99.850; -860.000; -757.000
210.114; -111.450; -907.000; -719.000
210.259; -109.725; -939.000; -889.000
210.404;   -3.850; -171.000;  103.000
210.549;   11.550;  108.000;    3.000
210.695;   -4.925;   -3.000;  -95.000
210.840;   28.575;   94.000;   67.000
210.985;  -57.425; -484.000; -303.000
211.130;   72.650;  268.000;  406.000
211.275;    5.625;  207.000;  199.000
211.420;  -48.000; -300.000; -289.000
211.566;  -72.000; -536.000; -489.000
211.711;   20.375;  218.000;  157.000
211.856;  -68.025; -545.000; -519.000
212.001;   28.125;  151.000;   44.000
212.146;   24.925;  153.000;   49.000
212.291;  -21.650; -210.000; -186.000
212.436;  -14.725; -280.000;   -6.000
212.581;  -77.200; -685.000; -653.000
212.726;  -76.325; -487.000; -538.000
212.871;  -59.650; -552.000; -217.000
213.016; -149.150;-1172.000;-1029.000
213.161;   62.550;  406.000;  291.000
213.306;  -71.850; -435.000; -577.000
213.451;  -85.450; -778.000; -689.000
213.596;  -45.925; -455.000; -347.000
213.741;  -54.425; -448.000; -538.000
213.886;  -67.625; -498.000; -517.000
214.031;  -17.650; -294.000; -124.000
214.176;  -51.300; -408.000; -341.000
214.321;  -15.650; -296.000; -157.000
214.466;  -24.675; -163.000;  -43.000
214.611;   -9.750;  -61.000;  -10.000
214.756; -116.025; -948.000; -858.000
214.901;  -27.325; -388.000; -226.000
215.046; -123.150; -797.000; -825.000
215.191;   15.850;  128.000;   35.000
215.336;  -27.825; -157.000;  -19.000
215.480;  -61.450; -684.000; -505.000
215.625;    1.575; -175.000;  -19.000
215.770;  -81.050; -757.000; -662.000
215.915;    5.100;   -5.000;  -97.000
216.060;  -12.400; -113.000;  -21.000
216.205; -102.525; -731.000; -779.000
216.349;  -80.700; -470.000; -533.000
216.494; -128.575; -939.000; -867.000
216.639; -108.525; -823.000; -888.000
216.784;  -86.350; -577.000; -525.000
216.929;   47.400;  392.000;  281.000
217.073;   -2.300; -244.000;  -31.000
217.218;    4.050;   78.000;  -47.000
217.363; -100.400; -656.000; -618.000
217.507;  -74.700; -623.000; -588.000
217.652; -123.550; -845.000; -874.000
217.797;  -86.875; -708.000; -659.000
217.942; -111.050; -856.000; -720.000
218.086;   75.275;  608.000;  539.000
218.231;  -15.075; -174.000;  -26.000
218.376;  -30.650; -337.000; -229.000
218.520;    7.075;  -41.000;   96.000
218.665;  -18.875; -338.000; -204.000
218.810;  -40.000; -275.000; -233.000
218.954;   12.900;  201.000;   35.000
219.099;  -93.925; -713.000; -963.000
219.243;  -74.150; -589.000; -554.000
219.388;  -25.600; -264.000; -136.000
219.532;   -4.725; -116.000; -116.000
219.677;  -88.800; -564.000; -521.000
219.822;   17.575;   33.000;   89.000
219.966;    6.875;   17.000;  -99.000
220.111;  -29.850; -328.000;  -40.000
220.255;  -81.200; -797.000; -750.000
220.400;  -17.225; -180.000; -146.000
220.544;  -72.625; -516.000; -450.000
220.689;  -46.575; -422.000; -451.000
220.833;  -22.875; -123.000;  -58.000
220.978;  -42.950; -393.000; -563.000
221.122;   22.525;  319.000;  307.000
221.267; -107.650; -906.000; -837.000
221.411;  -67.425; -478.000; -394.000
221.555;   -1.225; -104.000;  -23.000
221.700;  -46.325; -329.000; -222.000
221.844;   42.675;  255.000;  272.000
221.989;  -43.675; -328.000; -311.000
222.133;  -28.800; -289.000; -307.000
222.277;  -11.675;    5.000;   78.000
222.422;   -2.975;  227.000;  113.000
222.566;  -40.725; -381.000; -214.000
222.711;  -48.975; -414.000; -479.000
222.855;  -78.725; -643.000; -586.000
222.999;  -81.900; -642.000; -717.000
223.144;  -35.125; -195.000; -194.000
223.288;   58.225;  423.000;  251.000
223.432;   18.550;  184.000;  230.000
223.576;   22.925;  152.000;  -21.000
223.721;   43.700;  364.000;  273.000
223.865;  -40.150; -472.000; -475.000
224.009;  252.875; 1673.000; 1631.000
224.153;  -71.900; -660.000; -671.000
224.298;  -63.525; -531.000; -489.000
224.442;  -22.600;  -74.000;  -33.000
224.586;  -14.900; -169.000; -106.000
224.730;  -80.725; -858.000; -670.000
224.875; -101.050; -739.000; -688.000
225.019;   12.725;  102.000;  188.000
225.163;   54.475;  208.000;  341.000
225.307;   19.000;   97.000;  -91.000
225.451;   42.375;  360.000;  481.000
225.595;   29.175;  264.000;  176.000
225.739;  -27.300; -170.000;  -94.000
225.884;   -0.425;   86.000;    5.000
226.028; -102.675; -760.000; -626.000
226.172;  -26.500; -260.000; -273.000
226.316; -113.325; -941.000; -902.000
226.460;  -63.425; -645.000; -493.000
226.604;  -56.225; -406.000; -400.000
226.748;  -99.325; -836.000; -733.000
226.892;  -33.950; -227.000; -181.000
227.036;  -31.425; -537.000; -447.000
227.180;  -54.075; -551.000; -375.000
227.324;  -72.875; -561.000; -580.000
227.468; -115.450; -819.000; -717.000
227.612;   20.900;  242.000;  -28.000
227.756;  -99.925; -845.000; -698.000
227.900;   55.175;  342.000;  441.000
228.044;  -55.825; -509.000; -290.000
228.188;   65.150;  448.000;  568.000
228.332;  -84.775; -546.000; -472.000
228.476;  -23.375; -223.000; -149.000
228.620;  -18.725; -210.000; -150.000
228.764;   54.675;  431.000;  349.000
228.908;   -8.275; -155.000;   30.000
229.052;  -56.625; -615.000; -528.000
229.195;  -13.075; -172.000;   13.000
229.339;  -21.325; -235.000; -305.000
229.483;  -32.675;    5.000; -162.000
229.627;   20.825; -156.000;  139.000
229.771;  -37.550; -218.000; -294.000
229.915;   15.725;  230.000;   79.000
230.059;  -92.700; -648.000; -663.000
230.202;  -29.225; -370.000; -317.000
230.346;  -18.325; -107.000;  107.000
230.490;  -52.850; -489.000; -521.000
230.634;  -97.000; -736.000; -553.000
230.777;   79.950;  478.000;  509.000
230.921;  -52.275; -450.000; -359.000
231.065;  -40.800; -246.000; -286.000
231.209;   29.800;  261.000;  265.000
231.352;   24.900;   54.000;   40.000
231.496;   19.525;  568.000;  188.000
231.640;  -74.075; -693.000; -621.000
231.783;   62.000;  546.000;  525.000
231.927;  -34.825; -294.000; -365.000
232.071; -102.025; -962.000; -736.000
232.214; -106.975; -980.000; -764.000
232.358;  -88.825; -683.000; -599.000
232.502;   -3.575;  -19.000;    7.000
232.645; -141.325;-1090.000; -927.000
232.789;  -16.625; -257.000; -218.000
232.933;  -41.050; -407.000; -224.000
233.076; -119.175;-1038.000; -897.000
233.220;  -92.450; -752.000; -777.000
233.363;  -66.050; -669.000; -477.000
233.507;   55.975;  371.000;  129.000
233.650;  -98.225; -764.000; -834.000
233.794;   42.600;  438.000;  461.000
233.938;  -52.550; -530.000; -362.000
234.081;  -32.150;  -93.000;   31.000
234.225;  -60.675; -631.000; -539.000
234.368; -105.825; -773.000; -723.000
234.512;  -38.250; -385.000; -299.000
234.655;  -83.400; -582.000; -555.000
234.798;  -74.950; -493.000; -466.000
234.942; -131.625; -884.000;-1002.000
235.085;  -65.575; -651.000; -443.000
235.229;  -63.925; -405.000; -410.000
235.372;  -45.900; -247.000; -191.000
235.516;  -56.875; -397.000; -321.000
235.659;   17.275;   92.000;  121.000
235.802;   -9.325;  -38.000;  -22.000
235.946;   20.325;  335.000;  215.000
236.089;   27.300;  126.000;  250.000
236.233;   46.725;  275.000;  298.000
236.376;  -35.350; -235.000; -378.000
236.519;  -39.125; -297.000; -319.000
236.663;  -27.975; -215.000; -117.000
236.806; -134.950;-1029.000; -999.000
236.949;   32.475;  543.000;  431.000
237.092;   58.350;  412.000;  391.000
237.236;  -76.450; -589.000; -502.000
237.379;   58.700;  352.000;  428.000
237.522; -114.000; -879.000; -768.000
237.666;  -12.425; -271.000;   18.000
237.809; -131.950; -851.000; -823.000
237.952;   34.550;  469.000;  271.000
238.095;  -73.000; -447.000; -442.000
238.238;   79.100;  688.000;  700.000
238.382;   -4.050;  166.000;  103.000
238.525;  -64.750; -598.000; -511.000
238.668; -131.225;-1060.000; -985.000
238.811;  -67.075; -638.000; -643.000
238.954;  -59.300; -483.000; -334.000
239.097;   85.025;  617.000;  664.000
239.241;   31.050;  394.000;  326.000
239.384;  -32.875; -254.000; -214.000
239.527;  -65.700; -424.000; -224.000
239.670; -153.350; -994.000;-1091.000
239.813; -117.125; -696.000; -658.000
239.956;   88.275;  579.000;  473.000
240.099; -105.575; -778.000; -725.000
240.242;   65.050;  428.000;  432.000
240.385;   41.375;  466.000;  450.000
240.528;  -69.250; -706.000; -473.000
240.671;   22.125;  189.000;  134.000
240.814;  -36.150; -441.000; -158.000
240.957;  -93.225; -767.000; -578.000
241.100;  -87.025; -779.000; -755.000
241.243; -148.300;-1234.000; -893.000
241.386;  -57.575; -508.000; -379.000
241.529;  -83.125; -735.000; -547.000
241.672;  -61.775; -566.000; -495.000
241.815; -106.350; -832.000; -808.000
241.958;  -21.450; -125.000; -182.000
242.101;  -74.025; -545.000; -390.000
242.244;  -42.325; -270.000; -325.000
242.387;  -32.550; -304.000; -246.000
242.530;   46.350;  470.000;  134.000
242.673;  -43.550; -381.000; -309.000
242.815; -124.275; -925.000; -899.000
242.958;  -65.675; -482.000; -381.000
243.101;   12.600;  132.000;  187.000
243.244;  -74.800; -564.000; -521.000
243.387;  -49.150; -313.000; -316.000
243.530;  -96.575; -657.000; -674.000
243.672;   -4.550;   43.000;  -92.000
243.815;  -55.050; -355.000; -283.000
243.958;   10.750;   98.000;  -26.000
244.101;    4.050;   59.000;  -16.000
244.243;  -19.875;  -47.000;  101.000
244.386; -101.675; -761.000; -630.000
244.529;  -17.775; -132.000; -139.000
244.672; -142.775;-1154.000; -951.000
244.814; -101.050; -621.000; -794.000
244.957;  -35.150; -380.000; -304.000
245.100;  -75.200; -489.000; -489.000
245.242;  -61.425; -387.000; -374.000
245.385;   -6.950;  -59.000;  -39.000
245.528; -124.225; -871.000; -705.000
245.670;   87.850;  612.000;  634.000
245.813;  -81.300; -599.000; -547.000
245.956;  -23.100; -324.000; -275.000
246.098;  -66.100; -508.000; -650.000
246.241;    2.725;  194.000;   48.000
246.383;  -21.150; -119.000;  -73.000
246.526;  -68.450; -454.000; -525.000
246.669; -126.700; -889.000; -780.000
246.811;   18.825;  172.000;   -1.000
246.954;  -61.775; -512.000; -426.000
247.096;  -23.150;  -84.000;   -6.000
247.239;  -75.875; -482.000; -445.000
247.381;  -64.150; -647.000; -488.000
247.524;   81.950;  645.000;  679.000
247.666;   -2.100;   58.000;   11.000
247.809; -115.025; -887.000; -691.000
247.951;   -3.300;  -75.000;  138.000
248.094;   16.000;  432.000;  308.000
248.236; -139.450;-1262.000;-1238.000
248.378;    2.500; -356.000;  -81.000
248.521;  -16.425; -334.000; -337.000
248.663;  -40.700; -236.000; -267.000
248.806;  -27.300; -300.000; -266.000
248.948;  -97.225; -886.000; -763.000
249.090;  -34.100; -428.000; -398.000
249.233;  -60.925; -344.000; -381.000
249.375;  -47.100; -474.000; -451.000
249.518;  -20.575;  -83.000; -133.000
249.660;   -9.175; -103.000;    3.000
249.802; -161.750;-1303.000;-1189.000
249.945;  -62.500; -612.000; -540.000
250.087; -118.850; -834.000; -768.000
250.229;  -55.625; -362.000; -480.000
250.371;  -73.025; -494.000; -439.000
250.514;  -45.550; -310.000; -244.000
250.656;  -53.975;   69.000;  102.000
250.798; -106.500; -849.000; -800.000
250.940;  -72.700; -322.000; -322.000
251.083;  -21.925; -335.000; -111.000
251.225;   49.975;  338.000;  310.000
251.367;  -36.500; -274.000; -373.000
251.509;  -36.475; -265.000; -210.000
251.651; -101.750; -731.000; -671.000
251.794;   36.475;  538.000;  632.000
251.936;  -95.375; -821.000; -747.000
252.078;  -63.325; -540.000; -461.000
252.220;  -65.925; -645.000; -477.000
252.362;   97.350;  344.000;  462.000
252.504;  -66.150; -677.000; -584.000
252.646;  -98.800; -875.000; -722.000
252.788;    2.225;   14.000; -128.000
252.931;  -27.125; -257.000; -253.000
253.073;  -31.100; -376.000; -317.000
253.215;    2.000;  141.000;  122.000
253.357;   -9.850;   82.000; -153.000
253.499;  -64.850; -374.000; -234.000
253.641;  -79.525; -749.000; -594.000
253.783;  -87.275; -609.000; -527.000
253.925; -102.700; -586.000; -591.000
254.067; -109.325; -744.000; -667.000
254.209;  -27.525; -391.000; -259.000
254.351; -123.650; -865.000; -883.000
254.493;  -50.125; -441.000; -417.000
254.635; -130.675; -936.000; -818.000
254.777;  -89.900; -752.000; -687.000
254.918;  -71.850; -512.000; -430.000
255.060;  -60.475; -551.000; -395.000
255.202;  -65.850; -473.000; -261.000
255.344;  -67.625; -658.000; -455.000
255.486;  -67.200; -471.000; -406.000
255.628; -107.000; -780.000; -781.000
255.770;  -84.850; -676.000; -536.000
255.912;  -49.500; -559.000; -468.000
256.053;  -91.200; -730.000; -508.000
256.195;  153.925; 1008.000;  903.000
256.337; -101.200; -861.000; -595.000
256.479;   64.100;  532.000;  416.000
256.621;  -46.025; -394.000; -212.000
256.762;  -86.850; -789.000; -742.000
256.904;   56.250;  485.000;  487.000
257.046;  -37.875; -381.000; -271.000
257.188;  -43.875; -351.000; -264.000
257.329;  -81.875; -525.000; -464.000
257.471; -111.675; -939.000; -807.000
257.613;  -55.375; -584.000; -498.000
257.755; -145.025;-1073.000; -982.000
257.896;   12.375;  286.000;  392.000
258.038;  -63.000; -403.000; -352.000
258.180;  -40.425; -354.000; -279.000
258.321;  -88.525; -581.000; -457.000
258.463;   -7.550;  -71.000;  133.000
258.605;  -92.450; -562.000; -570.000
258.746;  -83.775; -886.000; -772.000
258.888; -135.950;-1026.000;-1020.000
259.029;   17.725;  121.000;   -8.000
259.171;  -78.325; -614.000; -550.000
259.313;   -7.550;  -49.000;  -47.000
259.454;  -75.725; -536.000; -414.000
259.596;  -52.475; -483.000; -390.000
259.737;  -68.525; -590.000; -474.000
259.879;   52.875;  217.000;  311.000
260.020;   76.925;  901.000;  636.000
260.162;  -30.075; -146.000; -253.000
260.303; -117.600; -768.000; -687.000
260.445;  -74.950; -609.000; -613.000
260.586;   30.925;  392.000;  157.000
260.728;  -38.075; -360.000; -248.000
260.869; -117.525; -350.000; -343.000
261.011;   78.275;  706.000;  537.000
261.152;  -62.600; -479.000; -319.000
261.293;  -75.375; -576.000; -595.000
261.435;  -31.775; -219.000; -184.000
261.576;  -43.175; -455.000; -325.000
261.718;   42.300;  420.000;  470.000
261.859; -124.575; -940.000; -949.000
262.000; -129.525; -951.000;-1016.000
262.142;  -28.550;  -52.000;  -60.000
262.283; -113.425; -808.000; -691.000
262.424;  -98.025; -666.000; -625.000
262.566; -145.325;-1161.000; -983.000
262.707; -116.775; -840.000; -830.000
262.848; -120.700; -769.000; -726.000
262.990;  -38.975; -362.000; -345.000
263.131;   72.375;  650.000;  681.000
263.272;   -9.275;  -61.000;  -41.000
263.413;  -95.950; -589.000; -561.000
263.555;  -54.100; -669.000; -143.000
263.696;  -87.975; -550.000; -641.000
263.837;  -64.500; -449.000; -551.000
263.978;   -6.650;   -5.000;  -77.000
264.119;  -53.175; -283.000; -264.000
264.261; -115.300; -847.000; -630.000
264.402;    5.675;   33.000;   40.000
264.543;  -69.975; -509.000; -524.000
264.684;    0.100;   61.000;  -50.000
264.825;  -84.400; -816.000; -538.000
264.966;   -0.975;  -84.000;  -67.000
265.107; -102.825; -646.000; -670.000
265.248; -118.275; -825.000; -812.000
265.390;   -6.175;  152.000;   -9.000
265.531;  -18.475; -238.000; -107.000
265.672;  -83.350; -557.000; -630.000
265.813;   71.075;  563.000;  439.000
265.954; -145.100; -959.000; -940.000
266.095;  -12.375; -372.000; -322.000
266.236;  -99.325; -686.000; -548.000
266.377;  -32.350; -243.000; -297.000
266.518;  -77.150; -619.000; -547.000
266.659;    7.750;  170.000;  268.000
266.800;    5.675;   83.000;   85.000
266.941;  -85.025; -487.000; -478.000
267.082;    7.275;  354.000;   99.000
267.223;  -40.075; -344.000; -273.000
267.364; -101.925; -892.000; -686.000
267.504;  -21.600;    3.000;  135.000
267.645;   -5.925;  160.000;   67.000
267.786;  -24.125; -147.000;  -86.000
267.927;  -77.300; -473.000; -379.000
268.068;  -20.375; -186.000;  -61.000
268.209;  -52.850; -175.000; -413.000
268.350;  -62.350; -388.000; -532.000
268.490;  -89.625; -648.000; -521.000
268.631;   21.075;  127.000;  225.000
268.772; -115.000; -874.000; -647.000
268.913;  -41.425; -328.000; -476.000
269.054;  -11.950; -117.000;   12.000
269.194;  -48.250; -418.000; -402.000
269.335; -155.925;-1137.000;-1074.000
269.476;    0.425;   33.000;  -35.000
269.617;  -46.450; -347.000; -392.000
269.757;  -86.450; -713.000; -646.000
269.898;  -99.650; -856.000; -613.000
270.039;  -59.200; -415.000; -405.000
270.180; -141.200; -952.000; -816.000
270.320;  -15.775; -190.000; -250.000
270.461;  -39.975; -277.000; -249.000
270.602;  -11.200; -186.000; -156.000
270.742; -119.525; -868.000; -943.000
270.883;  -52.275; -442.000; -390.000
271.023;  -51.175; -358.000; -357.000
271.164;  -64.625; -607.000; -528.000
271.305;  -89.150; -666.000; -654.000
271.445;  -97.175; -722.000; -683.000
271.586;  -62.425; -462.000; -283.000
271.726;  -46.700; -397.000; -322.000
271.867;  -47.325; -594.000; -534.000
272.008;  190.275; -473.000; -285.000
272.148;  130.050;  462.000;  468.000
272.289;   14.125; -113.000; -181.000
272.429;   21.825;   19.000;  185.000
272.570;  -89.050; -633.000; -737.000
272.710; -105.775; -825.000; -775.000
272.851;   -8.900;  113.000; -130.000
272.991; -155.300;-1173.000;-1077.000
273.131;  -56.725; -419.000; -459.000
273.272;  -89.675; -683.000; -723.000
273.412;   15.950; -143.000;  -31.000
273.553;  -52.300; -488.000; -507.000
273.693;  143.425;  913.000;  858.000
273.834;  -85.875; -894.000; -692.000
273.974;  -78.125; -664.000; -615.000
274.114; -112.000; -772.000; -560.000
274.255;   71.825;  414.000;  373.000
274.395;   15.200; -180.000; -125.000
274.535;   50.475;  199.000;  350.000
274.676;   22.625;  225.000;   94.000
274.816;    7.375;  110.000;   34.000
274.956;  -83.975; -624.000; -690.000
275.097;  -57.275;-1014.000; -922.000
275.237; -110.175; -913.000; -803.000
275.377;  -99.775; -778.000; -689.000
275.517; -143.175; -878.000; -937.000
275.658;  -50.925; -590.000; -555.000
275.798;  -69.275; -606.000; -413.000
275.938;   42.650;  215.000;  323.000
276.078;  -87.125; -626.000; -395.000
276.218;   12.375;   99.000;  104.000
276.359; -128.450;-1026.000;-1024.000
276.499;  -75.575; -605.000; -446.000
276.639;  -28.850; -305.000; -151.000
276.779;  -45.725; -475.000; -357.000
276.919; -100.100; -783.000; -624.000
277.059;  -18.000; -261.000; -212.000
277.199;  -49.950; -357.000; -259.000
277.340;   40.675;  287.000;  175.000
277.480;  -98.300; -840.000; -693.000
277.620;   17.600;  192.000;   16.000
277.760; -200.625;-1533.000;-1294.000
277.900;   16.450;  113.000;   33.000
278.040;   13.975;  137.000;  159.000
278.180;   27.475;  270.000;  170.000
278.320;    4.925;   21.000;   56.000
278.460;  -63.375; -443.000; -469.000
278.600;  -91.725; -708.000; -598.000
278.740;   49.325;  448.000;  224.000
278.880;  -39.225; -768.000; -791.000
279.020;    3.700; -194.000; -144.000
279.160;  -84.525; -672.000; -595.000
279.300; -110.925; -926.000; -873.000
279.440;  -88.225; -709.000; -622.000
279.579;  -15.625;-1014.000; -929.000
279.719;  -47.150; -410.000; -394.000
279.859;   73.150;   -4.000;   41.000
279.999;   19.050; -208.000;  101.000
280.139;  -19.175; -435.000; -387.000
280.279;  -91.350; -708.000; -745.000
280.419;   -7.900; -229.000; -147.000
280.559;  -34.525; -259.000; -180.000
280.698;  -71.675; -790.000; -639.000
280.838;  -91.325; -778.000; -800.000
280.978;  -97.525; -846.000; -790.000
281.118; -105.800; -811.000; -704.000
281.257;    7.225;   24.000;    6.000
281.397; -102.950;-1094.000; -960.000
281.537;  -92.825; -599.000; -712.000
281.677;  -13.175; -150.000; -101.000
281.816;  -86.575; -700.000; -630.000
281.956;  -24.525; -193.000; -257.000
282.096;  -75.700; -539.000; -396.000
282.235; -111.125; -672.000; -638.000
282.375;  -18.825; -243.000;  -98.000
282.515;  -99.200; -715.000; -707.000
282.654;   23.025;   29.000;  106.000
282.794;   21.100;  388.000;  244.000
282.934;  -49.400; -530.000; -491.000
283.073; -133.200;-1030.000; -857.000
283.213;  -57.050; -460.000; -467.000
283.353;  -49.225; -408.000; -349.000
283.492;  -28.425; -264.000; -296.000
283.632;  -39.675; -254.000; -168.000
283.771;  -93.850; -859.000; -730.000
283.911;  -54.900; -369.000; -260.000
284.050; -109.125; -794.000; -748.000
284.190; -163.900;-1229.000;-1096.000
284.329; -134.025;-1055.000; -964.000
284.469;  -62.850; -516.000; -591.000
284.608;  -57.700; -559.000; -598.000
284.748;  -80.025; -614.000; -570.000
284.887;   -0.900;  -87.000;  -20.000
285.027; -118.675; -844.000; -892.000
285.166;  -31.700; -192.000; -249.000
285.306;   21.775; -116.000;  -33.000
285.445;  -36.675; -229.000; -343.000
285.584;  -86.775; -630.000; -494.000
285.724;  -52.725; -282.000; -322.000
285.863; -129.000; -857.000; -507.000
286.002;  -44.775; -366.000; -276.000
286.142; -114.350; -715.000; -622.000
286.281;  -79.725; -525.000; -493.000
286.420;  -86.150; -554.000; -417.000
286.560;   95.800;  653.000;  623.000
286.699; -133.400; -958.000; -912.000
286.838;  -71.000; -590.000; -591.000
286.978;  -92.550; -533.000; -537.000
287.117; -133.875;-1085.000; -950.000
287.256;  -39.875; -228.000; -211.000
287.395;  -52.350; -197.000; -378.000
287.535;  -52.600; -370.000; -298.000
287.674;  -92.325; -509.000; -484.000
287.813;   58.375;  661.000;  533.000
287.952; -120.225;-1010.000; -871.000
288.091; -151.050;-1049.000; -915.000
288.231;   21.000;   13.000;   15.000
288.370; -169.750;-1217.000;-1200.000
288.509;  -92.225; -728.000; -645.000
288.648;  -90.050; -770.000; -548.000
288.787;  -28.725; -243.000;  -87.000
288.926;  -64.800; -454.000; -475.000
289.065;  115.975;  859.000;  672.000
289.204;  -59.400; -377.000; -217.000
289.344;  -84.300; -791.000; -690.000
289.483;    6.850;  416.000;  304.000
289.622;  -20.325; -291.000; -149.000
289.761;  -16.850; -309.000; -166.000
289.900; -109.175; -785.000; -626.000
290.039;   -9.775;  -12.000;  -95.000
290.178;  -40.900; -274.000; -180.000
290.317;  -77.700; -618.000; -479.000
290.456;  -54.375; -463.000; -451.000
290.595; -129.600; -961.000; -833.000
290.734; -132.625; -904.000; -891.000
290.873;  -75.300; -456.000; -420.000
291.011;  -99.900; -833.000; -843.000
291.150;  -96.300; -770.000; -682.000
291.289;  -17.250; -343.000; -110.000
291.428;  -82.850; -599.000; -480.000
291.567;  -59.450; -370.000; -442.000
291.706;  -16.125;  109.000;  154.000
291.845;  -73.200; -597.000; -505.000
291.984; -165.450;-1234.000;-1061.000
292.122;   73.800;  602.000;  582.000
292.261;   51.550;  620.000;  463.000
292.400;    3.575; -144.000;  211.000
292.539; -112.700; -959.000; -813.000
292.678;  -37.000; -325.000; -300.000
292.816; -158.075;-1136.000; -965.000
292.955;  -79.500; -844.000; -684.000
293.094;  -19.625; -173.000; -337.000
293.233;  -62.225; -556.000; -400.000
293.371;  -24.400; -225.000;  -84.000
293.510; -109.725; -866.000; -780.000
293.649; -122.025; -959.000; -924.000
293.787;  -46.750;-1083.000;-1012.000
293.926;  -18.200; -113.000;  -32.000
294.065;  -31.725; -379.000; -290.000
294.203;   47.350;  298.000;  406.000
294.342;   23.925;   74.000;  156.000
294.481; 5473.825;51180.000; -836.000
294.619;  -29.425; -425.000; -582.000
294.758; -142.650;-1230.000;-1137.000
294.896;   82.625; -125.000;    5.000
295.035; -118.325;-1040.000;-1006.000
295.174; -111.300;-1082.000; -954.000
295.312;  -41.875; -323.000; -203.000
295.451;    2.500; -307.000; -428.000
295.589;  -46.375; -389.000; -518.000
295.728;    5.075; -292.000; -165.000
295.866;   12.475;  -36.000;  -51.000
296.005;  -74.775; -584.000; -341.000
296.143;  -70.050; -558.000; -596.000
296.282;  -93.625; -957.000; -881.000
296.420;  -86.825; -657.000; -557.000
296.559;  -91.075; -892.000; -633.000
296.697;   38.975; -847.000; -665.000
296.835;   91.275;-1141.000;-1002.000
296.974;   49.800;  -23.000;   39.000
297.112;   13.775; -443.000; -504.000
297.251;  -63.275; -815.000; -755.000
297.389;  112.250; -576.000; -438.000
297.527;   39.975; -145.000;  -83.000
297.666;  -46.100; -486.000; -438.000
297.804;  -49.200; -404.000; -264.000
297.942;  -15.625; -136.000; -161.000
298.081;   -4.525; -183.000;   63.000
298.219;   86.625;  -17.000;  -19.000
298.357;   75.225; -144.000;  -71.000
298.495;   53.150; -810.000; -812.000
298.634;  107.000;  245.000;  219.000
298.772;   82.675; -220.000; -338.000
298.910;  -39.550; -309.000; -182.000
299.048;    2.325; -130.000; -153.000
299.187;  -33.050; -350.000; -250.000
299.325;   17.175;   52.000;  122.000
299.463;   79.575; -389.000; -299.000
299.601;  128.900; -327.000; -271.000
299.739;  -99.675; -908.000; -883.000
299.877;  -73.025; -791.000; -703.000
300.016;  -12.250;-1095.000; -935.000
300.154;  187.325;  -19.000; -161.000
300.292;   75.375; -428.000; -348.000
300.430;   40.675; -408.000; -291.000
300.568;  -94.075; -940.000; -874.000
300.706;  -31.950; -366.000; -469.000
300.844;  -61.825;-1108.000; -979.000
300.982;  131.725;  246.000;  282.000
301.120;  -93.600; -965.000; -866.000
301.258;  -72.150; -812.000; -705.000
301.396;   26.325;  104.000;  -41.000
301.534;  104.450; -218.000; -293.000
301.672;    4.350; -664.000; -521.000
301.810;   45.775; -613.000; -545.000
301.948;  116.775;   53.000;  149.000
302.086;  708.450; -250.000;  -32.000
302.224; 1049.750; -610.000; -585.000
302.362;   39.250; -558.000; -622.000
302.500;  -14.325; -923.000; -893.000
302.638;  110.125;  128.000;  245.000
302.776;   -9.225; -352.000; -408.000
302.913;   53.675;  447.000;  236.000
303.051;    1.775;  -86.000;  -23.000
303.189;   68.125;   90.000;  118.000
303.327;  -35.475; -341.000; -256.000
303.465;  -69.150; -832.000; -588.000
303.603;  -93.425; -805.000; -604.000
303.740;  114.050;  417.000;  241.000
303.878;   33.675; -800.000; -759.000
304.016;  -75.375; -915.000; -790.000
304.154; -111.125;-1123.000;-1152.000
304.291;  -28.450; -505.000; -554.000
304.429;    8.575;  102.000;   74.000
304.567; -119.425; -908.000; -893.000
304.705;  -64.275; -408.000; -515.000
304.842;  124.275; -616.000; -540.000
304.980;   53.150;  215.000;   35.000
305.118;   68.275; -367.000; -365.000
305.255;  -57.900; -945.000; -927.000
305.393;   49.300;  178.000;  239.000
305.531;  -89.350;-1173.000; -956.000
305.668;  -63.900; -663.000; -582.000
305.806;  111.650; -358.000; -439.000
305.943;  134.175; -629.000; -637.000
306.081;   57.225; -378.000; -267.000
306.219;  -82.925; -863.000; -748.000
306.356;    5.975;  158.000;   27.000
306.494;  124.050;  981.000;  761.000
306.631;    2.625;  -11.000;  -55.000
306.769;   15.600; -613.000; -485.000
306.906;  -10.400; -284.000; -258.000
307.044;  -59.675; -473.000; -488.000
307.181;  -68.250; -410.000; -332.000
307.319;    9.200;  112.000;   87.000
307.456; -153.525;-1191.000;-1153.000
307.594;  -94.925; -980.000; -727.000
307.731;   -5.800; -371.000; -164.000
307.868;   11.725;  -15.000;   20.000
308.006; -121.550; -961.000; -847.000
308.143;  -59.675; -618.000; -330.000
308.281;  206.800;  -37.000; -254.000
308.418;   10.775; -748.000; -640.000
308.555;  -59.900; -400.000; -250.000
308.693;  -63.825; -577.000; -573.000
308.830; -113.075; -712.000; -657.000
308.967;  -18.600; -215.000;  -95.000
309.105;  -48.650; -507.000; -396.000
309.242;   50.250; -468.000; -367.000
309.379;  393.575; -577.000; -655.000
309.517;  -48.450; -936.000; -948.000
309.654; -101.375; -910.000; -734.000
309.791;  -65.350; -662.000; -580.000
309.928; -106.025; -977.000; -914.000
310.065;  203.375;  819.000;  697.000
310.203;    5.575; -825.000; -850.000
310.340;    6.175; -465.000; -321.000
310.477;  -76.375; -412.000; -516.000
310.614;  -72.550; -383.000; -473.000
310.751;  -73.875; -427.000; -518.000
310.889;  -27.775;    1.000;   11.000
311.026; -156.350;-1161.000; -939.000
311.163;  -44.300; -386.000; -380.000
311.300;  -71.300; -512.000; -479.000
311.437;  -71.750; -658.000; -619.000
311.574; -157.400;-1226.000; -985.000
311.711;  -48.700; -595.000; -433.000
311.848;  -46.875; -380.000; -388.000
311.985;    9.675;  270.000;   93.000
312.122; -107.050; -932.000; -762.000
312.259; -114.150; -941.000; -994.000
312.396;  -78.600; -508.000; -551.000
312.533;  -81.775; -812.000; -790.000
312.670; -123.100;-1070.000; -898.000
312.807;  -30.450; -352.000; -367.000
312.944;  -76.400; -513.000; -611.000
313.081;  -25.775; -150.000; -415.000
313.218;  -93.250;-1111.000; -867.000
313.355;   25.475; -531.000; -449.000
313.492;    9.075; -455.000; -292.000
313.629;  139.150;  815.000;  735.000
313.766; -158.775;-1176.000;-1008.000
313.902;  -14.125; -186.000;   21.000
314.039;  -50.625; -372.000; -289.000
314.176;   25.150;  286.000;  192.000
314.313;  -83.650; -569.000; -473.000
314.450;  -78.525; -788.000; -684.000
314.587;  -49.325; -468.000; -480.000
314.723;   21.775;  -78.000;  130.000
314.860;   33.250;  318.000;  332.000
314.997;   33.150;  223.000;  142.000
315.134;  -35.925; -385.000; -368.000
315.270;  -30.800; -480.000; -496.000
315.407; -129.500;-1094.000; -967.000
315.544;  -39.900; -657.000; -538.000
315.681;  -62.475; -681.000; -565.000
315.817;   31.375; -133.000; -176.000
315.954;   23.600; -613.000; -392.000
316.091; -100.900;-1045.000;-1023.000
316.227;  -21.025;  -71.000; -179.000
316.364;    2.350;   23.000;    6.000
316.500;  -48.925; -113.000; -300.000
316.637;  -37.725; -181.000; -302.000
316.774;  -94.725; -625.000; -358.000
316.910;  -83.375; -598.000; -629.000
317.047;  -68.700; -487.000; -351.000
317.183;  -42.600; -435.000; -566.000
317.320;   -5.500; -367.000; -321.000
317.456;  -68.575; -733.000; -805.000
317.593;  -76.050; -598.000; -641.000
317.729;   -2.450;  168.000;  -67.000
317.866; -190.700;-1434.000;-1285.000
318.002;  -85.200; -708.000; -948.000
318.139;  -99.325; -883.000; -867.000
318.275;  -94.075;-1003.000; -738.000
318.412;  -66.675; -517.000; -336.000
318.548;  -19.950; -751.000; -720.000
318.685;  -82.000; -985.000; -888.000
318.821;  -84.400; -762.000; -735.000
318.957;  -30.725;   34.000;  -23.000
319.094;   46.800;  297.000;  154.000
319.230;  -56.675; -756.000; -742.000
319.367;  157.825; -471.000; -520.000
319.503;   75.150; -538.000; -436.000
319.639;  -85.375; -877.000; -793.000
319.775;  -68.900; -750.000; -685.000
319.912;  -50.575; -424.000; -519.000
320.048;  -74.700;-1184.000;-1184.000
320.184;   77.100;   59.000;   70.000
320.321;  -61.400; -497.000; -467.000
320.457;   73.900;  475.000;  662.000
320.593;  -79.025; -375.000; -382.000
320.729; -103.325; -732.000; -734.000
320.866;  -61.700; -577.000; -635.000
321.002;  -53.925; -759.000; -809.000
321.138;   -5.200; -135.000; -211.000
321.274;   85.000; -148.000; -115.000
321.410;  -18.100; -585.000; -353.000
321.546;   -5.750;-1011.000; -911.000
321.683;   62.350;  400.000;  185.000
321.819;    7.900;  -48.000; -117.000
321.955; -108.050; -743.000; -722.000
322.091;  -41.275; -585.000; -540.000
322.227;  -14.900; -382.000; -202.000
322.363;  -12.275; -320.000; -215.000
322.499;  -43.425; -343.000; -331.000
322.635;  173.825;  636.000;  443.000
322.771;   12.350; -139.000;   12.000
322.907;   99.100;  129.000;  327.000
323.043;  -21.550; -115.000; -206.000
323.179;  -35.425; -394.000; -363.000
323.315;   36.450; -401.000; -371.000
323.451;  116.575; -328.000; -236.000
323.587;   66.250;  -60.000;  -77.000
323.723;   34.950; -682.000; -601.000
323.859;   -0.975; -258.000;  -76.000
323.995;  -36.375; -467.000; -409.000
324.131; -118.450; -967.000; -892.000
324.267;  -28.525; -254.000; -276.000
324.402; -121.750; -960.000; -983.000
324.538;  -16.225; -279.000; -104.000
324.674;   23.525;  164.000;   77.000
324.810;  160.775;  226.000;  308.000
324.946;   20.275; -810.000; -658.000
325.082;  -67.450; -568.000; -475.000
325.217;  -17.475;  -62.000;   16.000
325.353;  -95.050; -764.000; -659.000
325.489;  -84.125; -540.000; -506.000
325.625;  -62.400; -579.000; -525.000
325.760;   54.850;  517.000;  376.000
325.896;  -19.850; -515.000; -702.000
326.032;  -49.900; -403.000; -352.000
326.168;  -54.900; -462.000; -369.000
326.303;  -62.475; -352.000; -461.000
326.439;  -22.300; -336.000; -276.000
326.575;    2.450; -190.000;  -29.000
326.710;    1.225; -156.000;  -30.000
326.846;  -18.475;  146.000;  103.000
326.982;  -97.700; -530.000; -548.000
327.117;  -70.825; -481.000; -442.000
327.253;  -77.075; -745.000; -742.000
327.388; -167.800;-1137.000;-1153.000
327.524;  -30.500; -811.000; -578.000
327.659;  -22.125;  -58.000;  -22.000
327.795;  -17.700;   69.000;   45.000
327.931;  -74.625; -723.000; -499.000
328.066;  -14.600; -417.000; -276.000
328.202;  -27.625;   12.000; -129.000
328.337;   88.400;  957.000;  713.000
328.473;   41.150;  -12.000;  -74.000
328.608;   -8.750; -256.000; -267.000
328.743;  -71.275; -799.000; -664.000
328.879;   11.150;  214.000;  114.000
329.014;  -40.475; -102.000; -122.000
329.150;  -79.475; -358.000; -483.000
329.285;  -66.750; -465.000; -466.000
329.421;  -51.625; -548.000; -246.000
329.556;  -26.075;  -36.000;   85.000
329.691; -106.625; -633.000; -615.000
329.827;  -73.700; -626.000; -480.000
329.962;  -33.225;  131.000; -301.000
330.097;  -87.975; -673.000; -585.000
330.233;  -44.925; -410.000; -223.000
330.368; -131.375; -839.000; -628.000
330.503;  -10.350;    3.000;   98.000
330.638;   12.825;  -93.000; -125.000
330.774;  -51.475; -609.000; -530.000
330.909;  -55.650; -434.000; -244.000
331.044;  -91.250; -714.000; -708.000
331.179; -164.250;-1217.000;-1109.000
331.315;   12.700;   77.000;   20.000
331.450;   22.625;  157.000;  285.000
331.585;  -75.150; -805.000; -706.000
331.720;  -82.800; -510.000; -460.000
331.855;  -12.625;  -35.000; -102.000
331.990;  239.550;   62.000;  138.000
332.126;  134.275; -110.000;   71.000
332.261;  -21.975; -379.000; -265.000
332.396;   -9.525; -135.000; -242.000
332.531;  -90.475;-1074.000;-1031.000
332.666;   42.950; -519.000; -363.000
332.801;  -86.500; -726.000; -807.000
332.936;  -33.325; -192.000; -122.000
333.071; -147.325; -870.000; -817.000
333.206;   11.550;  307.000;  379.000
333.341;   29.975;  344.000;  418.000
333.476;  -74.950; -627.000; -623.000
333.611;  -42.975; -251.000; -173.000
333.746;  -42.375; -381.000; -464.000
333.881; -126.475; -973.000; -935.000
334.016; -116.600; -936.000; -917.000
334.151; -118.600; -746.000; -702.000
334.286;   26.475;  152.000;  186.000
334.421;  -29.650; -125.000; -178.000
334.556;  -77.525; -611.000; -567.000
334.690;  -75.075; -631.000; -577.000
334.825;   49.025;  381.000;   83.000
334.960;  -59.975; -285.000; -413.000
335.095;   12.000;  135.000;  -91.000
335.230; -103.425; -722.000; -738.000
335.365; -124.200;-1084.000; -990.000
335.499; -131.425;-1108.000;-1037.000
335.634;   21.050;    9.000;  534.000
335.769;  -89.550; -755.000; -720.000
335.904;  -54.425; -603.000; -561.000
336.038;  -64.500; -735.000; -657.000
336.173; -107.625;-1206.000;-1194.000
336.308;   -0.075; -116.000; -189.000
336.443;   26.650; -544.000; -634.000
336.577;  -69.200; -936.000; -787.000
336.712;   73.875;   -4.000;  -12.000
336.847;  -41.800; -724.000; -607.000
336.981;   79.200; -272.000; -208.000
337.116;  303.000;  615.000;  501.000
337.250;  165.825; -434.000; -421.000
337.385;  251.725; -297.000; -208.000
337.520;   82.200; -632.000; -603.000
337.654;  -42.425; -215.000; -126.000
337.789; -112.450; -989.000; -933.000
337.923;  -31.125; -104.000; -205.000
338.058;  -83.900; -673.000; -738.000
338.192;  -27.125; -611.000; -488.000
338.327;  -15.700;  -18.000; -155.000
338.461;  -63.350; -299.000; -469.000
338.596;  -84.950; -780.000; -638.000
338.730; -104.425; -767.000; -803.000
338.865;   90.775;  -46.000; -140.000
338.999;  -48.625; -846.000; -702.000
339.134;  -15.050; -634.000; -536.000
339.268;   28.725; -741.000; -603.000
339.403;  363.225; -740.000; -775.000
339.537;  115.550; -894.000; -820.000
339.671; -115.325; -829.000; -813.000
339.806;  -63.475; -556.000; -512.000
339.940;   -8.425; -261.000; -235.000
340.074;  -93.400; -685.000; -510.000
340.209;  -45.750; -351.000; -230.000
340.343;  -97.550; -517.000; -573.000
340.477;  142.425;  998.000; 1036.000
340.612;  -59.525;-1033.000; -900.000
340.746;  130.200; -199.000; -243.000
340.880;  -43.800; -924.000; -785.000
341.014;  -17.250;  -45.000; -154.000
341.149; -111.150; -756.000; -718.000
341.283; -103.950; -839.000; -754.000
341.417;  -85.475;-1124.000; -938.000
341.551;  167.750; -768.000; -708.000
341.685;  -27.450; -633.000; -611.000
341.820;  -62.250; -562.000; -493.000
341.954;  -52.250; -218.000; -349.000
342.088; -143.250;-1102.000;-1019.000
342.222;   41.325;  565.000;  618.000
342.356;  -52.875; -395.000; -335.000
342.490;  -87.075; -880.000; -841.000
342.624;  -46.025; -339.000; -242.000
342.758;    3.525; -364.000; -312.000
342.892;  -62.250; -710.000; -585.000
343.026;  -42.100;  -58.000; -116.000
343.160;  -65.200; -426.000; -376.000
343.294;  -73.750; -474.000; -337.000
343.428;    1.200; -488.000; -448.000
343.562;   -9.250; -172.000;  -23.000
343.696;  -19.975; -385.000; -314.000
343.830;   -6.950; -362.000; -356.000
343.964;   24.850; -231.000; -168.000
344.098; 1008.725;  199.000;   70.000
344.232;  852.875; -266.000; -127.000
344.366;   99.350; -567.000; -453.000
344.500;   72.925; -665.000; -744.000
344.634;   50.425; -324.000; -164.000
344.768;    6.300; -531.000; -341.000
344.902;   19.525;  278.000;  256.000
345.035;  -72.225; -556.000; -496.000
345.169; -124.250; -933.000; -656.000
345.303;  -27.900; -308.000; -482.000
345.437;  -57.000; -826.000; -717.000
345.571;  -62.375; -675.000; -594.000
345.704;  -56.675; -309.000; -532.000
345.838;  -17.950; -331.000; -284.000
345.972;  -32.200; -543.000; -495.000
346.106;  165.750; -179.000; -190.000
346.239;  435.175; -312.000; -243.000
346.373;   17.625; -343.000; -302.000
346.507; -123.525; -950.000; -962.000
346.640;  162.400;  -30.000;   13.000
346.774;  -28.825; -650.000; -797.000
346.908;  -22.875; -138.000;  -11.000
347.041;  -92.825; -646.000; -593.000
347.175;    5.850;  259.000;   27.000
347.309;  -70.325; -698.000; -628.000
347.442;  -89.875; -883.000; -732.000
347.576;  302.825;  670.000;  668.000
347.709;  222.125; -123.000;  -52.000
347.843;  -88.025; -933.000; -825.000
347.976;   30.775;  235.000;  294.000
348.110; -168.825;-1268.000;-1186.000
348.243;  -97.400; -679.000; -772.000
348.377;   -1.000;  -26.000;   60.000
348.510;   51.350;  403.000;  540.000
348.644;  -30.750;  -37.000; -159.000
348.777;   -7.125;  180.000;  191.000
348.911;  -39.950; -142.000; -112.000
349.044;  176.650;  471.000;  448.000
349.178;  199.700;-1069.000;-1006.000
349.311;  106.400;  141.000;  255.000
349.444;   -5.800; -927.000; -813.000
349.578;   -8.300; -347.000; -200.000
349.711; -105.525; -959.000; -862.000
349.845;   29.725; -661.000; -591.000
349.978; -146.450;-1224.000;-1137.000
350.111;  -73.900; -546.000; -612.000
350.244;  -77.925; -596.000; -700.000
350.378;    3.875; -392.000; -393.000
350.511;  -71.500; -393.000; -426.000
350.644;  -93.575; -808.000; -806.000
350.778;    3.625;  168.000;  104.000
350.911;    1.825;  134.000;  140.000
351.044;  -97.575; -685.000; -615.000
351.177;  -17.350; -321.000; -281.000
351.310;  -23.500;    3.000; -131.000
351.444;  -84.400; -888.000; -788.000
351.577;  134.625;  140.000;   90.000
351.710;  109.100;  593.000;  417.000
351.843;  -30.525; -165.000;  -77.000
351.976;    6.625;  149.000;  -79.000
352.109;  -85.850; -621.000; -612.000
352.242;   -1.875; -464.000; -419.000
352.376;  -44.725; -580.000; -636.000
352.509;  206.075; -437.000; -356.000
352.642;   31.100; -654.000; -604.000
352.775;   79.050; -141.000;  -98.000
352.908; -112.575; -933.000; -904.000
353.041;  -98.300; -814.000; -824.000
353.174;  -61.075; -551.000; -424.000
353.307;  -72.150; -753.000; -764.000
353.440;   72.875;  541.000;  453.000
353.573;  -98.225; -957.000;-1008.000
353.706;   -9.225; -384.000; -558.000
353.839;   -2.000; -264.000; -220.000
353.971;  -70.925; -657.000; -512.000
354.104;  -75.650; -896.000; -835.000
354.237;  -35.850; -627.000; -662.000
354.370;  -74.300; -846.000; -879.000
354.503; -182.950;-1231.000;-1308.000
354.636;  -28.525; -529.000; -348.000
354.769; -127.550; -937.000; -860.000
354.902;   -2.925; -230.000; -139.000
355.034;  -12.075; -164.000; -220.000
355.167;  -22.075; -262.000; -162.000
355.300;  -83.375;-1061.000; -880.000
355.433;  948.400;  -71.000;  -14.000
355.565; 1498.100; -402.000; -384.000
355.698;  388.550; -356.000; -296.000
355.831;    2.375; -882.000; -801.000
355.964;   88.825; -285.000; -170.000
356.096;  -76.600; -856.000; -843.000
356.229;    2.500; -523.000; -530.000
356.362;  311.950; -373.000; -266.000
356.494;  573.525; -229.000; -162.000
356.627;  544.650;  269.000;  377.000
356.760;  670.550;  120.000;   53.000
356.892;  946.825; -286.000; -601.000
357.025;  735.450;  403.000;  389.000
357.157;  693.375; -167.000; -179.000
357.290;  630.850; -856.000; -713.000
357.423;  211.325; -667.000; -556.000
357.555;  138.100; -217.000; -228.000
357.688;  160.175; -483.000; -364.000
357.820;  510.500; -870.000; -877.000
357.953; 3986.425; -563.000; -589.000
358.085;  932.000; -632.000; -612.000
358.218; 1322.275;-1131.000; -932.000
358.350;  248.150;  -58.000;  312.000
358.483;  -99.800;-1300.000;-1187.000
358.615;   13.600;-1182.000;-1078.000
358.747;  -35.250;-1187.000;-1058.000
358.880;   47.800; -810.000; -744.000
359.012;    3.775; -376.000; -202.000
359.145;  -30.200; -480.000; -511.000
359.277;   87.950; -962.000; -913.000
359.409; 3271.100;  536.000;  231.000
359.542;  917.325; -738.000; -688.000
359.674;   79.975;   46.000;   13.000
359.806;  -53.775; -565.000; -438.000
359.939;  -31.425; -617.000; -516.000
360.071;  -16.650; -583.000; -579.000
360.203;  -18.000; -411.000; -364.000
360.335;   59.200;  164.000;  -16.000
360.468;  224.300; -249.000; -307.000
360.600; 2592.700; -547.000; -454.000
360.732; 2788.850; -546.000; -423.000
360.864;  390.900;-1216.000;-1044.000
360.996;  325.300; -516.000; -554.000
361.129;   53.250; -389.000; -598.000
361.261;   38.300;  110.000; -113.000
361.393;  -25.825; -252.000; -214.000
361.525;   36.200;   94.000;  244.000
361.657;  -31.425; -821.000; -703.000
361.789;   12.625; -139.000; -155.000
361.921;  273.950; -642.000; -593.000
362.053;  294.025;  524.000;  541.000
362.185;   68.625;  288.000;   72.000
362.318;  -68.700; -709.000; -705.000
362.450;  129.950;  294.000;  444.000
362.582;  162.900; -913.000; -870.000
362.714;  -36.000; -353.000; -332.000
362.846;  -69.025; -606.000; -490.000
362.978; -133.550; -941.000; -811.000
363.109;   69.450; -161.000; -260.000
363.241;  515.800; -739.000; -749.000
363.373;  439.075; -649.000; -564.000
363.505;  641.325; -186.000;  -91.000
363.637;  159.375; -787.000; -601.000
363.769; -100.825;-1067.000;-1080.000
363.901;  -61.325; -596.000; -654.000
364.033; -110.675;-1103.000;-1062.000
364.165;    3.825; -283.000; -283.000
364.296;   69.850; -316.000; -177.000
364.428;   78.325;-1344.000;-1220.000
364.560;  -75.400; -679.000; -661.000
364.692;  -54.575; -738.000; -835.000
364.824;  293.625; -588.000; -456.000
364.955;  465.975; -402.000; -564.000
365.087;  890.275;-1097.000; -852.000
365.219;   33.825; -686.000; -816.000
365.351;  -61.450; -526.000; -572.000
365.482;   53.800;  300.000;  240.000
365.614;  -36.725; -402.000; -314.000
365.746;  -86.500; -729.000; -752.000
365.877;  -91.225; -706.000; -672.000
366.009;  241.775;  -35.000;  -62.000
366.141;  -90.100;-1249.000;-1134.000
366.272; -105.950; -803.000; -719.000
366.404; -122.600;-1005.000; -874.000
366.535;   -0.950; -139.000;  -12.000
366.667;  -96.175; -644.000; -649.000
366.799;   46.925;  353.000;  203.000
366.930; -106.425; -862.000; -996.000
367.062;  130.975; -639.000; -613.000
367.193;  144.700; -872.000; -842.000
367.325;  -60.675; -580.000; -684.000
367.456;   80.950; -246.000;   31.000
367.588;  162.450; -371.000; -318.000
367.719;   30.825;  -44.000;  -45.000
367.851;   -8.050; -222.000; -241.000
367.982;  -38.675; -875.000; -732.000
368.113;  117.075; -475.000; -358.000
368.245; -107.000; -960.000; -841.000
368.376;   -9.450; -254.000; -302.000
368.508;  -48.375; -188.000; -263.000
368.639; -131.125;-1166.000;-1034.000
368.770;  -12.750; -670.000; -589.000
368.902;  -36.275; -836.000; -926.000
369.033; -100.925; -906.000; -855.000
369.164;  -45.250; -720.000; -653.000
369.296;  -98.600; -452.000; -601.000
369.427;   10.175; -209.000; -144.000
369.558;  -40.350; -593.000; -377.000
369.689;  -71.850; -721.000; -569.000
369.821; -115.500; -951.000; -845.000
369.952;  -20.025;   42.000; -108.000
370.083;  -50.700; -229.000; -108.000
370.214;  -69.125; -735.000; -650.000
370.345;   -1.750;   65.000;   81.000
370.477;  -83.875; -810.000; -790.000
370.608;  249.075; -328.000; -264.000
370.739;  -20.975;-1233.000;-1292.000
370.870;  -29.200;-1102.000; -923.000
371.001;  106.725; -378.000; -467.000
371.132;  -62.125; -754.000; -735.000
371.263;  -20.850;  -42.000; -148.000
371.394; -133.325; -841.000; -748.000
371.525;   25.050;  345.000;  225.000
371.657;  -91.275; -808.000; -670.000
371.788;   79.025;  103.000;  199.000
371.919;  179.425; -384.000; -304.000
372.050; 3963.475;  -91.000; -156.000
372.181; 1255.300; -188.000; -294.000
372.311;  415.275;   42.000; -127.000
372.442;   46.775; -457.000; -451.000
372.573;  -17.675; -444.000; -340.000
372.704; -115.700;-1008.000; -980.000
372.835;  102.400; -228.000; -289.000
372.966;  -50.825; -646.000; -554.000
373.097;  -60.450; -575.000; -711.000
373.228;  -30.650; -717.000; -542.000
373.359;  174.150; -824.000; -536.000
373.490; 1058.525; -881.000; -727.000
373.620; 1349.850;-1001.000; -803.000
373.751; 1972.800; -332.000; -396.000
373.882;  911.825; -663.000; -733.000
374.013;   86.725; -449.000; -262.000
374.143;  -20.175; -581.000; -659.000
374.274; -103.025; -987.000; -908.000
374.405;  184.900; -388.000; -276.000
374.536;  487.300; -526.000; -387.000
374.666; 1274.975; -759.000; -807.000
374.797;  265.200; -817.000; -868.000
374.928;  972.375; -710.000; -560.000
375.058; 1024.150; -535.000; -500.000
375.189;   94.375;  -59.000;  -93.000
375.320;  -91.275; -928.000;-1034.000
375.450;  -32.850; -625.000; -616.000
375.581;  -54.150; -526.000; -436.000
375.712;  -18.550; -574.000; -250.000
375.842;  341.725; -438.000; -415.000
375.973;  276.225; -554.000; -513.000
376.103;  -17.525; -665.000; -648.000
376.234;  -73.400; -531.000; -552.000
376.364;  -23.850; -944.000; -867.000
376.495;  339.275;  925.000;  529.000
376.625;    5.725; -472.000; -485.000
376.756;   85.325; -709.000; -678.000
376.886;  -59.150;-1178.000;-1026.000
377.017;   54.500;-1048.000;-1061.000
377.147;  338.425; -786.000; -782.000
377.278;   64.000;  174.000;  228.000
377.408; -135.400; -801.000; -815.000
377.538;  -97.325; -707.000; -693.000
377.669;  -71.175; -537.000; -613.000
377.799;  -79.250; -645.000; -635.000
377.929;  -64.550; -610.000; -428.000
378.060; -121.200; -781.000; -847.000
378.190;  -65.425; -726.000; -531.000
378.320;  -42.975; -401.000; -406.000
378.451;  -13.750; -131.000;  -22.000
378.581;  -17.450;  -67.000; -110.000
378.711;  175.200; 1035.000;  866.000
378.841;    6.800; -533.000; -675.000
378.972;  -63.300; -871.000; -751.000
379.102;   24.100; -652.000; -579.000
379.232;  -21.450; -126.000;  -73.000
379.362;  -96.125;-1001.000; -885.000
379.492;   27.800; -373.000; -424.000
379.623;  125.550;    0.000;  111.000
379.753;  -79.800;-1107.000; -974.000
379.883;  232.200;   59.000;  156.000
380.013;   39.525;-1081.000;-1017.000
380.143;  -80.875;-1097.000;-1056.000
380.273;  -96.225; -985.000; -861.000
380.403;   -7.825; -344.000; -257.000
380.533;   -8.000; -651.000; -664.000
380.663;   86.275;  173.000;  128.000
380.793;  -87.750;-1027.000;-1074.000
380.923;   -5.500; -103.000;  -34.000
381.053;  -83.900; -613.000; -623.000
381.183;  -26.650; -106.000; -248.000
381.313;   38.475; -656.000; -470.000
381.443;   71.050; -692.000; -473.000
381.573;  233.000; -402.000; -409.000
381.703;  351.375;-1249.000;-1095.000
381.833; -111.025;-1454.000;-1336.000
381.963;  134.525; -134.000;  -87.000
382.093; 1527.875; -925.000; -909.000
382.223;  536.000; -713.000; -602.000
382.353;   11.175; -801.000; -608.000
382.482;  439.025;-1091.000; -964.000
382.612;  856.150; -872.000; -644.000
382.742;  514.225; -695.000; -622.000
382.872;  323.850; -565.000; -551.000
383.002;   77.200;  347.000; -132.000
383.131;   -4.300; -226.000; -160.000
383.261;  -35.025; -706.000; -768.000
383.391;  280.950; -552.000; -377.000
383.521; 3102.375;  451.000;  263.000
383.650;  769.900; -947.000; -904.000
383.780;  -12.975; -783.000; -656.000
383.910;  111.900;  880.000;  802.000
384.039;   52.525; -794.000; -656.000
384.169;  264.100;-1205.000;-1017.000
384.299;    6.125; -650.000; -662.000
384.428;  -88.675; -764.000; -680.000
384.558;  -42.675; -308.000; -275.000
384.687;  -27.250; -414.000; -334.000
384.817;   29.700;   75.000;   -2.000
384.947;   38.075; -234.000; -141.000
385.076;  319.050;  982.000;  912.000
385.206;  113.725;  369.000;  480.000
385.335;  -24.475; -549.000; -417.000
385.465;  -75.075; -655.000; -663.000
385.594;  156.475;  -53.000;  -44.000
385.724;  503.250; -868.000; -838.000
385.853;  149.425; -296.000; -270.000
385.982; 1474.450; -743.000; -787.000
386.112; 2468.750;-1052.000; -871.000
386.241;  187.475; -307.000; -312.000
386.371;   32.550; -174.000;  -87.000
386.500;   21.400; -825.000; -789.000
386.629;   41.150; -874.000; -817.000
386.759;   77.850;  -43.000;   68.000
386.888;   10.000; -170.000; -250.000
387.017;  -64.450; -648.000; -620.000
387.147;  -65.150; -771.000; -798.000
387.276;    4.475; -410.000; -397.000
387.405;   30.600; -398.000; -342.000
387.535;  -38.600; -452.000; -361.000
387.664;  -38.200; -692.000; -620.000
387.793;   78.725; -198.000; -113.000
387.922;  568.975;  255.000;  200.000
388.052;   42.300; -576.000; -423.000
388.181;   27.025; -342.000; -472.000
388.310;   35.200; -889.000; -710.000
388.439;  -17.625; -749.000; -742.000
388.568;  197.000;  365.000;  244.000
388.697; 1178.275; -756.000; -653.000
388.826;  287.700; -768.000; -666.000
388.956;   76.275; -285.000; -307.000
389.085;  -20.025; -347.000; -287.000
389.214;  -99.875; -842.000; -872.000
389.343;  -64.975; -645.000; -413.000
389.472;  381.450;  126.000;  149.000
389.601;  536.575;   91.000;    0.000
389.730;   34.175; -568.000; -687.000
389.859;   63.225;  226.000;   46.000
389.988;  194.625; -423.000; -408.000
390.117;  176.850; -168.000; -146.000
390.246;    5.925; -331.000; -320.000
390.375;  123.725; -673.000; -626.000
390.504;  -48.600; -703.000; -621.000
390.633;  -90.750; -672.000; -726.000
390.761;  -38.550; -732.000; -645.000
390.890;   36.175;   -4.000; -130.000
391.019;  -24.775; -421.000; -441.000
391.148; -120.150; -826.000; -855.000
391.277;  -56.050; -576.000; -493.000
391.406;  -64.950; -821.000; -805.000
391.534;   16.950;  574.000; -301.000
391.663;  -59.350; -583.000; -645.000
391.792;  -73.700; -673.000; -701.000
391.921;   96.675;   -3.000;   15.000
392.050;  216.750; -287.000; -228.000
392.178;  -30.325;-1206.000;-1061.000
392.307;  169.900; -758.000; -712.000
392.436;   94.925; -427.000; -641.000
392.564;   18.325;  166.000;   -6.000
392.693;  -79.650; -860.000; -682.000
392.822;  245.225; -529.000; -534.000
392.950;  108.600; -880.000; -714.000
393.079;  371.975; -188.000; -328.000
393.208;   50.825; -488.000; -511.000
393.336;  -20.275; -170.000; -145.000
393.465;  -50.050; -317.000; -199.000
393.593;    9.250;   62.000;   79.000
393.722; -141.550;-1121.000; -916.000
393.850;  -28.950; -188.000;  -61.000
393.979; -150.325; -926.000; -805.000
394.107;  -73.800; -517.000; -537.000
394.236;  -13.850; -570.000; -507.000
394.364;  263.375;  383.000;  206.000
394.493;  453.425; -911.000; -767.000
394.621;   13.675; -955.000; -916.000
394.750;  671.150; -873.000; -923.000
394.878; 2874.175; -247.000; -149.000
395.007; 4053.850; -721.000; -807.000
395.135;  330.350; -790.000; -721.000
395.263;  -75.200;-1038.000;-1040.000
395.392;    4.525;  -25.000; -107.000
395.520; -122.225; -818.000; -679.000
395.648;  -80.325; -865.000; -915.000
395.777;   -5.950; -366.000; -405.000
395.905;  -49.850; -449.000; -564.000
396.033;   14.625;  217.000;  172.000
396.162;  673.150; -399.000; -453.000
396.290;  638.900;  -17.000;   -2.000
396.418;  145.100; -555.000; -514.000
396.546;  -62.350; -571.000; -466.000
396.674;  -94.325; -850.000; -878.000
396.803;    9.100;  -72.000;  -23.000
396.931;   95.625; -179.000; -199.000
397.059;   94.425;-1026.000; -989.000
397.187;  -99.775;-1026.000; -975.000
397.315; -142.450; -884.000; -649.000
397.443;  -91.450; -592.000; -443.000
397.572;  -91.850; -578.000; -424.000
397.700;    0.475; -607.000; -614.000
397.828;   31.400;  120.000;  -90.000
397.956;  -39.925; -508.000; -478.000
398.084;  -67.700; -767.000; -626.000
398.212;   45.900;  137.000;  124.000
398.340;    5.900;  -56.000;  159.000
398.468;   37.600; -390.000; -169.000
398.596; -130.350; -993.000; -953.000
398.724; -112.100; -762.000; -767.000
398.852; -158.275;-1024.000; -976.000
398.980;  -59.175; -560.000; -560.000
399.108;  -46.475; -982.000; -735.000
399.236;   37.400;   13.000;    8.000
399.363;    6.875;  222.000;  196.000
399.491;  -61.200; -404.000; -398.000
399.619; -122.625; -829.000; -800.000
399.747;  -98.450; -859.000; -771.000
399.875;   88.175;  220.000;  234.000
400.003;  -30.600; -359.000; -284.000
400.130;  -79.400; -421.000; -341.000
400.258;  -26.100;  -83.000;   38.000
400.386;  -66.450; -352.000; -168.000
400.514;  -41.750; -526.000; -587.000
400.641;  -62.025; -928.000; -802.000
400.769; -134.950; -979.000; -888.000
400.897; -102.550; -838.000; -793.000
401.025;  -20.575; -166.000; -152.000
401.152;  -23.850;  220.000;   38.000
401.280;  -83.875; -430.000; -429.000
401.408; -108.175; -712.000; -576.000
401.535;  -91.275; -735.000; -758.000
401.663; -183.750;-1134.000;-1054.000
401.790;  -70.600; -514.000; -525.000
401.918;   33.300;  436.000;  405.000
402.046;   -6.400;  134.000;  122.000
402.173;  -36.275;  -18.000;    7.000
402.301;  -64.950; -519.000; -397.000
402.428;   32.700;  528.000;  383.000
402.556; -129.700;-1188.000; -913.000
402.683;  -17.000;  -20.000;   -1.000
402.811;  -30.100;  -37.000; -206.000
402.938;   -5.325;   20.000;   27.000
403.066;  221.250; -574.000; -558.000
403.193;  378.425;  299.000;  239.000
403.321;  301.475; -396.000; -574.000
403.448;  357.350;   83.000;   27.000
403.575;  167.525;  -90.000;  -46.000
403.703;  -93.025; -732.000; -557.000
403.830;  -61.625; -531.000; -496.000
403.957; -132.775;-1117.000;-1023.000
404.085;   15.650;  -61.000; -172.000
404.212;  115.125;  -50.000;   63.000
404.339;  261.700; -566.000; -306.000
404.467; 5605.300; -612.000; -524.000
404.594; 3992.950; -287.000; -227.000
404.721; 1026.900; -869.000; -764.000
404.848;   90.375; -113.000; -202.000
404.976;  -92.150; -856.000; -783.000
405.103;   -3.175;  -14.000;  -82.000
405.230;   -4.325;  190.000;  226.000
405.357;   28.050;  117.000;   44.000
405.484;  249.375;  -49.000;    5.000
405.612;   54.825; -548.000; -563.000
405.739;  -58.400; -488.000; -243.000
405.866;  100.425;  669.000;  385.000
405.993;  -54.600; -398.000; -102.000
406.120; -127.925; -801.000; -887.000
406.247;  -45.375; -323.000; -342.000
406.374;  475.825;  540.000;  629.000
406.501;  156.625; -632.000; -702.000
406.628;  -71.100; -621.000; -589.000
406.755;  -87.975; -803.000; -620.000
406.882;  -35.100; -228.000; -277.000
407.009; -105.025; -719.000; -628.000
407.136;   55.900; -480.000; -401.000
407.263;  188.275; -939.000; -829.000
407.390;  -65.200; -692.000; -614.000
407.517; -154.525;-1139.000;-1187.000
407.644;  -53.650; -332.000; -256.000
407.771;  -66.825; -249.000; -287.000
407.898;    8.850;  168.000;  328.000
408.025;  -72.125; -421.000; -313.000
408.151;   -3.075;   82.000;  153.000
408.278;  -59.325; -267.000; -216.000
408.405; -100.475; -931.000; -899.000
408.532;  -66.475; -549.000; -542.000
408.659;  -97.725; -677.000; -648.000
408.785; -185.350;-1298.000;-1170.000
408.912;  -57.800; -412.000; -296.000
409.039; -111.025; -610.000; -686.000
409.166;  -97.700; -591.000; -555.000
409.292; -115.525; -571.000; -534.000
409.419; -109.950; -665.000; -649.000
409.546;  -92.975; -431.000; -192.000
409.672;  -94.850; -713.000; -545.000
409.799;  -24.550;  -36.000;   34.000
409.926;  -42.150; -180.000; -179.000
410.052; -161.250;-1127.000;-1091.000
410.179;  -36.350; -368.000; -392.000
410.305;  -86.100; -375.000; -493.000
410.432;  -39.950; -220.000; -333.000
410.558;  -77.200; -305.000; -380.000
410.685; -108.000; -688.000; -431.000
410.812; -103.050; -409.000; -588.000
410.938; -135.625; -964.000; -808.000
411.065; -101.300; -671.000; -645.000
411.191;  -11.675; -189.000; -174.000
411.317; -112.425; -823.000; -742.000
411.444;  -54.225; -317.000; -246.000
411.570;  -61.900; -339.000; -294.000
411.697; -121.300; -758.000; -752.000
411.823; -161.775; -989.000; -999.000
411.949;  -42.225;  -56.000;   17.000
412.076; -100.550; -539.000; -519.000
412.202; -115.950; -758.000; -757.000
412.329; -113.650; -798.000; -752.000
412.455; -110.550; -821.000; -657.000
412.581;  -22.875;  -15.000;  172.000
412.707;  -56.250; -540.000; -457.000
412.834;   11.575;  156.000;  219.000
412.960;  -74.725; -785.000; -784.000
413.086;  -86.775; -743.000; -701.000
413.212;  170.575;  604.000;  578.000
413.339;  -52.475; -685.000; -701.000
413.465;   21.325; -364.000; -310.000
413.591;  -76.325; -757.000; -474.000
413.717;  -48.300; -358.000; -366.000
413.843; -135.875; -839.000; -861.000
413.969;  -54.600;  -47.000; -292.000
414.096;  -96.025; -679.000; -679.000
414.222;  -17.900;  -33.000;   85.000
414.348;  -29.000; -652.000; -385.000
414.474;  135.650;   38.000;  -52.000
414.600;  -21.875; -126.000; -144.000
414.726;   -5.650;  -96.000;  -55.000
414.852;  -65.375; -365.000; -342.000
414.978;   27.900;  104.000;  -18.000
415.104;   38.750;   38.000;   80.000
415.230;   22.075; -329.000; -330.000
415.356;   28.500; -409.000; -514.000
415.482;  210.475;   13.000;  -35.000
415.608;  282.800; -247.000; -323.000
415.734;  935.225;   67.000;   38.000
415.860;19362.450; -875.000; -767.000
415.986;15354.225; -685.000; -607.000
416.111; 1373.125; -798.000; -652.000
416.237;  287.025; -424.000; -571.000
416.363; 1043.675; -765.000; -733.000
416.489; 4176.850; -324.000; -251.000
416.615;  501.825; -707.000; -742.000
416.741;  -12.850; -677.000; -784.000
416.866;  -77.100; -673.000; -736.000
416.992; -118.100; -801.000; -818.000
417.118;  -13.925;  -41.000;  -80.000
417.244;  -41.050; -798.000; -531.000
417.369;  -68.700; -801.000; -612.000
417.495;   -3.775; -325.000; -254.000
417.621;  -71.350;-1015.000; -803.000
417.746;    4.200; -579.000; -572.000
417.872;   57.975; -254.000; -144.000
417.998;   59.025; -515.000; -530.000
418.123;  975.125;-1073.000; -845.000
418.249; 5439.150; -512.000; -601.000
418.374;  839.950; -916.000; -824.000
418.500;  137.150; -383.000; -482.000
418.626;  127.750;   70.000;  -59.000
418.751;  122.100; -549.000; -448.000
418.877;  200.725; -637.000; -643.000
419.002; 1675.400; -688.000; -560.000
419.128;12354.225; -930.000; -721.000
419.253; 3327.150; -967.000; -837.000
419.379;  432.475; -391.000; -338.000
419.504;  381.100;  325.000;  415.000
419.629;  518.025; -393.000; -212.000
419.755; 3242.850; -317.000; -254.000
419.880;20543.750;  -98.000;   67.000
420.006;11280.975; -280.000; -221.000
420.131;29814.625; -662.000; -775.000
420.256; 4668.175; -315.000; -316.000
420.382;  615.475; -665.000; -687.000
420.507;   90.775; -649.000; -778.000
420.632;  149.475; -337.000; -339.000
420.758;  284.650; -251.000; -425.000
420.883;  -70.500; -876.000; -672.000
421.008;  -87.900; -775.000; -619.000
421.133;  -72.600; -509.000; -467.000
421.259;  -60.150; -325.000; -259.000
421.384;  -98.575; -834.000; -693.000
421.509;  -29.625;-1052.000; -862.000
421.634; 1289.500; -936.000; -820.000
421.759;  622.925; -359.000; -327.000
421.885;  -31.000; -717.000; -656.000
422.010;  -87.000; -673.000; -542.000
422.135; -136.050; -695.000; -727.000
422.260;   44.100;  340.000;  280.000
422.385;  -57.200;   12.000;  -98.000
422.510;    1.100;  151.000;  -26.000
422.635;   21.375;  -87.000;  -43.000
422.760;  125.375; -766.000; -791.000
422.885;   68.550;  -57.000;  -80.000
423.010;  -29.150; -112.000; -169.000
423.135;  -88.875; -481.000; -561.000
423.260;    1.575; -150.000; -245.000
423.385;   79.375;  476.000;  222.000
423.510;   32.550;   71.000;  -22.000
423.635;   93.600;  133.000;   45.000
423.760;   56.900;  383.000;  328.000
423.885;   47.075;  336.000;  391.000
424.010;   25.125;  -68.000;  -13.000
424.135;   -3.450;    5.000;  -33.000
424.259;  -73.850; -654.000; -457.000
424.384;  -67.475; -279.000; -272.000
424.509;  -29.625; -260.000; -186.000
424.634;  -92.000; -761.000; -623.000
424.759;   -5.725; -688.000; -544.000
424.883;   -6.050; -506.000; -527.000
425.008;  164.975; -502.000; -410.000
425.133; 1973.275; -679.000; -653.000
425.258; 1012.775; -517.000; -381.000
425.382; 1047.200; -867.000; -774.000
425.507; 2918.700; -487.000; -543.000
425.632;  497.775; -802.000; -663.000
425.756;  453.150; -256.000; -146.000
425.881; 5929.575; -831.000; -857.000
426.006;17464.300; -604.000; -355.000
426.130; 3027.600; -696.000; -508.000
426.255;  390.900; -611.000; -491.000
426.379;  184.050; -189.000; -577.000
426.504;  356.350;  660.000;  544.000
426.629; 3882.100; -519.000; -466.000
426.753; 2961.950;   64.000;  -46.000
426.878;  347.575; -252.000; -288.000
427.002;  203.450; -651.000; -668.000
427.127; 1487.825;  -35.000; -158.000
427.251;11162.500;  372.000;  401.000
427.375; 3538.825; -191.000; -173.000
427.500; 2454.775; -616.000; -610.000
427.624;  914.550; -234.000; -400.000
427.749;  118.150; -216.000; -225.000
427.873;  -20.075; -499.000; -412.000
427.997;  -37.100; -222.000; -230.000
428.122;   64.050;  795.000;  703.000
428.246;   92.700;  433.000;  434.000
428.371; -121.725; -869.000; -773.000
428.495; -101.225; -624.000; -646.000
428.619;  -22.850; -186.000; -117.000
428.743;   46.500;   65.000;  132.000
428.868;   23.525; -732.000; -643.000
428.992; 1471.550; -219.000; -326.000
429.116;  667.275; -329.000; -357.000
429.240;  303.925;  419.000;  426.000
429.365;   -0.975; -454.000; -574.000
429.489;  -22.475; -638.000; -647.000
429.613;   26.550; -236.000; -177.000
429.737;   47.875; -563.000; -432.000
429.861;  260.500; -247.000; -133.000
429.985; 5232.700; -425.000; -305.000
430.109; 6383.550; -770.000; -908.000
430.234;  788.125;   76.000;  -50.000
430.358;   76.675; -250.000; -160.000
430.482;  -55.100; -672.000; -564.000
430.606;  -66.175; -655.000; -375.000
430.730;   13.375; -437.000; -388.000
430.854;  164.575; -909.000; -835.000
430.978;  -48.550; -795.000; -764.000
431.102;  -81.700; -499.000; -422.000
431.226; -103.450; -874.000; -815.000
431.350;   24.075;  345.000;  422.000
431.474;  -71.600; -661.000; -373.000
431.597; -136.525;-1060.000; -848.000
431.721;  -74.175; -276.000; -267.000
431.845; -131.550; -704.000; -472.000
431.969;  -78.675; -304.000; -349.000
432.093;  -86.350; -395.000; -317.000
432.217;   -9.475;   32.000;   82.000
432.341;  -90.100; -523.000; -518.000
432.464;   22.425;   96.000;   40.000
432.588;  243.450; -401.000; -329.000
432.712;  139.325;  -52.000;  -52.000
432.836;   42.050;  213.000;  263.000
432.959;  -22.650; -372.000; -311.000
433.083;   76.350;   11.000;    2.000
433.207;  366.475;  285.000;  930.000
433.330; 4776.525; -391.000; -200.000
433.454; 6345.925; -654.000; -638.000
433.578; 3626.050;  583.000;  278.000
433.701;  737.250; -623.000; -675.000
433.825;  161.700; -292.000; -299.000
433.949;  198.050;   28.000;  -72.000
434.072;   84.550; -410.000; -323.000
434.196;   -4.825; -309.000; -117.000
434.319; 3653.150;25482.000;25124.000
434.443;  702.325; -656.000; -603.000
434.566; 2677.925;  281.000;   62.000
434.690;  505.675; -637.000; -383.000
434.813;   75.300; -251.000; -173.000
434.937;  -72.300; -569.000; -696.000
435.060;  -35.200; -423.000; -332.000
435.184;  349.000; -492.000; -217.000
435.307;  197.750;  159.000;  102.000
435.431;   -0.550;  -40.000;   24.000
435.554;  -88.400; -399.000; -240.000
435.677;  -73.275; -350.000; -258.000
435.801;  -40.000;  -25.000;   49.000
435.924;  -15.500;    1.000;  -67.000
436.048; -116.900;-1019.000; -732.000
436.171;  -58.650; -240.000;  -66.000
436.294;  -31.450; -248.000; -229.000
436.417;   95.500; -963.000; -849.000
436.541;  -71.500; -814.000; -840.000
436.664;  -49.325; -242.000; -316.000
436.787;  -39.925;   13.000;  113.000
436.910; -103.400; -792.000; -422.000
437.034;    9.375;  142.000;  143.000
437.157;   64.500;  -11.000;    0.000
437.280;  -31.375; -392.000; -292.000
437.403;  -84.250; -982.000; -869.000
437.526;  632.000; -903.000; -865.000
437.649; 2568.050; -505.000; -332.000
437.772;  443.950; -692.000; -540.000
437.896;  135.475;  700.000;  544.000
438.019;  -90.325; -758.000; -503.000
438.142;  -82.225; -596.000; -506.000
438.265;    0.125; -639.000; -670.000
438.388;  631.450; -520.000; -410.000
438.511;  155.925; -597.000; -394.000
438.634;  -28.725; -247.000; -125.000
438.757; -130.100; -693.000; -619.000
438.880;  -26.625;  -34.000;  -57.000
439.003;  -58.625; -417.000; -437.000
439.126;  -54.425; -287.000; -167.000
439.248;  -63.625;  -98.000; -139.000
439.371;  -39.750;    9.000;  -53.000
439.494;   28.950;  510.000;  439.000
439.617;  -51.625;   65.000;  -88.000
439.740; -170.725; -968.000; -816.000
439.863; -128.950; -755.000; -595.000
439.986; -122.300; -476.000; -431.000
440.108;  -50.050; -161.000; -112.000
440.231; -152.925; -950.000; -836.000
440.354;  -29.850;  -64.000; -150.000
440.477;   40.075; -566.000; -542.000
440.599;   20.900; -200.000; -225.000
440.722; -117.500; -709.000; -586.000
440.845;   60.350;  751.000;  928.000
440.968; -106.025; -415.000; -311.000
441.090;  -68.000; -199.000;  -33.000
441.213; -165.175;-1021.000; -825.000
441.336;  -52.025; -159.000;   -5.000
441.458;  -86.525; -549.000; -396.000
441.581;  -68.475; -628.000; -629.000
441.703;  -64.325; -152.000;   13.000
441.826; -113.200; -557.000; -400.000
441.948;  -45.625;   56.000;   51.000
442.071;   22.650;  555.000;  424.000
442.193; -108.750; -531.000; -485.000
442.316;   29.225;  152.000;   97.000
442.438;   43.300; -233.000;  -10.000
442.561;   65.875;  272.000;  262.000
442.683;  563.500; -809.000; -522.000
442.806; 1318.550;   -8.000;   74.000
442.928;   81.350; -859.000; -604.000
443.051;  -59.325; -577.000; -373.000
443.173;  -85.600; -341.000; -339.000
443.295;  -83.950; -263.000; -371.000
443.418;  -65.525; -321.000;  -29.000
443.540;   -2.350; -106.000;   -4.000
443.662; -112.050; -563.000; -465.000
443.785;   -4.325;  335.000;  199.000
443.907;  -91.200; -362.000; -208.000
444.029; -122.575; -767.000; -494.000
444.152; -136.300; -644.000; -554.000
444.274;  -43.875;  -18.000;  -24.000
444.396; -103.725; -461.000; -221.000
444.518; -133.650; -691.000; -454.000
444.640; -103.175; -268.000; -111.000
444.763;   -4.700;  388.000;  249.000
444.885; -104.625; -432.000; -392.000
445.007;  -40.225;   35.000;   86.000
445.129; -116.425; -610.000; -515.000
445.251;  -95.650; -372.000; -439.000
445.373; -126.300; -537.000; -386.000
445.495;   -0.725;  242.000;  350.000
445.617;   54.350;  853.000;  753.000
445.739;  -66.950; -215.000;  -97.000
445.861;  -18.975; -245.000; -112.000
445.984;  -21.625; -267.000; -101.000
446.105;  203.175; -418.000; -251.000
446.227;  700.325; -176.000;  -19.000
446.349;   34.025; -358.000; -249.000
446.471;  -86.475; -615.000; -448.000
446.593;  -54.925; -316.000;   19.000
446.715;   13.300;  -67.000;   41.000
446.837;   66.400;  697.000;  832.000
446.959;  -99.100; -457.000; -478.000
447.081; -123.225; -628.000; -518.000
447.203;   61.475;  862.000;  834.000
447.325;  -85.125; -270.000;   42.000
447.446;  -14.450;  286.000;  530.000
447.568; -153.800; -921.000; -803.000
447.690;  -73.825; -236.000; -245.000
447.812; -143.800; -798.000; -519.000
447.933;  -31.400;  155.000;  127.000
448.055;  -59.900; -306.000; -261.000
448.177;  146.575;   31.000;   79.000
448.299;  129.025; -935.000; -727.000
448.420;   24.625;  -25.000;  159.000
448.542;  -43.325;   -3.000;   33.000
448.664;  -24.850;  109.000;  322.000
448.785;  -40.400;  265.000;   83.000
448.907;  -71.875; -614.000; -353.000
449.028;  -33.525; -771.000; -471.000
449.150;   61.225;  492.000;  589.000
449.272; -176.125;-1044.000; -913.000
449.393;   30.400;  612.000;  694.000
449.515; -137.900; -634.000; -581.000
449.636;  -45.350; -264.000; -155.000
449.758;   60.450;  763.000;  622.000
449.879;  -90.550; -498.000; -396.000
450.001;  -78.750; -149.000;  -49.000
450.122;  -40.600;  -95.000;  162.000
450.244;  -28.900;   37.000;  364.000
450.365;  -95.025; -495.000; -301.000
450.486;  -38.075;   80.000;  268.000
450.608;   14.825;  393.000;  326.000
450.729;   63.200;  578.000;  645.000
450.850;    3.650; -574.000; -466.000
450.972;  666.800; -552.000; -389.000
451.093; 4695.350;  190.000;  588.000
451.214; 2281.475; -516.000; -337.000
451.336;  428.550;  773.000;  579.000
451.457;   63.350;  264.000;  393.000
451.578;  -41.425; -118.000;  -74.000
451.699; -120.800; -546.000; -540.000
451.821;  -69.800; -284.000;  -50.000
451.942;   -3.125;  278.000;  285.000
452.063;   33.350;  228.000;  419.000
452.184;  524.450;  -54.000;  -49.000
452.305; 1099.950;  103.000;  170.000
452.427;  151.775; -549.000; -301.000
452.548;  -13.275;   23.000;   79.000
452.669;  -54.875; -257.000;  -89.000
452.790;  -28.575;    3.000;  -18.000
452.911;   -0.175;  195.000;  259.000
453.032;  -72.450; -289.000;  -60.000
453.153;  -43.250;  -29.000;   81.000
453.274;   62.000;  737.000;  868.000
453.395;  -46.150;  -51.000;  175.000
453.516;  125.800; 1317.000; 1388.000
453.637;  -60.500; -205.000; -150.000
453.758;  -49.325;   15.000;   69.000
453.879; -117.250; -462.000; -250.000
454.000;   70.325; 1086.000;  948.000
454.121; -111.325; -554.000; -326.000
454.242; -113.925; -599.000; -383.000
454.362;  -66.975;  -99.000;  114.000
454.483;  -32.275; -309.000; -229.000
454.604;   68.075;  512.000;  580.000
454.725; -116.775; -627.000; -555.000
454.846; -115.025; -474.000; -406.000
454.967;  -15.400;  230.000;  539.000
455.087;  -54.900;  179.000;  153.000
455.208;    8.150;  554.000;  856.000
455.329;  -52.650;  -22.000;   82.000
455.450;   31.875;  473.000;  633.000
455.570;  -69.425; -234.000; -211.000
455.691;  -43.150;  201.000;  407.000
455.812; -112.350; -270.000;  -92.000
455.932;  -54.150;  107.000;  -97.000
456.053;  -81.925;   36.000;   24.000
456.173;  -94.575; -433.000; -355.000
456.294; -140.375; -476.000; -303.000
456.415;  -62.900;  -73.000;   70.000
456.535;  -34.875;  297.000;  273.000
456.656;  -39.650;  132.000;  240.000
456.776;  -71.925;    3.000;  298.000
456.897;   -5.100;  308.000;  513.000
457.017;  -87.975; -153.000;   -3.000
457.138; -102.225; -402.000; -249.000
457.258;  -24.825;  263.000;  224.000
457.379;  -21.425;  509.000;  521.000
457.499;  -42.825;  443.000;  432.000
457.620; -108.200; -407.000; -231.000
457.740; -106.100; -132.000;  -11.000
457.860;  -56.300;   87.000;   44.000
457.981;  -43.625;  132.000;  124.000
458.101;  -63.950;  -89.000;   40.000
458.221;  -21.300;  336.000;  402.000
458.342;  -68.175;   -4.000;  -37.000
458.462;   15.400;  617.000;  352.000
458.582;  -39.000; -302.000; -294.000
458.703;    3.850;  303.000;  154.000
458.823;  -14.550;   22.000;  163.000
458.943;   16.200;  341.000;  467.000
459.063;  -10.500; 1124.000;  192.000
459.183;  -26.575;  328.000;  313.000
459.304;    2.250;  315.000;  517.000
459.424;  -66.850; -246.000;  -89.000
459.544;  303.000;  388.000;  764.000
459.664;  831.200;  499.000;  506.000
459.784;  333.575; 1004.000; 1175.000
459.904;   66.100;  867.000;  744.000
460.024;   70.575;  867.000;  684.000
460.144;    1.175;  449.000;  554.000
460.264;   -0.350;  515.000;  327.000
460.385;  -93.300; -145.000; -119.000
460.505;   37.450;  905.000;  858.000
460.625;  -78.950;  -17.000;  -68.000
460.745;  -34.125;  396.000;  541.000
460.864;  -48.725;  153.000;  469.000
460.984;   12.425;  499.000;  573.000
461.104;  131.275; 1656.000; 1775.000
461.224;   29.725;  657.000;  650.000
461.344;  -24.750;  431.000;  360.000
461.464;  -37.175;  258.000;  513.000
461.584;   -7.175;  283.000;  466.000
461.704;  -29.975;   58.000;  108.000
461.824;  -48.000;  238.000;  259.000
461.943;  -36.875;  191.000;  130.000
462.063;  -62.075;    2.000;  324.000
462.183;   30.700;  639.000;  717.000
462.303;  100.525; 1678.000; 1230.000
462.422;   33.750;  781.000;  840.000
462.542;  -34.775;  271.000;  391.000
462.662;   48.400;  353.000;  380.000
462.782;  222.825;  833.000;  572.000
462.901;  486.825;  545.000;  717.000
463.021;  293.850; 1702.000; 1638.000
463.141;   -1.950;  337.000;  770.000
463.260;  -21.425;  614.000;  474.000
463.380;   15.750;  902.000;  884.000
463.499;  -36.450;  342.000;  332.000
463.619;  -39.000;  581.000;  559.000
463.738;  107.875; 1644.000;  903.000
463.858;   21.525;  657.000;  811.000
463.978;  -19.800;  542.000;  396.000
464.097;   72.625;  921.000; 1114.000
464.217;  102.625; 1196.000; 1143.000
464.336;  119.900; 1068.000; 1130.000
464.455;  -27.600;  328.000;  659.000
464.575;   34.125;  597.000;  602.000
464.694;  175.675; 1204.000; 1179.000
464.814;  129.825; 1190.000; 1138.000
464.933;   78.425; 1095.000; 1027.000
465.052;  104.100; 1412.000; 1054.000
465.172;   93.200;  922.000;  799.000
465.291;  156.200; 1376.000; 1320.000
465.410;   16.400;  462.000;  735.000
465.530;   85.725; 1355.000; 1310.000
465.649;   78.625; 1209.000; 1273.000
465.768;  129.600; 1673.000; 1508.000
465.888;   52.375;  941.000; 1174.000
466.007;   91.475; 1335.000; 1440.000
466.126;    3.675;  721.000;  641.000
466.245;   44.900; 1176.000; 1187.000
466.364;   31.450;  950.000; 1060.000
466.484;   53.600; 1024.000; 1213.000
466.603;   37.425; 1101.000; 1222.000
466.722;  129.975; 1490.000; 1769.000
466.841;   82.625; 1151.000; 1401.000
466.960;   57.075; 1069.000;  972.000
467.079;  120.500; 1971.000; 1786.000
467.198;   56.125; 1238.000; 1181.000
467.317;   97.400; 1768.000; 1162.000
467.436;   76.200; 1709.000; 1261.000
467.555;  126.775; 1796.000; 1746.000
467.674;   61.550; 1227.000; 1329.000
467.793;   61.300; 1376.000; 1374.000
467.912;  102.350; 1658.000; 1539.000
468.031;  134.625; 2038.000; 1930.000
468.150;  142.000; 1842.000; 1837.000
468.269;  196.600; 2313.000; 2090.000
468.388;  183.075; 2168.000; 2339.000
468.507;  242.825; 2884.000; 2903.000
468.626;  267.275; 2555.000; 2541.000
468.744;  138.000; 2018.000; 2174.000
468.863;  192.100; 2312.000; 2523.000
468.982;   99.150; 1503.000; 1555.000
469.101;  208.650; 2788.000; 2692.000
469.220;  149.100; 2333.000; 2176.000
469.338;  260.200; 2935.000; 3051.000
469.457;  208.400; 2719.000; 2545.000
469.576;  350.275; 3953.000; 3784.000
469.695;  244.800; 2877.000; 3066.000
469.813;  418.275; 4148.000; 4192.000
469.932;  403.850; 4255.000; 4485.000
470.051;  420.375; 4075.000; 4161.000
470.169;  797.325; 4470.000; 4338.000
470.288; 1474.325; 4700.000; 4809.000
470.406;  896.775; 5059.000; 5194.000
470.525;  642.500; 6101.000; 5787.000
470.644;  641.850; 6847.000; 6794.000
470.762;  796.325; 8397.000; 7873.000
470.881;  899.825; 8651.000; 8464.000
470.999; 1050.275; 9685.000; 9151.000
471.118; 1108.150;11174.000;10711.000

