
Integration time [ms]: 200.000
Averaging Nr. [scans]: 10
Smoothing Nr. [pixels]: 0
Data measured with spectrometer [name]: 2101012U2
Wave   ;Sample   ;Dark     ;Reference
[nm]   ;[counts] ;[counts] ;[counts] 

197.733;  128.000;  516.000;  404.000
197.879; -182.100; -610.000; -634.000
198.025; -135.400; -475.000; -420.000
198.171; -184.300; -602.000; -612.000
198.317;  -69.200; -401.000; -316.000
198.463; -125.100; -655.000; -404.000
198.609;   51.800;  181.000; -137.000
198.755; -165.700; -644.000; -410.000
198.901; -166.700; -505.000; -424.000
199.047; -167.600; -615.000; -488.000
199.193;  -77.100; -230.000; -468.000
199.339; -102.400; -222.000; -369.000
199.485;   54.300;  330.000;  271.000
199.631;   42.300;  227.000;  310.000
199.777; -110.400; -466.000; -398.000
199.923; -125.600; -610.000; -424.000
200.069;  -38.000; -141.000;  -58.000
200.215;  138.700;  128.000;  453.000
200.361;   59.700;  243.000;  477.000
200.507; -143.700; -600.000; -373.000
200.653;  -63.800; -371.000; -194.000
200.798;  -73.800; -215.000; -125.000
200.944;  -22.700; -146.000;  -41.000
201.090;  105.800;   61.000;  222.000
201.236;  -64.300; -116.000; -158.000
201.382;  261.600;  874.000;  903.000
201.528;  -18.000;  -58.000;  -48.000
201.674;  -84.200; -386.000; -293.000
201.819; -128.600; -540.000; -439.000
201.965; -156.000; -699.000; -447.000
202.111;  -75.100; -273.000; -226.000
202.257;  -47.500; -250.000; -238.000
202.402;  -19.900;   13.000;  -36.000
202.548;  -57.200; -169.000; -116.000
202.694;  182.400;  410.000; -183.000
202.840; -119.300; -603.000; -531.000
202.985; -196.100; -681.000; -639.000
203.131; -198.200; -832.000; -666.000
203.277;  -58.400; -199.000; -262.000
203.423;  -76.600; -434.000; -520.000
203.568;  -86.200; -462.000; -237.000
203.714; -149.000; -535.000; -542.000
203.860; -178.600; -682.000; -641.000
204.005;   69.800;  112.000;  167.000
204.151;  131.100;  561.000;  556.000
204.296;  -49.100; -354.000; -221.000
204.442; -159.800; -600.000; -547.000
204.588; -143.200; -592.000; -579.000
204.733;   33.100;  178.000;  168.000
204.879; -281.400;-1018.000; -822.000
205.025;   -6.500;  -99.000;  126.000
205.170;   -7.100;  -17.000;   94.000
205.316;  150.200;  438.000;  661.000
205.461; -173.800; -698.000; -554.000
205.607;  159.400;  609.000;  665.000
205.752; -157.200; -626.000; -551.000
205.898; -132.200; -501.000; -391.000
206.043; -114.700; -578.000; -506.000
206.189;  -92.200; -243.000; -285.000
206.334;  165.700;  554.000;  606.000
206.480;  174.600;  409.000;  239.000
206.625; -160.800; -529.000; -552.000
206.771; -133.300; -451.000; -373.000
206.916;  -55.500; -210.000; -537.000
207.062; -166.300; -545.000; -591.000
207.207; -122.700; -546.000; -443.000
207.353;  103.800;  185.000;  460.000
207.498;   43.600;  196.000;   85.000
207.643; -130.300; -501.000; -370.000
207.789; -277.000;-1069.000; -910.000
207.934; -213.500; -665.000; -713.000
208.080;  -45.100; -154.000;   66.000
208.225;  -28.200;  -22.000;  -57.000
208.370; -168.500; -727.000; -619.000
208.516; -161.900; -741.000; -487.000
208.661;  -63.400; -127.000;  -69.000
208.806;  -47.200; -165.000; -171.000
208.952; -240.900;-1044.000; -731.000
209.097;  157.300;  378.000;  349.000
209.242;  -86.200; -307.000; -382.000
209.387;   86.900;  392.000;  350.000
209.533; -127.600; -321.000; -350.000
209.678;  180.800;  472.000;  543.000
209.823;  -69.100; -408.000; -310.000
209.969; -208.500; -860.000; -757.000
210.114; -198.200; -907.000; -719.000
210.259; -216.000; -939.000; -889.000
210.404;   -9.900; -171.000;  103.000
210.549;   14.200;  108.000;    3.000
210.695;  -19.800;   -3.000;  -95.000
210.840;   56.100;   94.000;   67.000
210.985; -147.500; -484.000; -303.000
211.130;  123.400;  268.000;  406.000
211.275;   83.100;  207.000;  199.000
211.420; -121.300; -300.000; -289.000
211.566; -124.700; -536.000; -489.000
211.711;   84.900;  218.000;  157.000
211.856; -120.500; -545.000; -519.000
212.001;  -12.400;  151.000;   44.000
212.146;   22.700;  153.000;   49.000
212.291;  -46.200; -210.000; -186.000
212.436;  -52.300; -280.000;   -6.000
212.581; -187.100; -685.000; -653.000
212.726; -143.600; -487.000; -538.000
212.871; -113.100; -552.000; -217.000
213.016; -284.700;-1172.000;-1029.000
213.161;  128.000;  406.000;  291.000
213.306; -157.900; -435.000; -577.000
213.451; -224.000; -778.000; -689.000
213.596;  -93.300; -455.000; -347.000
213.741; -122.300; -448.000; -538.000
213.886; -162.100; -498.000; -517.000
214.031;  -62.900; -294.000; -124.000
214.176; -110.400; -408.000; -341.000
214.321;  -30.700; -296.000; -157.000
214.466;  -69.900; -163.000;  -43.000
214.611;   12.700;  -61.000;  -10.000
214.756; -235.600; -948.000; -858.000
214.901;  -51.900; -388.000; -226.000
215.046; -236.900; -797.000; -825.000
215.191;   50.200;  128.000;   35.000
215.336;  -10.300; -157.000;  -19.000
215.480; -143.200; -684.000; -505.000
215.625;  -30.800; -175.000;  -19.000
215.770; -181.100; -757.000; -662.000
215.915;    3.300;   -5.000;  -97.000
216.060;  -11.500; -113.000;  -21.000
216.205; -241.500; -731.000; -779.000
216.349; -177.700; -470.000; -533.000
216.494; -241.100; -939.000; -867.000
216.639; -245.200; -823.000; -888.000
216.784; -168.600; -577.000; -525.000
216.929;   78.100;  392.000;  281.000
217.073;   14.200; -244.000;  -31.000
217.218;   -0.100;   78.000;  -47.000
217.363; -180.600; -656.000; -618.000
217.507; -153.300; -623.000; -588.000
217.652; -258.900; -845.000; -874.000
217.797; -187.800; -708.000; -659.000
217.942; -231.000; -856.000; -720.000
218.086;  169.100;  608.000;  539.000
218.231;  -48.700; -174.000;  -26.000
218.376;  -38.900; -337.000; -229.000
218.520;    1.700;  -41.000;   96.000
218.665;  -82.200; -338.000; -204.000
218.810;  -84.500; -275.000; -233.000
218.954;   25.700;  201.000;   35.000
219.099; -225.400; -713.000; -963.000
219.243; -156.800; -589.000; -554.000
219.388;  -57.700; -264.000; -136.000
219.532;  -32.100; -116.000; -116.000
219.677; -145.300; -564.000; -521.000
219.822;    1.200;   33.000;   89.000
219.966;   32.600;   17.000;  -99.000
220.111;  -87.300; -328.000;  -40.000
220.255; -187.700; -797.000; -750.000
220.400;  -11.800; -180.000; -146.000
220.544; -131.400; -516.000; -450.000
220.689; -110.200; -422.000; -451.000
220.833;  -24.300; -123.000;  -58.000
220.978; -107.900; -393.000; -563.000
221.122;   53.200;  319.000;  307.000
221.267; -223.100; -906.000; -837.000
221.411; -133.400; -478.000; -394.000
221.555;    8.200; -104.000;  -23.000
221.700;  -85.900; -329.000; -222.000
221.844;   81.800;  255.000;  272.000
221.989;  -71.900; -328.000; -311.000
222.133;  -84.300; -289.000; -307.000
222.277;   17.100;    5.000;   78.000
222.422;   -3.600;  227.000;  113.000
222.566;  -64.700; -381.000; -214.000
222.711; -108.200; -414.000; -479.000
222.855; -162.800; -643.000; -586.000
222.999; -195.600; -642.000; -717.000
223.144;  -65.000; -195.000; -194.000
223.288;  107.900;  423.000;  251.000
223.432;   37.000;  184.000;  230.000
223.576;   33.900;  152.000;  -21.000
223.721;   93.000;  364.000;  273.000
223.865; -148.400; -472.000; -475.000
224.009;  469.800; 1673.000; 1631.000
224.153; -159.800; -660.000; -671.000
224.298; -114.100; -531.000; -489.000
224.442;  -45.100;  -74.000;  -33.000
224.586;  -17.000; -169.000; -106.000
224.730; -184.100; -858.000; -670.000
224.875; -196.300; -739.000; -688.000
225.019;   27.500;  102.000;  188.000
225.163;  129.800;  208.000;  341.000
225.307;   35.700;   97.000;  -91.000
225.451;  148.600;  360.000;  481.000
225.595;   57.400;  264.000;  176.000
225.739;  -44.100; -170.000;  -94.000
225.884;    4.400;   86.000;    5.000
226.028; -184.100; -760.000; -626.000
226.172;  -79.600; -260.000; -273.000
226.316; -232.100; -941.000; -902.000
226.460; -161.600; -645.000; -493.000
226.604; -105.100; -406.000; -400.000
226.748; -206.200; -836.000; -733.000
226.892;  -40.400; -227.000; -181.000
227.036; -100.100; -537.000; -447.000
227.180; -110.000; -551.000; -375.000
227.324; -137.500; -561.000; -580.000
227.468; -243.000; -819.000; -717.000
227.612;   42.200;  242.000;  -28.000
227.756; -183.900; -845.000; -698.000
227.900;  109.700;  342.000;  441.000
228.044; -130.100; -509.000; -290.000
228.188;  128.200;  448.000;  568.000
228.332; -175.200; -546.000; -472.000
228.476;  -55.100; -223.000; -149.000
228.620;  -85.600; -210.000; -150.000
228.764;  156.900;  431.000;  349.000
228.908;  -33.900; -155.000;   30.000
229.052; -129.500; -615.000; -528.000
229.195;  -16.800; -172.000;   13.000
229.339;  -77.400; -235.000; -305.000
229.483;  -45.600;    5.000; -162.000
229.627;  -13.200; -156.000;  139.000
229.771;  -86.800; -218.000; -294.000
229.915;   17.400;  230.000;   79.000
230.059; -178.100; -648.000; -663.000
230.202; -104.100; -370.000; -317.000
230.346;   -9.700; -107.000;  107.000
230.490; -128.800; -489.000; -521.000
230.634; -202.200; -736.000; -553.000
230.777;  149.500;  478.000;  509.000
230.921;  -91.700; -450.000; -359.000
231.065;  -90.000; -246.000; -286.000
231.209;   64.600;  261.000;  265.000
231.352;   57.400;   54.000;   40.000
231.496;   55.000;  568.000;  188.000
231.640; -160.300; -693.000; -621.000
231.783;  154.100;  546.000;  525.000
231.927;  -73.200; -294.000; -365.000
232.071; -232.700; -962.000; -736.000
232.214; -211.400; -980.000; -764.000
232.358; -221.200; -683.000; -599.000
232.502;   17.600;  -19.000;    7.000
232.645; -265.600;-1090.000; -927.000
232.789;  -57.300; -257.000; -218.000
232.933;  -74.700; -407.000; -224.000
233.076; -256.300;-1038.000; -897.000
233.220; -207.600; -752.000; -777.000
233.363; -137.400; -669.000; -477.000
233.507;  146.400;  371.000;  129.000
233.650; -203.000; -764.000; -834.000
233.794;  102.800;  438.000;  461.000
233.938; -129.500; -530.000; -362.000
234.081;  -14.400;  -93.000;   31.000
234.225;  -86.900; -631.000; -539.000
234.368; -218.600; -773.000; -723.000
234.512;  -94.400; -385.000; -299.000
234.655; -184.500; -582.000; -555.000
234.798; -142.400; -493.000; -466.000
234.942; -260.200; -884.000;-1002.000
235.085; -165.100; -651.000; -443.000
235.229; -119.700; -405.000; -410.000
235.372; -101.800; -247.000; -191.000
235.516; -141.300; -397.000; -321.000
235.659;   77.400;   92.000;  121.000
235.802;  -32.300;  -38.000;  -22.000
235.946;   64.400;  335.000;  215.000
236.089;   81.000;  126.000;  250.000
236.233;  114.000;  275.000;  298.000
236.376;  -65.200; -235.000; -378.000
236.519;  -69.400; -297.000; -319.000
236.663;  -70.000; -215.000; -117.000
236.806; -308.300;-1029.000; -999.000
236.949;  178.300;  543.000;  431.000
237.092;  118.800;  412.000;  391.000
237.236; -165.300; -589.000; -502.000
237.379;  142.600;  352.000;  428.000
237.522; -203.600; -879.000; -768.000
237.666;  -12.300; -271.000;   18.000
237.809; -261.300; -851.000; -823.000
237.952;   58.300;  469.000;  271.000
238.095; -101.700; -447.000; -442.000
238.238;  193.900;  688.000;  700.000
238.382;   11.400;  166.000;  103.000
238.525; -133.500; -598.000; -511.000
238.668; -254.100;-1060.000; -985.000
238.811; -151.800; -638.000; -643.000
238.954; -101.200; -483.000; -334.000
239.097;  216.200;  617.000;  664.000
239.241;   47.300;  394.000;  326.000
239.384;  -74.400; -254.000; -214.000
239.527; -105.700; -424.000; -224.000
239.670; -315.100; -994.000;-1091.000
239.813; -235.100; -696.000; -658.000
239.956;  153.000;  579.000;  473.000
240.099; -237.400; -778.000; -725.000
240.242;  154.100;  428.000;  432.000
240.385;   84.300;  466.000;  450.000
240.528; -137.200; -706.000; -473.000
240.671;    6.300;  189.000;  134.000
240.814;  -93.100; -441.000; -158.000
240.957; -183.200; -767.000; -578.000
241.100; -199.600; -779.000; -755.000
241.243; -298.500;-1234.000; -893.000
241.386; -133.500; -508.000; -379.000
241.529; -177.200; -735.000; -547.000
241.672; -105.700; -566.000; -495.000
241.815; -248.700; -832.000; -808.000
241.958;  -60.500; -125.000; -182.000
242.101; -142.800; -545.000; -390.000
242.244;  -81.600; -270.000; -325.000
242.387;  -52.600; -304.000; -246.000
242.530;  104.700;  470.000;  134.000
242.673;  -49.800; -381.000; -309.000
242.815; -261.300; -925.000; -899.000
242.958; -135.600; -482.000; -381.000
243.101;    8.600;  132.000;  187.000
243.244; -154.400; -564.000; -521.000
243.387;  -90.500; -313.000; -316.000
243.530; -197.600; -657.000; -674.000
243.672;   21.100;   43.000;  -92.000
243.815;  -96.500; -355.000; -283.000
243.958;   -5.500;   98.000;  -26.000
244.101;   48.700;   59.000;  -16.000
244.243;  -20.200;  -47.000;  101.000
244.386; -222.300; -761.000; -630.000
244.529;  -36.800; -132.000; -139.000
244.672; -324.900;-1154.000; -951.000
244.814; -221.700; -621.000; -794.000
244.957;  -61.500; -380.000; -304.000
245.100; -137.200; -489.000; -489.000
245.242; -103.400; -387.000; -374.000
245.385;   -1.800;  -59.000;  -39.000
245.528; -225.600; -871.000; -705.000
245.670;  193.600;  612.000;  634.000
245.813; -170.300; -599.000; -547.000
245.956;  -50.000; -324.000; -275.000
246.098; -146.600; -508.000; -650.000
246.241;   32.700;  194.000;   48.000
246.383;  -40.200; -119.000;  -73.000
246.526; -118.600; -454.000; -525.000
246.669; -229.900; -889.000; -780.000
246.811;   11.000;  172.000;   -1.000
246.954; -102.900; -512.000; -426.000
247.096;  -26.600;  -84.000;   -6.000
247.239;  -95.900; -482.000; -445.000
247.381; -157.400; -647.000; -488.000
247.524;  203.700;  645.000;  679.000
247.666;  -18.800;   58.000;   11.000
247.809; -206.800; -887.000; -691.000
247.951;    6.900;  -75.000;  138.000
248.094;   78.600;  432.000;  308.000
248.236; -333.600;-1262.000;-1238.000
248.378;  -13.000; -356.000;  -81.000
248.521;  -48.200; -334.000; -337.000
248.663;  -69.100; -236.000; -267.000
248.806;  -56.500; -300.000; -266.000
248.948; -203.000; -886.000; -763.000
249.090;  -96.700; -428.000; -398.000
249.233;  -68.500; -344.000; -381.000
249.375; -133.900; -474.000; -451.000
249.518;  -32.300;  -83.000; -133.000
249.660;  -15.100; -103.000;    3.000
249.802; -345.100;-1303.000;-1189.000
249.945; -159.700; -612.000; -540.000
250.087; -199.200; -834.000; -768.000
250.229; -109.600; -362.000; -480.000
250.371; -127.800; -494.000; -439.000
250.514;  -67.600; -310.000; -244.000
250.656; -121.000;   69.000;  102.000
250.798; -233.000; -849.000; -800.000
250.940; -111.100; -322.000; -322.000
251.083;  -56.100; -335.000; -111.000
251.225;  161.500;  338.000;  310.000
251.367;  -84.500; -274.000; -373.000
251.509;  -62.200; -265.000; -210.000
251.651; -187.700; -731.000; -671.000
251.794;  143.200;  538.000;  632.000
251.936; -210.800; -821.000; -747.000
252.078; -150.100; -540.000; -461.000
252.220; -150.700; -645.000; -477.000
252.362;  203.900;  344.000;  462.000
252.504; -147.800; -677.000; -584.000
252.646; -221.300; -875.000; -722.000
252.788;  -15.900;   14.000; -128.000
252.931;  -71.900; -257.000; -253.000
253.073;  -98.500; -376.000; -317.000
253.215;   -6.400;  141.000;  122.000
253.357;  -21.800;   82.000; -153.000
253.499; -112.800; -374.000; -234.000
253.641; -163.500; -749.000; -594.000
253.783; -167.100; -609.000; -527.000
253.925; -146.300; -586.000; -591.000
254.067; -202.200; -744.000; -667.000
254.209;  -47.000; -391.000; -259.000
254.351; -267.200; -865.000; -883.000
254.493; -126.500; -441.000; -417.000
254.635; -205.200; -936.000; -818.000
254.777; -168.900; -752.000; -687.000
254.918; -168.400; -512.000; -430.000
255.060; -122.300; -551.000; -395.000
255.202; -119.700; -473.000; -261.000
255.344; -154.600; -658.000; -455.000
255.486; -125.000; -471.000; -406.000
255.628; -225.600; -780.000; -781.000
255.770; -174.100; -676.000; -536.000
255.912; -115.700; -559.000; -468.000
256.053; -172.800; -730.000; -508.000
256.195;  362.900; 1008.000;  903.000
256.337; -177.800; -861.000; -595.000
256.479;  128.400;  532.000;  416.000
256.621;  -69.400; -394.000; -212.000
256.762; -229.200; -789.000; -742.000
256.904;  143.600;  485.000;  487.000
257.046;  -81.200; -381.000; -271.000
257.188;  -52.400; -351.000; -264.000
257.329; -129.600; -525.000; -464.000
257.471; -201.400; -939.000; -807.000
257.613; -120.600; -584.000; -498.000
257.755; -255.900;-1073.000; -982.000
257.896;  126.400;  286.000;  392.000
258.038; -129.200; -403.000; -352.000
258.180;  -75.200; -354.000; -279.000
258.321; -169.300; -581.000; -457.000
258.463;    5.100;  -71.000;  133.000
258.605; -174.600; -562.000; -570.000
258.746; -193.200; -886.000; -772.000
258.888; -301.000;-1026.000;-1020.000
259.029;   74.200;  121.000;   -8.000
259.171; -176.700; -614.000; -550.000
259.313;   11.900;  -49.000;  -47.000
259.454; -130.200; -536.000; -414.000
259.596;  -97.900; -483.000; -390.000
259.737; -138.800; -590.000; -474.000
259.879;   77.100;  217.000;  311.000
260.020;  196.100;  901.000;  636.000
260.162;  -33.900; -146.000; -253.000
260.303; -219.100; -768.000; -687.000
260.445; -159.100; -609.000; -613.000
260.586;   72.900;  392.000;  157.000
260.728; -102.700; -360.000; -248.000
260.869; -127.200; -350.000; -343.000
261.011;  165.300;  706.000;  537.000
261.152;  -91.900; -479.000; -319.000
261.293; -139.400; -576.000; -595.000
261.435;  -21.000; -219.000; -184.000
261.576; -102.800; -455.000; -325.000
261.718;  141.700;  420.000;  470.000
261.859; -254.400; -940.000; -949.000
262.000; -266.800; -951.000;-1016.000
262.142;  -42.500;  -52.000;  -60.000
262.283; -224.600; -808.000; -691.000
262.424; -200.400; -666.000; -625.000
262.566; -299.100;-1161.000; -983.000
262.707; -225.100; -840.000; -830.000
262.848; -218.000; -769.000; -726.000
262.990; -110.800; -362.000; -345.000
263.131;  187.700;  650.000;  681.000
263.272;  -10.000;  -61.000;  -41.000
263.413; -168.500; -589.000; -561.000
263.555; -136.100; -669.000; -143.000
263.696; -144.100; -550.000; -641.000
263.837; -108.500; -449.000; -551.000
263.978;   24.000;   -5.000;  -77.000
264.119;  -90.700; -283.000; -264.000
264.261; -211.900; -847.000; -630.000
264.402;   44.300;   33.000;   40.000
264.543; -151.800; -509.000; -524.000
264.684;  -30.400;   61.000;  -50.000
264.825; -119.200; -816.000; -538.000
264.966;   -6.700;  -84.000;  -67.000
265.107; -193.300; -646.000; -670.000
265.248; -231.300; -825.000; -812.000
265.390;   30.700;  152.000;   -9.000
265.531;  -33.300; -238.000; -107.000
265.672; -139.900; -557.000; -630.000
265.813;  167.400;  563.000;  439.000
265.954; -269.100; -959.000; -940.000
266.095;  -22.800; -372.000; -322.000
266.236; -167.100; -686.000; -548.000
266.377;  -91.900; -243.000; -297.000
266.518; -116.800; -619.000; -547.000
266.659;   55.500;  170.000;  268.000
266.800;   68.400;   83.000;   85.000
266.941; -148.300; -487.000; -478.000
267.082;   22.000;  354.000;   99.000
267.223; -102.300; -344.000; -273.000
267.364; -191.500; -892.000; -686.000
267.504;  -31.600;    3.000;  135.000
267.645;   19.600;  160.000;   67.000
267.786;  -49.400; -147.000;  -86.000
267.927; -101.800; -473.000; -379.000
268.068;  -51.600; -186.000;  -61.000
268.209;  -83.000; -175.000; -413.000
268.350;  -94.400; -388.000; -532.000
268.490; -144.500; -648.000; -521.000
268.631;   59.500;  127.000;  225.000
268.772; -212.700; -874.000; -647.000
268.913;  -64.800; -328.000; -476.000
269.054;   -2.900; -117.000;   12.000
269.194;  -88.400; -418.000; -402.000
269.335; -319.400;-1137.000;-1074.000
269.476;  -16.700;   33.000;  -35.000
269.617;  -55.500; -347.000; -392.000
269.757; -171.900; -713.000; -646.000
269.898; -198.600; -856.000; -613.000
270.039; -120.800; -415.000; -405.000
270.180; -295.200; -952.000; -816.000
270.320;  -13.000; -190.000; -250.000
270.461;  -34.300; -277.000; -249.000
270.602;  -28.700; -186.000; -156.000
270.742; -214.000; -868.000; -943.000
270.883; -100.400; -442.000; -390.000
271.023;  -94.900; -358.000; -357.000
271.164; -148.700; -607.000; -528.000
271.305; -191.900; -666.000; -654.000
271.445; -205.100; -722.000; -683.000
271.586; -141.600; -462.000; -283.000
271.726;  -91.400; -397.000; -322.000
271.867; -102.800; -594.000; -534.000
272.008;  355.000; -473.000; -285.000
272.148;  303.500;  462.000;  468.000
272.289;   45.400; -113.000; -181.000
272.429;   76.700;   19.000;  185.000
272.570; -163.500; -633.000; -737.000
272.710; -185.400; -825.000; -775.000
272.851;    4.000;  113.000; -130.000
272.991; -331.600;-1173.000;-1077.000
273.131; -124.600; -419.000; -459.000
273.272; -187.600; -683.000; -723.000
273.412;   42.700; -143.000;  -31.000
273.553;  -94.200; -488.000; -507.000
273.693;  293.600;  913.000;  858.000
273.834; -188.300; -894.000; -692.000
273.974; -119.600; -664.000; -615.000
274.114; -159.900; -772.000; -560.000
274.255;  199.000;  414.000;  373.000
274.395;   36.200; -180.000; -125.000
274.535;  115.500;  199.000;  350.000
274.676;  101.800;  225.000;   94.000
274.816;   15.200;  110.000;   34.000
274.956; -136.400; -624.000; -690.000
275.097; -121.900;-1014.000; -922.000
275.237; -188.000; -913.000; -803.000
275.377; -194.700; -778.000; -689.000
275.517; -245.200; -878.000; -937.000
275.658; -103.900; -590.000; -555.000
275.798; -111.300; -606.000; -413.000
275.938;   52.000;  215.000;  323.000
276.078; -143.000; -626.000; -395.000
276.218;    4.100;   99.000;  104.000
276.359; -238.700;-1026.000;-1024.000
276.499; -116.600; -605.000; -446.000
276.639;  -20.900; -305.000; -151.000
276.779;  -55.300; -475.000; -357.000
276.919; -203.300; -783.000; -624.000
277.059;   -9.300; -261.000; -212.000
277.199;  -55.400; -357.000; -259.000
277.340;  116.600;  287.000;  175.000
277.480; -206.700; -840.000; -693.000
277.620;  102.700;  192.000;   16.000
277.760; -352.700;-1533.000;-1294.000
277.900;   25.100;  113.000;   33.000
278.040;   96.200;  137.000;  159.000
278.180;  121.200;  270.000;  170.000
278.320;   75.500;   21.000;   56.000
278.460; -140.800; -443.000; -469.000
278.600; -151.200; -708.000; -598.000
278.740;  153.200;  448.000;  224.000
278.880;  -48.900; -768.000; -791.000
279.020;   67.100; -194.000; -144.000
279.160; -142.600; -672.000; -595.000
279.300; -233.900; -926.000; -873.000
279.440; -149.600; -709.000; -622.000
279.579;  -81.900;-1014.000; -929.000
279.719; -102.300; -410.000; -394.000
279.859;  144.100;   -4.000;   41.000
279.999;  114.600; -208.000;  101.000
280.139;  -25.100; -435.000; -387.000
280.279;  -93.200; -708.000; -745.000
280.419;   -7.400; -229.000; -147.000
280.559;  -37.500; -259.000; -180.000
280.698; -138.000; -790.000; -639.000
280.838; -162.000; -778.000; -800.000
280.978; -187.900; -846.000; -790.000
281.118; -186.400; -811.000; -704.000
281.257;   26.000;   24.000;    6.000
281.397; -158.500;-1094.000; -960.000
281.537; -156.900; -599.000; -712.000
281.677;  -37.700; -150.000; -101.000
281.816; -184.200; -700.000; -630.000
281.956;    6.000; -193.000; -257.000
282.096;  -87.600; -539.000; -396.000
282.235; -199.300; -672.000; -638.000
282.375;    0.700; -243.000;  -98.000
282.515; -146.800; -715.000; -707.000
282.654;   96.400;   29.000;  106.000
282.794;  101.100;  388.000;  244.000
282.934;  -67.000; -530.000; -491.000
283.073; -252.000;-1030.000; -857.000
283.213; -111.100; -460.000; -467.000
283.353;  -28.600; -408.000; -349.000
283.492;  -32.100; -264.000; -296.000
283.632;  -49.100; -254.000; -168.000
283.771; -187.300; -859.000; -730.000
283.911;  -82.500; -369.000; -260.000
284.050; -191.900; -794.000; -748.000
284.190; -294.300;-1229.000;-1096.000
284.329; -270.900;-1055.000; -964.000
284.469;  -92.700; -516.000; -591.000
284.608;  -81.200; -559.000; -598.000
284.748; -119.800; -614.000; -570.000
284.887;   16.800;  -87.000;  -20.000
285.027; -212.000; -844.000; -892.000
285.166;  -31.400; -192.000; -249.000
285.306;   74.200; -116.000;  -33.000
285.445;  -53.000; -229.000; -343.000
285.584; -148.700; -630.000; -494.000
285.724;  -28.600; -282.000; -322.000
285.863; -167.700; -857.000; -507.000
286.002;  -88.500; -366.000; -276.000
286.142; -166.100; -715.000; -622.000
286.281; -147.100; -525.000; -493.000
286.420; -159.500; -554.000; -417.000
286.560;  236.200;  653.000;  623.000
286.699; -234.500; -958.000; -912.000
286.838; -144.000; -590.000; -591.000
286.978; -164.500; -533.000; -537.000
287.117; -241.300;-1085.000; -950.000
287.256;  -53.100; -228.000; -211.000
287.395;  -80.900; -197.000; -378.000
287.535;  -30.700; -370.000; -298.000
287.674; -150.200; -509.000; -484.000
287.813;  166.000;  661.000;  533.000
287.952; -244.000;-1010.000; -871.000
288.091; -261.500;-1049.000; -915.000
288.231;   78.900;   13.000;   15.000
288.370; -301.300;-1217.000;-1200.000
288.509; -172.100; -728.000; -645.000
288.648; -137.600; -770.000; -548.000
288.787;  -22.900; -243.000;  -87.000
288.926;  -88.600; -454.000; -475.000
289.065;  267.900;  859.000;  672.000
289.204;  -46.800; -377.000; -217.000
289.344; -181.900; -791.000; -690.000
289.483;  113.700;  416.000;  304.000
289.622;   -7.400; -291.000; -149.000
289.761;   17.900; -309.000; -166.000
289.900; -186.000; -785.000; -626.000
290.039;  -23.800;  -12.000;  -95.000
290.178;  -75.300; -274.000; -180.000
290.317; -106.600; -618.000; -479.000
290.456; -120.700; -463.000; -451.000
290.595; -235.100; -961.000; -833.000
290.734; -265.000; -904.000; -891.000
290.873;  -63.400; -456.000; -420.000
291.011; -172.400; -833.000; -843.000
291.150; -151.200; -770.000; -682.000
291.289;   -4.600; -343.000; -110.000
291.428; -138.600; -599.000; -480.000
291.567; -105.300; -370.000; -442.000
291.706;   23.400;  109.000;  154.000
291.845; -169.100; -597.000; -505.000
291.984; -272.800;-1234.000;-1061.000
292.122;  187.400;  602.000;  582.000
292.261;   97.600;  620.000;  463.000
292.400;   66.800; -144.000;  211.000
292.539; -196.100; -959.000; -813.000
292.678;  -30.900; -325.000; -300.000
292.816; -275.500;-1136.000; -965.000
292.955; -127.200; -844.000; -684.000
293.094;   17.100; -173.000; -337.000
293.233;  -81.100; -556.000; -400.000
293.371;  -27.300; -225.000;  -84.000
293.510; -216.600; -866.000; -780.000
293.649; -213.700; -959.000; -924.000
293.787;  -74.700;-1083.000;-1012.000
293.926;   35.600; -113.000;  -32.000
294.065;  -55.400; -379.000; -290.000
294.203;  153.300;  298.000;  406.000
294.342;  101.700;   74.000;  156.000
294.481;12143.900;51180.000; -836.000
294.619;  -24.200; -425.000; -582.000
294.758; -268.700;-1230.000;-1137.000
294.896;  194.800; -125.000;    5.000
295.035; -214.200;-1040.000;-1006.000
295.174; -205.700;-1082.000; -954.000
295.312;  -28.600; -323.000; -203.000
295.451;   27.300; -307.000; -428.000
295.589;  -57.800; -389.000; -518.000
295.728;   84.600; -292.000; -165.000
295.866;   42.600;  -36.000;  -51.000
296.005; -112.800; -584.000; -341.000
296.143;  -80.100; -558.000; -596.000
296.282; -169.500; -957.000; -881.000
296.420; -107.800; -657.000; -557.000
296.559; -123.000; -892.000; -633.000
296.697;   93.900; -847.000; -665.000
296.835;  250.300;-1141.000;-1002.000
296.974;  174.900;  -23.000;   39.000
297.112;   76.200; -443.000; -504.000
297.251;  -78.700; -815.000; -755.000
297.389;  252.800; -576.000; -438.000
297.527;  158.600; -145.000;  -83.000
297.666;  -76.800; -486.000; -438.000
297.804;  -59.500; -404.000; -264.000
297.942;   45.600; -136.000; -161.000
298.081;   56.500; -183.000;   63.000
298.219;  178.700;  -17.000;  -19.000
298.357;  150.100; -144.000;  -71.000
298.495;  130.000; -810.000; -812.000
298.634;  226.600;  245.000;  219.000
298.772;  179.300; -220.000; -338.000
298.910;   -5.600; -309.000; -182.000
299.048;    9.900; -130.000; -153.000
299.187;  -16.200; -350.000; -250.000
299.325;   77.600;   52.000;  122.000
299.463;  162.500; -389.000; -299.000
299.601;  302.800; -327.000; -271.000
299.739; -155.700; -908.000; -883.000
299.877; -148.600; -791.000; -703.000
300.016;  -79.200;-1095.000; -935.000
300.154;  342.600;  -19.000; -161.000
300.292;  174.300; -428.000; -348.000
300.430;  134.800; -408.000; -291.000
300.568; -150.100; -940.000; -874.000
300.706;  -53.000; -366.000; -469.000
300.844; -114.800;-1108.000; -979.000
300.982;  266.700;  246.000;  282.000
301.120; -206.400; -965.000; -866.000
301.258;  -83.100; -812.000; -705.000
301.396;  159.000;  104.000;  -41.000
301.534;  198.400; -218.000; -293.000
301.672;   60.000; -664.000; -521.000
301.810;  129.300; -613.000; -545.000
301.948;  314.700;   53.000;  149.000
302.086; 1219.600; -250.000;  -32.000
302.224; 2042.000; -610.000; -585.000
302.362;  162.900; -558.000; -622.000
302.500;   43.900; -923.000; -893.000
302.638;  281.500;  128.000;  245.000
302.776;   86.600; -352.000; -408.000
302.913;  125.400;  447.000;  236.000
303.051;   69.100;  -86.000;  -23.000
303.189;  150.000;   90.000;  118.000
303.327;  -28.600; -341.000; -256.000
303.465; -124.100; -832.000; -588.000
303.603; -142.800; -805.000; -604.000
303.740;  211.400;  417.000;  241.000
303.878;  123.500; -800.000; -759.000
304.016; -140.300; -915.000; -790.000
304.154; -213.900;-1123.000;-1152.000
304.291;  -58.000; -505.000; -554.000
304.429;   82.600;  102.000;   74.000
304.567; -233.500; -908.000; -893.000
304.705;  -51.800; -408.000; -515.000
304.842;  250.800; -616.000; -540.000
304.980;  174.600;  215.000;   35.000
305.118;  173.100; -367.000; -365.000
305.255;  -68.800; -945.000; -927.000
305.393;  181.500;  178.000;  239.000
305.531; -146.400;-1173.000; -956.000
305.668; -136.400; -663.000; -582.000
305.806;  231.400; -358.000; -439.000
305.943;  212.400; -629.000; -637.000
306.081;  195.100; -378.000; -267.000
306.219; -173.500; -863.000; -748.000
306.356;   76.900;  158.000;   27.000
306.494;  296.700;  981.000;  761.000
306.631;   77.500;  -11.000;  -55.000
306.769;   46.100; -613.000; -485.000
306.906;   70.500; -284.000; -258.000
307.044;  -57.400; -473.000; -488.000
307.181;  -73.400; -410.000; -332.000
307.319;  111.400;  112.000;   87.000
307.456; -299.400;-1191.000;-1153.000
307.594; -162.300; -980.000; -727.000
307.731;   29.500; -371.000; -164.000
307.868;   23.300;  -15.000;   20.000
308.006; -228.200; -961.000; -847.000
308.143;  -69.600; -618.000; -330.000
308.281;  478.500;  -37.000; -254.000
308.418;   55.600; -748.000; -640.000
308.555;  -73.800; -400.000; -250.000
308.693; -101.900; -577.000; -573.000
308.830; -147.800; -712.000; -657.000
308.967;   26.900; -215.000;  -95.000
309.105;   12.200; -507.000; -396.000
309.242;  134.000; -468.000; -367.000
309.379;  911.800; -577.000; -655.000
309.517;  -52.300; -936.000; -948.000
309.654; -131.100; -910.000; -734.000
309.791; -110.300; -662.000; -580.000
309.928; -185.100; -977.000; -914.000
310.065;  420.800;  819.000;  697.000
310.203;   82.800; -825.000; -850.000
310.340;   60.200; -465.000; -321.000
310.477;  -64.100; -412.000; -516.000
310.614;  -92.000; -383.000; -473.000
310.751;  -84.800; -427.000; -518.000
310.889;   -0.400;    1.000;   11.000
311.026; -253.800;-1161.000; -939.000
311.163;  -40.000; -386.000; -380.000
311.300;  -92.500; -512.000; -479.000
311.437;  -99.300; -658.000; -619.000
311.574; -249.300;-1226.000; -985.000
311.711;  -83.500; -595.000; -433.000
311.848;   24.900; -380.000; -388.000
311.985;   97.000;  270.000;   93.000
312.122; -179.800; -932.000; -762.000
312.259; -179.300; -941.000; -994.000
312.396; -109.200; -508.000; -551.000
312.533; -113.600; -812.000; -790.000
312.670; -200.800;-1070.000; -898.000
312.807;   -4.800; -352.000; -367.000
312.944;  -69.100; -513.000; -611.000
313.081;   -0.800; -150.000; -415.000
313.218; -172.200;-1111.000; -867.000
313.355;   51.800; -531.000; -449.000
313.492;  115.600; -455.000; -292.000
313.629;  338.300;  815.000;  735.000
313.766; -230.900;-1176.000;-1008.000
313.902;   70.200; -186.000;   21.000
314.039;  -23.100; -372.000; -289.000
314.176;  123.300;  286.000;  192.000
314.313;  -71.800; -569.000; -473.000
314.450;  -93.400; -788.000; -684.000
314.587;  -65.400; -468.000; -480.000
314.723;   82.900;  -78.000;  130.000
314.860;  138.300;  318.000;  332.000
314.997;  109.200;  223.000;  142.000
315.134;  -26.800; -385.000; -368.000
315.270;   -2.100; -480.000; -496.000
315.407; -181.100;-1094.000; -967.000
315.544;  -48.700; -657.000; -538.000
315.681;  -71.400; -681.000; -565.000
315.817;  137.500; -133.000; -176.000
315.954;  103.600; -613.000; -392.000
316.091; -200.500;-1045.000;-1023.000
316.227;   -0.700;  -71.000; -179.000
316.364;   24.200;   23.000;    6.000
316.500;  -17.500; -113.000; -300.000
316.637;  -43.600; -181.000; -302.000
316.774;  -82.600; -625.000; -358.000
316.910; -145.900; -598.000; -629.000
317.047;  -72.100; -487.000; -351.000
317.183;  -92.500; -435.000; -566.000
317.320;  -53.900; -367.000; -321.000
317.456; -119.800; -733.000; -805.000
317.593; -117.400; -598.000; -641.000
317.729;   36.000;  168.000;  -67.000
317.866; -387.000;-1434.000;-1285.000
318.002; -152.700; -708.000; -948.000
318.139; -146.400; -883.000; -867.000
318.275; -198.700;-1003.000; -738.000
318.412;  -61.400; -517.000; -336.000
318.548;  -30.000; -751.000; -720.000
318.685; -139.800; -985.000; -888.000
318.821; -172.300; -762.000; -735.000
318.957;    2.400;   34.000;  -23.000
319.094;  108.200;  297.000;  154.000
319.230;  -47.700; -756.000; -742.000
319.367;  289.100; -471.000; -520.000
319.503;  156.300; -538.000; -436.000
319.639; -152.600; -877.000; -793.000
319.775;  -98.900; -750.000; -685.000
319.912;  -60.100; -424.000; -519.000
320.048; -155.400;-1184.000;-1184.000
320.184;  174.800;   59.000;   70.000
320.321;  -59.100; -497.000; -467.000
320.457;  172.400;  475.000;  662.000
320.593;  -77.800; -375.000; -382.000
320.729; -175.000; -732.000; -734.000
320.866;  -87.500; -577.000; -635.000
321.002; -147.400; -759.000; -809.000
321.138;   20.900; -135.000; -211.000
321.274;  169.200; -148.000; -115.000
321.410;  -21.000; -585.000; -353.000
321.546;   15.700;-1011.000; -911.000
321.683;  184.400;  400.000;  185.000
321.819;   38.400;  -48.000; -117.000
321.955; -169.300; -743.000; -722.000
322.091;  -63.700; -585.000; -540.000
322.227;   43.500; -382.000; -202.000
322.363;   29.200; -320.000; -215.000
322.499;  -12.000; -343.000; -331.000
322.635;  383.000;  636.000;  443.000
322.771;  103.700; -139.000;   12.000
322.907;  241.500;  129.000;  327.000
323.043;    4.300; -115.000; -206.000
323.179;   -6.600; -394.000; -363.000
323.315;  148.100; -401.000; -371.000
323.451;  305.900; -328.000; -236.000
323.587;  197.700;  -60.000;  -77.000
323.723;   89.600; -682.000; -601.000
323.859;   22.000; -258.000;  -76.000
323.995;  -11.700; -467.000; -409.000
324.131; -180.800; -967.000; -892.000
324.267;  -51.600; -254.000; -276.000
324.402; -203.700; -960.000; -983.000
324.538;    6.500; -279.000; -104.000
324.674;  127.700;  164.000;   77.000
324.810;  430.700;  226.000;  308.000
324.946;  118.900; -810.000; -658.000
325.082;  -89.200; -568.000; -475.000
325.217;   18.000;  -62.000;   16.000
325.353; -167.200; -764.000; -659.000
325.489;  -99.200; -540.000; -506.000
325.625;  -93.200; -579.000; -525.000
325.760;  171.400;  517.000;  376.000
325.896;  -28.800; -515.000; -702.000
326.032;  -43.600; -403.000; -352.000
326.168;  -99.400; -462.000; -369.000
326.303;  -59.700; -352.000; -461.000
326.439;  -21.700; -336.000; -276.000
326.575;   83.200; -190.000;  -29.000
326.710;   29.400; -156.000;  -30.000
326.846;   46.200;  146.000;  103.000
326.982; -152.500; -530.000; -548.000
327.117; -111.100; -481.000; -442.000
327.253; -162.300; -745.000; -742.000
327.388; -224.700;-1137.000;-1153.000
327.524;  -13.000; -811.000; -578.000
327.659;   16.200;  -58.000;  -22.000
327.795;   17.500;   69.000;   45.000
327.931; -141.500; -723.000; -499.000
328.066;    7.400; -417.000; -276.000
328.202;   83.200;   12.000; -129.000
328.337;  285.600;  957.000;  713.000
328.473;   36.300;  -12.000;  -74.000
328.608;   25.100; -256.000; -267.000
328.743;  -94.100; -799.000; -664.000
328.879;   75.500;  214.000;  114.000
329.014;  -57.900; -102.000; -122.000
329.150; -149.300; -358.000; -483.000
329.285;  -81.000; -465.000; -466.000
329.421;  -22.600; -548.000; -246.000
329.556;    2.900;  -36.000;   85.000
329.691; -145.000; -633.000; -615.000
329.827; -136.200; -626.000; -480.000
329.962;  -16.000;  131.000; -301.000
330.097; -138.200; -673.000; -585.000
330.233;  -40.800; -410.000; -223.000
330.368; -168.100; -839.000; -628.000
330.503;   15.200;    3.000;   98.000
330.638;  101.600;  -93.000; -125.000
330.774;  -61.700; -609.000; -530.000
330.909;  -55.400; -434.000; -244.000
331.044; -146.700; -714.000; -708.000
331.179; -299.000;-1217.000;-1109.000
331.315;   61.000;   77.000;   20.000
331.450;   92.800;  157.000;  285.000
331.585; -141.800; -805.000; -706.000
331.720;  -94.600; -510.000; -460.000
331.855;   38.300;  -35.000; -102.000
331.990;  378.900;   62.000;  138.000
332.126;  208.300; -110.000;   71.000
332.261;  -27.400; -379.000; -265.000
332.396;  -12.400; -135.000; -242.000
332.531; -216.700;-1074.000;-1031.000
332.666;   35.300; -519.000; -363.000
332.801; -159.700; -726.000; -807.000
332.936;    9.600; -192.000; -122.000
333.071; -258.300; -870.000; -817.000
333.206;   83.100;  307.000;  379.000
333.341;  105.000;  344.000;  418.000
333.476; -125.900; -627.000; -623.000
333.611;  -16.300; -251.000; -173.000
333.746;  -17.100; -381.000; -464.000
333.881; -166.100; -973.000; -935.000
334.016; -220.200; -936.000; -917.000
334.151; -196.800; -746.000; -702.000
334.286;  100.100;  152.000;  186.000
334.421;   21.400; -125.000; -178.000
334.556; -105.700; -611.000; -567.000
334.690; -117.300; -631.000; -577.000
334.825;  159.400;  381.000;   83.000
334.960;  -66.400; -285.000; -413.000
335.095;   55.400;  135.000;  -91.000
335.230; -134.000; -722.000; -738.000
335.365; -227.200;-1084.000; -990.000
335.499; -186.300;-1108.000;-1037.000
335.634;   95.200;    9.000;  534.000
335.769; -129.200; -755.000; -720.000
335.904;  -82.800; -603.000; -561.000
336.038;  -34.900; -735.000; -657.000
336.173; -201.900;-1206.000;-1194.000
336.308;   51.500; -116.000; -189.000
336.443;   15.300; -544.000; -634.000
336.577;  -83.700; -936.000; -787.000
336.712;  235.400;   -4.000;  -12.000
336.847;    6.500; -724.000; -607.000
336.981;  183.000; -272.000; -208.000
337.116;  632.400;  615.000;  501.000
337.250;  376.700; -434.000; -421.000
337.385;  349.100; -297.000; -208.000
337.520;   71.000; -632.000; -603.000
337.654;  -43.300; -215.000; -126.000
337.789; -206.700; -989.000; -933.000
337.923;   -1.000; -104.000; -205.000
338.058; -131.400; -673.000; -738.000
338.192;   36.100; -611.000; -488.000
338.327;   63.300;  -18.000; -155.000
338.461;  -73.800; -299.000; -469.000
338.596; -145.500; -780.000; -638.000
338.730; -153.500; -767.000; -803.000
338.865;  149.800;  -46.000; -140.000
338.999; -101.200; -846.000; -702.000
339.134;  -46.000; -634.000; -536.000
339.268;   38.400; -741.000; -603.000
339.403;  536.300; -740.000; -775.000
339.537;  133.700; -894.000; -820.000
339.671; -214.200; -829.000; -813.000
339.806; -116.100; -556.000; -512.000
339.940;   51.600; -261.000; -235.000
340.074; -126.500; -685.000; -510.000
340.209;  -51.900; -351.000; -230.000
340.343; -127.400; -517.000; -573.000
340.477;  341.300;  998.000; 1036.000
340.612; -151.700;-1033.000; -900.000
340.746;  175.500; -199.000; -243.000
340.880;  -86.100; -924.000; -785.000
341.014;   12.400;  -45.000; -154.000
341.149; -163.100; -756.000; -718.000
341.283; -177.000; -839.000; -754.000
341.417;  -97.300;-1124.000; -938.000
341.551;  402.700; -768.000; -708.000
341.685;    6.700; -633.000; -611.000
341.820;  -75.100; -562.000; -493.000
341.954;  -52.800; -218.000; -349.000
342.088; -262.200;-1102.000;-1019.000
342.222;  143.100;  565.000;  618.000
342.356;  -58.400; -395.000; -335.000
342.490; -108.200; -880.000; -841.000
342.624;  -38.100; -339.000; -242.000
342.758;   68.900; -364.000; -312.000
342.892;  -82.400; -710.000; -585.000
343.026;   15.200;  -58.000; -116.000
343.160;  -78.100; -426.000; -376.000
343.294;  -94.500; -474.000; -337.000
343.428;   -6.100; -488.000; -448.000
343.562;   30.500; -172.000;  -23.000
343.696;  -20.000; -385.000; -314.000
343.830;   36.500; -362.000; -356.000
343.964;  113.200; -231.000; -168.000
344.098; 2042.500;  199.000;   70.000
344.232; 1723.200; -266.000; -127.000
344.366;  212.400; -567.000; -453.000
344.500;  231.300; -665.000; -744.000
344.634;  152.600; -324.000; -164.000
344.768;   26.700; -531.000; -341.000
344.902;  104.000;  278.000;  256.000
345.035; -123.800; -556.000; -496.000
345.169; -217.700; -933.000; -656.000
345.303;   24.900; -308.000; -482.000
345.437;  -61.500; -826.000; -717.000
345.571; -141.500; -675.000; -594.000
345.704;  -80.800; -309.000; -532.000
345.838;    5.500; -331.000; -284.000
345.972;   -4.600; -543.000; -495.000
346.106;  267.300; -179.000; -190.000
346.239;  825.400; -312.000; -243.000
346.373;   82.600; -343.000; -302.000
346.507; -226.900; -950.000; -962.000
346.640;  397.800;  -30.000;   13.000
346.774;   -9.900; -650.000; -797.000
346.908;   20.000; -138.000;  -11.000
347.041; -136.200; -646.000; -593.000
347.175;  103.600;  259.000;   27.000
347.309;  -71.700; -698.000; -628.000
347.442; -128.300; -883.000; -732.000
347.576;  652.300;  670.000;  668.000
347.709;  543.600; -123.000;  -52.000
347.843;  -85.200; -933.000; -825.000
347.976;  118.100;  235.000;  294.000
348.110; -300.900;-1268.000;-1186.000
348.243; -163.000; -679.000; -772.000
348.377;   28.400;  -26.000;   60.000
348.510;  163.500;  403.000;  540.000
348.644;   11.400;  -37.000; -159.000
348.777;   72.300;  180.000;  191.000
348.911;  -44.200; -142.000; -112.000
349.044;  402.400;  471.000;  448.000
349.178;  432.400;-1069.000;-1006.000
349.311;  289.700;  141.000;  255.000
349.444;  -44.300; -927.000; -813.000
349.578;   37.700; -347.000; -200.000
349.711; -138.600; -959.000; -862.000
349.845;   63.400; -661.000; -591.000
349.978; -227.500;-1224.000;-1137.000
350.111; -134.000; -546.000; -612.000
350.244;  -82.800; -596.000; -700.000
350.378;   79.000; -392.000; -393.000
350.511;  -62.200; -393.000; -426.000
350.644; -171.200; -808.000; -806.000
350.778;   61.200;  168.000;  104.000
350.911;   54.900;  134.000;  140.000
351.044; -136.400; -685.000; -615.000
351.177;   24.500; -321.000; -281.000
351.310;   42.600;    3.000; -131.000
351.444; -142.700; -888.000; -788.000
351.577;  332.100;  140.000;   90.000
351.710;  303.600;  593.000;  417.000
351.843;   12.200; -165.000;  -77.000
351.976;   60.900;  149.000;  -79.000
352.109; -117.800; -621.000; -612.000
352.242;    9.000; -464.000; -419.000
352.376;  -37.600; -580.000; -636.000
352.509;  513.400; -437.000; -356.000
352.642;   99.600; -654.000; -604.000
352.775;  192.600; -141.000;  -98.000
352.908; -147.900; -933.000; -904.000
353.041; -144.900; -814.000; -824.000
353.174;  -33.900; -551.000; -424.000
353.307; -110.200; -753.000; -764.000
353.440;  218.500;  541.000;  453.000
353.573; -157.700; -957.000;-1008.000
353.706;  -42.500; -384.000; -558.000
353.839;   -8.600; -264.000; -220.000
353.971; -103.700; -657.000; -512.000
354.104; -128.200; -896.000; -835.000
354.237;  -27.600; -627.000; -662.000
354.370; -148.200; -846.000; -879.000
354.503; -286.500;-1231.000;-1308.000
354.636;   -3.700; -529.000; -348.000
354.769; -214.400; -937.000; -860.000
354.902;   58.700; -230.000; -139.000
355.034;   36.100; -164.000; -220.000
355.167;   20.100; -262.000; -162.000
355.300; -134.200;-1061.000; -880.000
355.433; 1452.900;  -71.000;  -14.000
355.565; 2113.100; -402.000; -384.000
355.698;  527.100; -356.000; -296.000
355.831;   30.600; -882.000; -801.000
355.964;  252.400; -285.000; -170.000
356.096;  -90.200; -856.000; -843.000
356.229;  100.800; -523.000; -530.000
356.362;  473.100; -373.000; -266.000
356.494;  861.900; -229.000; -162.000
356.627; 1097.200;  269.000;  377.000
356.760; 1052.200;  120.000;   53.000
356.892; 1352.300; -286.000; -601.000
357.025; 1458.800;  403.000;  389.000
357.157; 1413.500; -167.000; -179.000
357.290;  775.600; -856.000; -713.000
357.423;  315.000; -667.000; -556.000
357.555;  272.000; -217.000; -228.000
357.688;  315.700; -483.000; -364.000
357.820;  863.700; -870.000; -877.000
357.953; 7062.100; -563.000; -589.000
358.085; 1667.800; -632.000; -612.000
358.218; 2998.400;-1131.000; -932.000
358.350;  544.300;  -58.000;  312.000
358.483; -155.700;-1300.000;-1187.000
358.615;   62.800;-1182.000;-1078.000
358.747;    6.400;-1187.000;-1058.000
358.880;  120.800; -810.000; -744.000
359.012;   51.800; -376.000; -202.000
359.145;  -33.900; -480.000; -511.000
359.277;  137.400; -962.000; -913.000
359.409; 6004.000;  536.000;  231.000
359.542; 1583.100; -738.000; -688.000
359.674;  192.800;   46.000;   13.000
359.806;  -75.300; -565.000; -438.000
359.939;  -56.100; -617.000; -516.000
360.071;  -23.800; -583.000; -579.000
360.203;  -30.600; -411.000; -364.000
360.335;  185.900;  164.000;  -16.000
360.468;  371.000; -249.000; -307.000
360.600; 4639.400; -547.000; -454.000
360.732; 3746.000; -546.000; -423.000
360.864;  492.600;-1216.000;-1044.000
360.996;  762.400; -516.000; -554.000
361.129;  172.000; -389.000; -598.000
361.261;   73.500;  110.000; -113.000
361.393;   29.000; -252.000; -214.000
361.525;  123.500;   94.000;  244.000
361.657;  -34.800; -821.000; -703.000
361.789;   92.200; -139.000; -155.000
361.921;  664.500; -642.000; -593.000
362.053;  664.800;  524.000;  541.000
362.185;  193.300;  288.000;   72.000
362.318;  -63.900; -709.000; -705.000
362.450;  349.100;  294.000;  444.000
362.582;  495.900; -913.000; -870.000
362.714;   -1.400; -353.000; -332.000
362.846; -132.500; -606.000; -490.000
362.978; -200.700; -941.000; -811.000
363.109;  180.400; -161.000; -260.000
363.241; 1075.100; -739.000; -749.000
363.373;  671.100; -649.000; -564.000
363.505;  940.300; -186.000;  -91.000
363.637;  257.200; -787.000; -601.000
363.769; -213.500;-1067.000;-1080.000
363.901;  -74.700; -596.000; -654.000
364.033; -151.500;-1103.000;-1062.000
364.165;   16.200; -283.000; -283.000
364.296;  197.100; -316.000; -177.000
364.428;   22.000;-1344.000;-1220.000
364.560;  -66.000; -679.000; -661.000
364.692;  -81.300; -738.000; -835.000
364.824;  791.100; -588.000; -456.000
364.955;  762.100; -402.000; -564.000
365.087; 1042.600;-1097.000; -852.000
365.219;   12.100; -686.000; -816.000
365.351;  -71.400; -526.000; -572.000
365.482;  192.300;  300.000;  240.000
365.614;  -31.800; -402.000; -314.000
365.746; -153.100; -729.000; -752.000
365.877; -154.100; -706.000; -672.000
366.009;  363.300;  -35.000;  -62.000
366.141; -220.900;-1249.000;-1134.000
366.272; -184.500; -803.000; -719.000
366.404; -183.800;-1005.000; -874.000
366.535;   49.600; -139.000;  -12.000
366.667; -138.900; -644.000; -649.000
366.799;  112.700;  353.000;  203.000
366.930; -171.800; -862.000; -996.000
367.062;  230.600; -639.000; -613.000
367.193;  189.300; -872.000; -842.000
367.325;  -68.000; -580.000; -684.000
367.456;  291.300; -246.000;   31.000
367.588;  325.100; -371.000; -318.000
367.719;  130.600;  -44.000;  -45.000
367.851;   23.400; -222.000; -241.000
367.982;  -27.600; -875.000; -732.000
368.113;  302.900; -475.000; -358.000
368.245; -138.200; -960.000; -841.000
368.376;   22.800; -254.000; -302.000
368.508;   -7.400; -188.000; -263.000
368.639; -237.200;-1166.000;-1034.000
368.770;   49.100; -670.000; -589.000
368.902;  -55.800; -836.000; -926.000
369.033; -151.700; -906.000; -855.000
369.164;  -81.300; -720.000; -653.000
369.296; -183.000; -452.000; -601.000
369.427;   63.200; -209.000; -144.000
369.558;  -15.900; -593.000; -377.000
369.689; -117.200; -721.000; -569.000
369.821; -220.500; -951.000; -845.000
369.952;   37.800;   42.000; -108.000
370.083;   -3.500; -229.000; -108.000
370.214; -115.500; -735.000; -650.000
370.345;   76.400;   65.000;   81.000
370.477; -107.700; -810.000; -790.000
370.608;  595.100; -328.000; -264.000
370.739;  -16.400;-1233.000;-1292.000
370.870;   40.400;-1102.000; -923.000
371.001;  274.600; -378.000; -467.000
371.132;  -68.900; -754.000; -735.000
371.263;   21.500;  -42.000; -148.000
371.394; -218.600; -841.000; -748.000
371.525;  128.700;  345.000;  225.000
371.657; -100.600; -808.000; -670.000
371.788;  199.300;  103.000;  199.000
371.919;  407.000; -384.000; -304.000
372.050; 7662.500;  -91.000; -156.000
372.181; 2235.100; -188.000; -294.000
372.311;  881.800;   42.000; -127.000
372.442;  143.500; -457.000; -451.000
372.573;   22.100; -444.000; -340.000
372.704; -177.800;-1008.000; -980.000
372.835;  216.200; -228.000; -289.000
372.966;  -38.600; -646.000; -554.000
373.097;  -43.300; -575.000; -711.000
373.228;   41.100; -717.000; -542.000
373.359;  404.700; -824.000; -536.000
373.490; 2182.700; -881.000; -727.000
373.620; 2536.700;-1001.000; -803.000
373.751; 4113.600; -332.000; -396.000
373.882; 1794.600; -663.000; -733.000
374.013;  258.800; -449.000; -262.000
374.143;   -9.000; -581.000; -659.000
374.274; -137.300; -987.000; -908.000
374.405;  444.100; -388.000; -276.000
374.536; 1095.200; -526.000; -387.000
374.666; 2609.600; -759.000; -807.000
374.797;  596.800; -817.000; -868.000
374.928; 2094.200; -710.000; -560.000
375.058; 2067.500; -535.000; -500.000
375.189;  226.700;  -59.000;  -93.000
375.320; -116.300; -928.000;-1034.000
375.450;  -16.500; -625.000; -616.000
375.581;  -30.900; -526.000; -436.000
375.712;   21.600; -574.000; -250.000
375.842;  784.800; -438.000; -415.000
375.973;  572.000; -554.000; -513.000
376.103;   33.400; -665.000; -648.000
376.234; -102.200; -531.000; -552.000
376.364;   47.700; -944.000; -867.000
376.495;  780.900;  925.000;  529.000
376.625;  129.000; -472.000; -485.000
376.756;  186.800; -709.000; -678.000
376.886;  -74.000;-1178.000;-1026.000
377.017;   57.100;-1048.000;-1061.000
377.147;  422.400; -786.000; -782.000
377.278;  159.200;  174.000;  228.000
377.408; -186.300; -801.000; -815.000
377.538; -146.000; -707.000; -693.000
377.669;  -61.600; -537.000; -613.000
377.799; -121.100; -645.000; -635.000
377.929;    6.400; -610.000; -428.000
378.060; -203.000; -781.000; -847.000
378.190;  -67.400; -726.000; -531.000
378.320;  -35.300; -401.000; -406.000
378.451;  118.700; -131.000;  -22.000
378.581;   52.200;  -67.000; -110.000
378.711;  427.400; 1035.000;  866.000
378.841;   62.000; -533.000; -675.000
378.972;  -25.500; -871.000; -751.000
379.102;   83.500; -652.000; -579.000
379.232;   41.200; -126.000;  -73.000
379.362; -150.600;-1001.000; -885.000
379.492;  150.900; -373.000; -424.000
379.623;  283.200;    0.000;  111.000
379.753; -113.400;-1107.000; -974.000
379.883;  488.400;   59.000;  156.000
380.013;  126.100;-1081.000;-1017.000
380.143; -150.900;-1097.000;-1056.000
380.273; -109.100; -985.000; -861.000
380.403;   60.100; -344.000; -257.000
380.533;   39.500; -651.000; -664.000
380.663;  219.900;  173.000;  128.000
380.793;  -93.700;-1027.000;-1074.000
380.923;   35.900; -103.000;  -34.000
381.053; -134.800; -613.000; -623.000
381.183;   19.600; -106.000; -248.000
381.313;  182.400; -656.000; -470.000
381.443;  158.700; -692.000; -473.000
381.573;  613.800; -402.000; -409.000
381.703;  797.000;-1249.000;-1095.000
381.833; -131.200;-1454.000;-1336.000
381.963;  345.400; -134.000;  -87.000
382.093; 2946.300; -925.000; -909.000
382.223;  876.800; -713.000; -602.000
382.353;   38.500; -801.000; -608.000
382.482;  986.500;-1091.000; -964.000
382.612; 1670.300; -872.000; -644.000
382.742;  966.400; -695.000; -622.000
382.872;  723.000; -565.000; -551.000
383.002;  221.800;  347.000; -132.000
383.131;   21.400; -226.000; -160.000
383.261;  -44.700; -706.000; -768.000
383.391;  564.700; -552.000; -377.000
383.521; 4256.300;  451.000;  263.000
383.650;  865.900; -947.000; -904.000
383.780;  -22.500; -783.000; -656.000
383.910;  343.600;  880.000;  802.000
384.039;  138.600; -794.000; -656.000
384.169;  581.600;-1205.000;-1017.000
384.299;   51.000; -650.000; -662.000
384.428;  -54.700; -764.000; -680.000
384.558;   23.900; -308.000; -275.000
384.687;   61.600; -414.000; -334.000
384.817;  138.300;   75.000;   -2.000
384.947;  186.800; -234.000; -141.000
385.076;  737.100;  982.000;  912.000
385.206;  298.600;  369.000;  480.000
385.335;   69.900; -549.000; -417.000
385.465;  -39.400; -655.000; -663.000
385.594;  410.600;  -53.000;  -44.000
385.724; 1183.400; -868.000; -838.000
385.853;  357.200; -296.000; -270.000
385.982; 3281.100; -743.000; -787.000
386.112; 4714.000;-1052.000; -871.000
386.241;  429.200; -307.000; -312.000
386.371;  106.800; -174.000;  -87.000
386.500;  107.900; -825.000; -789.000
386.629;  106.300; -874.000; -817.000
386.759;  230.400;  -43.000;   68.000
386.888;  159.400; -170.000; -250.000
387.017;  -19.600; -648.000; -620.000
387.147;  -79.100; -771.000; -798.000
387.276;  150.600; -410.000; -397.000
387.405;  132.800; -398.000; -342.000
387.535;   43.100; -452.000; -361.000
387.664;  -32.500; -692.000; -620.000
387.793;  217.800; -198.000; -113.000
387.922; 1319.600;  255.000;  200.000
388.052;  167.400; -576.000; -423.000
388.181;  234.000; -342.000; -472.000
388.310;  199.200; -889.000; -710.000
388.439;   30.900; -749.000; -742.000
388.568;  553.600;  365.000;  244.000
388.697; 2456.100; -756.000; -653.000
388.826;  536.800; -768.000; -666.000
388.956;  212.900; -285.000; -307.000
389.085;   46.100; -347.000; -287.000
389.214; -133.400; -842.000; -872.000
389.343;  -23.600; -645.000; -413.000
389.472;  672.800;  126.000;  149.000
389.601;  927.900;   91.000;    0.000
389.730;  101.000; -568.000; -687.000
389.859;  245.000;  226.000;   46.000
389.988;  540.200; -423.000; -408.000
390.117;  361.700; -168.000; -146.000
390.246;  107.900; -331.000; -320.000
390.375;  373.300; -673.000; -626.000
390.504;  -57.600; -703.000; -621.000
390.633;  -78.700; -672.000; -726.000
390.761;  -56.800; -732.000; -645.000
390.890;  137.800;   -4.000; -130.000
391.019;   65.500; -421.000; -441.000
391.148; -183.700; -826.000; -855.000
391.277;  -64.800; -576.000; -493.000
391.406;  -52.300; -821.000; -805.000
391.534;  112.000;  574.000; -301.000
391.663;  -33.400; -583.000; -645.000
391.792;  -85.800; -673.000; -701.000
391.921;  382.300;   -3.000;   15.000
392.050;  543.900; -287.000; -228.000
392.178;   15.800;-1206.000;-1061.000
392.307;  463.200; -758.000; -712.000
392.436;  243.600; -427.000; -641.000
392.564;  112.900;  166.000;   -6.000
392.693; -127.900; -860.000; -682.000
392.822;  587.400; -529.000; -534.000
392.950;  302.400; -880.000; -714.000
393.079;  820.400; -188.000; -328.000
393.208;  136.200; -488.000; -511.000
393.336;   50.200; -170.000; -145.000
393.465;    0.300; -317.000; -199.000
393.593;   70.000;   62.000;   79.000
393.722; -235.100;-1121.000; -916.000
393.850;   -9.100; -188.000;  -61.000
393.979; -234.600; -926.000; -805.000
394.107;  -70.300; -517.000; -537.000
394.236;   70.900; -570.000; -507.000
394.364;  608.600;  383.000;  206.000
394.493;  972.900; -911.000; -767.000
394.621;   35.400; -955.000; -916.000
394.750; 1032.400; -873.000; -923.000
394.878; 4398.000; -247.000; -149.000
395.007; 5627.300; -721.000; -807.000
395.135;  378.400; -790.000; -721.000
395.263; -120.400;-1038.000;-1040.000
395.392;   72.600;  -25.000; -107.000
395.520; -113.800; -818.000; -679.000
395.648;  -92.300; -865.000; -915.000
395.777;   77.400; -366.000; -405.000
395.905;  -28.000; -449.000; -564.000
396.033;  102.100;  217.000;  172.000
396.162; 1669.700; -399.000; -453.000
396.290; 1387.800;  -17.000;   -2.000
396.418;  300.500; -555.000; -514.000
396.546; -112.400; -571.000; -466.000
396.674; -135.700; -850.000; -878.000
396.803;   84.700;  -72.000;  -23.000
396.931;  295.500; -179.000; -199.000
397.059;  225.900;-1026.000; -989.000
397.187; -135.700;-1026.000; -975.000
397.315; -207.300; -884.000; -649.000
397.443; -130.000; -592.000; -443.000
397.572; -110.100; -578.000; -424.000
397.700;   93.000; -607.000; -614.000
397.828;  120.600;  120.000;  -90.000
397.956;  -44.900; -508.000; -478.000
398.084;  -91.100; -767.000; -626.000
398.212;  148.000;  137.000;  124.000
398.340;  144.700;  -56.000;  159.000
398.468;  177.800; -390.000; -169.000
398.596; -190.100; -993.000; -953.000
398.724; -142.900; -762.000; -767.000
398.852; -260.300;-1024.000; -976.000
398.980;  -71.200; -560.000; -560.000
399.108;  -44.900; -982.000; -735.000
399.236;  171.300;   13.000;    8.000
399.363;  106.200;  222.000;  196.000
399.491;  -81.800; -404.000; -398.000
399.619; -186.500; -829.000; -800.000
399.747; -149.600; -859.000; -771.000
399.875;  240.300;  220.000;  234.000
400.003;    1.300; -359.000; -284.000
400.130; -126.100; -421.000; -341.000
400.258;    1.200;  -83.000;   38.000
400.386;  -50.500; -352.000; -168.000
400.514;   -2.600; -526.000; -587.000
400.641;  -84.700; -928.000; -802.000
400.769; -196.500; -979.000; -888.000
400.897;  -85.800; -838.000; -793.000
401.025;   72.500; -166.000; -152.000
401.152;   76.300;  220.000;   38.000
401.280; -115.000; -430.000; -429.000
401.408; -187.200; -712.000; -576.000
401.535; -133.900; -735.000; -758.000
401.663; -304.000;-1134.000;-1054.000
401.790; -128.600; -514.000; -525.000
401.918;  161.500;  436.000;  405.000
402.046;   15.500;  134.000;  122.000
402.173;   -0.900;  -18.000;    7.000
402.301;  -58.600; -519.000; -397.000
402.428;  176.700;  528.000;  383.000
402.556; -215.900;-1188.000; -913.000
402.683;   51.600;  -20.000;   -1.000
402.811;  -13.300;  -37.000; -206.000
402.938;   79.800;   20.000;   27.000
403.066;  498.400; -574.000; -558.000
403.193;  739.700;  299.000;  239.000
403.321;  628.200; -396.000; -574.000
403.448;  742.800;   83.000;   27.000
403.575;  310.700;  -90.000;  -46.000
403.703; -137.500; -732.000; -557.000
403.830;  -67.100; -531.000; -496.000
403.957; -232.700;-1117.000;-1023.000
404.085;   94.500;  -61.000; -172.000
404.212;  289.600;  -50.000;   63.000
404.339;  406.300; -566.000; -306.000
404.467; 8517.500; -612.000; -524.000
404.594; 6107.300; -287.000; -227.000
404.721; 1609.100; -869.000; -764.000
404.848;  173.800; -113.000; -202.000
404.976; -152.600; -856.000; -783.000
405.103;   23.200;  -14.000;  -82.000
405.230;   65.700;  190.000;  226.000
405.357;  109.900;  117.000;   44.000
405.484;  428.900;  -49.000;    5.000
405.612;   85.100; -548.000; -563.000
405.739;  -55.000; -488.000; -243.000
405.866;  253.500;  669.000;  385.000
405.993;   -5.300; -398.000; -102.000
406.120; -193.300; -801.000; -887.000
406.247;  -36.500; -323.000; -342.000
406.374; 1185.700;  540.000;  629.000
406.501;  403.200; -632.000; -702.000
406.628;  -73.800; -621.000; -589.000
406.755; -122.100; -803.000; -620.000
406.882;  -25.300; -228.000; -277.000
407.009; -164.600; -719.000; -628.000
407.136;  256.700; -480.000; -401.000
407.263;  469.300; -939.000; -829.000
407.390;  -39.600; -692.000; -614.000
407.517; -201.900;-1139.000;-1187.000
407.644;  -65.000; -332.000; -256.000
407.771;  -66.800; -249.000; -287.000
407.898;   94.600;  168.000;  328.000
408.025;  -47.600; -421.000; -313.000
408.151;   49.400;   82.000;  153.000
408.278;  -60.200; -267.000; -216.000
408.405; -155.100; -931.000; -899.000
408.532;  -75.600; -549.000; -542.000
408.659; -189.300; -677.000; -648.000
408.785; -329.100;-1298.000;-1170.000
408.912;  -65.600; -412.000; -296.000
409.039; -167.500; -610.000; -686.000
409.166; -134.900; -591.000; -555.000
409.292; -144.600; -571.000; -534.000
409.419; -182.200; -665.000; -649.000
409.546;  -86.100; -431.000; -192.000
409.672; -191.400; -713.000; -545.000
409.799;   11.700;  -36.000;   34.000
409.926;   -9.700; -180.000; -179.000
410.052; -281.700;-1127.000;-1091.000
410.179;  -13.300; -368.000; -392.000
410.305; -105.500; -375.000; -493.000
410.432;  -20.400; -220.000; -333.000
410.558;  -89.100; -305.000; -380.000
410.685; -159.800; -688.000; -431.000
410.812;  -94.100; -409.000; -588.000
410.938; -227.500; -964.000; -808.000
411.065; -125.500; -671.000; -645.000
411.191;    2.400; -189.000; -174.000
411.317; -148.900; -823.000; -742.000
411.444;  -66.800; -317.000; -246.000
411.570;  -98.100; -339.000; -294.000
411.697; -206.100; -758.000; -752.000
411.823; -272.500; -989.000; -999.000
411.949;  -29.300;  -56.000;   17.000
412.076; -146.900; -539.000; -519.000
412.202; -178.600; -758.000; -757.000
412.329; -194.500; -798.000; -752.000
412.455; -175.300; -821.000; -657.000
412.581;   25.400;  -15.000;  172.000
412.707;  -63.900; -540.000; -457.000
412.834;  113.200;  156.000;  219.000
412.960; -109.100; -785.000; -784.000
413.086; -132.700; -743.000; -701.000
413.212;  425.800;  604.000;  578.000
413.339;  -45.900; -685.000; -701.000
413.465;   87.000; -364.000; -310.000
413.591; -122.600; -757.000; -474.000
413.717;  -31.300; -358.000; -366.000
413.843; -211.400; -839.000; -861.000
413.969;  -64.200;  -47.000; -292.000
414.096; -140.900; -679.000; -679.000
414.222;   60.400;  -33.000;   85.000
414.348;   65.600; -652.000; -385.000
414.474;  341.500;   38.000;  -52.000
414.600;   43.400; -126.000; -144.000
414.726;   42.900;  -96.000;  -55.000
414.852;  -67.700; -365.000; -342.000
414.978;  108.400;  104.000;  -18.000
415.104;  127.500;   38.000;   80.000
415.230;   84.700; -329.000; -330.000
415.356;  149.100; -409.000; -514.000
415.482;  429.300;   13.000;  -35.000
415.608;  469.200; -247.000; -323.000
415.734; 1609.800;   67.000;   38.000
415.860;32955.900; -875.000; -767.000
415.986;21474.500; -685.000; -607.000
416.111; 1751.500; -798.000; -652.000
416.237;  376.600; -424.000; -571.000
416.363; 1806.900; -765.000; -733.000
416.489; 5873.100; -324.000; -251.000
416.615;  558.100; -707.000; -742.000
416.741;  -55.900; -677.000; -784.000
416.866; -135.900; -673.000; -736.000
416.992; -182.500; -801.000; -818.000
417.118;   44.500;  -41.000;  -80.000
417.244;  -98.500; -798.000; -531.000
417.369; -114.700; -801.000; -612.000
417.495;   85.800; -325.000; -254.000
417.621; -107.100;-1015.000; -803.000
417.746;   46.100; -579.000; -572.000
417.872;  130.900; -254.000; -144.000
417.998;  111.700; -515.000; -530.000
418.123; 1684.200;-1073.000; -845.000
418.249; 7837.100; -512.000; -601.000
418.374;  965.200; -916.000; -824.000
418.500;  194.600; -383.000; -482.000
418.626;  256.100;   70.000;  -59.000
418.751;  216.200; -549.000; -448.000
418.877;  357.400; -637.000; -643.000
419.002; 3013.600; -688.000; -560.000
419.128;18492.300; -930.000; -721.000
419.253; 3916.300; -967.000; -837.000
419.379;  608.000; -391.000; -338.000
419.504;  662.100;  325.000;  415.000
419.629;  720.100; -393.000; -212.000
419.755; 5300.300; -317.000; -254.000
419.880;28268.100;  -98.000;   67.000
420.006;17290.100; -280.000; -221.000
420.131;43973.900; -662.000; -775.000
420.256; 5795.400; -315.000; -316.000
420.382;  826.300; -665.000; -687.000
420.507;  125.700; -649.000; -778.000
420.632;  382.000; -337.000; -339.000
420.758;  672.900; -251.000; -425.000
420.883;  -75.800; -876.000; -672.000
421.008; -123.900; -775.000; -619.000
421.133;  -92.200; -509.000; -467.000
421.259;  -47.900; -325.000; -259.000
421.384; -154.900; -834.000; -693.000
421.509;   32.300;-1052.000; -862.000
421.634; 3187.300; -936.000; -820.000
421.759; 1181.400; -359.000; -327.000
421.885;  -16.200; -717.000; -656.000
422.010;  -91.600; -673.000; -542.000
422.135; -212.100; -695.000; -727.000
422.260;  151.900;  340.000;  280.000
422.385;   13.300;   12.000;  -98.000
422.510;   95.600;  151.000;  -26.000
422.635;  187.700;  -87.000;  -43.000
422.760;  250.900; -766.000; -791.000
422.885;  116.500;  -57.000;  -80.000
423.010;  -10.800; -112.000; -169.000
423.135; -104.100; -481.000; -561.000
423.260;   52.500; -150.000; -245.000
423.385;  223.100;  476.000;  222.000
423.510;  139.100;   71.000;  -22.000
423.635;  234.400;  133.000;   45.000
423.760;  188.600;  383.000;  328.000
423.885;  170.200;  336.000;  391.000
424.010;   58.000;  -68.000;  -13.000
424.135;    8.300;    5.000;  -33.000
424.259;  -98.400; -654.000; -457.000
424.384;  -25.900; -279.000; -272.000
424.509;   35.200; -260.000; -186.000
424.634; -161.400; -761.000; -623.000
424.759;   -7.800; -688.000; -544.000
424.883;    5.800; -506.000; -527.000
425.008;  310.600; -502.000; -410.000
425.133; 3055.000; -679.000; -653.000
425.258; 1259.200; -517.000; -381.000
425.382; 2307.700; -867.000; -774.000
425.507; 5353.900; -487.000; -543.000
425.632;  718.600; -802.000; -663.000
425.756;  702.800; -256.000; -146.000
425.881; 9094.300; -831.000; -857.000
426.006;21619.300; -604.000; -355.000
426.130; 3300.000; -696.000; -508.000
426.255;  454.100; -611.000; -491.000
426.379;  272.000; -189.000; -577.000
426.504;  721.400;  660.000;  544.000
426.629; 6758.000; -519.000; -466.000
426.753; 4219.900;   64.000;  -46.000
426.878;  552.200; -252.000; -288.000
427.002;  366.500; -651.000; -668.000
427.127; 2680.400;  -35.000; -158.000
427.251;16891.600;  372.000;  401.000
427.375; 4352.500; -191.000; -173.000
427.500; 4618.600; -616.000; -610.000
427.624; 1458.700; -234.000; -400.000
427.749;  262.900; -216.000; -225.000
427.873;   79.500; -499.000; -412.000
427.997;  -15.500; -222.000; -230.000
428.122;  316.200;  795.000;  703.000
428.246;  239.000;  433.000;  434.000
428.371; -174.700; -869.000; -773.000
428.495; -113.200; -624.000; -646.000
428.619;   71.900; -186.000; -117.000
428.743;  114.200;   65.000;  132.000
428.868;  162.100; -732.000; -643.000
428.992; 3112.100; -219.000; -326.000
429.116; 1246.800; -329.000; -357.000
429.240;  716.700;  419.000;  426.000
429.365;   84.400; -454.000; -574.000
429.489;   17.000; -638.000; -647.000
429.613;  159.900; -236.000; -177.000
429.737;  129.800; -563.000; -432.000
429.861;  539.600; -247.000; -133.000
429.985; 8984.500; -425.000; -305.000
430.109; 8707.900; -770.000; -908.000
430.234; 1072.300;   76.000;  -50.000
430.358;  165.800; -250.000; -160.000
430.482;  -67.500; -672.000; -564.000
430.606;  -35.000; -655.000; -375.000
430.730;  157.900; -437.000; -388.000
430.854;  487.600; -909.000; -835.000
430.978;  -20.800; -795.000; -764.000
431.102;  -37.700; -499.000; -422.000
431.226;  -74.100; -874.000; -815.000
431.350;  221.400;  345.000;  422.000
431.474;  -43.600; -661.000; -373.000
431.597; -194.200;-1060.000; -848.000
431.721; -131.700; -276.000; -267.000
431.845; -202.300; -704.000; -472.000
431.969;  -87.100; -304.000; -349.000
432.093; -100.600; -395.000; -317.000
432.217;   50.300;   32.000;   82.000
432.341;  -80.500; -523.000; -518.000
432.464;  122.700;   96.000;   40.000
432.588;  610.300; -401.000; -329.000
432.712;  274.700;  -52.000;  -52.000
432.836;  155.600;  213.000;  263.000
432.959;   27.000; -372.000; -311.000
433.083;  223.200;   11.000;    2.000
433.207;  656.500;  285.000;  930.000
433.330; 7666.200; -391.000; -200.000
433.454; 8634.400; -654.000; -638.000
433.578; 5170.200;  583.000;  278.000
433.701;  887.300; -623.000; -675.000
433.825;  400.100; -292.000; -299.000
433.949;  623.400;   28.000;  -72.000
434.072;  282.300; -410.000; -323.000
434.196;   54.600; -309.000; -117.000
434.319; 8078.200;25482.000;25124.000
434.443; 1410.800; -656.000; -603.000
434.566; 3988.200;  281.000;   62.000
434.690;  566.200; -637.000; -383.000
434.813;  171.000; -251.000; -173.000
434.937;  -85.300; -569.000; -696.000
435.060;   37.500; -423.000; -332.000
435.184; 1097.400; -492.000; -217.000
435.307;  527.700;  159.000;  102.000
435.431;   45.700;  -40.000;   24.000
435.554;  -65.200; -399.000; -240.000
435.677; -111.200; -350.000; -258.000
435.801;   -3.800;  -25.000;   49.000
435.924;   97.200;    1.000;  -67.000
436.048; -131.100;-1019.000; -732.000
436.171;  -38.700; -240.000;  -66.000
436.294;   29.600; -248.000; -229.000
436.417;  114.200; -963.000; -849.000
436.541; -131.200; -814.000; -840.000
436.664;  -77.300; -242.000; -316.000
436.787;   75.100;   13.000;  113.000
436.910; -121.600; -792.000; -422.000
437.034;  149.100;  142.000;  143.000
437.157;  246.800;  -11.000;    0.000
437.280;  -11.300; -392.000; -292.000
437.403;  -41.500; -982.000; -869.000
437.526; 1986.100; -903.000; -865.000
437.649; 5969.200; -505.000; -332.000
437.772;  885.000; -692.000; -540.000
437.896;  350.500;  700.000;  544.000
438.019;  -99.500; -758.000; -503.000
438.142;  -89.900; -596.000; -506.000
438.265;  159.700; -639.000; -670.000
438.388; 1568.200; -520.000; -410.000
438.511;  372.600; -597.000; -394.000
438.634;   -4.900; -247.000; -125.000
438.757; -163.600; -693.000; -619.000
438.880;   48.600;  -34.000;  -57.000
439.003;  -83.500; -417.000; -437.000
439.126;  -92.200; -287.000; -167.000
439.248;  -56.800;  -98.000; -139.000
439.371;  -34.800;    9.000;  -53.000
439.494;  134.800;  510.000;  439.000
439.617;  -27.100;   65.000;  -88.000
439.740; -273.300; -968.000; -816.000
439.863; -232.800; -755.000; -595.000
439.986; -159.000; -476.000; -431.000
440.108;  -15.900; -161.000; -112.000
440.231; -246.400; -950.000; -836.000
440.354;    7.800;  -64.000; -150.000
440.477;  247.000; -566.000; -542.000
440.599;  112.700; -200.000; -225.000
440.722; -165.400; -709.000; -586.000
440.845;  217.600;  751.000;  928.000
440.968; -149.900; -415.000; -311.000
441.090;  -78.000; -199.000;  -33.000
441.213; -268.000;-1021.000; -825.000
441.336;  -22.300; -159.000;   -5.000
441.458;  -51.300; -549.000; -396.000
441.581; -107.900; -628.000; -629.000
441.703;  -69.300; -152.000;   13.000
441.826; -150.500; -557.000; -400.000
441.948;   19.900;   56.000;   51.000
442.071;  113.200;  555.000;  424.000
442.193; -159.300; -531.000; -485.000
442.316;  103.800;  152.000;   97.000
442.438;  122.200; -233.000;  -10.000
442.561;  239.700;  272.000;  262.000
442.683; 1670.600; -809.000; -522.000
442.806; 2935.700;   -8.000;   74.000
442.928;  169.100; -859.000; -604.000
443.051;  -61.700; -577.000; -373.000
443.173; -126.000; -341.000; -339.000
443.295; -105.800; -263.000; -371.000
443.418;  -89.900; -321.000;  -29.000
443.540;   53.900; -106.000;   -4.000
443.662; -177.500; -563.000; -465.000
443.785;   26.700;  335.000;  199.000
443.907; -158.500; -362.000; -208.000
444.029; -214.300; -767.000; -494.000
444.152; -232.600; -644.000; -554.000
444.274;   -4.200;  -18.000;  -24.000
444.396; -134.900; -461.000; -221.000
444.518; -209.300; -691.000; -454.000
444.640; -144.300; -268.000; -111.000
444.763;    2.400;  388.000;  249.000
444.885; -195.500; -432.000; -392.000
445.007;   25.600;   35.000;   86.000
445.129; -146.900; -610.000; -515.000
445.251; -141.300; -372.000; -439.000
445.373; -185.300; -537.000; -386.000
445.495;   77.600;  242.000;  350.000
445.617;  198.900;  853.000;  753.000
445.739; -102.800; -215.000;  -97.000
445.861;    8.800; -245.000; -112.000
445.984;   15.400; -267.000; -101.000
446.105;  620.500; -418.000; -251.000
446.227; 1501.600; -176.000;  -19.000
446.349;   90.800; -358.000; -249.000
446.471; -127.700; -615.000; -448.000
446.593;  -40.300; -316.000;   19.000
446.715;   70.900;  -67.000;   41.000
446.837;  223.200;  697.000;  832.000
446.959; -161.400; -457.000; -478.000
447.081; -184.700; -628.000; -518.000
447.203;  206.600;  862.000;  834.000
447.325;  -94.400; -270.000;   42.000
447.446;   66.800;  286.000;  530.000
447.568; -231.700; -921.000; -803.000
447.690;  -89.800; -236.000; -245.000
447.812; -197.000; -798.000; -519.000
447.933;  -10.700;  155.000;  127.000
448.055;  -66.000; -306.000; -261.000
448.177;  449.000;   31.000;   79.000
448.299;  247.900; -935.000; -727.000
448.420;  152.000;  -25.000;  159.000
448.542;  -26.700;   -3.000;   33.000
448.664;   17.800;  109.000;  322.000
448.785;   18.000;  265.000;   83.000
448.907;  -58.900; -614.000; -353.000
449.028;   15.700; -771.000; -471.000
449.150;  176.900;  492.000;  589.000
449.272; -284.200;-1044.000; -913.000
449.393;  131.400;  612.000;  694.000
449.515; -219.200; -634.000; -581.000
449.636;  -14.800; -264.000; -155.000
449.758;  245.100;  763.000;  622.000
449.879; -140.100; -498.000; -396.000
450.001;  -64.100; -149.000;  -49.000
450.122;   12.800;  -95.000;  162.000
450.244;   16.800;   37.000;  364.000
450.365; -153.300; -495.000; -301.000
450.486;   27.300;   80.000;  268.000
450.608;  110.900;  393.000;  326.000
450.729;  208.500;  578.000;  645.000
450.850;   -1.900; -574.000; -466.000
450.972; 1058.100; -552.000; -389.000
451.093; 6804.700;  190.000;  588.000
451.214; 2570.000; -516.000; -337.000
451.336;  530.200;  773.000;  579.000
451.457;  138.300;  264.000;  393.000
451.578;  -37.500; -118.000;  -74.000
451.699; -174.200; -546.000; -540.000
451.821;  -66.000; -284.000;  -50.000
451.942;   52.000;  278.000;  285.000
452.063;  117.600;  228.000;  419.000
452.184;  893.200;  -54.000;  -49.000
452.305; 1682.500;  103.000;  170.000
452.427;  158.400; -549.000; -301.000
452.548;   18.600;   23.000;   79.000
452.669;   27.800; -257.000;  -89.000
452.790;   -2.400;    3.000;  -18.000
452.911;   53.800;  195.000;  259.000
453.032;  -48.100; -289.000;  -60.000
453.153;   44.000;  -29.000;   81.000
453.274;  193.600;  737.000;  868.000
453.395;  -32.700;  -51.000;  175.000
453.516;  362.100; 1317.000; 1388.000
453.637;  -34.900; -205.000; -150.000
453.758;  -70.300;   15.000;   69.000
453.879; -164.200; -462.000; -250.000
454.000;  250.400; 1086.000;  948.000
454.121; -145.500; -554.000; -326.000
454.242; -184.200; -599.000; -383.000
454.362;   -1.700;  -99.000;  114.000
454.483;   -6.600; -309.000; -229.000
454.604;  224.200;  512.000;  580.000
454.725; -201.900; -627.000; -555.000
454.846; -154.100; -474.000; -406.000
454.967;   31.000;  230.000;  539.000
455.087;   -3.700;  179.000;  153.000
455.208;   84.100;  554.000;  856.000
455.329;  -60.800;  -22.000;   82.000
455.450;  111.700;  473.000;  633.000
455.570;  -94.100; -234.000; -211.000
455.691;   -1.600;  201.000;  407.000
455.812; -140.900; -270.000;  -92.000
455.932;  -43.100;  107.000;  -97.000
456.053;  -99.700;   36.000;   24.000
456.173; -153.400; -433.000; -355.000
456.294; -178.600; -476.000; -303.000
456.415;  -68.500;  -73.000;   70.000
456.535;   26.000;  297.000;  273.000
456.656;  -38.200;  132.000;  240.000
456.776;  -61.500;    3.000;  298.000
456.897;   77.700;  308.000;  513.000
457.017;  -70.600; -153.000;   -3.000
457.138; -141.200; -402.000; -249.000
457.258;   21.900;  263.000;  224.000
457.379;   44.900;  509.000;  521.000
457.499;   48.200;  443.000;  432.000
457.620; -171.300; -407.000; -231.000
457.740; -141.100; -132.000;  -11.000
457.860;  -15.700;   87.000;   44.000
457.981;  -18.100;  132.000;  124.000
458.101;  -90.500;  -89.000;   40.000
458.221;   60.700;  336.000;  402.000
458.342;  -49.900;   -4.000;  -37.000
458.462;  116.300;  617.000;  352.000
458.582;  -57.700; -302.000; -294.000
458.703;   18.600;  303.000;  154.000
458.823;  -13.000;   22.000;  163.000
458.943;  129.800;  341.000;  467.000
459.063;   51.100; 1124.000;  192.000
459.183;   20.300;  328.000;  313.000
459.304;   72.700;  315.000;  517.000
459.424;  -78.300; -246.000;  -89.000
459.544;  590.400;  388.000;  764.000
459.664; 1287.900;  499.000;  506.000
459.784;  558.400; 1004.000; 1175.000
459.904;  183.500;  867.000;  744.000
460.024;  222.400;  867.000;  684.000
460.144;  113.500;  449.000;  554.000
460.264;   67.500;  515.000;  327.000
460.385;  -79.500; -145.000; -119.000
460.505;  169.200;  905.000;  858.000
460.625; -151.700;  -17.000;  -68.000
460.745;   41.300;  396.000;  541.000
460.864;  -29.300;  153.000;  469.000
460.984;  119.500;  499.000;  573.000
461.104;  365.100; 1656.000; 1775.000
461.224;  112.900;  657.000;  650.000
461.344;   44.400;  431.000;  360.000
461.464;   -9.000;  258.000;  513.000
461.584;   48.400;  283.000;  466.000
461.704;  -24.200;   58.000;  108.000
461.824;  -59.800;  238.000;  259.000
461.943;  -25.600;  191.000;  130.000
462.063;  -93.900;    2.000;  324.000
462.183;  142.800;  639.000;  717.000
462.303;  329.900; 1678.000; 1230.000
462.422;  141.600;  781.000;  840.000
462.542;  -17.400;  271.000;  391.000
462.662;  175.200;  353.000;  380.000
462.782;  493.000;  833.000;  572.000
462.901;  821.100;  545.000;  717.000
463.021;  575.000; 1702.000; 1638.000
463.141;   53.800;  337.000;  770.000
463.260;   47.700;  614.000;  474.000
463.380;  114.500;  902.000;  884.000
463.499;   -8.200;  342.000;  332.000
463.619;  -29.900;  581.000;  559.000
463.738;  329.500; 1644.000;  903.000
463.858;  109.900;  657.000;  811.000
463.978;   41.800;  542.000;  396.000
464.097;  159.200;  921.000; 1114.000
464.217;  250.600; 1196.000; 1143.000
464.336;  266.500; 1068.000; 1130.000
464.455;   22.500;  328.000;  659.000
464.575;  171.300;  597.000;  602.000
464.694;  452.400; 1204.000; 1179.000
464.814;  347.900; 1190.000; 1138.000
464.933;  273.200; 1095.000; 1027.000
465.052;  284.600; 1412.000; 1054.000
465.172;  238.500;  922.000;  799.000
465.291;  366.600; 1376.000; 1320.000
465.410;  106.300;  462.000;  735.000
465.530;  243.600; 1355.000; 1310.000
465.649;  254.900; 1209.000; 1273.000
465.768;  382.100; 1673.000; 1508.000
465.888;  183.900;  941.000; 1174.000
466.007;  272.800; 1335.000; 1440.000
466.126;   80.100;  721.000;  641.000
466.245;  150.700; 1176.000; 1187.000
466.364;  115.100;  950.000; 1060.000
466.484;  207.400; 1024.000; 1213.000
466.603;  172.800; 1101.000; 1222.000
466.722;  333.400; 1490.000; 1769.000
466.841;  242.200; 1151.000; 1401.000
466.960;  182.000; 1069.000;  972.000
467.079;  347.000; 1971.000; 1786.000
467.198;  147.600; 1238.000; 1181.000
467.317;  264.400; 1768.000; 1162.000
467.436;  191.700; 1709.000; 1261.000
467.555;  342.400; 1796.000; 1746.000
467.674;  192.500; 1227.000; 1329.000
467.793;  165.100; 1376.000; 1374.000
467.912;  261.300; 1658.000; 1539.000
468.031;  384.600; 2038.000; 1930.000
468.150;  384.400; 1842.000; 1837.000
468.269;  483.600; 2313.000; 2090.000
468.388;  428.100; 2168.000; 2339.000
468.507;  603.800; 2884.000; 2903.000
468.626;  672.000; 2555.000; 2541.000
468.744;  362.900; 2018.000; 2174.000
468.863;  494.500; 2312.000; 2523.000
468.982;  257.000; 1503.000; 1555.000
469.101;  525.200; 2788.000; 2692.000
469.220;  375.600; 2333.000; 2176.000
469.338;  587.800; 2935.000; 3051.000
469.457;  469.100; 2719.000; 2545.000
469.576;  789.300; 3953.000; 3784.000
469.695;  589.500; 2877.000; 3066.000
469.813;  935.100; 4148.000; 4192.000
469.932;  942.700; 4255.000; 4485.000
470.051;  923.000; 4075.000; 4161.000
470.169; 1617.300; 4470.000; 4338.000
470.288; 2488.600; 4700.000; 4809.000
470.406; 1590.900; 5059.000; 5194.000
470.525; 1345.600; 6101.000; 5787.000
470.644; 1370.200; 6847.000; 6794.000
470.762; 1855.800; 8397.000; 7873.000
470.881; 1924.600; 8651.000; 8464.000
470.999; 2128.400; 9685.000; 9151.000
471.118; 2312.900;11174.000;10711.000

