
Integration time [ms]: 100.000
Averaging Nr. [scans]: 40
Smoothing Nr. [pixels]: 0
Data measured with spectrometer [name]: 2101012U2
Wave   ;Sample   ;Dark     ;Reference
[nm]   ;[counts] ;[counts] ;[counts] 

197.733;   55.175;  516.000;  404.000
197.879;  -73.125; -610.000; -634.000
198.025;  -46.900; -475.000; -420.000
198.171;  -66.900; -602.000; -612.000
198.317;  -23.400; -401.000; -316.000
198.463;  -59.150; -655.000; -404.000
198.609;   29.450;  181.000; -137.000
198.755;  -70.200; -644.000; -410.000
198.901;  -72.425; -505.000; -424.000
199.047;  -67.350; -615.000; -488.000
199.193;  -51.100; -230.000; -468.000
199.339;  -35.950; -222.000; -369.000
199.485;   39.250;  330.000;  271.000
199.631;   22.825;  227.000;  310.000
199.777;  -43.825; -466.000; -398.000
199.923;  -54.000; -610.000; -424.000
200.069;   -1.375; -141.000;  -58.000
200.215;   47.925;  128.000;  453.000
200.361;   24.000;  243.000;  477.000
200.507;  -56.275; -600.000; -373.000
200.653;  -33.750; -371.000; -194.000
200.798;  -31.175; -215.000; -125.000
200.944;    0.600; -146.000;  -41.000
201.090;   26.725;   61.000;  222.000
201.236;   -2.775; -116.000; -158.000
201.382;  129.425;  874.000;  903.000
201.528;   -2.050;  -58.000;  -48.000
201.674;  -62.300; -386.000; -293.000
201.819;  -65.925; -540.000; -439.000
201.965;  -78.600; -699.000; -447.000
202.111;  -22.900; -273.000; -226.000
202.257;  -37.650; -250.000; -238.000
202.402;    5.925;   13.000;  -36.000
202.548;  -18.775; -169.000; -116.000
202.694;   69.025;  410.000; -183.000
202.840;  -70.575; -603.000; -531.000
202.985;  -70.750; -681.000; -639.000
203.131;  -97.250; -832.000; -666.000
203.277;  -19.375; -199.000; -262.000
203.423;  -52.000; -434.000; -520.000
203.568;  -43.725; -462.000; -237.000
203.714;  -57.050; -535.000; -542.000
203.860;  -79.350; -682.000; -641.000
204.005;    5.125;  112.000;  167.000
204.151;   57.300;  561.000;  556.000
204.296;  -42.525; -354.000; -221.000
204.442;  -73.875; -600.000; -547.000
204.588;  -61.525; -592.000; -579.000
204.733;   21.850;  178.000;  168.000
204.879; -116.425;-1018.000; -822.000
205.025;    7.475;  -99.000;  126.000
205.170;   12.500;  -17.000;   94.000
205.316;   65.925;  438.000;  661.000
205.461;  -77.125; -698.000; -554.000
205.607;   80.900;  609.000;  665.000
205.752;  -65.325; -626.000; -551.000
205.898;  -52.700; -501.000; -391.000
206.043;  -61.950; -578.000; -506.000
206.189;  -42.150; -243.000; -285.000
206.334;   57.825;  554.000;  606.000
206.480;   87.725;  409.000;  239.000
206.625;  -90.800; -529.000; -552.000
206.771;  -43.250; -451.000; -373.000
206.916;  -31.125; -210.000; -537.000
207.062;  -74.425; -545.000; -591.000
207.207;  -56.200; -546.000; -443.000
207.353;   42.175;  185.000;  460.000
207.498;    4.825;  196.000;   85.000
207.643;  -45.325; -501.000; -370.000
207.789; -118.875;-1069.000; -910.000
207.934;  -84.450; -665.000; -713.000
208.080;  -14.950; -154.000;   66.000
208.225;    2.025;  -22.000;  -57.000
208.370;  -75.350; -727.000; -619.000
208.516;  -74.575; -741.000; -487.000
208.661;  -18.500; -127.000;  -69.000
208.806;  -12.025; -165.000; -171.000
208.952; -107.450;-1044.000; -731.000
209.097;   60.300;  378.000;  349.000
209.242;  -41.100; -307.000; -382.000
209.387;   75.000;  392.000;  350.000
209.533;  -50.275; -321.000; -350.000
209.678;   84.100;  472.000;  543.000
209.823;  -50.150; -408.000; -310.000
209.969;  -97.250; -860.000; -757.000
210.114;  -99.950; -907.000; -719.000
210.259; -101.300; -939.000; -889.000
210.404;    6.500; -171.000;  103.000
210.549;   14.975;  108.000;    3.000
210.695;  -13.250;   -3.000;  -95.000
210.840;   33.300;   94.000;   67.000
210.985;  -54.000; -484.000; -303.000
211.130;   55.600;  268.000;  406.000
211.275;   31.625;  207.000;  199.000
211.420;  -56.875; -300.000; -289.000
211.566;  -66.700; -536.000; -489.000
211.711;   33.100;  218.000;  157.000
211.856;  -60.975; -545.000; -519.000
212.001;   13.050;  151.000;   44.000
212.146;   19.875;  153.000;   49.000
212.291;  -21.725; -210.000; -186.000
212.436;  -18.475; -280.000;   -6.000
212.581;  -71.175; -685.000; -653.000
212.726;  -68.325; -487.000; -538.000
212.871;  -48.525; -552.000; -217.000
213.016; -133.450;-1172.000;-1029.000
213.161;   54.350;  406.000;  291.000
213.306;  -81.500; -435.000; -577.000
213.451;  -83.525; -778.000; -689.000
213.596;  -33.800; -455.000; -347.000
213.741;  -62.250; -448.000; -538.000
213.886;  -69.500; -498.000; -517.000
214.031;  -15.975; -294.000; -124.000
214.176;  -34.075; -408.000; -341.000
214.321;  -19.775; -296.000; -157.000
214.466;  -25.725; -163.000;  -43.000
214.611;    0.850;  -61.000;  -10.000
214.756; -117.200; -948.000; -858.000
214.901;  -15.600; -388.000; -226.000
215.046; -109.150; -797.000; -825.000
215.191;   20.675;  128.000;   35.000
215.336;  -12.625; -157.000;  -19.000
215.480;  -64.925; -684.000; -505.000
215.625;  -17.125; -175.000;  -19.000
215.770;  -85.275; -757.000; -662.000
215.915;  -16.650;   -5.000;  -97.000
216.060;   -3.075; -113.000;  -21.000
216.205; -104.375; -731.000; -779.000
216.349;  -70.300; -470.000; -533.000
216.494; -116.075; -939.000; -867.000
216.639; -111.300; -823.000; -888.000
216.784;  -74.650; -577.000; -525.000
216.929;   40.625;  392.000;  281.000
217.073;   -3.675; -244.000;  -31.000
217.218;   14.500;   78.000;  -47.000
217.363;  -78.475; -656.000; -618.000
217.507;  -84.200; -623.000; -588.000
217.652; -110.300; -845.000; -874.000
217.797;  -77.850; -708.000; -659.000
217.942;  -91.025; -856.000; -720.000
218.086;   65.550;  608.000;  539.000
218.231;  -22.400; -174.000;  -26.000
218.376;  -24.250; -337.000; -229.000
218.520;    9.025;  -41.000;   96.000
218.665;  -36.700; -338.000; -204.000
218.810;  -28.750; -275.000; -233.000
218.954;   15.375;  201.000;   35.000
219.099; -100.975; -713.000; -963.000
219.243;  -64.625; -589.000; -554.000
219.388;  -26.400; -264.000; -136.000
219.532;  -15.625; -116.000; -116.000
219.677;  -70.250; -564.000; -521.000
219.822;    0.150;   33.000;   89.000
219.966;   17.950;   17.000;  -99.000
220.111;  -30.725; -328.000;  -40.000
220.255;  -81.375; -797.000; -750.000
220.400;  -12.525; -180.000; -146.000
220.544;  -69.500; -516.000; -450.000
220.689;  -42.250; -422.000; -451.000
220.833;  -19.000; -123.000;  -58.000
220.978;  -41.800; -393.000; -563.000
221.122;    7.625;  319.000;  307.000
221.267; -103.225; -906.000; -837.000
221.411;  -69.550; -478.000; -394.000
221.555;   -1.100; -104.000;  -23.000
221.700;  -54.275; -329.000; -222.000
221.844;   27.125;  255.000;  272.000
221.989;  -41.050; -328.000; -311.000
222.133;  -37.075; -289.000; -307.000
222.277;  -14.225;    5.000;   78.000
222.422;   12.750;  227.000;  113.000
222.566;  -34.975; -381.000; -214.000
222.711;  -45.275; -414.000; -479.000
222.855;  -72.975; -643.000; -586.000
222.999;  -87.425; -642.000; -717.000
223.144;  -35.375; -195.000; -194.000
223.288;   50.850;  423.000;  251.000
223.432;   18.825;  184.000;  230.000
223.576;    7.500;  152.000;  -21.000
223.721;   45.375;  364.000;  273.000
223.865;  -55.200; -472.000; -475.000
224.009;  239.475; 1673.000; 1631.000
224.153;  -72.025; -660.000; -671.000
224.298;  -57.825; -531.000; -489.000
224.442;  -10.750;  -74.000;  -33.000
224.586;   -6.500; -169.000; -106.000
224.730; -104.900; -858.000; -670.000
224.875; -105.900; -739.000; -688.000
225.019;    6.950;  102.000;  188.000
225.163;   52.150;  208.000;  341.000
225.307;    4.125;   97.000;  -91.000
225.451;   35.150;  360.000;  481.000
225.595;   28.675;  264.000;  176.000
225.739;   -9.500; -170.000;  -94.000
225.884;    0.475;   86.000;    5.000
226.028;  -82.375; -760.000; -626.000
226.172;  -43.925; -260.000; -273.000
226.316; -111.400; -941.000; -902.000
226.460;  -63.500; -645.000; -493.000
226.604;  -47.900; -406.000; -400.000
226.748; -108.000; -836.000; -733.000
226.892;  -36.625; -227.000; -181.000
227.036;  -50.550; -537.000; -447.000
227.180;  -64.475; -551.000; -375.000
227.324;  -68.875; -561.000; -580.000
227.468; -105.175; -819.000; -717.000
227.612;    4.450;  242.000;  -28.000
227.756;  -96.825; -845.000; -698.000
227.900;   45.700;  342.000;  441.000
228.044;  -58.150; -509.000; -290.000
228.188;   56.325;  448.000;  568.000
228.332;  -91.250; -546.000; -472.000
228.476;  -17.750; -223.000; -149.000
228.620;  -26.450; -210.000; -150.000
228.764;   60.200;  431.000;  349.000
228.908;  -30.225; -155.000;   30.000
229.052;  -54.000; -615.000; -528.000
229.195;  -26.000; -172.000;   13.000
229.339;  -32.250; -235.000; -305.000
229.483;  -27.025;    5.000; -162.000
229.627;   -7.050; -156.000;  139.000
229.771;  -49.875; -218.000; -294.000
229.915;   17.375;  230.000;   79.000
230.059;  -77.525; -648.000; -663.000
230.202;  -44.975; -370.000; -317.000
230.346;  -12.975; -107.000;  107.000
230.490;  -51.975; -489.000; -521.000
230.634;  -94.175; -736.000; -553.000
230.777;   58.800;  478.000;  509.000
230.921;  -46.550; -450.000; -359.000
231.065;  -47.950; -246.000; -286.000
231.209;   23.600;  261.000;  265.000
231.352;    4.275;   54.000;   40.000
231.496;   13.750;  568.000;  188.000
231.640;  -66.525; -693.000; -621.000
231.783;   59.875;  546.000;  525.000
231.927;  -36.925; -294.000; -365.000
232.071; -117.325; -962.000; -736.000
232.214; -107.725; -980.000; -764.000
232.358;  -86.050; -683.000; -599.000
232.502;    4.300;  -19.000;    7.000
232.645; -124.525;-1090.000; -927.000
232.789;  -34.925; -257.000; -218.000
232.933;  -48.925; -407.000; -224.000
233.076; -111.175;-1038.000; -897.000
233.220; -108.375; -752.000; -777.000
233.363;  -70.075; -669.000; -477.000
233.507;   54.050;  371.000;  129.000
233.650;  -91.525; -764.000; -834.000
233.794;   36.350;  438.000;  461.000
233.938;  -67.900; -530.000; -362.000
234.081;  -38.275;  -93.000;   31.000
234.225;  -70.500; -631.000; -539.000
234.368; -113.250; -773.000; -723.000
234.512;  -41.000; -385.000; -299.000
234.655;  -91.800; -582.000; -555.000
234.798;  -59.750; -493.000; -466.000
234.942; -114.950; -884.000;-1002.000
235.085;  -48.750; -651.000; -443.000
235.229;  -60.800; -405.000; -410.000
235.372;  -37.575; -247.000; -191.000
235.516;  -61.825; -397.000; -321.000
235.659;   15.600;   92.000;  121.000
235.802;  -18.400;  -38.000;  -22.000
235.946;   30.800;  335.000;  215.000
236.089;   21.025;  126.000;  250.000
236.233;   39.725;  275.000;  298.000
236.376;  -35.350; -235.000; -378.000
236.519;  -37.875; -297.000; -319.000
236.663;  -17.925; -215.000; -117.000
236.806; -137.925;-1029.000; -999.000
236.949;   51.825;  543.000;  431.000
237.092;   50.025;  412.000;  391.000
237.236;  -75.250; -589.000; -502.000
237.379;   54.675;  352.000;  428.000
237.522; -121.900; -879.000; -768.000
237.666;   -9.800; -271.000;   18.000
237.809; -126.350; -851.000; -823.000
237.952;   28.825;  469.000;  271.000
238.095;  -47.900; -447.000; -442.000
238.238;   74.925;  688.000;  700.000
238.382;    0.600;  166.000;  103.000
238.525;  -70.800; -598.000; -511.000
238.668; -141.025;-1060.000; -985.000
238.811;  -73.325; -638.000; -643.000
238.954;  -64.375; -483.000; -334.000
239.097;   76.550;  617.000;  664.000
239.241;   16.125;  394.000;  326.000
239.384;  -32.300; -254.000; -214.000
239.527;  -60.550; -424.000; -224.000
239.670; -136.375; -994.000;-1091.000
239.813; -101.050; -696.000; -658.000
239.956;   62.800;  579.000;  473.000
240.099; -108.750; -778.000; -725.000
240.242;   56.725;  428.000;  432.000
240.385;   47.475;  466.000;  450.000
240.528;  -55.225; -706.000; -473.000
240.671;   12.825;  189.000;  134.000
240.814;  -39.375; -441.000; -158.000
240.957; -107.275; -767.000; -578.000
241.100;  -96.050; -779.000; -755.000
241.243; -135.500;-1234.000; -893.000
241.386;  -77.750; -508.000; -379.000
241.529;  -93.625; -735.000; -547.000
241.672;  -67.725; -566.000; -495.000
241.815; -108.150; -832.000; -808.000
241.958;  -23.150; -125.000; -182.000
242.101;  -93.075; -545.000; -390.000
242.244;  -37.500; -270.000; -325.000
242.387;  -35.300; -304.000; -246.000
242.530;   52.100;  470.000;  134.000
242.673;  -47.800; -381.000; -309.000
242.815; -109.725; -925.000; -899.000
242.958;  -68.750; -482.000; -381.000
243.101;    5.275;  132.000;  187.000
243.244;  -76.575; -564.000; -521.000
243.387;  -36.800; -313.000; -316.000
243.530;  -94.675; -657.000; -674.000
243.672;  -10.650;   43.000;  -92.000
243.815;  -42.650; -355.000; -283.000
243.958;    7.875;   98.000;  -26.000
244.101;    6.200;   59.000;  -16.000
244.243;  -13.900;  -47.000;  101.000
244.386; -101.675; -761.000; -630.000
244.529;  -30.750; -132.000; -139.000
244.672; -143.375;-1154.000; -951.000
244.814;  -95.350; -621.000; -794.000
244.957;  -70.150; -380.000; -304.000
245.100;  -68.800; -489.000; -489.000
245.242;  -61.700; -387.000; -374.000
245.385;   -5.425;  -59.000;  -39.000
245.528; -120.400; -871.000; -705.000
245.670;   82.500;  612.000;  634.000
245.813;  -81.500; -599.000; -547.000
245.956;  -34.700; -324.000; -275.000
246.098;  -75.750; -508.000; -650.000
246.241;  -13.850;  194.000;   48.000
246.383;  -19.800; -119.000;  -73.000
246.526;  -77.675; -454.000; -525.000
246.669; -121.250; -889.000; -780.000
246.811;   21.600;  172.000;   -1.000
246.954;  -51.400; -512.000; -426.000
247.096;  -33.625;  -84.000;   -6.000
247.239;  -59.450; -482.000; -445.000
247.381;  -77.125; -647.000; -488.000
247.524;   72.500;  645.000;  679.000
247.666;  -12.825;   58.000;   11.000
247.809; -115.175; -887.000; -691.000
247.951;   -5.250;  -75.000;  138.000
248.094;   14.950;  432.000;  308.000
248.236; -143.250;-1262.000;-1238.000
248.378;  -35.050; -356.000;  -81.000
248.521;  -36.800; -334.000; -337.000
248.663;  -53.400; -236.000; -267.000
248.806;  -36.025; -300.000; -266.000
248.948; -115.375; -886.000; -763.000
249.090;  -55.275; -428.000; -398.000
249.233;  -56.650; -344.000; -381.000
249.375;  -59.775; -474.000; -451.000
249.518;  -24.100;  -83.000; -133.000
249.660;   -6.550; -103.000;    3.000
249.802; -162.400;-1303.000;-1189.000
249.945;  -83.775; -612.000; -540.000
250.087; -104.625; -834.000; -768.000
250.229;  -45.850; -362.000; -480.000
250.371;  -69.800; -494.000; -439.000
250.514;  -46.600; -310.000; -244.000
250.656;   -1.975;   69.000;  102.000
250.798; -117.250; -849.000; -800.000
250.940;  -57.950; -322.000; -322.000
251.083;  -29.125; -335.000; -111.000
251.225;   63.675;  338.000;  310.000
251.367;  -41.900; -274.000; -373.000
251.509;  -35.200; -265.000; -210.000
251.651;  -91.925; -731.000; -671.000
251.794;   50.100;  538.000;  632.000
251.936; -105.850; -821.000; -747.000
252.078;  -84.575; -540.000; -461.000
252.220;  -69.950; -645.000; -477.000
252.362;   46.425;  344.000;  462.000
252.504;  -82.225; -677.000; -584.000
252.646; -101.675; -875.000; -722.000
252.788;  -14.975;   14.000; -128.000
252.931;  -48.975; -257.000; -253.000
253.073;  -49.000; -376.000; -317.000
253.215;   -5.825;  141.000;  122.000
253.357;  -21.925;   82.000; -153.000
253.499;  -49.875; -374.000; -234.000
253.641;  -77.200; -749.000; -594.000
253.783;  -84.925; -609.000; -527.000
253.925;  -82.525; -586.000; -591.000
254.067; -108.750; -744.000; -667.000
254.209;  -29.525; -391.000; -259.000
254.351; -133.825; -865.000; -883.000
254.493;  -67.025; -441.000; -417.000
254.635; -127.575; -936.000; -818.000
254.777;  -84.275; -752.000; -687.000
254.918;  -70.000; -512.000; -430.000
255.060;  -71.875; -551.000; -395.000
255.202;  -66.300; -473.000; -261.000
255.344;  -89.725; -658.000; -455.000
255.486;  -67.075; -471.000; -406.000
255.628; -101.875; -780.000; -781.000
255.770;  -78.875; -676.000; -536.000
255.912;  -65.275; -559.000; -468.000
256.053;  -87.650; -730.000; -508.000
256.195;  155.050; 1008.000;  903.000
256.337;  -92.650; -861.000; -595.000
256.479;   51.325;  532.000;  416.000
256.621;  -37.225; -394.000; -212.000
256.762;  -95.250; -789.000; -742.000
256.904;   55.200;  485.000;  487.000
257.046;  -40.275; -381.000; -271.000
257.188;  -37.400; -351.000; -264.000
257.329;  -71.375; -525.000; -464.000
257.471; -113.050; -939.000; -807.000
257.613;  -57.300; -584.000; -498.000
257.755; -139.150;-1073.000; -982.000
257.896;   22.925;  286.000;  392.000
258.038;  -76.175; -403.000; -352.000
258.180;  -43.675; -354.000; -279.000
258.321;  -78.175; -581.000; -457.000
258.463;  -29.300;  -71.000;  133.000
258.605;  -87.900; -562.000; -570.000
258.746;  -93.500; -886.000; -772.000
258.888; -137.350;-1026.000;-1020.000
259.029;   13.925;  121.000;   -8.000
259.171;  -79.225; -614.000; -550.000
259.313;   -4.600;  -49.000;  -47.000
259.454;  -81.425; -536.000; -414.000
259.596;  -49.300; -483.000; -390.000
259.737;  -60.325; -590.000; -474.000
259.879;   30.525;  217.000;  311.000
260.020;   76.425;  901.000;  636.000
260.162;  -16.525; -146.000; -253.000
260.303; -118.600; -768.000; -687.000
260.445;  -78.200; -609.000; -613.000
260.586;   31.275;  392.000;  157.000
260.728;  -33.625; -360.000; -248.000
260.869;  -77.375; -350.000; -343.000
261.011;   65.000;  706.000;  537.000
261.152;  -65.525; -479.000; -319.000
261.293;  -87.800; -576.000; -595.000
261.435;  -38.700; -219.000; -184.000
261.576;  -50.450; -455.000; -325.000
261.718;   61.025;  420.000;  470.000
261.859; -126.300; -940.000; -949.000
262.000; -132.000; -951.000;-1016.000
262.142;  -33.400;  -52.000;  -60.000
262.283; -108.575; -808.000; -691.000
262.424;  -74.425; -666.000; -625.000
262.566; -144.350;-1161.000; -983.000
262.707; -109.400; -840.000; -830.000
262.848; -110.125; -769.000; -726.000
262.990;  -49.325; -362.000; -345.000
263.131;   75.875;  650.000;  681.000
263.272;  -23.675;  -61.000;  -41.000
263.413;  -92.225; -589.000; -561.000
263.555;  -60.150; -669.000; -143.000
263.696;  -79.000; -550.000; -641.000
263.837;  -56.100; -449.000; -551.000
263.978;   -7.975;   -5.000;  -77.000
264.119;  -41.950; -283.000; -264.000
264.261; -124.250; -847.000; -630.000
264.402;  -13.700;   33.000;   40.000
264.543;  -79.650; -509.000; -524.000
264.684;  -11.700;   61.000;  -50.000
264.825;  -81.675; -816.000; -538.000
264.966;   -5.475;  -84.000;  -67.000
265.107; -106.200; -646.000; -670.000
265.248; -117.850; -825.000; -812.000
265.390;  -13.475;  152.000;   -9.000
265.531;  -18.200; -238.000; -107.000
265.672;  -74.250; -557.000; -630.000
265.813;   56.700;  563.000;  439.000
265.954; -143.950; -959.000; -940.000
266.095;   -1.050; -372.000; -322.000
266.236;  -93.575; -686.000; -548.000
266.377;  -37.675; -243.000; -297.000
266.518;  -72.450; -619.000; -547.000
266.659;   21.950;  170.000;  268.000
266.800;    0.025;   83.000;   85.000
266.941;  -74.050; -487.000; -478.000
267.082;   -2.875;  354.000;   99.000
267.223;  -55.325; -344.000; -273.000
267.364; -113.700; -892.000; -686.000
267.504;  -19.900;    3.000;  135.000
267.645;    1.700;  160.000;   67.000
267.786;  -41.025; -147.000;  -86.000
267.927;  -70.425; -473.000; -379.000
268.068;  -31.750; -186.000;  -61.000
268.209;  -41.800; -175.000; -413.000
268.350;  -66.000; -388.000; -532.000
268.490;  -82.150; -648.000; -521.000
268.631;   25.125;  127.000;  225.000
268.772; -116.200; -874.000; -647.000
268.913;  -48.300; -328.000; -476.000
269.054;   -5.850; -117.000;   12.000
269.194;  -46.325; -418.000; -402.000
269.335; -150.575;-1137.000;-1074.000
269.476;  -21.350;   33.000;  -35.000
269.617;  -48.450; -347.000; -392.000
269.757;  -94.550; -713.000; -646.000
269.898;  -93.300; -856.000; -613.000
270.039;  -59.925; -415.000; -405.000
270.180; -126.875; -952.000; -816.000
270.320;  -32.525; -190.000; -250.000
270.461;  -57.250; -277.000; -249.000
270.602;   -9.850; -186.000; -156.000
270.742; -121.225; -868.000; -943.000
270.883;  -59.900; -442.000; -390.000
271.023;  -55.375; -358.000; -357.000
271.164;  -74.975; -607.000; -528.000
271.305;  -91.675; -666.000; -654.000
271.445; -103.050; -722.000; -683.000
271.586;  -65.750; -462.000; -283.000
271.726;  -39.700; -397.000; -322.000
271.867;  -79.100; -594.000; -534.000
272.008;   36.825; -473.000; -285.000
272.148;   72.775;  462.000;  468.000
272.289;   -8.700; -113.000; -181.000
272.429;  -16.025;   19.000;  185.000
272.570;  -90.275; -633.000; -737.000
272.710;  -96.525; -825.000; -775.000
272.851;  -24.950;  113.000; -130.000
272.991; -153.750;-1173.000;-1077.000
273.131;  -73.000; -419.000; -459.000
273.272;  -90.375; -683.000; -723.000
273.412;  -16.950; -143.000;  -31.000
273.553;  -73.225; -488.000; -507.000
273.693;  104.300;  913.000;  858.000
273.834; -113.200; -894.000; -692.000
273.974;  -91.475; -664.000; -615.000
274.114; -113.825; -772.000; -560.000
274.255;   54.875;  414.000;  373.000
274.395;  -25.375; -180.000; -125.000
274.535;   11.250;  199.000;  350.000
274.676;   23.175;  225.000;   94.000
274.816;   -4.650;  110.000;   34.000
274.956;  -85.900; -624.000; -690.000
275.097; -108.350;-1014.000; -922.000
275.237; -113.025; -913.000; -803.000
275.377;  -99.225; -778.000; -689.000
275.517; -150.850; -878.000; -937.000
275.658;  -74.375; -590.000; -555.000
275.798;  -69.875; -606.000; -413.000
275.938;    1.700;  215.000;  323.000
276.078;  -75.525; -626.000; -395.000
276.218;    3.600;   99.000;  104.000
276.359; -132.525;-1026.000;-1024.000
276.499;  -73.575; -605.000; -446.000
276.639;  -48.325; -305.000; -151.000
276.779;  -40.750; -475.000; -357.000
276.919;  -93.900; -783.000; -624.000
277.059;  -28.275; -261.000; -212.000
277.199;  -47.475; -357.000; -259.000
277.340;   21.700;  287.000;  175.000
277.480; -111.300; -840.000; -693.000
277.620;   29.100;  192.000;   16.000
277.760; -189.650;-1533.000;-1294.000
277.900;    0.800;  113.000;   33.000
278.040;  -16.350;  137.000;  159.000
278.180;   21.500;  270.000;  170.000
278.320;   -1.625;   21.000;   56.000
278.460;  -60.900; -443.000; -469.000
278.600;  -88.850; -708.000; -598.000
278.740;   20.675;  448.000;  224.000
278.880;  -94.350; -768.000; -791.000
279.020;  -38.875; -194.000; -144.000
279.160;  -88.850; -672.000; -595.000
279.300; -109.600; -926.000; -873.000
279.440;  -90.525; -709.000; -622.000
279.579;  -90.525;-1014.000; -929.000
279.719;  -61.875; -410.000; -394.000
279.859;   30.800;   -4.000;   41.000
279.999;   -9.375; -208.000;  101.000
280.139;  -54.525; -435.000; -387.000
280.279;  -99.275; -708.000; -745.000
280.419;  -12.925; -229.000; -147.000
280.559;  -42.725; -259.000; -180.000
280.698;  -97.850; -790.000; -639.000
280.838; -107.600; -778.000; -800.000
280.978;  -95.575; -846.000; -790.000
281.118;  -99.750; -811.000; -704.000
281.257;    2.375;   24.000;    6.000
281.397; -129.475;-1094.000; -960.000
281.537;  -84.125; -599.000; -712.000
281.677;   -4.900; -150.000; -101.000
281.816;  -72.825; -700.000; -630.000
281.956;  -29.050; -193.000; -257.000
282.096;  -48.050; -539.000; -396.000
282.235;  -90.425; -672.000; -638.000
282.375;  -21.025; -243.000;  -98.000
282.515;  -84.850; -715.000; -707.000
282.654;   25.750;   29.000;  106.000
282.794;   39.975;  388.000;  244.000
282.934;  -44.950; -530.000; -491.000
283.073; -112.100;-1030.000; -857.000
283.213;  -53.075; -460.000; -467.000
283.353;  -48.675; -408.000; -349.000
283.492;  -33.125; -264.000; -296.000
283.632;  -58.400; -254.000; -168.000
283.771;  -90.450; -859.000; -730.000
283.911;  -49.075; -369.000; -260.000
284.050;  -91.075; -794.000; -748.000
284.190; -150.450;-1229.000;-1096.000
284.329; -127.850;-1055.000; -964.000
284.469;  -88.450; -516.000; -591.000
284.608;  -61.550; -559.000; -598.000
284.748;  -92.575; -614.000; -570.000
284.887;  -14.575;  -87.000;  -20.000
285.027; -111.875; -844.000; -892.000
285.166;  -40.775; -192.000; -249.000
285.306;  -16.000; -116.000;  -33.000
285.445;  -41.850; -229.000; -343.000
285.584;  -70.950; -630.000; -494.000
285.724;  -42.950; -282.000; -322.000
285.863;  -95.000; -857.000; -507.000
286.002;  -52.575; -366.000; -276.000
286.142;  -93.650; -715.000; -622.000
286.281;  -66.325; -525.000; -493.000
286.420;  -73.575; -554.000; -417.000
286.560;   86.850;  653.000;  623.000
286.699; -134.525; -958.000; -912.000
286.838;  -86.300; -590.000; -591.000
286.978;  -87.550; -533.000; -537.000
287.117; -129.800;-1085.000; -950.000
287.256;  -18.550; -228.000; -211.000
287.395;  -43.400; -197.000; -378.000
287.535;  -52.425; -370.000; -298.000
287.674;  -68.675; -509.000; -484.000
287.813;   77.825;  661.000;  533.000
287.952; -109.250;-1010.000; -871.000
288.091; -128.675;-1049.000; -915.000
288.231;  -19.875;   13.000;   15.000
288.370; -160.675;-1217.000;-1200.000
288.509;  -85.800; -728.000; -645.000
288.648;  -98.425; -770.000; -548.000
288.787;  -28.575; -243.000;  -87.000
288.926;  -68.600; -454.000; -475.000
289.065;   98.650;  859.000;  672.000
289.204;  -44.450; -377.000; -217.000
289.344;  -96.500; -791.000; -690.000
289.483;   17.100;  416.000;  304.000
289.622;  -29.275; -291.000; -149.000
289.761;  -17.850; -309.000; -166.000
289.900;  -86.650; -785.000; -626.000
290.039;  -22.950;  -12.000;  -95.000
290.178;  -45.800; -274.000; -180.000
290.317;  -97.300; -618.000; -479.000
290.456;  -65.675; -463.000; -451.000
290.595; -114.475; -961.000; -833.000
290.734; -126.100; -904.000; -891.000
290.873;  -69.425; -456.000; -420.000
291.011; -102.550; -833.000; -843.000
291.150;  -99.850; -770.000; -682.000
291.289;  -26.425; -343.000; -110.000
291.428;  -89.425; -599.000; -480.000
291.567;  -53.150; -370.000; -442.000
291.706;    0.000;  109.000;  154.000
291.845;  -90.275; -597.000; -505.000
291.984; -155.250;-1234.000;-1061.000
292.122;   58.750;  602.000;  582.000
292.261;   43.675;  620.000;  463.000
292.400;   -0.825; -144.000;  211.000
292.539; -113.650; -959.000; -813.000
292.678;  -46.100; -325.000; -300.000
292.816; -143.000;-1136.000; -965.000
292.955;  -96.325; -844.000; -684.000
293.094;  -41.875; -173.000; -337.000
293.233;  -48.075; -556.000; -400.000
293.371;  -45.650; -225.000;  -84.000
293.510; -113.850; -866.000; -780.000
293.649; -135.425; -959.000; -924.000
293.787; -116.225;-1083.000;-1012.000
293.926;  -20.250; -113.000;  -32.000
294.065;  -44.900; -379.000; -290.000
294.203;   46.100;  298.000;  406.000
294.342;   19.075;   74.000;  156.000
294.481; 6123.775;51180.000; -836.000
294.619;  -30.525; -425.000; -582.000
294.758; -150.575;-1230.000;-1137.000
294.896;   10.225; -125.000;    5.000
295.035; -131.300;-1040.000;-1006.000
295.174; -108.275;-1082.000; -954.000
295.312;  -39.800; -323.000; -203.000
295.451;  -31.950; -307.000; -428.000
295.589;  -63.950; -389.000; -518.000
295.728;    9.850; -292.000; -165.000
295.866;  -16.425;  -36.000;  -51.000
296.005;  -53.100; -584.000; -341.000
296.143;  -66.075; -558.000; -596.000
296.282;  -97.250; -957.000; -881.000
296.420;  -78.675; -657.000; -557.000
296.559;  -82.400; -892.000; -633.000
296.697;  -45.650; -847.000; -665.000
296.835;  -70.450;-1141.000;-1002.000
296.974;   32.300;  -23.000;   39.000
297.112;  -26.550; -443.000; -504.000
297.251;  -65.225; -815.000; -755.000
297.389;   -0.700; -576.000; -438.000
297.527;   16.975; -145.000;  -83.000
297.666;  -62.250; -486.000; -438.000
297.804;  -44.900; -404.000; -264.000
297.942;   -2.375; -136.000; -161.000
298.081;   -5.625; -183.000;   63.000
298.219;   14.325;  -17.000;  -19.000
298.357;   -0.075; -144.000;  -71.000
298.495;  -60.275; -810.000; -812.000
298.634;   15.125;  245.000;  219.000
298.772;  -34.725; -220.000; -338.000
298.910;  -54.625; -309.000; -182.000
299.048;  -28.675; -130.000; -153.000
299.187;  -44.625; -350.000; -250.000
299.325;   -6.100;   52.000;  122.000
299.463;  -23.975; -389.000; -299.000
299.601;   -9.150; -327.000; -271.000
299.739; -128.950; -908.000; -883.000
299.877;  -82.450; -791.000; -703.000
300.016; -109.200;-1095.000; -935.000
300.154;   27.775;  -19.000; -161.000
300.292;  -36.325; -428.000; -348.000
300.430;  -26.175; -408.000; -291.000
300.568; -114.725; -940.000; -874.000
300.706;  -70.950; -366.000; -469.000
300.844; -130.700;-1108.000; -979.000
300.982;   61.175;  246.000;  282.000
301.120; -120.525; -965.000; -866.000
301.258;  -86.950; -812.000; -705.000
301.396;   11.600;  104.000;  -41.000
301.534;  -15.975; -218.000; -293.000
301.672;  -76.000; -664.000; -521.000
301.810;  -74.075; -613.000; -545.000
301.948;   42.850;   53.000;  149.000
302.086;  167.725; -250.000;  -32.000
302.224;  182.150; -610.000; -585.000
302.362;  -45.250; -558.000; -622.000
302.500; -102.350; -923.000; -893.000
302.638;   18.450;  128.000;  245.000
302.776;  -29.350; -352.000; -408.000
302.913;   40.650;  447.000;  236.000
303.051;  -35.600;  -86.000;  -23.000
303.189;    2.100;   90.000;  118.000
303.327;  -45.625; -341.000; -256.000
303.465;  -85.600; -832.000; -588.000
303.603;  -97.050; -805.000; -604.000
303.740;   42.800;  417.000;  241.000
303.878;  -76.325; -800.000; -759.000
304.016;  -97.075; -915.000; -790.000
304.154; -151.425;-1123.000;-1152.000
304.291;  -64.925; -505.000; -554.000
304.429;   -3.925;  102.000;   74.000
304.567; -133.825; -908.000; -893.000
304.705;  -56.200; -408.000; -515.000
304.842;  -43.350; -616.000; -540.000
304.980;    6.875;  215.000;   35.000
305.118;  -27.150; -367.000; -365.000
305.255; -110.475; -945.000; -927.000
305.393;   40.825;  178.000;  239.000
305.531; -128.675;-1173.000; -956.000
305.668;  -82.725; -663.000; -582.000
305.806;   -4.400; -358.000; -439.000
305.943;  -33.925; -629.000; -637.000
306.081;  -12.250; -378.000; -267.000
306.219;  -95.325; -863.000; -748.000
306.356;   19.175;  158.000;   27.000
306.494;  145.775;  981.000;  761.000
306.631;   26.450;  -11.000;  -55.000
306.769;   10.750; -613.000; -485.000
306.906;   14.125; -284.000; -258.000
307.044;  -43.800; -473.000; -488.000
307.181;  -43.725; -410.000; -332.000
307.319;   36.775;  112.000;   87.000
307.456; -154.800;-1191.000;-1153.000
307.594; -102.275; -980.000; -727.000
307.731;  -20.425; -371.000; -164.000
307.868;   -3.650;  -15.000;   20.000
308.006; -110.700; -961.000; -847.000
308.143;  -36.775; -618.000; -330.000
308.281;   51.225;  -37.000; -254.000
308.418;  -57.775; -748.000; -640.000
308.555;  -53.075; -400.000; -250.000
308.693;  -55.375; -577.000; -573.000
308.830;  -83.275; -712.000; -657.000
308.967;    8.125; -215.000;  -95.000
309.105;   10.025; -507.000; -396.000
309.242;    8.050; -468.000; -367.000
309.379;   37.450; -577.000; -655.000
309.517;  -64.150; -936.000; -948.000
309.654;  -67.775; -910.000; -734.000
309.791;  -52.800; -662.000; -580.000
309.928;  -79.550; -977.000; -914.000
310.065;  149.425;  819.000;  697.000
310.203;  -65.275; -825.000; -850.000
310.340;    0.575; -465.000; -321.000
310.477;  -62.450; -412.000; -516.000
310.614;  -32.175; -383.000; -473.000
310.751;  -27.750; -427.000; -518.000
310.889;  -17.125;    1.000;   11.000
311.026; -129.775;-1161.000; -939.000
311.163;  -35.875; -386.000; -380.000
311.300;  -46.225; -512.000; -479.000
311.437;  -48.450; -658.000; -619.000
311.574; -126.900;-1226.000; -985.000
311.711;  -48.925; -595.000; -433.000
311.848;    0.250; -380.000; -388.000
311.985;   53.975;  270.000;   93.000
312.122;  -80.850; -932.000; -762.000
312.259;  -91.050; -941.000; -994.000
312.396;  -12.925; -508.000; -551.000
312.533;  -45.450; -812.000; -790.000
312.670; -103.225;-1070.000; -898.000
312.807;    2.825; -352.000; -367.000
312.944;  -19.850; -513.000; -611.000
313.081;   11.925; -150.000; -415.000
313.218;  -65.075;-1111.000; -867.000
313.355;   -4.250; -531.000; -449.000
313.492;   16.375; -455.000; -292.000
313.629;  133.975;  815.000;  735.000
313.766; -120.825;-1176.000;-1008.000
313.902;   -6.950; -186.000;   21.000
314.039;  -31.500; -372.000; -289.000
314.176;   27.950;  286.000;  192.000
314.313;  -50.650; -569.000; -473.000
314.450;  -59.300; -788.000; -684.000
314.587;  -38.475; -468.000; -480.000
314.723;   26.475;  -78.000;  130.000
314.860;   56.450;  318.000;  332.000
314.997;   41.250;  223.000;  142.000
315.134;  -14.875; -385.000; -368.000
315.270;  -14.975; -480.000; -496.000
315.407; -100.200;-1094.000; -967.000
315.544;  -25.325; -657.000; -538.000
315.681;  -55.325; -681.000; -565.000
315.817;   40.575; -133.000; -176.000
315.954;   44.250; -613.000; -392.000
316.091;  -91.575;-1045.000;-1023.000
316.227;    2.400;  -71.000; -179.000
316.364;    0.875;   23.000;    6.000
316.500;  -37.100; -113.000; -300.000
316.637;  -34.525; -181.000; -302.000
316.774;  -63.075; -625.000; -358.000
316.910;  -77.400; -598.000; -629.000
317.047;  -55.375; -487.000; -351.000
317.183;  -56.050; -435.000; -566.000
317.320;   36.400; -367.000; -321.000
317.456;  -25.275; -733.000; -805.000
317.593;  -71.125; -598.000; -641.000
317.729;    5.800;  168.000;  -67.000
317.866; -171.200;-1434.000;-1285.000
318.002; -100.250; -708.000; -948.000
318.139; -112.650; -883.000; -867.000
318.275; -113.100;-1003.000; -738.000
318.412;  -66.200; -517.000; -336.000
318.548;  -81.975; -751.000; -720.000
318.685;  -94.000; -985.000; -888.000
318.821;  -79.900; -762.000; -735.000
318.957;  -15.225;   34.000;  -23.000
319.094;   29.575;  297.000;  154.000
319.230;  -95.175; -756.000; -742.000
319.367;   -1.000; -471.000; -520.000
319.503;  -20.275; -538.000; -436.000
319.639;  -75.950; -877.000; -793.000
319.775;  -85.100; -750.000; -685.000
319.912;  -53.525; -424.000; -519.000
320.048;  -87.700;-1184.000;-1184.000
320.184;   89.350;   59.000;   70.000
320.321;  -36.200; -497.000; -467.000
320.457;   75.475;  475.000;  662.000
320.593;  -55.275; -375.000; -382.000
320.729; -101.325; -732.000; -734.000
320.866;  -68.725; -577.000; -635.000
321.002;  -97.200; -759.000; -809.000
321.138;  -46.500; -135.000; -211.000
321.274;    7.475; -148.000; -115.000
321.410;  -64.550; -585.000; -353.000
321.546; -105.300;-1011.000; -911.000
321.683;   25.500;  400.000;  185.000
321.819;  -10.675;  -48.000; -117.000
321.955; -101.050; -743.000; -722.000
322.091;  -66.250; -585.000; -540.000
322.227;  -25.525; -382.000; -202.000
322.363;  -42.800; -320.000; -215.000
322.499;  -52.050; -343.000; -331.000
322.635;   97.600;  636.000;  443.000
322.771;  -18.350; -139.000;   12.000
322.907;   34.975;  129.000;  327.000
323.043;  -25.600; -115.000; -206.000
323.179;  -50.725; -394.000; -363.000
323.315;  -35.425; -401.000; -371.000
323.451;   27.100; -328.000; -236.000
323.587;   43.325;  -60.000;  -77.000
323.723;  -43.600; -682.000; -601.000
323.859;  -23.100; -258.000;  -76.000
323.995;  -46.750; -467.000; -409.000
324.131; -119.875; -967.000; -892.000
324.267;  -43.075; -254.000; -276.000
324.402; -136.200; -960.000; -983.000
324.538;  -44.625; -279.000; -104.000
324.674;  -13.125;  164.000;   77.000
324.810;   54.250;  226.000;  308.000
324.946;  -42.350; -810.000; -658.000
325.082;  -75.675; -568.000; -475.000
325.217;  -25.400;  -62.000;   16.000
325.353; -107.675; -764.000; -659.000
325.489; -104.300; -540.000; -506.000
325.625;  -66.150; -579.000; -525.000
325.760;   85.050;  517.000;  376.000
325.896;   11.450; -515.000; -702.000
326.032;  -59.500; -403.000; -352.000
326.168;  -74.300; -462.000; -369.000
326.303;  -49.900; -352.000; -461.000
326.439;   -8.175; -336.000; -276.000
326.575;   -7.850; -190.000;  -29.000
326.710;  -16.750; -156.000;  -30.000
326.846;   -2.400;  146.000;  103.000
326.982;  -80.150; -530.000; -548.000
327.117;  -54.625; -481.000; -442.000
327.253;  -75.600; -745.000; -742.000
327.388; -159.200;-1137.000;-1153.000
327.524;  -79.725; -811.000; -578.000
327.659;  -24.400;  -58.000;  -22.000
327.795;  -18.325;   69.000;   45.000
327.931;  -64.725; -723.000; -499.000
328.066;  -20.675; -417.000; -276.000
328.202;  -15.900;   12.000; -129.000
328.337;  103.700;  957.000;  713.000
328.473;   34.475;  -12.000;  -74.000
328.608;  -30.125; -256.000; -267.000
328.743;  -99.275; -799.000; -664.000
328.879;   19.825;  214.000;  114.000
329.014;  -30.050; -102.000; -122.000
329.150;  -82.025; -358.000; -483.000
329.285;  -75.000; -465.000; -466.000
329.421;  -46.800; -548.000; -246.000
329.556;   -6.300;  -36.000;   85.000
329.691;  -71.225; -633.000; -615.000
329.827;  -69.675; -626.000; -480.000
329.962;  -19.075;  131.000; -301.000
330.097;  -64.075; -673.000; -585.000
330.233;  -36.425; -410.000; -223.000
330.368; -103.450; -839.000; -628.000
330.503;   -9.625;    3.000;   98.000
330.638;   -5.350;  -93.000; -125.000
330.774;  -84.500; -609.000; -530.000
330.909;  -40.800; -434.000; -244.000
331.044; -103.500; -714.000; -708.000
331.179; -160.125;-1217.000;-1109.000
331.315;   -0.200;   77.000;   20.000
331.450;   15.350;  157.000;  285.000
331.585;  -84.450; -805.000; -706.000
331.720;  -76.975; -510.000; -460.000
331.855;    1.875;  -35.000; -102.000
331.990;  414.825;   62.000;  138.000
332.126;  218.125; -110.000;   71.000
332.261;   20.075; -379.000; -265.000
332.396;   30.975; -135.000; -242.000
332.531;  -50.775;-1074.000;-1031.000
332.666;   98.550; -519.000; -363.000
332.801;  -92.725; -726.000; -807.000
332.936;  -17.650; -192.000; -122.000
333.071; -155.450; -870.000; -817.000
333.206;   17.825;  307.000;  379.000
333.341;   28.225;  344.000;  418.000
333.476;  -85.175; -627.000; -623.000
333.611;  -21.775; -251.000; -173.000
333.746;  -45.425; -381.000; -464.000
333.881; -107.275; -973.000; -935.000
334.016; -113.225; -936.000; -917.000
334.151; -109.175; -746.000; -702.000
334.286;   18.925;  152.000;  186.000
334.421;   -5.300; -125.000; -178.000
334.556;  -78.800; -611.000; -567.000
334.690;  -77.625; -631.000; -577.000
334.825;   42.400;  381.000;   83.000
334.960;  -59.875; -285.000; -413.000
335.095;    6.575;  135.000;  -91.000
335.230; -104.400; -722.000; -738.000
335.365; -123.425;-1084.000; -990.000
335.499; -110.000;-1108.000;-1037.000
335.634;   16.000;    9.000;  534.000
335.769;  -89.850; -755.000; -720.000
335.904;  -44.450; -603.000; -561.000
336.038;  -33.150; -735.000; -657.000
336.173;  -94.925;-1206.000;-1194.000
336.308;   23.925; -116.000; -189.000
336.443;   65.900; -544.000; -634.000
336.577;  -40.900; -936.000; -787.000
336.712;   63.425;   -4.000;  -12.000
336.847;  -15.300; -724.000; -607.000
336.981;   55.575; -272.000; -208.000
337.116;  282.350;  615.000;  501.000
337.250;  111.925; -434.000; -421.000
337.385;  462.075; -297.000; -208.000
337.520;  227.050; -632.000; -603.000
337.654;  -17.350; -215.000; -126.000
337.789; -115.475; -989.000; -933.000
337.923;  -27.475; -104.000; -205.000
338.058; -104.425; -673.000; -738.000
338.192;  -45.300; -611.000; -488.000
338.327;  -26.425;  -18.000; -155.000
338.461;  -53.675; -299.000; -469.000
338.596;  -88.475; -780.000; -638.000
338.730;  -85.525; -767.000; -803.000
338.865;  160.675;  -46.000; -140.000
338.999;   26.300; -846.000; -702.000
339.134;   13.400; -634.000; -536.000
339.268;   34.375; -741.000; -603.000
339.403;  570.475; -740.000; -775.000
339.537;  270.075; -894.000; -820.000
339.671;  -87.925; -829.000; -813.000
339.806;  -20.250; -556.000; -512.000
339.940;   25.500; -261.000; -235.000
340.074; -104.725; -685.000; -510.000
340.209;  -46.950; -351.000; -230.000
340.343;  -81.600; -517.000; -573.000
340.477;  126.325;  998.000; 1036.000
340.612;   17.225;-1033.000; -900.000
340.746;  225.225; -199.000; -243.000
340.880;  -98.125; -924.000; -785.000
341.014;  -23.350;  -45.000; -154.000
341.149; -115.775; -756.000; -718.000
341.283;  -99.275; -839.000; -754.000
341.417; -130.050;-1124.000; -938.000
341.551;  -40.550; -768.000; -708.000
341.685;  -78.250; -633.000; -611.000
341.820;  -49.675; -562.000; -493.000
341.954;  -55.575; -218.000; -349.000
342.088; -142.850;-1102.000;-1019.000
342.222;   47.950;  565.000;  618.000
342.356;  -74.950; -395.000; -335.000
342.490; -124.125; -880.000; -841.000
342.624;  -60.675; -339.000; -242.000
342.758;  -41.325; -364.000; -312.000
342.892;  -93.450; -710.000; -585.000
343.026;  -36.250;  -58.000; -116.000
343.160;  -64.325; -426.000; -376.000
343.294;  -77.800; -474.000; -337.000
343.428;  -70.825; -488.000; -448.000
343.562;  -37.025; -172.000;  -23.000
343.696;  -57.300; -385.000; -314.000
343.830;  -60.850; -362.000; -356.000
343.964;  -19.150; -231.000; -168.000
344.098;  252.100;  199.000;   70.000
344.232;  215.875; -266.000; -127.000
344.366;   56.650; -567.000; -453.000
344.500;  -48.500; -665.000; -744.000
344.634;  -38.425; -324.000; -164.000
344.768;  -60.100; -531.000; -341.000
344.902;    0.975;  278.000;  256.000
345.035;  -68.375; -556.000; -496.000
345.169; -140.325; -933.000; -656.000
345.303;  -53.050; -308.000; -482.000
345.437; -104.275; -826.000; -717.000
345.571;  -71.950; -675.000; -594.000
345.704;  -58.025; -309.000; -532.000
345.838;  -21.350; -331.000; -284.000
345.972;  -60.625; -543.000; -495.000
346.106;  254.825; -179.000; -190.000
346.239;  492.650; -312.000; -243.000
346.373;   -2.500; -343.000; -302.000
346.507; -140.900; -950.000; -962.000
346.640;   15.025;  -30.000;   13.000
346.774;  -90.025; -650.000; -797.000
346.908;  -21.850; -138.000;  -11.000
347.041;  -85.650; -646.000; -593.000
347.175;   -7.500;  259.000;   27.000
347.309; -100.250; -698.000; -628.000
347.442; -120.525; -883.000; -732.000
347.576;  120.650;  670.000;  668.000
347.709;   35.175; -123.000;  -52.000
347.843; -114.525; -933.000; -825.000
347.976;   30.275;  235.000;  294.000
348.110; -157.275;-1268.000;-1186.000
348.243;  -86.750; -679.000; -772.000
348.377;   13.200;  -26.000;   60.000
348.510;   54.550;  403.000;  540.000
348.644;  -43.325;  -37.000; -159.000
348.777;    7.800;  180.000;  191.000
348.911;  -35.775; -142.000; -112.000
349.044;   83.425;  471.000;  448.000
349.178;  -36.150;-1069.000;-1006.000
349.311;   95.950;  141.000;  255.000
349.444;   46.125; -927.000; -813.000
349.578;   -3.950; -347.000; -200.000
349.711; -114.175; -959.000; -862.000
349.845;  -72.825; -661.000; -591.000
349.978; -154.425;-1224.000;-1137.000
350.111;  -77.250; -546.000; -612.000
350.244; -105.150; -596.000; -700.000
350.378;  -54.750; -392.000; -393.000
350.511;  -65.750; -393.000; -426.000
350.644;  -99.050; -808.000; -806.000
350.778;   20.550;  168.000;  104.000
350.911;  -12.650;  134.000;  140.000
351.044;  -86.700; -685.000; -615.000
351.177;  -42.500; -321.000; -281.000
351.310;  -24.575;    3.000; -131.000
351.444; -109.550; -888.000; -788.000
351.577;   43.625;  140.000;   90.000
351.710;   65.225;  593.000;  417.000
351.843;  -41.575; -165.000;  -77.000
351.976;   -6.725;  149.000;  -79.000
352.109;  -97.350; -621.000; -612.000
352.242;  -63.600; -464.000; -419.000
352.376;  -83.650; -580.000; -636.000
352.509;   -9.975; -437.000; -356.000
352.642; -101.275; -654.000; -604.000
352.775;   -8.325; -141.000;  -98.000
352.908; -117.275; -933.000; -904.000
353.041; -103.200; -814.000; -824.000
353.174;  -64.075; -551.000; -424.000
353.307;  -93.300; -753.000; -764.000
353.440;   60.900;  541.000;  453.000
353.573;  -93.975; -957.000;-1008.000
353.706;  -39.700; -384.000; -558.000
353.839;  -35.225; -264.000; -220.000
353.971;  -90.700; -657.000; -512.000
354.104; -106.875; -896.000; -835.000
354.237;  -71.025; -627.000; -662.000
354.370; -103.475; -846.000; -879.000
354.503; -160.225;-1231.000;-1308.000
354.636;  -23.825; -529.000; -348.000
354.769; -110.925; -937.000; -860.000
354.902;  -32.475; -230.000; -139.000
355.034;  -20.575; -164.000; -220.000
355.167;  -11.900; -262.000; -162.000
355.300;  -63.475;-1061.000; -880.000
355.433; 1499.150;  -71.000;  -14.000
355.565; 2348.725; -402.000; -384.000
355.698;  601.750; -356.000; -296.000
355.831;   -6.650; -882.000; -801.000
355.964;   14.050; -285.000; -170.000
356.096;  -68.000; -856.000; -843.000
356.229;   12.450; -523.000; -530.000
356.362;  546.000; -373.000; -266.000
356.494;  932.525; -229.000; -162.000
356.627;  334.650;  269.000;  377.000
356.760;  917.050;  120.000;   53.000
356.892; 1548.825; -286.000; -601.000
357.025;  328.250;  403.000;  389.000
357.157;  217.450; -167.000; -179.000
357.290; 1164.350; -856.000; -713.000
357.423;  372.600; -667.000; -556.000
357.555;  100.925; -217.000; -228.000
357.688;  118.700; -483.000; -364.000
357.820;  148.925; -870.000; -877.000
357.953; 1208.800; -563.000; -589.000
358.085;  189.100; -632.000; -612.000
358.218;  110.200;-1131.000; -932.000
358.350;   42.750;  -58.000;  312.000
358.483; -146.075;-1300.000;-1187.000
358.615; -111.450;-1182.000;-1078.000
358.747; -134.500;-1187.000;-1058.000
358.880;  -35.800; -810.000; -744.000
359.012;  -29.850; -376.000; -202.000
359.145;  -67.575; -480.000; -511.000
359.277;  -71.400; -962.000; -913.000
359.409; 1047.900;  536.000;  231.000
359.542;  217.800; -738.000; -688.000
359.674;    9.875;   46.000;   13.000
359.806;  -70.900; -565.000; -438.000
359.939;  -26.575; -617.000; -516.000
360.071;   37.900; -583.000; -579.000
360.203;  -18.650; -411.000; -364.000
360.335;   26.550;  164.000;  -16.000
360.468;   74.350; -249.000; -307.000
360.600; 1164.700; -547.000; -454.000
360.732; 4192.050; -546.000; -423.000
360.864;  652.325;-1216.000;-1044.000
360.996;   67.625; -516.000; -554.000
361.129;  -45.225; -389.000; -598.000
361.261;   -6.225;  110.000; -113.000
361.393;  -51.425; -252.000; -214.000
361.525;   12.125;   94.000;  244.000
361.657; -104.000; -821.000; -703.000
361.789;  -24.900; -139.000; -155.000
361.921;  -42.150; -642.000; -593.000
362.053;   98.450;  524.000;  541.000
362.185;   -1.150;  288.000;   72.000
362.318; -110.275; -709.000; -705.000
362.450;   38.525;  294.000;  444.000
362.582;  -84.550; -913.000; -870.000
362.714;  -44.100; -353.000; -332.000
362.846;  -79.300; -606.000; -490.000
362.978; -123.475; -941.000; -811.000
363.109;  -20.375; -161.000; -260.000
363.241;  164.225; -739.000; -749.000
363.373;  663.675; -649.000; -564.000
363.505; 1075.850; -186.000;  -91.000
363.637;  244.125; -787.000; -601.000
363.769; -121.275;-1067.000;-1080.000
363.901;  -77.650; -596.000; -654.000
364.033; -149.525;-1103.000;-1062.000
364.165;  -35.375; -283.000; -283.000
364.296;   93.000; -316.000; -177.000
364.428;  209.575;-1344.000;-1220.000
364.560;  -55.825; -679.000; -661.000
364.692;  -71.500; -738.000; -835.000
364.824;    1.375; -588.000; -456.000
364.955;  494.575; -402.000; -564.000
365.087; 1673.550;-1097.000; -852.000
365.219;  110.000; -686.000; -816.000
365.351;  -60.525; -526.000; -572.000
365.482;   14.825;  300.000;  240.000
365.614;  -61.725; -402.000; -314.000
365.746; -112.050; -729.000; -752.000
365.877;  -78.925; -706.000; -672.000
366.009;  431.150;  -35.000;  -62.000
366.141;   -1.825;-1249.000;-1134.000
366.272;  -97.425; -803.000; -719.000
366.404; -112.325;-1005.000; -874.000
366.535;  -15.775; -139.000;  -12.000
366.667;  -99.350; -644.000; -649.000
366.799;   40.625;  353.000;  203.000
366.930; -143.550; -862.000; -996.000
367.062;  212.375; -639.000; -613.000
367.193;  338.450; -872.000; -842.000
367.325;  -27.025; -580.000; -684.000
367.456;   13.450; -246.000;   31.000
367.588;  284.475; -371.000; -318.000
367.719;   45.650;  -44.000;  -45.000
367.851;  -34.875; -222.000; -241.000
367.982; -118.950; -875.000; -732.000
368.113;  -23.400; -475.000; -358.000
368.245; -131.100; -960.000; -841.000
368.376;  -39.600; -254.000; -302.000
368.508;  -55.075; -188.000; -263.000
368.639; -142.700;-1166.000;-1034.000
368.770;  -85.150; -670.000; -589.000
368.902; -115.950; -836.000; -926.000
369.033; -111.075; -906.000; -855.000
369.164;  -10.625; -720.000; -653.000
369.296;  -60.325; -452.000; -601.000
369.427;  -27.275; -209.000; -144.000
369.558;  -76.925; -593.000; -377.000
369.689;  -79.325; -721.000; -569.000
369.821; -116.325; -951.000; -845.000
369.952;  -23.000;   42.000; -108.000
370.083;  -53.475; -229.000; -108.000
370.214;  -90.050; -735.000; -650.000
370.345;   -9.875;   65.000;   81.000
370.477; -108.850; -810.000; -790.000
370.608;   29.725; -328.000; -264.000
370.739; -135.300;-1233.000;-1292.000
370.870; -113.625;-1102.000; -923.000
371.001;  -20.925; -378.000; -467.000
371.132;  -91.275; -754.000; -735.000
371.263;  -30.575;  -42.000; -148.000
371.394; -135.875; -841.000; -748.000
371.525;   24.525;  345.000;  225.000
371.657; -106.650; -808.000; -670.000
371.788;   15.900;  103.000;  199.000
371.919;   24.325; -384.000; -304.000
372.050; 1052.650;  -91.000; -156.000
372.181;  325.825; -188.000; -294.000
372.311;   96.825;   42.000; -127.000
372.442;  -49.950; -457.000; -451.000
372.573;  -50.425; -444.000; -340.000
372.704; -136.400;-1008.000; -980.000
372.835;  -23.250; -228.000; -289.000
372.966;  -66.650; -646.000; -554.000
373.097;  -85.000; -575.000; -711.000
373.228;  -93.875; -717.000; -542.000
373.359;  -39.250; -824.000; -536.000
373.490;  132.625; -881.000; -727.000
373.620;  220.050;-1001.000; -803.000
373.751;  446.425; -332.000; -396.000
373.882;  176.925; -663.000; -733.000
374.013;  -27.025; -449.000; -262.000
374.143;  -68.125; -581.000; -659.000
374.274; -135.150; -987.000; -908.000
374.405;   51.375; -388.000; -276.000
374.536;  100.625; -526.000; -387.000
374.666;  241.950; -759.000; -807.000
374.797;  -20.550; -817.000; -868.000
374.928;  154.025; -710.000; -560.000
375.058;  159.525; -535.000; -500.000
375.189;   -1.325;  -59.000;  -93.000
375.320; -121.050; -928.000;-1034.000
375.450;  -45.525; -625.000; -616.000
375.581;  -36.775; -526.000; -436.000
375.712;  -47.425; -574.000; -250.000
375.842;  -17.925; -438.000; -415.000
375.973;   -7.875; -554.000; -513.000
376.103; -100.475; -665.000; -648.000
376.234; -102.275; -531.000; -552.000
376.364; -117.775; -944.000; -867.000
376.495;  123.350;  925.000;  529.000
376.625;  -60.975; -472.000; -485.000
376.756;  -44.675; -709.000; -678.000
376.886; -130.225;-1178.000;-1026.000
377.017;  167.325;-1048.000;-1061.000
377.147;  682.225; -786.000; -782.000
377.278;   97.625;  174.000;  228.000
377.408; -118.400; -801.000; -815.000
377.538;  -89.425; -707.000; -693.000
377.669;  -73.725; -537.000; -613.000
377.799; -119.275; -645.000; -635.000
377.929;  -79.825; -610.000; -428.000
378.060; -114.450; -781.000; -847.000
378.190;  -29.675; -726.000; -531.000
378.320;  -45.375; -401.000; -406.000
378.451;   -8.550; -131.000;  -22.000
378.581;   -7.300;  -67.000; -110.000
378.711;   94.150; 1035.000;  866.000
378.841;  -53.625; -533.000; -675.000
378.972; -104.650; -871.000; -751.000
379.102;  -57.875; -652.000; -579.000
379.232;  -16.450; -126.000;  -73.000
379.362; -118.700;-1001.000; -885.000
379.492;  -60.250; -373.000; -424.000
379.623;   36.975;    0.000;  111.000
379.753; -110.125;-1107.000; -974.000
379.883;   64.825;   59.000;  156.000
380.013;  -91.650;-1081.000;-1017.000
380.143; -103.825;-1097.000;-1056.000
380.273; -105.075; -985.000; -861.000
380.403;    6.475; -344.000; -257.000
380.533;  -39.350; -651.000; -664.000
380.663;   23.250;  173.000;  128.000
380.793; -134.200;-1027.000;-1074.000
380.923;  -30.250; -103.000;  -34.000
381.053;  -81.000; -613.000; -623.000
381.183;  -48.775; -106.000; -248.000
381.313;  -55.150; -656.000; -470.000
381.443;  -53.400; -692.000; -473.000
381.573;  -18.925; -402.000; -409.000
381.703;  -87.800;-1249.000;-1095.000
381.833; -169.350;-1454.000;-1336.000
381.963;   21.500; -134.000;  -87.000
382.093;  309.325; -925.000; -909.000
382.223;   78.025; -713.000; -602.000
382.353;  -71.825; -801.000; -608.000
382.482;  -14.300;-1091.000; -964.000
382.612;  133.375; -872.000; -644.000
382.742;   68.300; -695.000; -622.000
382.872;   -7.325; -565.000; -551.000
383.002;   26.125;  347.000; -132.000
383.131;  -22.650; -226.000; -160.000
383.261;  -34.150; -706.000; -768.000
383.391;  306.725; -552.000; -377.000
383.521; 4985.550;  451.000;  263.000
383.650; 1546.125; -947.000; -904.000
383.780;   54.575; -783.000; -656.000
383.910;   94.300;  880.000;  802.000
384.039;  -83.500; -794.000; -656.000
384.169;  -79.850;-1205.000;-1017.000
384.299;  -78.125; -650.000; -662.000
384.428; -113.800; -764.000; -680.000
384.558;  -69.675; -308.000; -275.000
384.687;  -62.250; -414.000; -334.000
384.817;   10.050;   75.000;   -2.000
384.947;  -24.275; -234.000; -141.000
385.076;  165.900;  982.000;  912.000
385.206;   63.425;  369.000;  480.000
385.335;  -60.550; -549.000; -417.000
385.465;  -91.750; -655.000; -663.000
385.594;   21.300;  -53.000;  -44.000
385.724;   41.475; -868.000; -838.000
385.853;  -20.375; -296.000; -270.000
385.982;  289.750; -743.000; -787.000
386.112;  552.750;-1052.000; -871.000
386.241;   18.100; -307.000; -312.000
386.371;  -20.825; -174.000;  -87.000
386.500;  -63.975; -825.000; -789.000
386.629;  -12.425; -874.000; -817.000
386.759;   88.550;  -43.000;   68.000
386.888;    1.600; -170.000; -250.000
387.017;  -77.125; -648.000; -620.000
387.147;  -97.450; -771.000; -798.000
387.276;  -50.000; -410.000; -397.000
387.405;  -43.700; -398.000; -342.000
387.535;  -72.575; -452.000; -361.000
387.664;  -60.075; -692.000; -620.000
387.793;  -26.200; -198.000; -113.000
387.922;  131.575;  255.000;  200.000
388.052;  -38.325; -576.000; -423.000
388.181;  -43.850; -342.000; -472.000
388.310;  -60.050; -889.000; -710.000
388.439;  -97.100; -749.000; -742.000
388.568;   48.125;  365.000;  244.000
388.697;  207.900; -756.000; -653.000
388.826;   -7.150; -768.000; -666.000
388.956;  -17.750; -285.000; -307.000
389.085;  -49.875; -347.000; -287.000
389.214; -112.350; -842.000; -872.000
389.343;  -58.475; -645.000; -413.000
389.472;  574.000;  126.000;  149.000
389.601;  648.025;   91.000;    0.000
389.730;  -16.400; -568.000; -687.000
389.859;   26.550;  226.000;   46.000
389.988;   17.125; -423.000; -408.000
390.117;   36.750; -168.000; -146.000
390.246;  -32.700; -331.000; -320.000
390.375;  -55.925; -673.000; -626.000
390.504;  -74.250; -703.000; -621.000
390.633; -109.050; -672.000; -726.000
390.761;  -85.875; -732.000; -645.000
390.890;  -17.700;   -4.000; -130.000
391.019;  -55.175; -421.000; -441.000
391.148; -115.975; -826.000; -855.000
391.277;  -81.650; -576.000; -493.000
391.406;  -96.925; -821.000; -805.000
391.534;   27.575;  574.000; -301.000
391.663;  -75.900; -583.000; -645.000
391.792;  -98.350; -673.000; -701.000
391.921;    6.425;   -3.000;   15.000
392.050;    0.875; -287.000; -228.000
392.178; -131.425;-1206.000;-1061.000
392.307;  -44.500; -758.000; -712.000
392.436;  -42.125; -427.000; -641.000
392.564;   11.800;  166.000;   -6.000
392.693;  -92.300; -860.000; -682.000
392.822;   14.175; -529.000; -534.000
392.950;  -39.500; -880.000; -714.000
393.079;   48.175; -188.000; -328.000
393.208;  -39.250; -488.000; -511.000
393.336;  -23.225; -170.000; -145.000
393.465;  -30.900; -317.000; -199.000
393.593;   -3.625;   62.000;   79.000
393.722; -142.350;-1121.000; -916.000
393.850;  -30.000; -188.000;  -61.000
393.979; -138.850; -926.000; -805.000
394.107;  -56.275; -517.000; -537.000
394.236;  -34.050; -570.000; -507.000
394.364;   97.425;  383.000;  206.000
394.493;   56.950; -911.000; -767.000
394.621;   12.950; -955.000; -916.000
394.750; 1206.800; -873.000; -923.000
394.878; 4631.500; -247.000; -149.000
395.007; 6882.625; -721.000; -807.000
395.135;  643.850; -790.000; -721.000
395.263;  -41.600;-1038.000;-1040.000
395.392;    4.400;  -25.000; -107.000
395.520; -125.000; -818.000; -679.000
395.648; -113.975; -865.000; -915.000
395.777;  -66.250; -366.000; -405.000
395.905;  -77.200; -449.000; -564.000
396.033;   -7.725;  217.000;  172.000
396.162;   76.600; -399.000; -453.000
396.290;   81.475;  -17.000;   -2.000
396.418;  -53.900; -555.000; -514.000
396.546;  -80.325; -571.000; -466.000
396.674; -128.025; -850.000; -878.000
396.803;  -19.225;  -72.000;  -23.000
396.931;  -22.700; -179.000; -199.000
397.059; -137.150;-1026.000; -989.000
397.187; -135.600;-1026.000; -975.000
397.315; -129.975; -884.000; -649.000
397.443;  -81.475; -592.000; -443.000
397.572;  -85.925; -578.000; -424.000
397.700;  -77.775; -607.000; -614.000
397.828;  -52.475;  120.000;  -90.000
397.956;  -32.875; -508.000; -478.000
398.084;  -15.750; -767.000; -626.000
398.212;    5.200;  137.000;  124.000
398.340;  -27.050;  -56.000;  159.000
398.468;  -64.900; -390.000; -169.000
398.596; -129.650; -993.000; -953.000
398.724; -113.475; -762.000; -767.000
398.852; -145.300;-1024.000; -976.000
398.980;  -85.225; -560.000; -560.000
399.108; -105.425; -982.000; -735.000
399.236;  -19.250;   13.000;    8.000
399.363;   -1.175;  222.000;  196.000
399.491;  -64.975; -404.000; -398.000
399.619; -111.925; -829.000; -800.000
399.747; -114.050; -859.000; -771.000
399.875;   39.875;  220.000;  234.000
400.003;  -65.600; -359.000; -284.000
400.130;  -92.525; -421.000; -341.000
400.258;  -24.650;  -83.000;   38.000
400.386;  -68.975; -352.000; -168.000
400.514;  -99.925; -526.000; -587.000
400.641; -141.650; -928.000; -802.000
400.769; -142.525; -979.000; -888.000
400.897; -117.725; -838.000; -793.000
401.025;  -53.400; -166.000; -152.000
401.152;   -7.975;  220.000;   38.000
401.280;  -84.525; -430.000; -429.000
401.408; -109.600; -712.000; -576.000
401.535; -111.650; -735.000; -758.000
401.663; -172.450;-1134.000;-1054.000
401.790;  -79.650; -514.000; -525.000
401.918;   39.400;  436.000;  405.000
402.046;  -10.175;  134.000;  122.000
402.173;  -26.800;  -18.000;    7.000
402.301;  -55.175; -519.000; -397.000
402.428;   37.375;  528.000;  383.000
402.556; -124.450;-1188.000; -913.000
402.683;  -22.950;  -20.000;   -1.000
402.811;  -14.500;  -37.000; -206.000
402.938;  -14.625;   20.000;   27.000
403.066;   -6.250; -574.000; -558.000
403.193;   97.125;  299.000;  239.000
403.321;   50.375; -396.000; -574.000
403.448;  131.250;   83.000;   27.000
403.575;   48.525;  -90.000;  -46.000
403.703;  -88.000; -732.000; -557.000
403.830;  -38.275; -531.000; -496.000
403.957; -118.950;-1117.000;-1023.000
404.085;   36.025;  -61.000; -172.000
404.212;  130.950;  -50.000;   63.000
404.339;  482.500; -566.000; -306.000
404.467; 9253.025; -612.000; -524.000
404.594; 5799.125; -287.000; -227.000
404.721; 1027.450; -869.000; -764.000
404.848;  115.000; -113.000; -202.000
404.976;  -91.850; -856.000; -783.000
405.103;    3.550;  -14.000;  -82.000
405.230;   14.950;  190.000;  226.000
405.357;   63.225;  117.000;   44.000
405.484;  440.975;  -49.000;    5.000
405.612;  138.600; -548.000; -563.000
405.739;  -37.325; -488.000; -243.000
405.866;   84.475;  669.000;  385.000
405.993;  -42.175; -398.000; -102.000
406.120; -137.875; -801.000; -887.000
406.247;  -53.550; -323.000; -342.000
406.374;  105.725;  540.000;  629.000
406.501;  -67.925; -632.000; -702.000
406.628;  -88.200; -621.000; -589.000
406.755; -112.425; -803.000; -620.000
406.882;  -54.450; -228.000; -277.000
407.009;  -96.925; -719.000; -628.000
407.136;  -26.775; -480.000; -401.000
407.263;  -33.350; -939.000; -829.000
407.390;  -89.100; -692.000; -614.000
407.517; -171.850;-1139.000;-1187.000
407.644;  -63.100; -332.000; -256.000
407.771;  -66.025; -249.000; -287.000
407.898;    3.225;  168.000;  328.000
408.025;  -68.200; -421.000; -313.000
408.151;  -14.150;   82.000;  153.000
408.278;  -64.875; -267.000; -216.000
408.405; -126.775; -931.000; -899.000
408.532;  -86.450; -549.000; -542.000
408.659; -109.375; -677.000; -648.000
408.785; -187.275;-1298.000;-1170.000
408.912;  -65.825; -412.000; -296.000
409.039; -103.325; -610.000; -686.000
409.166;  -95.725; -591.000; -555.000
409.292;  -95.650; -571.000; -534.000
409.419; -108.875; -665.000; -649.000
409.546;  -79.400; -431.000; -192.000
409.672; -100.350; -713.000; -545.000
409.799;  -22.675;  -36.000;   34.000
409.926;  -50.675; -180.000; -179.000
410.052; -160.150;-1127.000;-1091.000
410.179;  -73.450; -368.000; -392.000
410.305;  -72.525; -375.000; -493.000
410.432;  -28.825; -220.000; -333.000
410.558;  -77.925; -305.000; -380.000
410.685;  -91.450; -688.000; -431.000
410.812; -101.500; -409.000; -588.000
410.938; -129.150; -964.000; -808.000
411.065;  -94.550; -671.000; -645.000
411.191;  -29.400; -189.000; -174.000
411.317; -144.250; -823.000; -742.000
411.444;  -49.525; -317.000; -246.000
411.570;  -72.250; -339.000; -294.000
411.697; -117.850; -758.000; -752.000
411.823; -170.050; -989.000; -999.000
411.949;  -56.425;  -56.000;   17.000
412.076;  -99.775; -539.000; -519.000
412.202; -115.575; -758.000; -757.000
412.329; -127.975; -798.000; -752.000
412.455; -109.925; -821.000; -657.000
412.581;  -25.800;  -15.000;  172.000
412.707;  -83.250; -540.000; -457.000
412.834;   -7.650;  156.000;  219.000
412.960; -103.400; -785.000; -784.000
413.086; -109.000; -743.000; -701.000
413.212;  121.950;  604.000;  578.000
413.339;  -79.225; -685.000; -701.000
413.465;  -54.250; -364.000; -310.000
413.591; -108.775; -757.000; -474.000
413.717;  -46.200; -358.000; -366.000
413.843; -117.150; -839.000; -861.000
413.969;  -38.775;  -47.000; -292.000
414.096;  -96.000; -679.000; -679.000
414.222;   -7.550;  -33.000;   85.000
414.348;  -64.800; -652.000; -385.000
414.474;    4.925;   38.000;  -52.000
414.600;  -17.725; -126.000; -144.000
414.726;   16.100;  -96.000;  -55.000
414.852;  -29.575; -365.000; -342.000
414.978;   43.350;  104.000;  -18.000
415.104;   63.700;   38.000;   80.000
415.230;   52.775; -329.000; -330.000
415.356;   73.625; -409.000; -514.000
415.482;  239.100;   13.000;  -35.000
415.608;  428.375; -247.000; -323.000
415.734; 1401.575;   67.000;   38.000
415.860;28794.900; -875.000; -767.000
415.986;24238.025; -685.000; -607.000
416.111; 2307.475; -798.000; -652.000
416.237;  521.375; -424.000; -571.000
416.363; 1688.925; -765.000; -733.000
416.489; 7026.200; -324.000; -251.000
416.615;  998.400; -707.000; -742.000
416.741;   68.125; -677.000; -784.000
416.866;  -39.050; -673.000; -736.000
416.992;  -89.825; -801.000; -818.000
417.118;  -11.425;  -41.000;  -80.000
417.244;  -55.100; -798.000; -531.000
417.369;  -61.025; -801.000; -612.000
417.495;   -6.825; -325.000; -254.000
417.621;  -58.900;-1015.000; -803.000
417.746;   27.600; -579.000; -572.000
417.872;   89.650; -254.000; -144.000
417.998;  143.425; -515.000; -530.000
418.123; 1592.125;-1073.000; -845.000
418.249; 8950.575; -512.000; -601.000
418.374; 1616.150; -916.000; -824.000
418.500;  277.775; -383.000; -482.000
418.626;  183.400;   70.000;  -59.000
418.751;  183.925; -549.000; -448.000
418.877;  365.900; -637.000; -643.000
419.002; 2647.050; -688.000; -560.000
419.128;20152.650; -930.000; -721.000
419.253; 5888.450; -967.000; -837.000
419.379;  814.525; -391.000; -338.000
419.504;  621.575;  325.000;  415.000
419.629;  870.100; -393.000; -212.000
419.755; 5380.050; -317.000; -254.000
419.880;35635.300;  -98.000;   67.000
420.006;18095.025; -280.000; -221.000
420.131;45194.600; -662.000; -775.000
420.256; 7507.675; -315.000; -316.000
420.382; 1047.250; -665.000; -687.000
420.507;  197.800; -649.000; -778.000
420.632;   62.125; -337.000; -339.000
420.758;   62.950; -251.000; -425.000
420.883;  -86.575; -876.000; -672.000
421.008;  -86.950; -775.000; -619.000
421.133;  -83.425; -509.000; -467.000
421.259;  -36.025; -325.000; -259.000
421.384; -116.975; -834.000; -693.000
421.509; -110.300;-1052.000; -862.000
421.634;  156.925; -936.000; -820.000
421.759;  104.125; -359.000; -327.000
421.885; -101.275; -717.000; -656.000
422.010;  -76.575; -673.000; -542.000
422.135; -143.625; -695.000; -727.000
422.260;   29.500;  340.000;  280.000
422.385;  -37.600;   12.000;  -98.000
422.510;    1.600;  151.000;  -26.000
422.635;  -10.875;  -87.000;  -43.000
422.760;  -34.600; -766.000; -791.000
422.885;   34.550;  -57.000;  -80.000
423.010;  -27.200; -112.000; -169.000
423.135;  -76.725; -481.000; -561.000
423.260;  -46.375; -150.000; -245.000
423.385;   24.100;  476.000;  222.000
423.510;   23.125;   71.000;  -22.000
423.635;    9.525;  133.000;   45.000
423.760;   61.200;  383.000;  328.000
423.885;   39.625;  336.000;  391.000
424.010;    3.975;  -68.000;  -13.000
424.135;   -7.225;    5.000;  -33.000
424.259;  -72.900; -654.000; -457.000
424.384;  -39.900; -279.000; -272.000
424.509;   -9.675; -260.000; -186.000
424.634;  -76.925; -761.000; -623.000
424.759;  -44.575; -688.000; -544.000
424.883;    6.050; -506.000; -527.000
425.008;  213.450; -502.000; -410.000
425.133; 2967.575; -679.000; -653.000
425.258; 1654.700; -517.000; -381.000
425.382;  476.375; -867.000; -774.000
425.507;  999.975; -487.000; -543.000
425.632;  384.350; -802.000; -663.000
425.756;  732.400; -256.000; -146.000
425.881; 9998.575; -831.000; -857.000
426.006;31593.450; -604.000; -355.000
426.130; 5348.450; -696.000; -508.000
426.255;  731.325; -611.000; -491.000
426.379;  310.000; -189.000; -577.000
426.504;  521.025;  660.000;  544.000
426.629; 5913.250; -519.000; -466.000
426.753; 4794.325;   64.000;  -46.000
426.878;  610.425; -252.000; -288.000
427.002;  337.850; -651.000; -668.000
427.127; 2088.425;  -35.000; -158.000
427.251;17779.725;  372.000;  401.000
427.375; 5934.475; -191.000; -173.000
427.500; 1258.250; -616.000; -610.000
427.624;  382.625; -234.000; -400.000
427.749;  112.650; -216.000; -225.000
427.873;    4.500; -499.000; -412.000
427.997;  -37.225; -222.000; -230.000
428.122;   76.725;  795.000;  703.000
428.246;   40.675;  433.000;  434.000
428.371; -121.950; -869.000; -773.000
428.495; -110.400; -624.000; -646.000
428.619;  -39.850; -186.000; -117.000
428.743;   17.825;   65.000;  132.000
428.868;  -78.850; -732.000; -643.000
428.992;  405.375; -219.000; -326.000
429.116;  171.600; -329.000; -357.000
429.240;  119.950;  419.000;  426.000
429.365;  -25.575; -454.000; -574.000
429.489;  -57.700; -638.000; -647.000
429.613;   53.100; -236.000; -177.000
429.737;  101.925; -563.000; -432.000
429.861;  402.450; -247.000; -133.000
429.985; 8179.125; -425.000; -305.000
430.109;10726.175; -770.000; -908.000
430.234; 1353.950;   76.000;  -50.000
430.358;  205.300; -250.000; -160.000
430.482;   -1.700; -672.000; -564.000
430.606;  -53.850; -655.000; -375.000
430.730;  -39.775; -437.000; -388.000
430.854;  -64.675; -909.000; -835.000
430.978;  -76.300; -795.000; -764.000
431.102;  -74.875; -499.000; -422.000
431.226;  -92.000; -874.000; -815.000
431.350;   27.425;  345.000;  422.000
431.474;  -78.200; -661.000; -373.000
431.597; -149.850;-1060.000; -848.000
431.721;  -69.400; -276.000; -267.000
431.845; -103.175; -704.000; -472.000
431.969;  -78.225; -304.000; -349.000
432.093;  -81.950; -395.000; -317.000
432.217;  -16.075;   32.000;   82.000
432.341;  -77.350; -523.000; -518.000
432.464;    2.875;   96.000;   40.000
432.588;  -18.950; -401.000; -329.000
432.712;   33.750;  -52.000;  -52.000
432.836;   73.250;  213.000;  263.000
432.959;   46.675; -372.000; -311.000
433.083;  191.475;   11.000;    2.000
433.207;  608.950;  285.000;  930.000
433.330; 7792.900; -391.000; -200.000
433.454;11152.250; -654.000; -638.000
433.578; 6096.725;  583.000;  278.000
433.701; 1371.175; -623.000; -675.000
433.825;  198.950; -292.000; -299.000
433.949;   65.300;   28.000;  -72.000
434.072;   -3.925; -410.000; -323.000
434.196;    3.700; -309.000; -117.000
434.319; 3451.350;25482.000;25124.000
434.443;  910.050; -656.000; -603.000
434.566; 4263.675;  281.000;   62.000
434.690;  967.950; -637.000; -383.000
434.813;  196.950; -251.000; -173.000
434.937;  -20.775; -569.000; -696.000
435.060;  -76.425; -423.000; -332.000
435.184;    4.000; -492.000; -217.000
435.307;   16.325;  159.000;  102.000
435.431;  -21.075;  -40.000;   24.000
435.554;  -57.675; -399.000; -240.000
435.677;  -67.000; -350.000; -258.000
435.801;  -42.325;  -25.000;   49.000
435.924;  -29.375;    1.000;  -67.000
436.048; -135.275;-1019.000; -732.000
436.171;  -73.000; -240.000;  -66.000
436.294;   -7.625; -248.000; -229.000
436.417;  250.300; -963.000; -849.000
436.541;    1.200; -814.000; -840.000
436.664;  -37.600; -242.000; -316.000
436.787;  -23.850;   13.000;  113.000
436.910; -113.825; -792.000; -422.000
437.034;   14.200;  142.000;  143.000
437.157;   34.900;  -11.000;    0.000
437.280;  -66.875; -392.000; -292.000
437.403; -134.025; -982.000; -869.000
437.526;    0.550; -903.000; -865.000
437.649;  457.075; -505.000; -332.000
437.772;    6.175; -692.000; -540.000
437.896;   45.125;  700.000;  544.000
438.019;  -92.250; -758.000; -503.000
438.142;  -92.025; -596.000; -506.000
438.265; -117.875; -639.000; -670.000
438.388;   32.650; -520.000; -410.000
438.511;  -58.050; -597.000; -394.000
438.634;  -63.475; -247.000; -125.000
438.757; -124.975; -693.000; -619.000
438.880;  -55.150;  -34.000;  -57.000
439.003;  -83.000; -417.000; -437.000
439.126;  -58.850; -287.000; -167.000
439.248;  -70.600;  -98.000; -139.000
439.371;  -32.850;    9.000;  -53.000
439.494;   20.400;  510.000;  439.000
439.617;  -47.100;   65.000;  -88.000
439.740; -164.850; -968.000; -816.000
439.863; -130.375; -755.000; -595.000
439.986; -106.600; -476.000; -431.000
440.108;  -31.650; -161.000; -112.000
440.231; -170.700; -950.000; -836.000
440.354;  -67.475;  -64.000; -150.000
440.477; -102.850; -566.000; -542.000
440.599;  -82.850; -200.000; -225.000
440.722; -119.875; -709.000; -586.000
440.845;   48.975;  751.000;  928.000
440.968; -107.600; -415.000; -311.000
441.090;  -68.975; -199.000;  -33.000
441.213; -148.425;-1021.000; -825.000
441.336;  -47.025; -159.000;   -5.000
441.458;  -94.125; -549.000; -396.000
441.581; -123.125; -628.000; -629.000
441.703;  -71.325; -152.000;   13.000
441.826;  -98.650; -557.000; -400.000
441.948;  -64.400;   56.000;   51.000
442.071;   20.925;  555.000;  424.000
442.193; -121.900; -531.000; -485.000
442.316;    0.425;  152.000;   97.000
442.438;   71.700; -233.000;  -10.000
442.561;   78.300;  272.000;  262.000
442.683;   56.250; -809.000; -522.000
442.806;  257.275;   -8.000;   74.000
442.928; -105.975; -859.000; -604.000
443.051;  -76.550; -577.000; -373.000
443.173; -103.550; -341.000; -339.000
443.295;  -79.775; -263.000; -371.000
443.418;  -81.750; -321.000;  -29.000
443.540;  -30.650; -106.000;   -4.000
443.662; -128.650; -563.000; -465.000
443.785;  -23.875;  335.000;  199.000
443.907;  -92.200; -362.000; -208.000
444.029; -127.300; -767.000; -494.000
444.152; -134.700; -644.000; -554.000
444.274;  -43.825;  -18.000;  -24.000
444.396; -115.250; -461.000; -221.000
444.518; -136.700; -691.000; -454.000
444.640;  -98.525; -268.000; -111.000
444.763;  -19.075;  388.000;  249.000
444.885; -106.800; -432.000; -392.000
445.007;  -29.050;   35.000;   86.000
445.129; -117.775; -610.000; -515.000
445.251; -102.875; -372.000; -439.000
445.373; -142.675; -537.000; -386.000
445.495;  -11.050;  242.000;  350.000
445.617;   37.275;  853.000;  753.000
445.739;  -74.825; -215.000;  -97.000
445.861;  -55.175; -245.000; -112.000
445.984;  -64.575; -267.000; -101.000
446.105;  -29.950; -418.000; -251.000
446.227;   93.675; -176.000;  -19.000
446.349;  -64.875; -358.000; -249.000
446.471; -121.900; -615.000; -448.000
446.593;  -76.850; -316.000;   19.000
446.715;  -51.725;  -67.000;   41.000
446.837;   38.925;  697.000;  832.000
446.959; -113.200; -457.000; -478.000
447.081; -133.050; -628.000; -518.000
447.203;   43.625;  862.000;  834.000
447.325;  -84.050; -270.000;   42.000
447.446;    6.450;  286.000;  530.000
447.568; -155.800; -921.000; -803.000
447.690;  -92.050; -236.000; -245.000
447.812; -142.750; -798.000; -519.000
447.933;  -34.300;  155.000;  127.000
448.055;  -64.425; -306.000; -261.000
448.177;   28.450;   31.000;   79.000
448.299;  -92.250; -935.000; -727.000
448.420;   -4.925;  -25.000;  159.000
448.542;  -56.075;   -3.000;   33.000
448.664;  -24.975;  109.000;  322.000
448.785;  -44.625;  265.000;   83.000
448.907;  -97.625; -614.000; -353.000
449.028; -102.650; -771.000; -471.000
449.150;   42.925;  492.000;  589.000
449.272; -171.075;-1044.000; -913.000
449.393;   24.925;  612.000;  694.000
449.515; -123.725; -634.000; -581.000
449.636;  -63.575; -264.000; -155.000
449.758;   38.325;  763.000;  622.000
449.879;  -80.275; -498.000; -396.000
450.001;  -61.600; -149.000;  -49.000
450.122;  -28.125;  -95.000;  162.000
450.244;   -6.025;   37.000;  364.000
450.365;  -59.025; -495.000; -301.000
450.486;    6.400;   80.000;  268.000
450.608;   38.675;  393.000;  326.000
450.729;  128.075;  578.000;  645.000
450.850;  123.575; -574.000; -466.000
450.972; 1259.750; -552.000; -389.000
451.093; 8080.325;  190.000;  588.000
451.214; 4315.425; -516.000; -337.000
451.336;  753.850;  773.000;  579.000
451.457;  112.300;  264.000;  393.000
451.578;  -16.725; -118.000;  -74.000
451.699;  -86.825; -546.000; -540.000
451.821;  -49.825; -284.000;  -50.000
451.942;   24.450;  278.000;  285.000
452.063;   69.600;  228.000;  419.000
452.184;  841.900;  -54.000;  -49.000
452.305; 1812.175;  103.000;  170.000
452.427;  382.000; -549.000; -301.000
452.548;   15.375;   23.000;   79.000
452.669;  -53.825; -257.000;  -89.000
452.790;  -62.675;    3.000;  -18.000
452.911;  -16.250;  195.000;  259.000
453.032;  -70.550; -289.000;  -60.000
453.153;  -60.025;  -29.000;   81.000
453.274;   57.075;  737.000;  868.000
453.395;  -60.050;  -51.000;  175.000
453.516;   74.350; 1317.000; 1388.000
453.637;  -94.625; -205.000; -150.000
453.758;  -38.275;   15.000;   69.000
453.879; -107.350; -462.000; -250.000
454.000;   58.225; 1086.000;  948.000
454.121; -112.475; -554.000; -326.000
454.242; -106.275; -599.000; -383.000
454.362;  -43.225;  -99.000;  114.000
454.483;    4.100; -309.000; -229.000
454.604;   83.225;  512.000;  580.000
454.725; -114.400; -627.000; -555.000
454.846; -129.525; -474.000; -406.000
454.967;  -31.450;  230.000;  539.000
455.087;  -39.050;  179.000;  153.000
455.208;   25.300;  554.000;  856.000
455.329;  -52.650;  -22.000;   82.000
455.450;   54.350;  473.000;  633.000
455.570;  -52.525; -234.000; -211.000
455.691;  -49.500;  201.000;  407.000
455.812; -101.950; -270.000;  -92.000
455.932;  -56.850;  107.000;  -97.000
456.053;  -62.800;   36.000;   24.000
456.173; -104.550; -433.000; -355.000
456.294; -127.400; -476.000; -303.000
456.415;  -58.150;  -73.000;   70.000
456.535;  -35.800;  297.000;  273.000
456.656;  -38.075;  132.000;  240.000
456.776;  -59.500;    3.000;  298.000
456.897;   -0.650;  308.000;  513.000
457.017;  -54.750; -153.000;   -3.000
457.138;  -97.050; -402.000; -249.000
457.258;  -32.450;  263.000;  224.000
457.379;   -7.850;  509.000;  521.000
457.499;  -24.175;  443.000;  432.000
457.620; -120.200; -407.000; -231.000
457.740;  -86.200; -132.000;  -11.000
457.860;  -52.050;   87.000;   44.000
457.981;  -35.450;  132.000;  124.000
458.101;  -74.775;  -89.000;   40.000
458.221;  -11.475;  336.000;  402.000
458.342;  -44.725;   -4.000;  -37.000
458.462;   60.650;  617.000;  352.000
458.582;   20.450; -302.000; -294.000
458.703;   65.700;  303.000;  154.000
458.823;   27.575;   22.000;  163.000
458.943;   63.650;  341.000;  467.000
459.063;   36.975; 1124.000;  192.000
459.183;  -14.800;  328.000;  313.000
459.304;   17.500;  315.000;  517.000
459.424;  -32.150; -246.000;  -89.000
459.544;  484.675;  388.000;  764.000
459.664; 1343.425;  499.000;  506.000
459.784;  562.375; 1004.000; 1175.000
459.904;  100.800;  867.000;  744.000
460.024;   49.325;  867.000;  684.000
460.144;    0.175;  449.000;  554.000
460.264;   -7.425;  515.000;  327.000
460.385;  -68.600; -145.000; -119.000
460.505;   37.250;  905.000;  858.000
460.625;  -81.450;  -17.000;  -68.000
460.745;   -9.650;  396.000;  541.000
460.864;  -26.875;  153.000;  469.000
460.984;   58.100;  499.000;  573.000
461.104;  152.725; 1656.000; 1775.000
461.224;   18.550;  657.000;  650.000
461.344;  -32.575;  431.000;  360.000
461.464;  -20.950;  258.000;  513.000
461.584;  -39.350;  283.000;  466.000
461.704;  -57.300;   58.000;  108.000
461.824;  -55.625;  238.000;  259.000
461.943;  -49.575;  191.000;  130.000
462.063;  -63.575;    2.000;  324.000
462.183;   29.450;  639.000;  717.000
462.303;   77.375; 1678.000; 1230.000
462.422;   35.150;  781.000;  840.000
462.542;  -36.425;  271.000;  391.000
462.662;   43.775;  353.000;  380.000
462.782;  367.000;  833.000;  572.000
462.901;  776.150;  545.000;  717.000
463.021;  412.325; 1702.000; 1638.000
463.141;   16.900;  337.000;  770.000
463.260;  -12.125;  614.000;  474.000
463.380;   14.325;  902.000;  884.000
463.499;  -34.475;  342.000;  332.000
463.619;  -18.125;  581.000;  559.000
463.738;  105.775; 1644.000;  903.000
463.858;   10.300;  657.000;  811.000
463.978;  -33.075;  542.000;  396.000
464.097;   51.950;  921.000; 1114.000
464.217;  133.500; 1196.000; 1143.000
464.336;  164.250; 1068.000; 1130.000
464.455;  -19.425;  328.000;  659.000
464.575;   11.850;  597.000;  602.000
464.694;  128.575; 1204.000; 1179.000
464.814;  158.550; 1190.000; 1138.000
464.933;   88.600; 1095.000; 1027.000
465.052;   89.850; 1412.000; 1054.000
465.172;   80.275;  922.000;  799.000
465.291;  118.525; 1376.000; 1320.000
465.410;    2.700;  462.000;  735.000
465.530;   62.450; 1355.000; 1310.000
465.649;   55.600; 1209.000; 1273.000
465.768;  137.375; 1673.000; 1508.000
465.888;   86.725;  941.000; 1174.000
466.007;  102.275; 1335.000; 1440.000
466.126;    7.575;  721.000;  641.000
466.245;   47.425; 1176.000; 1187.000
466.364;   32.800;  950.000; 1060.000
466.484;   44.250; 1024.000; 1213.000
466.603;   26.500; 1101.000; 1222.000
466.722;  102.600; 1490.000; 1769.000
466.841;   80.100; 1151.000; 1401.000
466.960;   54.700; 1069.000;  972.000
467.079;  134.475; 1971.000; 1786.000
467.198;   57.525; 1238.000; 1181.000
467.317;   92.975; 1768.000; 1162.000
467.436;   81.500; 1709.000; 1261.000
467.555;  129.300; 1796.000; 1746.000
467.674;   69.000; 1227.000; 1329.000
467.793;   58.475; 1376.000; 1374.000
467.912;   95.350; 1658.000; 1539.000
468.031;  140.600; 2038.000; 1930.000
468.150;  145.150; 1842.000; 1837.000
468.269;  192.425; 2313.000; 2090.000
468.388;  172.800; 2168.000; 2339.000
468.507;  251.125; 2884.000; 2903.000
468.626;  241.350; 2555.000; 2541.000
468.744;  137.400; 2018.000; 2174.000
468.863;  189.475; 2312.000; 2523.000
468.982;   94.325; 1503.000; 1555.000
469.101;  215.950; 2788.000; 2692.000
469.220;  156.075; 2333.000; 2176.000
469.338;  257.975; 2935.000; 3051.000
469.457;  184.700; 2719.000; 2545.000
469.576;  347.575; 3953.000; 3784.000
469.695;  256.725; 2877.000; 3066.000
469.813;  419.400; 4148.000; 4192.000
469.932;  406.725; 4255.000; 4485.000
470.051;  443.300; 4075.000; 4161.000
470.169; 1049.625; 4470.000; 4338.000
470.288; 2062.800; 4700.000; 4809.000
470.406; 1225.725; 5059.000; 5194.000
470.525;  653.725; 6101.000; 5787.000
470.644;  642.200; 6847.000; 6794.000
470.762;  816.300; 8397.000; 7873.000
470.881;  912.025; 8651.000; 8464.000
470.999; 1085.725; 9685.000; 9151.000
471.118; 1133.425;11174.000;10711.000

