
Integration time [ms]: 100.000
Averaging Nr. [scans]: 40
Smoothing Nr. [pixels]: 0
Data measured with spectrometer [name]: 2101012U2
Wave   ;Sample   ;Dark     ;Reference
[nm]   ;[counts] ;[counts] ;[counts] 

197.733;   79.850;  516.000;  404.000
197.879;  -81.325; -610.000; -634.000
198.025;  -39.350; -475.000; -420.000
198.171;  -59.075; -602.000; -612.000
198.317;  -14.550; -401.000; -316.000
198.463;  -53.100; -655.000; -404.000
198.609;   33.850;  181.000; -137.000
198.755;  -86.750; -644.000; -410.000
198.901;  -55.625; -505.000; -424.000
199.047;  -66.325; -615.000; -488.000
199.193;  -19.750; -230.000; -468.000
199.339;  -39.400; -222.000; -369.000
199.485;   35.325;  330.000;  271.000
199.631;   20.875;  227.000;  310.000
199.777;  -37.475; -466.000; -398.000
199.923;  -61.975; -610.000; -424.000
200.069;   -1.525; -141.000;  -58.000
200.215;   59.275;  128.000;  453.000
200.361;   60.325;  243.000;  477.000
200.507;  -59.225; -600.000; -373.000
200.653;  -14.675; -371.000; -194.000
200.798;  -35.525; -215.000; -125.000
200.944;   -4.025; -146.000;  -41.000
201.090;   39.475;   61.000;  222.000
201.236;    4.125; -116.000; -158.000
201.382;  129.900;  874.000;  903.000
201.528;    3.950;  -58.000;  -48.000
201.674;  -60.325; -386.000; -293.000
201.819;  -48.050; -540.000; -439.000
201.965;  -75.275; -699.000; -447.000
202.111;  -21.800; -273.000; -226.000
202.257;  -45.900; -250.000; -238.000
202.402;   16.275;   13.000;  -36.000
202.548;  -36.250; -169.000; -116.000
202.694;   95.925;  410.000; -183.000
202.840;  -78.600; -603.000; -531.000
202.985;  -73.650; -681.000; -639.000
203.131; -112.675; -832.000; -666.000
203.277;  -13.725; -199.000; -262.000
203.423;  -50.875; -434.000; -520.000
203.568;  -38.375; -462.000; -237.000
203.714;  -63.125; -535.000; -542.000
203.860;  -68.725; -682.000; -641.000
204.005;   12.625;  112.000;  167.000
204.151;   87.475;  561.000;  556.000
204.296;  -38.625; -354.000; -221.000
204.442;  -67.025; -600.000; -547.000
204.588;  -66.100; -592.000; -579.000
204.733;   24.250;  178.000;  168.000
204.879; -119.275;-1018.000; -822.000
205.025;   12.225;  -99.000;  126.000
205.170;   -6.500;  -17.000;   94.000
205.316;   82.450;  438.000;  661.000
205.461;  -87.225; -698.000; -554.000
205.607;  111.275;  609.000;  665.000
205.752;  -82.875; -626.000; -551.000
205.898;  -48.900; -501.000; -391.000
206.043;  -68.100; -578.000; -506.000
206.189;  -23.325; -243.000; -285.000
206.334;   82.875;  554.000;  606.000
206.480;   92.500;  409.000;  239.000
206.625;  -79.150; -529.000; -552.000
206.771;  -37.625; -451.000; -373.000
206.916;  -18.175; -210.000; -537.000
207.062;  -54.675; -545.000; -591.000
207.207;  -47.975; -546.000; -443.000
207.353;   61.025;  185.000;  460.000
207.498;   19.925;  196.000;   85.000
207.643;  -31.425; -501.000; -370.000
207.789; -124.400;-1069.000; -910.000
207.934;  -76.350; -665.000; -713.000
208.080;  -32.025; -154.000;   66.000
208.225;    6.600;  -22.000;  -57.000
208.370;  -87.025; -727.000; -619.000
208.516;  -66.400; -741.000; -487.000
208.661;  -23.725; -127.000;  -69.000
208.806;  -22.600; -165.000; -171.000
208.952; -121.000;-1044.000; -731.000
209.097;   83.500;  378.000;  349.000
209.242;  -47.500; -307.000; -382.000
209.387;   68.325;  392.000;  350.000
209.533;  -46.700; -321.000; -350.000
209.678;   92.925;  472.000;  543.000
209.823;  -67.150; -408.000; -310.000
209.969;  -97.575; -860.000; -757.000
210.114; -111.800; -907.000; -719.000
210.259; -101.050; -939.000; -889.000
210.404;   -5.475; -171.000;  103.000
210.549;   15.275;  108.000;    3.000
210.695;  -21.775;   -3.000;  -95.000
210.840;   33.375;   94.000;   67.000
210.985;  -70.000; -484.000; -303.000
211.130;   77.800;  268.000;  406.000
211.275;   16.725;  207.000;  199.000
211.420;  -38.375; -300.000; -289.000
211.566;  -71.700; -536.000; -489.000
211.711;   39.200;  218.000;  157.000
211.856;  -67.450; -545.000; -519.000
212.001;   15.050;  151.000;   44.000
212.146;   31.475;  153.000;   49.000
212.291;  -16.600; -210.000; -186.000
212.436;  -30.125; -280.000;   -6.000
212.581;  -75.100; -685.000; -653.000
212.726;  -75.025; -487.000; -538.000
212.871;  -42.400; -552.000; -217.000
213.016; -148.300;-1172.000;-1029.000
213.161;   70.500;  406.000;  291.000
213.306;  -60.150; -435.000; -577.000
213.451;  -84.775; -778.000; -689.000
213.596;  -50.575; -455.000; -347.000
213.741;  -53.400; -448.000; -538.000
213.886;  -72.600; -498.000; -517.000
214.031;  -19.775; -294.000; -124.000
214.176;  -51.500; -408.000; -341.000
214.321;  -18.000; -296.000; -157.000
214.466;  -16.425; -163.000;  -43.000
214.611;    7.150;  -61.000;  -10.000
214.756; -123.575; -948.000; -858.000
214.901;  -11.450; -388.000; -226.000
215.046; -115.950; -797.000; -825.000
215.191;   29.125;  128.000;   35.000
215.336;  -10.500; -157.000;  -19.000
215.480;  -65.475; -684.000; -505.000
215.625;  -19.300; -175.000;  -19.000
215.770;  -83.050; -757.000; -662.000
215.915;  -13.350;   -5.000;  -97.000
216.060;    9.100; -113.000;  -21.000
216.205; -111.475; -731.000; -779.000
216.349;  -70.150; -470.000; -533.000
216.494; -140.525; -939.000; -867.000
216.639; -100.350; -823.000; -888.000
216.784;  -89.500; -577.000; -525.000
216.929;   58.875;  392.000;  281.000
217.073;  -13.400; -244.000;  -31.000
217.218;   18.275;   78.000;  -47.000
217.363;  -89.225; -656.000; -618.000
217.507;  -75.375; -623.000; -588.000
217.652; -128.625; -845.000; -874.000
217.797;  -77.475; -708.000; -659.000
217.942; -127.600; -856.000; -720.000
218.086;   86.050;  608.000;  539.000
218.231;  -15.875; -174.000;  -26.000
218.376;  -33.825; -337.000; -229.000
218.520;   -3.725;  -41.000;   96.000
218.665;  -30.050; -338.000; -204.000
218.810;  -52.650; -275.000; -233.000
218.954;   22.175;  201.000;   35.000
219.099; -115.450; -713.000; -963.000
219.243;  -58.075; -589.000; -554.000
219.388;  -16.900; -264.000; -136.000
219.532;   -3.225; -116.000; -116.000
219.677;  -64.900; -564.000; -521.000
219.822;   24.550;   33.000;   89.000
219.966;    3.625;   17.000;  -99.000
220.111;  -18.875; -328.000;  -40.000
220.255;  -99.225; -797.000; -750.000
220.400;  -12.350; -180.000; -146.000
220.544;  -70.825; -516.000; -450.000
220.689;  -41.300; -422.000; -451.000
220.833;  -20.325; -123.000;  -58.000
220.978;  -32.475; -393.000; -563.000
221.122;   35.200;  319.000;  307.000
221.267; -103.400; -906.000; -837.000
221.411;  -64.225; -478.000; -394.000
221.555;    0.800; -104.000;  -23.000
221.700;  -45.250; -329.000; -222.000
221.844;   32.150;  255.000;  272.000
221.989;  -41.050; -328.000; -311.000
222.133;  -19.475; -289.000; -307.000
222.277;   -0.925;    5.000;   78.000
222.422;   31.200;  227.000;  113.000
222.566;  -12.850; -381.000; -214.000
222.711;  -49.550; -414.000; -479.000
222.855;  -78.000; -643.000; -586.000
222.999;  -84.225; -642.000; -717.000
223.144;  -20.575; -195.000; -194.000
223.288;   55.200;  423.000;  251.000
223.432;   27.300;  184.000;  230.000
223.576;   49.650;  152.000;  -21.000
223.721;   44.025;  364.000;  273.000
223.865;  -42.800; -472.000; -475.000
224.009;  255.850; 1673.000; 1631.000
224.153;  -73.825; -660.000; -671.000
224.298;  -76.825; -531.000; -489.000
224.442;   -2.850;  -74.000;  -33.000
224.586;   -5.475; -169.000; -106.000
224.730; -103.275; -858.000; -670.000
224.875; -108.325; -739.000; -688.000
225.019;   29.000;  102.000;  188.000
225.163;   58.075;  208.000;  341.000
225.307;   31.100;   97.000;  -91.000
225.451;   42.050;  360.000;  481.000
225.595;   39.225;  264.000;  176.000
225.739;  -25.600; -170.000;  -94.000
225.884;   10.000;   86.000;    5.000
226.028;  -98.575; -760.000; -626.000
226.172;  -34.500; -260.000; -273.000
226.316; -125.350; -941.000; -902.000
226.460;  -64.775; -645.000; -493.000
226.604;  -58.200; -406.000; -400.000
226.748; -103.950; -836.000; -733.000
226.892;  -29.350; -227.000; -181.000
227.036;  -43.025; -537.000; -447.000
227.180;  -59.325; -551.000; -375.000
227.324;  -53.475; -561.000; -580.000
227.468; -105.200; -819.000; -717.000
227.612;   23.775;  242.000;  -28.000
227.756;  -95.225; -845.000; -698.000
227.900;   65.975;  342.000;  441.000
228.044;  -48.400; -509.000; -290.000
228.188;   56.950;  448.000;  568.000
228.332;  -92.675; -546.000; -472.000
228.476;  -23.200; -223.000; -149.000
228.620;  -49.375; -210.000; -150.000
228.764;   71.425;  431.000;  349.000
228.908;  -16.025; -155.000;   30.000
229.052;  -60.725; -615.000; -528.000
229.195;  -27.125; -172.000;   13.000
229.339;  -31.425; -235.000; -305.000
229.483;  -25.875;    5.000; -162.000
229.627;    4.725; -156.000;  139.000
229.771;  -55.875; -218.000; -294.000
229.915;   19.725;  230.000;   79.000
230.059;  -95.950; -648.000; -663.000
230.202;  -31.600; -370.000; -317.000
230.346;   -9.750; -107.000;  107.000
230.490;  -52.350; -489.000; -521.000
230.634; -109.400; -736.000; -553.000
230.777;   88.025;  478.000;  509.000
230.921;  -43.125; -450.000; -359.000
231.065;  -40.900; -246.000; -286.000
231.209;   18.700;  261.000;  265.000
231.352;   19.400;   54.000;   40.000
231.496;   25.325;  568.000;  188.000
231.640;  -82.525; -693.000; -621.000
231.783;   58.900;  546.000;  525.000
231.927;  -32.775; -294.000; -365.000
232.071; -118.850; -962.000; -736.000
232.214;  -95.125; -980.000; -764.000
232.358;  -97.925; -683.000; -599.000
232.502;   10.975;  -19.000;    7.000
232.645; -130.625;-1090.000; -927.000
232.789;   -9.275; -257.000; -218.000
232.933;  -40.375; -407.000; -224.000
233.076; -122.125;-1038.000; -897.000
233.220; -104.950; -752.000; -777.000
233.363;  -68.000; -669.000; -477.000
233.507;   53.950;  371.000;  129.000
233.650;  -91.975; -764.000; -834.000
233.794;   45.275;  438.000;  461.000
233.938;  -62.950; -530.000; -362.000
234.081;  -23.700;  -93.000;   31.000
234.225;  -52.775; -631.000; -539.000
234.368; -107.450; -773.000; -723.000
234.512;  -24.600; -385.000; -299.000
234.655;  -82.350; -582.000; -555.000
234.798;  -64.850; -493.000; -466.000
234.942; -116.425; -884.000;-1002.000
235.085;  -58.075; -651.000; -443.000
235.229;  -75.100; -405.000; -410.000
235.372;  -29.100; -247.000; -191.000
235.516;  -53.525; -397.000; -321.000
235.659;   32.650;   92.000;  121.000
235.802;   -6.975;  -38.000;  -22.000
235.946;   20.725;  335.000;  215.000
236.089;   26.125;  126.000;  250.000
236.233;   63.125;  275.000;  298.000
236.376;  -45.900; -235.000; -378.000
236.519;  -50.750; -297.000; -319.000
236.663;  -24.350; -215.000; -117.000
236.806; -129.650;-1029.000; -999.000
236.949;   58.800;  543.000;  431.000
237.092;   74.425;  412.000;  391.000
237.236;  -83.300; -589.000; -502.000
237.379;   72.375;  352.000;  428.000
237.522; -111.125; -879.000; -768.000
237.666;  -20.425; -271.000;   18.000
237.809; -109.600; -851.000; -823.000
237.952;   46.575;  469.000;  271.000
238.095;  -60.600; -447.000; -442.000
238.238;  111.350;  688.000;  700.000
238.382;    4.375;  166.000;  103.000
238.525;  -65.550; -598.000; -511.000
238.668; -129.275;-1060.000; -985.000
238.811;  -78.975; -638.000; -643.000
238.954;  -60.750; -483.000; -334.000
239.097;  108.425;  617.000;  664.000
239.241;   30.150;  394.000;  326.000
239.384;  -23.325; -254.000; -214.000
239.527;  -50.850; -424.000; -224.000
239.670; -140.850; -994.000;-1091.000
239.813; -106.300; -696.000; -658.000
239.956;   79.975;  579.000;  473.000
240.099; -107.175; -778.000; -725.000
240.242;   67.400;  428.000;  432.000
240.385;   43.725;  466.000;  450.000
240.528;  -64.300; -706.000; -473.000
240.671;   12.625;  189.000;  134.000
240.814;  -35.650; -441.000; -158.000
240.957; -102.000; -767.000; -578.000
241.100;  -85.725; -779.000; -755.000
241.243; -145.200;-1234.000; -893.000
241.386;  -60.875; -508.000; -379.000
241.529;  -92.225; -735.000; -547.000
241.672;  -56.575; -566.000; -495.000
241.815; -132.000; -832.000; -808.000
241.958;  -10.125; -125.000; -182.000
242.101;  -73.975; -545.000; -390.000
242.244;  -32.075; -270.000; -325.000
242.387;  -50.950; -304.000; -246.000
242.530;   66.550;  470.000;  134.000
242.673;  -29.650; -381.000; -309.000
242.815; -110.475; -925.000; -899.000
242.958;  -65.950; -482.000; -381.000
243.101;   19.750;  132.000;  187.000
243.244;  -78.850; -564.000; -521.000
243.387;  -36.675; -313.000; -316.000
243.530;  -99.275; -657.000; -674.000
243.672;    5.700;   43.000;  -92.000
243.815;  -52.100; -355.000; -283.000
243.958;    5.500;   98.000;  -26.000
244.101;    7.175;   59.000;  -16.000
244.243;  -18.275;  -47.000;  101.000
244.386; -106.125; -761.000; -630.000
244.529;  -11.800; -132.000; -139.000
244.672; -159.925;-1154.000; -951.000
244.814; -105.100; -621.000; -794.000
244.957;  -43.100; -380.000; -304.000
245.100;  -63.375; -489.000; -489.000
245.242;  -64.175; -387.000; -374.000
245.385;    9.350;  -59.000;  -39.000
245.528; -109.600; -871.000; -705.000
245.670;  102.300;  612.000;  634.000
245.813;  -96.250; -599.000; -547.000
245.956;  -28.450; -324.000; -275.000
246.098;  -59.025; -508.000; -650.000
246.241;   18.775;  194.000;   48.000
246.383;  -24.900; -119.000;  -73.000
246.526;  -69.400; -454.000; -525.000
246.669; -109.750; -889.000; -780.000
246.811;   27.125;  172.000;   -1.000
246.954;  -81.600; -512.000; -426.000
247.096;  -21.450;  -84.000;   -6.000
247.239;  -64.150; -482.000; -445.000
247.381;  -63.050; -647.000; -488.000
247.524;   87.550;  645.000;  679.000
247.666;    4.150;   58.000;   11.000
247.809; -118.075; -887.000; -691.000
247.951;    3.350;  -75.000;  138.000
248.094;   30.075;  432.000;  308.000
248.236; -153.275;-1262.000;-1238.000
248.378;    8.800; -356.000;  -81.000
248.521;   -0.375; -334.000; -337.000
248.663;  -45.000; -236.000; -267.000
248.806;  -12.750; -300.000; -266.000
248.948;  -93.525; -886.000; -763.000
249.090;  -32.025; -428.000; -398.000
249.233;  -35.500; -344.000; -381.000
249.375;  -52.600; -474.000; -451.000
249.518;  -30.125;  -83.000; -133.000
249.660;   11.550; -103.000;    3.000
249.802; -173.650;-1303.000;-1189.000
249.945;  -62.150; -612.000; -540.000
250.087; -117.225; -834.000; -768.000
250.229;  -44.075; -362.000; -480.000
250.371;  -56.300; -494.000; -439.000
250.514;  -36.625; -310.000; -244.000
250.656;   -8.225;   69.000;  102.000
250.798; -120.025; -849.000; -800.000
250.940;  -69.150; -322.000; -322.000
251.083;   -7.625; -335.000; -111.000
251.225;   61.250;  338.000;  310.000
251.367;  -38.275; -274.000; -373.000
251.509;  -34.075; -265.000; -210.000
251.651;  -81.075; -731.000; -671.000
251.794;   90.950;  538.000;  632.000
251.936;  -88.975; -821.000; -747.000
252.078;  -83.625; -540.000; -461.000
252.220;  -56.500; -645.000; -477.000
252.362;   82.825;  344.000;  462.000
252.504;  -71.650; -677.000; -584.000
252.646; -106.675; -875.000; -722.000
252.788;    5.975;   14.000; -128.000
252.931;  -44.925; -257.000; -253.000
253.073;  -25.000; -376.000; -317.000
253.215;    3.400;  141.000;  122.000
253.357;    3.500;   82.000; -153.000
253.499;  -67.425; -374.000; -234.000
253.641;  -84.125; -749.000; -594.000
253.783;  -89.075; -609.000; -527.000
253.925;  -84.700; -586.000; -591.000
254.067; -117.800; -744.000; -667.000
254.209;  -16.275; -391.000; -259.000
254.351; -128.950; -865.000; -883.000
254.493;  -51.050; -441.000; -417.000
254.635; -127.925; -936.000; -818.000
254.777;  -80.350; -752.000; -687.000
254.918;  -71.400; -512.000; -430.000
255.060;  -45.275; -551.000; -395.000
255.202;  -63.175; -473.000; -261.000
255.344;  -83.025; -658.000; -455.000
255.486;  -61.825; -471.000; -406.000
255.628; -113.250; -780.000; -781.000
255.770;  -90.250; -676.000; -536.000
255.912;  -66.075; -559.000; -468.000
256.053;  -92.450; -730.000; -508.000
256.195;  149.150; 1008.000;  903.000
256.337;  -92.400; -861.000; -595.000
256.479;   74.050;  532.000;  416.000
256.621;  -38.900; -394.000; -212.000
256.762;  -90.650; -789.000; -742.000
256.904;   58.500;  485.000;  487.000
257.046;  -34.850; -381.000; -271.000
257.188;  -45.350; -351.000; -264.000
257.329;  -57.375; -525.000; -464.000
257.471; -128.675; -939.000; -807.000
257.613;  -51.425; -584.000; -498.000
257.755; -149.725;-1073.000; -982.000
257.896;   48.775;  286.000;  392.000
258.038;  -69.325; -403.000; -352.000
258.180;  -25.275; -354.000; -279.000
258.321;  -83.350; -581.000; -457.000
258.463;   -4.200;  -71.000;  133.000
258.605;  -84.325; -562.000; -570.000
258.746;  -83.550; -886.000; -772.000
258.888; -148.950;-1026.000;-1020.000
259.029;   33.875;  121.000;   -8.000
259.171; -104.225; -614.000; -550.000
259.313;   -1.225;  -49.000;  -47.000
259.454;  -60.600; -536.000; -414.000
259.596;  -47.575; -483.000; -390.000
259.737;  -74.775; -590.000; -474.000
259.879;   55.525;  217.000;  311.000
260.020;  101.875;  901.000;  636.000
260.162;  -20.125; -146.000; -253.000
260.303; -119.175; -768.000; -687.000
260.445;  -92.800; -609.000; -613.000
260.586;   30.750;  392.000;  157.000
260.728;  -29.750; -360.000; -248.000
260.869;  -91.475; -350.000; -343.000
261.011;   85.325;  706.000;  537.000
261.152;  -56.475; -479.000; -319.000
261.293;  -79.625; -576.000; -595.000
261.435;  -21.800; -219.000; -184.000
261.576;  -44.950; -455.000; -325.000
261.718;   46.525;  420.000;  470.000
261.859; -119.125; -940.000; -949.000
262.000; -130.475; -951.000;-1016.000
262.142;  -19.775;  -52.000;  -60.000
262.283; -108.400; -808.000; -691.000
262.424;  -83.850; -666.000; -625.000
262.566; -146.200;-1161.000; -983.000
262.707; -111.425; -840.000; -830.000
262.848; -119.275; -769.000; -726.000
262.990;  -35.550; -362.000; -345.000
263.131;   86.025;  650.000;  681.000
263.272;   -7.875;  -61.000;  -41.000
263.413;  -92.525; -589.000; -561.000
263.555;  -58.850; -669.000; -143.000
263.696;  -89.650; -550.000; -641.000
263.837;  -44.850; -449.000; -551.000
263.978;   -8.950;   -5.000;  -77.000
264.119;  -25.500; -283.000; -264.000
264.261; -115.000; -847.000; -630.000
264.402;   11.025;   33.000;   40.000
264.543;  -74.950; -509.000; -524.000
264.684;   -9.450;   61.000;  -50.000
264.825;  -74.275; -816.000; -538.000
264.966;   -3.850;  -84.000;  -67.000
265.107; -113.100; -646.000; -670.000
265.248; -119.325; -825.000; -812.000
265.390;   -5.150;  152.000;   -9.000
265.531;  -10.000; -238.000; -107.000
265.672;  -72.900; -557.000; -630.000
265.813;   77.300;  563.000;  439.000
265.954; -140.500; -959.000; -940.000
266.095;   -7.425; -372.000; -322.000
266.236; -104.125; -686.000; -548.000
266.377;  -28.825; -243.000; -297.000
266.518;  -68.200; -619.000; -547.000
266.659;   34.800;  170.000;  268.000
266.800;   11.050;   83.000;   85.000
266.941;  -83.550; -487.000; -478.000
267.082;   39.475;  354.000;   99.000
267.223;  -46.675; -344.000; -273.000
267.364; -117.775; -892.000; -686.000
267.504;   -5.500;    3.000;  135.000
267.645;  -10.425;  160.000;   67.000
267.786;   -2.675; -147.000;  -86.000
267.927;  -80.625; -473.000; -379.000
268.068;   -6.725; -186.000;  -61.000
268.209;  -43.175; -175.000; -413.000
268.350;  -62.375; -388.000; -532.000
268.490;  -83.875; -648.000; -521.000
268.631;   36.425;  127.000;  225.000
268.772; -115.300; -874.000; -647.000
268.913;  -46.125; -328.000; -476.000
269.054;  -20.975; -117.000;   12.000
269.194;  -45.450; -418.000; -402.000
269.335; -137.400;-1137.000;-1074.000
269.476;   -3.750;   33.000;  -35.000
269.617;  -39.400; -347.000; -392.000
269.757;  -77.800; -713.000; -646.000
269.898; -108.500; -856.000; -613.000
270.039;  -51.775; -415.000; -405.000
270.180; -152.400; -952.000; -816.000
270.320;  -16.600; -190.000; -250.000
270.461;  -34.900; -277.000; -249.000
270.602;   -8.900; -186.000; -156.000
270.742; -111.325; -868.000; -943.000
270.883;  -52.025; -442.000; -390.000
271.023;  -54.850; -358.000; -357.000
271.164;  -70.375; -607.000; -528.000
271.305;  -99.075; -666.000; -654.000
271.445;  -90.125; -722.000; -683.000
271.586;  -75.175; -462.000; -283.000
271.726;  -39.275; -397.000; -322.000
271.867;  -52.250; -594.000; -534.000
272.008;  211.925; -473.000; -285.000
272.148;  143.075;  462.000;  468.000
272.289;   26.075; -113.000; -181.000
272.429;   19.300;   19.000;  185.000
272.570;  -79.450; -633.000; -737.000
272.710;  -89.475; -825.000; -775.000
272.851;  -28.125;  113.000; -130.000
272.991; -166.975;-1173.000;-1077.000
273.131;  -59.450; -419.000; -459.000
273.272;  -91.325; -683.000; -723.000
273.412;   29.225; -143.000;  -31.000
273.553;  -47.800; -488.000; -507.000
273.693;  144.425;  913.000;  858.000
273.834;  -80.950; -894.000; -692.000
273.974;  -68.650; -664.000; -615.000
274.114;  -94.825; -772.000; -560.000
274.255;   90.625;  414.000;  373.000
274.395;    8.175; -180.000; -125.000
274.535;   59.000;  199.000;  350.000
274.676;   28.225;  225.000;   94.000
274.816;   21.425;  110.000;   34.000
274.956;  -84.400; -624.000; -690.000
275.097;  -29.125;-1014.000; -922.000
275.237; -108.875; -913.000; -803.000
275.377;  -88.250; -778.000; -689.000
275.517; -141.550; -878.000; -937.000
275.658;  -43.350; -590.000; -555.000
275.798;  -53.025; -606.000; -413.000
275.938;   26.650;  215.000;  323.000
276.078; -107.650; -626.000; -395.000
276.218;    9.000;   99.000;  104.000
276.359; -128.475;-1026.000;-1024.000
276.499;  -72.525; -605.000; -446.000
276.639;  -26.725; -305.000; -151.000
276.779;  -30.975; -475.000; -357.000
276.919; -105.000; -783.000; -624.000
277.059;   -0.675; -261.000; -212.000
277.199;  -40.275; -357.000; -259.000
277.340;   67.650;  287.000;  175.000
277.480; -110.700; -840.000; -693.000
277.620;   32.300;  192.000;   16.000
277.760; -195.775;-1533.000;-1294.000
277.900;   31.825;  113.000;   33.000
278.040;   24.025;  137.000;  159.000
278.180;   46.875;  270.000;  170.000
278.320;   15.675;   21.000;   56.000
278.460;  -67.075; -443.000; -469.000
278.600;  -89.750; -708.000; -598.000
278.740;   62.350;  448.000;  224.000
278.880;   -6.600; -768.000; -791.000
279.020;   16.575; -194.000; -144.000
279.160;  -81.125; -672.000; -595.000
279.300; -115.100; -926.000; -873.000
279.440;  -78.100; -709.000; -622.000
279.579;    3.100;-1014.000; -929.000
279.719;  -57.150; -410.000; -394.000
279.859;   84.625;   -4.000;   41.000
279.999;   42.150; -208.000;  101.000
280.139;  -10.675; -435.000; -387.000
280.279;  -63.675; -708.000; -745.000
280.419;    2.275; -229.000; -147.000
280.559;  -22.100; -259.000; -180.000
280.698;  -67.150; -790.000; -639.000
280.838;  -88.100; -778.000; -800.000
280.978;  -89.300; -846.000; -790.000
281.118; -102.500; -811.000; -704.000
281.257;   11.775;   24.000;    6.000
281.397;  -95.125;-1094.000; -960.000
281.537;  -78.925; -599.000; -712.000
281.677;  -27.700; -150.000; -101.000
281.816;  -78.350; -700.000; -630.000
281.956;  -32.850; -193.000; -257.000
282.096;  -52.200; -539.000; -396.000
282.235;  -93.300; -672.000; -638.000
282.375;  -17.725; -243.000;  -98.000
282.515;  -92.200; -715.000; -707.000
282.654;   55.350;   29.000;  106.000
282.794;   39.875;  388.000;  244.000
282.934;  -31.350; -530.000; -491.000
283.073; -133.875;-1030.000; -857.000
283.213;  -44.400; -460.000; -467.000
283.353;  -36.875; -408.000; -349.000
283.492;   -8.600; -264.000; -296.000
283.632;  -41.150; -254.000; -168.000
283.771;  -77.600; -859.000; -730.000
283.911;  -32.200; -369.000; -260.000
284.050;  -96.475; -794.000; -748.000
284.190; -154.325;-1229.000;-1096.000
284.329; -128.900;-1055.000; -964.000
284.469;  -47.550; -516.000; -591.000
284.608;  -44.650; -559.000; -598.000
284.748;  -76.350; -614.000; -570.000
284.887;    5.400;  -87.000;  -20.000
285.027; -120.550; -844.000; -892.000
285.166;  -13.025; -192.000; -249.000
285.306;   16.375; -116.000;  -33.000
285.445;  -30.200; -229.000; -343.000
285.584;  -79.575; -630.000; -494.000
285.724;  -26.525; -282.000; -322.000
285.863; -109.775; -857.000; -507.000
286.002;  -46.875; -366.000; -276.000
286.142; -109.900; -715.000; -622.000
286.281;  -76.050; -525.000; -493.000
286.420;  -79.650; -554.000; -417.000
286.560;  103.150;  653.000;  623.000
286.699; -121.975; -958.000; -912.000
286.838;  -66.900; -590.000; -591.000
286.978; -101.575; -533.000; -537.000
287.117; -115.650;-1085.000; -950.000
287.256;  -35.000; -228.000; -211.000
287.395;  -35.375; -197.000; -378.000
287.535;  -42.950; -370.000; -298.000
287.674;  -60.400; -509.000; -484.000
287.813;   53.075;  661.000;  533.000
287.952; -110.775;-1010.000; -871.000
288.091; -142.975;-1049.000; -915.000
288.231;   13.950;   13.000;   15.000
288.370; -172.100;-1217.000;-1200.000
288.509;  -74.175; -728.000; -645.000
288.648;  -94.375; -770.000; -548.000
288.787;  -16.175; -243.000;  -87.000
288.926;  -53.850; -454.000; -475.000
289.065;  142.875;  859.000;  672.000
289.204;  -52.400; -377.000; -217.000
289.344;  -71.050; -791.000; -690.000
289.483;   36.800;  416.000;  304.000
289.622;  -21.825; -291.000; -149.000
289.761;  -11.000; -309.000; -166.000
289.900;  -97.325; -785.000; -626.000
290.039;  -17.750;  -12.000;  -95.000
290.178;  -27.150; -274.000; -180.000
290.317;  -75.275; -618.000; -479.000
290.456;  -49.975; -463.000; -451.000
290.595; -132.775; -961.000; -833.000
290.734; -130.975; -904.000; -891.000
290.873;  -67.325; -456.000; -420.000
291.011; -104.750; -833.000; -843.000
291.150; -101.200; -770.000; -682.000
291.289;    3.500; -343.000; -110.000
291.428;  -79.300; -599.000; -480.000
291.567;  -43.825; -370.000; -442.000
291.706;    3.100;  109.000;  154.000
291.845;  -79.300; -597.000; -505.000
291.984; -169.900;-1234.000;-1061.000
292.122;   79.075;  602.000;  582.000
292.261;   51.400;  620.000;  463.000
292.400;   15.125; -144.000;  211.000
292.539; -122.750; -959.000; -813.000
292.678;  -15.100; -325.000; -300.000
292.816; -144.975;-1136.000; -965.000
292.955;  -72.850; -844.000; -684.000
293.094;   -8.600; -173.000; -337.000
293.233;  -45.775; -556.000; -400.000
293.371;  -19.975; -225.000;  -84.000
293.510;  -85.300; -866.000; -780.000
293.649; -126.750; -959.000; -924.000
293.787;  -34.525;-1083.000;-1012.000
293.926;    4.925; -113.000;  -32.000
294.065;  -41.750; -379.000; -290.000
294.203;   54.950;  298.000;  406.000
294.342;   37.800;   74.000;  156.000
294.481; 6817.425;51180.000; -836.000
294.619;   -3.750; -425.000; -582.000
294.758; -136.175;-1230.000;-1137.000
294.896;  113.475; -125.000;    5.000
295.035; -118.200;-1040.000;-1006.000
295.174;  -95.250;-1082.000; -954.000
295.312;  -23.825; -323.000; -203.000
295.451;   18.100; -307.000; -428.000
295.589;  -42.750; -389.000; -518.000
295.728;   35.425; -292.000; -165.000
295.866;   17.475;  -36.000;  -51.000
296.005;  -56.475; -584.000; -341.000
296.143;  -65.125; -558.000; -596.000
296.282;  -98.825; -957.000; -881.000
296.420;  -76.900; -657.000; -557.000
296.559;  -67.675; -892.000; -633.000
296.697;   69.050; -847.000; -665.000
296.835;  131.325;-1141.000;-1002.000
296.974;   73.650;  -23.000;   39.000
297.112;   49.075; -443.000; -504.000
297.251;  -59.300; -815.000; -755.000
297.389;  153.750; -576.000; -438.000
297.527;   70.150; -145.000;  -83.000
297.666;  -26.025; -486.000; -438.000
297.804;  -49.250; -404.000; -264.000
297.942;   -1.225; -136.000; -161.000
298.081;    3.775; -183.000;   63.000
298.219;   93.650;  -17.000;  -19.000
298.357;   64.225; -144.000;  -71.000
298.495;   76.075; -810.000; -812.000
298.634;  107.775;  245.000;  219.000
298.772;  114.125; -220.000; -338.000
298.910;  -29.050; -309.000; -182.000
299.048;   -8.150; -130.000; -153.000
299.187;  -20.525; -350.000; -250.000
299.325;   44.775;   52.000;  122.000
299.463;   92.350; -389.000; -299.000
299.601;  175.575; -327.000; -271.000
299.739;  -84.650; -908.000; -883.000
299.877;  -58.650; -791.000; -703.000
300.016;  -34.600;-1095.000; -935.000
300.154;  207.400;  -19.000; -161.000
300.292;   93.000; -428.000; -348.000
300.430;   64.625; -408.000; -291.000
300.568;  -87.000; -940.000; -874.000
300.706;  -22.650; -366.000; -469.000
300.844;  -53.525;-1108.000; -979.000
300.982;  157.300;  246.000;  282.000
301.120;  -92.525; -965.000; -866.000
301.258;  -35.625; -812.000; -705.000
301.396;   57.375;  104.000;  -41.000
301.534;  139.975; -218.000; -293.000
301.672;   39.050; -664.000; -521.000
301.810;   82.825; -613.000; -545.000
301.948;  165.800;   53.000;  149.000
302.086;  757.200; -250.000;  -32.000
302.224; 1216.825; -610.000; -585.000
302.362;   89.000; -558.000; -622.000
302.500;   29.875; -923.000; -893.000
302.638;  152.725;  128.000;  245.000
302.776;   15.400; -352.000; -408.000
302.913;   59.625;  447.000;  236.000
303.051;   24.250;  -86.000;  -23.000
303.189;   78.625;   90.000;  118.000
303.327;  -33.875; -341.000; -256.000
303.465;  -73.950; -832.000; -588.000
303.603;  -79.525; -805.000; -604.000
303.740;  128.625;  417.000;  241.000
303.878;   57.975; -800.000; -759.000
304.016;  -75.925; -915.000; -790.000
304.154; -117.700;-1123.000;-1152.000
304.291;  -19.725; -505.000; -554.000
304.429;   10.050;  102.000;   74.000
304.567; -106.275; -908.000; -893.000
304.705;  -37.150; -408.000; -515.000
304.842;  141.575; -616.000; -540.000
304.980;   90.300;  215.000;   35.000
305.118;   78.525; -367.000; -365.000
305.255;  -35.675; -945.000; -927.000
305.393;   81.775;  178.000;  239.000
305.531;  -84.150;-1173.000; -956.000
305.668;  -57.275; -663.000; -582.000
305.806;  127.675; -358.000; -439.000
305.943;  157.975; -629.000; -637.000
306.081;   79.500; -378.000; -267.000
306.219;  -79.850; -863.000; -748.000
306.356;    4.525;  158.000;   27.000
306.494;  123.425;  981.000;  761.000
306.631;    9.975;  -11.000;  -55.000
306.769;   21.775; -613.000; -485.000
306.906;   -9.550; -284.000; -258.000
307.044;  -49.625; -473.000; -488.000
307.181;  -54.500; -410.000; -332.000
307.319;   24.625;  112.000;   87.000
307.456; -161.550;-1191.000;-1153.000
307.594;  -77.050; -980.000; -727.000
307.731;   -4.250; -371.000; -164.000
307.868;   15.050;  -15.000;   20.000
308.006; -112.550; -961.000; -847.000
308.143;  -61.100; -618.000; -330.000
308.281;  168.625;  -37.000; -254.000
308.418;   22.350; -748.000; -640.000
308.555;  -63.750; -400.000; -250.000
308.693;  -60.225; -577.000; -573.000
308.830;  -95.175; -712.000; -657.000
308.967;    5.000; -215.000;  -95.000
309.105;  -40.750; -507.000; -396.000
309.242;   52.200; -468.000; -367.000
309.379;  302.975; -577.000; -655.000
309.517;  -35.150; -936.000; -948.000
309.654;  -98.850; -910.000; -734.000
309.791;  -52.325; -662.000; -580.000
309.928; -105.800; -977.000; -914.000
310.065;  200.875;  819.000;  697.000
310.203;   39.350; -825.000; -850.000
310.340;   27.750; -465.000; -321.000
310.477;  -77.950; -412.000; -516.000
310.614;  -62.425; -383.000; -473.000
310.751;  -76.550; -427.000; -518.000
310.889;   -0.525;    1.000;   11.000
311.026; -148.675;-1161.000; -939.000
311.163;  -27.625; -386.000; -380.000
311.300;  -60.950; -512.000; -479.000
311.437;  -55.775; -658.000; -619.000
311.574; -150.875;-1226.000; -985.000
311.711;  -46.475; -595.000; -433.000
311.848;  -25.350; -380.000; -388.000
311.985;   37.375;  270.000;   93.000
312.122; -101.200; -932.000; -762.000
312.259; -114.750; -941.000; -994.000
312.396;  -83.800; -508.000; -551.000
312.533;  -65.625; -812.000; -790.000
312.670; -129.675;-1070.000; -898.000
312.807;  -22.975; -352.000; -367.000
312.944;  -70.925; -513.000; -611.000
313.081;  -16.450; -150.000; -415.000
313.218; -108.600;-1111.000; -867.000
313.355;   36.325; -531.000; -449.000
313.492;   31.600; -455.000; -292.000
313.629;  158.400;  815.000;  735.000
313.766; -150.125;-1176.000;-1008.000
313.902;   -2.100; -186.000;   21.000
314.039;  -27.075; -372.000; -289.000
314.176;   38.150;  286.000;  192.000
314.313;  -61.350; -569.000; -473.000
314.450;  -48.675; -788.000; -684.000
314.587;  -46.025; -468.000; -480.000
314.723;    8.750;  -78.000;  130.000
314.860;   37.050;  318.000;  332.000
314.997;   44.475;  223.000;  142.000
315.134;  -33.450; -385.000; -368.000
315.270;   -2.725; -480.000; -496.000
315.407; -112.500;-1094.000; -967.000
315.544;  -39.100; -657.000; -538.000
315.681;  -52.800; -681.000; -565.000
315.817;   62.650; -133.000; -176.000
315.954;   35.575; -613.000; -392.000
316.091; -123.250;-1045.000;-1023.000
316.227;  -13.600;  -71.000; -179.000
316.364;    2.525;   23.000;    6.000
316.500;  -31.525; -113.000; -300.000
316.637;  -32.375; -181.000; -302.000
316.774;  -73.175; -625.000; -358.000
316.910;  -77.575; -598.000; -629.000
317.047;  -55.450; -487.000; -351.000
317.183;  -49.500; -435.000; -566.000
317.320;  -22.575; -367.000; -321.000
317.456;  -75.625; -733.000; -805.000
317.593;  -85.350; -598.000; -641.000
317.729;   18.375;  168.000;  -67.000
317.866; -194.850;-1434.000;-1285.000
318.002;  -75.475; -708.000; -948.000
318.139;  -78.675; -883.000; -867.000
318.275;  -78.550;-1003.000; -738.000
318.412;  -58.500; -517.000; -336.000
318.548;   -1.025; -751.000; -720.000
318.685;  -73.050; -985.000; -888.000
318.821;  -88.875; -762.000; -735.000
318.957;  -12.000;   34.000;  -23.000
319.094;   48.425;  297.000;  154.000
319.230;  -38.325; -756.000; -742.000
319.367;  186.025; -471.000; -520.000
319.503;   81.300; -538.000; -436.000
319.639;  -82.550; -877.000; -793.000
319.775;  -44.325; -750.000; -685.000
319.912;  -39.425; -424.000; -519.000
320.048;  -77.600;-1184.000;-1184.000
320.184;   83.750;   59.000;   70.000
320.321;  -51.375; -497.000; -467.000
320.457;   62.050;  475.000;  662.000
320.593;  -76.925; -375.000; -382.000
320.729;  -82.975; -732.000; -734.000
320.866;  -80.900; -577.000; -635.000
321.002;  -54.800; -759.000; -809.000
321.138;  -12.475; -135.000; -211.000
321.274;   86.925; -148.000; -115.000
321.410;  -13.450; -585.000; -353.000
321.546;    9.725;-1011.000; -911.000
321.683;   75.375;  400.000;  185.000
321.819;   19.850;  -48.000; -117.000
321.955;  -94.600; -743.000; -722.000
322.091;  -34.550; -585.000; -540.000
322.227;   -1.525; -382.000; -202.000
322.363;    5.600; -320.000; -215.000
322.499;  -23.150; -343.000; -331.000
322.635;  205.300;  636.000;  443.000
322.771;   36.475; -139.000;   12.000
322.907;  115.750;  129.000;  327.000
323.043;   -8.825; -115.000; -206.000
323.179;  -24.750; -394.000; -363.000
323.315;   71.375; -401.000; -371.000
323.451;  165.525; -328.000; -236.000
323.587;   85.500;  -60.000;  -77.000
323.723;   59.375; -682.000; -601.000
323.859;    0.125; -258.000;  -76.000
323.995;  -29.350; -467.000; -409.000
324.131; -111.875; -967.000; -892.000
324.267;  -25.500; -254.000; -276.000
324.402; -113.575; -960.000; -983.000
324.538;   10.375; -279.000; -104.000
324.674;   33.875;  164.000;   77.000
324.810;  200.275;  226.000;  308.000
324.946;   52.050; -810.000; -658.000
325.082;  -51.550; -568.000; -475.000
325.217;   -2.600;  -62.000;   16.000
325.353;  -90.275; -764.000; -659.000
325.489;  -83.825; -540.000; -506.000
325.625;  -63.250; -579.000; -525.000
325.760;   50.750;  517.000;  376.000
325.896;  -31.675; -515.000; -702.000
326.032;  -53.100; -403.000; -352.000
326.168;  -38.950; -462.000; -369.000
326.303;  -54.350; -352.000; -461.000
326.439;   -1.425; -336.000; -276.000
326.575;   24.725; -190.000;  -29.000
326.710;   19.425; -156.000;  -30.000
326.846;  -17.925;  146.000;  103.000
326.982;  -73.725; -530.000; -548.000
327.117;  -69.075; -481.000; -442.000
327.253;  -89.750; -745.000; -742.000
327.388; -115.100;-1137.000;-1153.000
327.524;  -19.375; -811.000; -578.000
327.659;   -9.000;  -58.000;  -22.000
327.795;   -1.225;   69.000;   45.000
327.931;  -82.900; -723.000; -499.000
328.066;  -13.000; -417.000; -276.000
328.202;   11.000;   12.000; -129.000
328.337;  126.750;  957.000;  713.000
328.473;   42.000;  -12.000;  -74.000
328.608;  -14.475; -256.000; -267.000
328.743;  -60.400; -799.000; -664.000
328.879;   18.525;  214.000;  114.000
329.014;  -31.075; -102.000; -122.000
329.150;  -71.275; -358.000; -483.000
329.285;  -63.400; -465.000; -466.000
329.421;  -32.500; -548.000; -246.000
329.556;  -15.200;  -36.000;   85.000
329.691;  -88.700; -633.000; -615.000
329.827;  -75.525; -626.000; -480.000
329.962;  -39.825;  131.000; -301.000
330.097;  -87.275; -673.000; -585.000
330.233;  -34.250; -410.000; -223.000
330.368; -123.200; -839.000; -628.000
330.503;   -3.475;    3.000;   98.000
330.638;   42.675;  -93.000; -125.000
330.774;  -27.150; -609.000; -530.000
330.909;  -31.950; -434.000; -244.000
331.044;  -84.925; -714.000; -708.000
331.179; -173.950;-1217.000;-1109.000
331.315;   26.475;   77.000;   20.000
331.450;   27.675;  157.000;  285.000
331.585;  -73.100; -805.000; -706.000
331.720;  -76.525; -510.000; -460.000
331.855;    8.800;  -35.000; -102.000
331.990;  201.475;   62.000;  138.000
332.126;  126.400; -110.000;   71.000
332.261;  -25.700; -379.000; -265.000
332.396;    0.450; -135.000; -242.000
332.531; -115.050;-1074.000;-1031.000
332.666;   30.675; -519.000; -363.000
332.801; -108.250; -726.000; -807.000
332.936;  -12.700; -192.000; -122.000
333.071; -113.700; -870.000; -817.000
333.206;   19.700;  307.000;  379.000
333.341;   33.550;  344.000;  418.000
333.476;  -69.625; -627.000; -623.000
333.611;  -20.600; -251.000; -173.000
333.746;  -20.625; -381.000; -464.000
333.881; -100.900; -973.000; -935.000
334.016; -104.075; -936.000; -917.000
334.151; -112.275; -746.000; -702.000
334.286;   60.400;  152.000;  186.000
334.421;   10.825; -125.000; -178.000
334.556;  -48.325; -611.000; -567.000
334.690;  -70.675; -631.000; -577.000
334.825;   78.750;  381.000;   83.000
334.960;  -41.550; -285.000; -413.000
335.095;   46.250;  135.000;  -91.000
335.230;  -76.775; -722.000; -738.000
335.365; -120.050;-1084.000; -990.000
335.499; -111.825;-1108.000;-1037.000
335.634;   40.450;    9.000;  534.000
335.769;  -96.175; -755.000; -720.000
335.904;  -40.875; -603.000; -561.000
336.038;  -42.850; -735.000; -657.000
336.173;  -86.075;-1206.000;-1194.000
336.308;   32.525; -116.000; -189.000
336.443;   10.100; -544.000; -634.000
336.577;  -42.225; -936.000; -787.000
336.712;   83.100;   -4.000;  -12.000
336.847;   -6.650; -724.000; -607.000
336.981;  123.300; -272.000; -208.000
337.116;  355.025;  615.000;  501.000
337.250;  252.975; -434.000; -421.000
337.385;  190.375; -297.000; -208.000
337.520;   48.525; -632.000; -603.000
337.654;  -36.200; -215.000; -126.000
337.789; -104.000; -989.000; -933.000
337.923;  -28.950; -104.000; -205.000
338.058;  -68.100; -673.000; -738.000
338.192;  -14.150; -611.000; -488.000
338.327;    9.925;  -18.000; -155.000
338.461;  -56.500; -299.000; -469.000
338.596;  -80.050; -780.000; -638.000
338.730;  -95.700; -767.000; -803.000
338.865;   75.025;  -46.000; -140.000
338.999;  -79.075; -846.000; -702.000
339.134;  -31.325; -634.000; -536.000
339.268;   21.025; -741.000; -603.000
339.403;  320.175; -740.000; -775.000
339.537;   70.375; -894.000; -820.000
339.671; -117.600; -829.000; -813.000
339.806;  -72.575; -556.000; -512.000
339.940;   14.350; -261.000; -235.000
340.074;  -83.050; -685.000; -510.000
340.209;  -35.250; -351.000; -230.000
340.343;  -83.250; -517.000; -573.000
340.477;  161.825;  998.000; 1036.000
340.612;  -65.050;-1033.000; -900.000
340.746;  115.350; -199.000; -243.000
340.880;  -46.900; -924.000; -785.000
341.014;   -6.275;  -45.000; -154.000
341.149; -102.825; -756.000; -718.000
341.283; -104.500; -839.000; -754.000
341.417;  -66.125;-1124.000; -938.000
341.551;  230.725; -768.000; -708.000
341.685;   -9.100; -633.000; -611.000
341.820;  -42.200; -562.000; -493.000
341.954;  -39.400; -218.000; -349.000
342.088; -146.500;-1102.000;-1019.000
342.222;   69.275;  565.000;  618.000
342.356;  -39.775; -395.000; -335.000
342.490;  -71.325; -880.000; -841.000
342.624;  -33.350; -339.000; -242.000
342.758;    8.675; -364.000; -312.000
342.892;  -52.700; -710.000; -585.000
343.026;  -36.975;  -58.000; -116.000
343.160;  -51.000; -426.000; -376.000
343.294;  -77.975; -474.000; -337.000
343.428;    8.950; -488.000; -448.000
343.562;   17.775; -172.000;  -23.000
343.696;   -3.075; -385.000; -314.000
343.830;   -7.500; -362.000; -356.000
343.964;   45.150; -231.000; -168.000
344.098; 1220.400;  199.000;   70.000
344.232; 1002.425; -266.000; -127.000
344.366;  108.475; -567.000; -453.000
344.500;  127.025; -665.000; -744.000
344.634;   64.175; -324.000; -164.000
344.768;   30.600; -531.000; -341.000
344.902;   43.550;  278.000;  256.000
345.035;  -66.075; -556.000; -496.000
345.169; -133.550; -933.000; -656.000
345.303;   -0.100; -308.000; -482.000
345.437;  -59.100; -826.000; -717.000
345.571;  -54.800; -675.000; -594.000
345.704;  -55.275; -309.000; -532.000
345.838;   -4.400; -331.000; -284.000
345.972;  -12.200; -543.000; -495.000
346.106;  145.650; -179.000; -190.000
346.239;  435.850; -312.000; -243.000
346.373;   19.750; -343.000; -302.000
346.507; -138.400; -950.000; -962.000
346.640;  206.975;  -30.000;   13.000
346.774;  -22.575; -650.000; -797.000
346.908;    8.550; -138.000;  -11.000
347.041;  -89.150; -646.000; -593.000
347.175;   20.000;  259.000;   27.000
347.309;  -55.300; -698.000; -628.000
347.442;  -87.750; -883.000; -732.000
347.576;  361.875;  670.000;  668.000
347.709;  287.850; -123.000;  -52.000
347.843;  -76.700; -933.000; -825.000
347.976;   58.475;  235.000;  294.000
348.110; -169.825;-1268.000;-1186.000
348.243;  -98.975; -679.000; -772.000
348.377;    1.050;  -26.000;   60.000
348.510;   68.775;  403.000;  540.000
348.644;  -27.700;  -37.000; -159.000
348.777;   15.325;  180.000;  191.000
348.911;  -40.975; -142.000; -112.000
349.044;  221.100;  471.000;  448.000
349.178;  256.225;-1069.000;-1006.000
349.311;  136.475;  141.000;  255.000
349.444;  -23.275; -927.000; -813.000
349.578;    9.650; -347.000; -200.000
349.711;  -74.750; -959.000; -862.000
349.845;   39.375; -661.000; -591.000
349.978; -136.450;-1224.000;-1137.000
350.111;  -69.700; -546.000; -612.000
350.244;  -70.825; -596.000; -700.000
350.378;   44.475; -392.000; -393.000
350.511;  -67.950; -393.000; -426.000
350.644;  -94.025; -808.000; -806.000
350.778;   13.775;  168.000;  104.000
350.911;   29.675;  134.000;  140.000
351.044;  -72.700; -685.000; -615.000
351.177;  -12.150; -321.000; -281.000
351.310;   -8.100;    3.000; -131.000
351.444;  -50.775; -888.000; -788.000
351.577;  151.450;  140.000;   90.000
351.710;  115.700;  593.000;  417.000
351.843;  -35.875; -165.000;  -77.000
351.976;   17.125;  149.000;  -79.000
352.109;  -81.825; -621.000; -612.000
352.242;  -10.775; -464.000; -419.000
352.376;  -30.450; -580.000; -636.000
352.509;  273.500; -437.000; -356.000
352.642;   71.250; -654.000; -604.000
352.775;   95.375; -141.000;  -98.000
352.908; -103.725; -933.000; -904.000
353.041;  -80.975; -814.000; -824.000
353.174;  -51.825; -551.000; -424.000
353.307;  -75.350; -753.000; -764.000
353.440;   83.625;  541.000;  453.000
353.573;  -97.125; -957.000;-1008.000
353.706;  -40.225; -384.000; -558.000
353.839;    6.900; -264.000; -220.000
353.971;  -97.050; -657.000; -512.000
354.104;  -67.100; -896.000; -835.000
354.237;  -14.400; -627.000; -662.000
354.370;  -66.000; -846.000; -879.000
354.503; -166.975;-1231.000;-1308.000
354.636;  -17.425; -529.000; -348.000
354.769; -104.975; -937.000; -860.000
354.902;   21.000; -230.000; -139.000
355.034;  -14.950; -164.000; -220.000
355.167;   -0.325; -262.000; -162.000
355.300;  -84.550;-1061.000; -880.000
355.433;  847.350;  -71.000;  -14.000
355.565; 1278.400; -402.000; -384.000
355.698;  322.450; -356.000; -296.000
355.831;   15.150; -882.000; -801.000
355.964;  145.150; -285.000; -170.000
356.096;  -62.575; -856.000; -843.000
356.229;   46.550; -523.000; -530.000
356.362;  270.125; -373.000; -266.000
356.494;  510.325; -229.000; -162.000
356.627;  600.050;  269.000;  377.000
356.760;  624.000;  120.000;   53.000
356.892;  782.650; -286.000; -601.000
357.025;  835.750;  403.000;  389.000
357.157;  805.725; -167.000; -179.000
357.290;  508.925; -856.000; -713.000
357.423;  170.650; -667.000; -556.000
357.555;  157.400; -217.000; -228.000
357.688;  196.100; -483.000; -364.000
357.820;  568.900; -870.000; -877.000
357.953; 4371.750; -563.000; -589.000
358.085; 1027.925; -632.000; -612.000
358.218; 1742.025;-1131.000; -932.000
358.350;  327.725;  -58.000;  312.000
358.483;  -87.450;-1300.000;-1187.000
358.615;   35.375;-1182.000;-1078.000
358.747;   -8.425;-1187.000;-1058.000
358.880;   97.825; -810.000; -744.000
359.012;   15.300; -376.000; -202.000
359.145;  -28.025; -480.000; -511.000
359.277;  108.350; -962.000; -913.000
359.409; 3674.825;  536.000;  231.000
359.542;  946.425; -738.000; -688.000
359.674;   88.400;   46.000;   13.000
359.806;  -58.850; -565.000; -438.000
359.939;  -46.025; -617.000; -516.000
360.071;  -26.150; -583.000; -579.000
360.203;  -18.350; -411.000; -364.000
360.335;   56.625;  164.000;  -16.000
360.468;  239.550; -249.000; -307.000
360.600; 2794.400; -547.000; -454.000
360.732; 2374.175; -546.000; -423.000
360.864;  326.575;-1216.000;-1044.000
360.996;  424.150; -516.000; -554.000
361.129;   85.900; -389.000; -598.000
361.261;   43.800;  110.000; -113.000
361.393;  -14.350; -252.000; -214.000
361.525;   56.475;   94.000;  244.000
361.657;  -32.925; -821.000; -703.000
361.789;   37.650; -139.000; -155.000
361.921;  358.950; -642.000; -593.000
362.053;  345.275;  524.000;  541.000
362.185;   78.700;  288.000;   72.000
362.318;  -50.750; -709.000; -705.000
362.450;  192.025;  294.000;  444.000
362.582;  285.625; -913.000; -870.000
362.714;  -17.250; -353.000; -332.000
362.846;  -88.775; -606.000; -490.000
362.978; -137.625; -941.000; -811.000
363.109;   85.875; -161.000; -260.000
363.241;  595.475; -739.000; -749.000
363.373;  386.225; -649.000; -564.000
363.505;  539.825; -186.000;  -91.000
363.637;  140.575; -787.000; -601.000
363.769; -101.550;-1067.000;-1080.000
363.901;  -52.625; -596.000; -654.000
364.033;  -92.700;-1103.000;-1062.000
364.165;   10.500; -283.000; -283.000
364.296;   71.275; -316.000; -177.000
364.428;   19.100;-1344.000;-1220.000
364.560;  -63.250; -679.000; -661.000
364.692;  -52.925; -738.000; -835.000
364.824;  411.700; -588.000; -456.000
364.955;  446.675; -402.000; -564.000
365.087;  646.375;-1097.000; -852.000
365.219;   20.375; -686.000; -816.000
365.351;  -56.975; -526.000; -572.000
365.482;   66.700;  300.000;  240.000
365.614;  -37.725; -402.000; -314.000
365.746;  -73.625; -729.000; -752.000
365.877;  -88.125; -706.000; -672.000
366.009;  207.150;  -35.000;  -62.000
366.141; -107.775;-1249.000;-1134.000
366.272;  -98.375; -803.000; -719.000
366.404; -114.175;-1005.000; -874.000
366.535;    5.825; -139.000;  -12.000
366.667;  -97.550; -644.000; -649.000
366.799;   64.875;  353.000;  203.000
366.930;  -96.000; -862.000; -996.000
367.062;  123.275; -639.000; -613.000
367.193;   86.925; -872.000; -842.000
367.325;  -71.275; -580.000; -684.000
367.456;  126.875; -246.000;   31.000
367.588;  154.025; -371.000; -318.000
367.719;   28.975;  -44.000;  -45.000
367.851;    1.800; -222.000; -241.000
367.982;  -22.125; -875.000; -732.000
368.113;  168.500; -475.000; -358.000
368.245; -104.775; -960.000; -841.000
368.376;    1.250; -254.000; -302.000
368.508;  -38.725; -188.000; -263.000
368.639; -124.375;-1166.000;-1034.000
368.770;   15.750; -670.000; -589.000
368.902;  -15.650; -836.000; -926.000
369.033;  -89.775; -906.000; -855.000
369.164;  -39.575; -720.000; -653.000
369.296; -104.700; -452.000; -601.000
369.427;   26.125; -209.000; -144.000
369.558;  -49.700; -593.000; -377.000
369.689;  -75.175; -721.000; -569.000
369.821; -127.750; -951.000; -845.000
369.952;   -2.050;   42.000; -108.000
370.083;  -50.675; -229.000; -108.000
370.214;  -68.750; -735.000; -650.000
370.345;   -1.125;   65.000;   81.000
370.477;  -67.975; -810.000; -790.000
370.608;  348.475; -328.000; -264.000
370.739;   -0.150;-1233.000;-1292.000
370.870;   -2.175;-1102.000; -923.000
371.001;  136.650; -378.000; -467.000
371.132;  -56.200; -754.000; -735.000
371.263;   -9.550;  -42.000; -148.000
371.394; -123.100; -841.000; -748.000
371.525;   41.325;  345.000;  225.000
371.657;  -80.075; -808.000; -670.000
371.788;  100.500;  103.000;  199.000
371.919;  254.275; -384.000; -304.000
372.050; 4630.950;  -91.000; -156.000
372.181; 1354.475; -188.000; -294.000
372.311;  499.875;   42.000; -127.000
372.442;   81.000; -457.000; -451.000
372.573;   12.300; -444.000; -340.000
372.704; -100.400;-1008.000; -980.000
372.835;  137.025; -228.000; -289.000
372.966;  -31.125; -646.000; -554.000
373.097;  -30.375; -575.000; -711.000
373.228;   -7.650; -717.000; -542.000
373.359;  242.425; -824.000; -536.000
373.490; 1257.850; -881.000; -727.000
373.620; 1602.100;-1001.000; -803.000
373.751; 2439.975; -332.000; -396.000
373.882; 1067.400; -663.000; -733.000
374.013;  109.325; -449.000; -262.000
374.143;  -12.400; -581.000; -659.000
374.274;  -78.875; -987.000; -908.000
374.405;  240.400; -388.000; -276.000
374.536;  630.100; -526.000; -387.000
374.666; 1552.575; -759.000; -807.000
374.797;  341.175; -817.000; -868.000
374.928; 1201.150; -710.000; -560.000
375.058; 1203.650; -535.000; -500.000
375.189;  129.525;  -59.000;  -93.000
375.320;  -91.025; -928.000;-1034.000
375.450;  -11.750; -625.000; -616.000
375.581;  -34.200; -526.000; -436.000
375.712;  -10.250; -574.000; -250.000
375.842;  463.000; -438.000; -415.000
375.973;  328.150; -554.000; -513.000
376.103;    8.500; -665.000; -648.000
376.234;  -55.275; -531.000; -552.000
376.364;    9.000; -944.000; -867.000
376.495;  403.225;  925.000;  529.000
376.625;   49.075; -472.000; -485.000
376.756;  129.875; -709.000; -678.000
376.886;  -53.500;-1178.000;-1026.000
377.017;   27.900;-1048.000;-1061.000
377.147;  240.850; -786.000; -782.000
377.278;   64.500;  174.000;  228.000
377.408; -114.575; -801.000; -815.000
377.538;  -91.825; -707.000; -693.000
377.669;  -83.400; -537.000; -613.000
377.799;  -58.625; -645.000; -635.000
377.929;  -29.150; -610.000; -428.000
378.060; -121.425; -781.000; -847.000
378.190;  -44.600; -726.000; -531.000
378.320;  -36.575; -401.000; -406.000
378.451;   11.850; -131.000;  -22.000
378.581;   12.550;  -67.000; -110.000
378.711;  177.425; 1035.000;  866.000
378.841;   21.675; -533.000; -675.000
378.972;  -46.825; -871.000; -751.000
379.102;   36.150; -652.000; -579.000
379.232;    3.875; -126.000;  -73.000
379.362;  -77.100;-1001.000; -885.000
379.492;   52.125; -373.000; -424.000
379.623;  140.650;    0.000;  111.000
379.753;  -73.550;-1107.000; -974.000
379.883;  254.750;   59.000;  156.000
380.013;   54.050;-1081.000;-1017.000
380.143;  -70.525;-1097.000;-1056.000
380.273;  -89.750; -985.000; -861.000
380.403;   25.800; -344.000; -257.000
380.533;   -2.375; -651.000; -664.000
380.663;  125.675;  173.000;  128.000
380.793;  -54.000;-1027.000;-1074.000
380.923;   -3.800; -103.000;  -34.000
381.053;  -81.400; -613.000; -623.000
381.183;   -5.500; -106.000; -248.000
381.313;   76.150; -656.000; -470.000
381.443;   78.225; -692.000; -473.000
381.573;  317.025; -402.000; -409.000
381.703;  459.100;-1249.000;-1095.000
381.833;  -96.600;-1454.000;-1336.000
381.963;  160.000; -134.000;  -87.000
382.093; 1738.475; -925.000; -909.000
382.223;  542.750; -713.000; -602.000
382.353;   15.700; -801.000; -608.000
382.482;  596.100;-1091.000; -964.000
382.612; 1000.675; -872.000; -644.000
382.742;  571.950; -695.000; -622.000
382.872;  410.275; -565.000; -551.000
383.002;   88.700;  347.000; -132.000
383.131;    6.575; -226.000; -160.000
383.261;  -16.425; -706.000; -768.000
383.391;  294.675; -552.000; -377.000
383.521; 2576.900;  451.000;  263.000
383.650;  519.375; -947.000; -904.000
383.780;  -14.600; -783.000; -656.000
383.910;  124.250;  880.000;  802.000
384.039;   76.825; -794.000; -656.000
384.169;  338.775;-1205.000;-1017.000
384.299;   24.100; -650.000; -662.000
384.428;  -64.250; -764.000; -680.000
384.558;  -27.225; -308.000; -275.000
384.687;  -17.000; -414.000; -334.000
384.817;   39.400;   75.000;   -2.000
384.947;   51.600; -234.000; -141.000
385.076;  359.725;  982.000;  912.000
385.206;  146.125;  369.000;  480.000
385.335;   -5.800; -549.000; -417.000
385.465;  -64.400; -655.000; -663.000
385.594;  213.375;  -53.000;  -44.000
385.724;  638.800; -868.000; -838.000
385.853;  196.600; -296.000; -270.000
385.982; 1870.050; -743.000; -787.000
386.112; 2867.125;-1052.000; -871.000
386.241;  213.600; -307.000; -312.000
386.371;   48.950; -174.000;  -87.000
386.500;   46.275; -825.000; -789.000
386.629;   66.800; -874.000; -817.000
386.759;   73.775;  -43.000;   68.000
386.888;   21.025; -170.000; -250.000
387.017;  -59.250; -648.000; -620.000
387.147;  -59.025; -771.000; -798.000
387.276;   29.000; -410.000; -397.000
387.405;   56.125; -398.000; -342.000
387.535;  -27.575; -452.000; -361.000
387.664;  -37.725; -692.000; -620.000
387.793;  102.700; -198.000; -113.000
387.922;  729.250;  255.000;  200.000
388.052;   81.050; -576.000; -423.000
388.181;   98.425; -342.000; -472.000
388.310;   88.450; -889.000; -710.000
388.439;   17.425; -749.000; -742.000
388.568;  260.075;  365.000;  244.000
388.697; 1500.775; -756.000; -653.000
388.826;  310.300; -768.000; -666.000
388.956;  105.900; -285.000; -307.000
389.085;   -6.475; -347.000; -287.000
389.214;  -90.825; -842.000; -872.000
389.343;  -54.975; -645.000; -413.000
389.472;  377.875;  126.000;  149.000
389.601;  512.500;   91.000;    0.000
389.730;   69.125; -568.000; -687.000
389.859;   78.275;  226.000;   46.000
389.988;  287.525; -423.000; -408.000
390.117;  187.300; -168.000; -146.000
390.246;   15.100; -331.000; -320.000
390.375;  185.525; -673.000; -626.000
390.504;  -33.550; -703.000; -621.000
390.633;  -81.600; -672.000; -726.000
390.761;  -42.650; -732.000; -645.000
390.890;   63.600;   -4.000; -130.000
391.019;   12.450; -421.000; -441.000
391.148; -115.175; -826.000; -855.000
391.277;  -35.250; -576.000; -493.000
391.406;  -53.775; -821.000; -805.000
391.534;   37.650;  574.000; -301.000
391.663;  -38.750; -583.000; -645.000
391.792;  -66.650; -673.000; -701.000
391.921;  172.925;   -3.000;   15.000
392.050;  313.350; -287.000; -228.000
392.178;   19.450;-1206.000;-1061.000
392.307;  247.875; -758.000; -712.000
392.436;  136.200; -427.000; -641.000
392.564;   54.725;  166.000;   -6.000
392.693;  -87.425; -860.000; -682.000
392.822;  334.650; -529.000; -534.000
392.950;  177.400; -880.000; -714.000
393.079;  479.900; -188.000; -328.000
393.208;   68.325; -488.000; -511.000
393.336;    4.525; -170.000; -145.000
393.465;  -43.175; -317.000; -199.000
393.593;   16.450;   62.000;   79.000
393.722; -140.375;-1121.000; -916.000
393.850;  -15.025; -188.000;  -61.000
393.979; -156.150; -926.000; -805.000
394.107;  -53.075; -517.000; -537.000
394.236;   -5.450; -570.000; -507.000
394.364;  222.750;  383.000;  206.000
394.493;  334.575; -911.000; -767.000
394.621;   -5.450; -955.000; -916.000
394.750;  603.400; -873.000; -923.000
394.878; 2544.725; -247.000; -149.000
395.007; 3329.525; -721.000; -807.000
395.135;  240.475; -790.000; -721.000
395.263;  -75.275;-1038.000;-1040.000
395.392;   20.500;  -25.000; -107.000
395.520; -141.375; -818.000; -679.000
395.648;  -60.775; -865.000; -915.000
395.777;   11.050; -366.000; -405.000
395.905;  -34.300; -449.000; -564.000
396.033;   18.400;  217.000;  172.000
396.162;  581.600; -399.000; -453.000
396.290;  506.000;  -17.000;   -2.000
396.418;  164.900; -555.000; -514.000
396.546;  -62.875; -571.000; -466.000
396.674;  -74.375; -850.000; -878.000
396.803;   19.275;  -72.000;  -23.000
396.931;  148.325; -179.000; -199.000
397.059;  128.950;-1026.000; -989.000
397.187;  -86.425;-1026.000; -975.000
397.315; -132.825; -884.000; -649.000
397.443;  -79.325; -592.000; -443.000
397.572;  -96.675; -578.000; -424.000
397.700;   34.325; -607.000; -614.000
397.828;   30.900;  120.000;  -90.000
397.956;  -35.500; -508.000; -478.000
398.084;  -72.075; -767.000; -626.000
398.212;   64.050;  137.000;  124.000
398.340;   34.875;  -56.000;  159.000
398.468;   82.075; -390.000; -169.000
398.596; -116.225; -993.000; -953.000
398.724; -107.900; -762.000; -767.000
398.852; -149.700;-1024.000; -976.000
398.980;  -43.575; -560.000; -560.000
399.108;  -26.675; -982.000; -735.000
399.236;   72.225;   13.000;    8.000
399.363;   30.500;  222.000;  196.000
399.491;  -47.000; -404.000; -398.000
399.619; -112.750; -829.000; -800.000
399.747;  -76.475; -859.000; -771.000
399.875;   92.300;  220.000;  234.000
400.003;  -34.525; -359.000; -284.000
400.130;  -83.675; -421.000; -341.000
400.258;  -17.650;  -83.000;   38.000
400.386;  -52.175; -352.000; -168.000
400.514;   -7.725; -526.000; -587.000
400.641;  -60.150; -928.000; -802.000
400.769; -114.850; -979.000; -888.000
400.897;  -89.775; -838.000; -793.000
401.025;    3.325; -166.000; -152.000
401.152;   10.200;  220.000;   38.000
401.280;  -70.775; -430.000; -429.000
401.408; -120.300; -712.000; -576.000
401.535;  -94.650; -735.000; -758.000
401.663; -189.500;-1134.000;-1054.000
401.790;  -68.625; -514.000; -525.000
401.918;   50.200;  436.000;  405.000
402.046;  -13.150;  134.000;  122.000
402.173;  -30.900;  -18.000;    7.000
402.301;  -54.900; -519.000; -397.000
402.428;   42.900;  528.000;  383.000
402.556; -143.800;-1188.000; -913.000
402.683;  -23.025;  -20.000;   -1.000
402.811;  -13.900;  -37.000; -206.000
402.938;  -14.925;   20.000;   27.000
403.066;  315.475; -574.000; -558.000
403.193;  455.325;  299.000;  239.000
403.321;  384.675; -396.000; -574.000
403.448;  430.675;   83.000;   27.000
403.575;  209.800;  -90.000;  -46.000
403.703;  -87.125; -732.000; -557.000
403.830;  -58.200; -531.000; -496.000
403.957; -128.625;-1117.000;-1023.000
404.085;   27.025;  -61.000; -172.000
404.212;  109.650;  -50.000;   63.000
404.339;  227.125; -566.000; -306.000
404.467; 4828.350; -612.000; -524.000
404.594; 3550.650; -287.000; -227.000
404.721;  969.625; -869.000; -764.000
404.848;  100.875; -113.000; -202.000
404.976;  -98.900; -856.000; -783.000
405.103;    3.775;  -14.000;  -82.000
405.230;   -7.275;  190.000;  226.000
405.357;   43.225;  117.000;   44.000
405.484;  226.550;  -49.000;    5.000
405.612;   43.775; -548.000; -563.000
405.739;  -51.050; -488.000; -243.000
405.866;   98.075;  669.000;  385.000
405.993;  -36.650; -398.000; -102.000
406.120; -116.275; -801.000; -887.000
406.247;  -50.375; -323.000; -342.000
406.374;  629.850;  540.000;  629.000
406.501;  196.875; -632.000; -702.000
406.628;  -63.950; -621.000; -589.000
406.755;  -87.500; -803.000; -620.000
406.882;  -35.625; -228.000; -277.000
407.009;  -99.625; -719.000; -628.000
407.136;  102.725; -480.000; -401.000
407.263;  246.700; -939.000; -829.000
407.390;  -48.525; -692.000; -614.000
407.517; -155.275;-1139.000;-1187.000
407.644;  -48.400; -332.000; -256.000
407.771;  -64.775; -249.000; -287.000
407.898;   14.725;  168.000;  328.000
408.025;  -51.575; -421.000; -313.000
408.151;    8.750;   82.000;  153.000
408.278;  -70.350; -267.000; -216.000
408.405; -106.825; -931.000; -899.000
408.532;  -53.750; -549.000; -542.000
408.659; -110.100; -677.000; -648.000
408.785; -199.500;-1298.000;-1170.000
408.912;  -60.500; -412.000; -296.000
409.039; -105.925; -610.000; -686.000
409.166; -100.925; -591.000; -555.000
409.292; -112.475; -571.000; -534.000
409.419; -116.700; -665.000; -649.000
409.546;  -83.825; -431.000; -192.000
409.672; -103.125; -713.000; -545.000
409.799;  -16.400;  -36.000;   34.000
409.926;  -34.300; -180.000; -179.000
410.052; -178.900;-1127.000;-1091.000
410.179;  -39.625; -368.000; -392.000
410.305;  -74.425; -375.000; -493.000
410.432;  -35.875; -220.000; -333.000
410.558;  -86.725; -305.000; -380.000
410.685;  -99.175; -688.000; -431.000
410.812;  -99.700; -409.000; -588.000
410.938; -129.900; -964.000; -808.000
411.065;  -94.550; -671.000; -645.000
411.191;   -6.625; -189.000; -174.000
411.317; -113.275; -823.000; -742.000
411.444;  -51.325; -317.000; -246.000
411.570;  -58.500; -339.000; -294.000
411.697; -112.975; -758.000; -752.000
411.823; -175.550; -989.000; -999.000
411.949;  -18.050;  -56.000;   17.000
412.076; -109.350; -539.000; -519.000
412.202; -127.900; -758.000; -757.000
412.329; -121.225; -798.000; -752.000
412.455;  -94.475; -821.000; -657.000
412.581;   -9.975;  -15.000;  172.000
412.707;  -42.150; -540.000; -457.000
412.834;   22.500;  156.000;  219.000
412.960;  -61.600; -785.000; -784.000
413.086; -101.300; -743.000; -701.000
413.212;  189.700;  604.000;  578.000
413.339;  -57.525; -685.000; -701.000
413.465;   43.375; -364.000; -310.000
413.591;  -76.800; -757.000; -474.000
413.717;  -45.750; -358.000; -366.000
413.843; -139.700; -839.000; -861.000
413.969;  -50.300;  -47.000; -292.000
414.096;  -90.950; -679.000; -679.000
414.222;   -4.600;  -33.000;   85.000
414.348;   -1.750; -652.000; -385.000
414.474;  152.075;   38.000;  -52.000
414.600;  -19.050; -126.000; -144.000
414.726;    0.625;  -96.000;  -55.000
414.852;  -59.900; -365.000; -342.000
414.978;   37.425;  104.000;  -18.000
415.104;   36.450;   38.000;   80.000
415.230;   28.750; -329.000; -330.000
415.356;   43.550; -409.000; -514.000
415.482;  204.800;   13.000;  -35.000
415.608;  233.800; -247.000; -323.000
415.734;  879.050;   67.000;   38.000
415.860;18117.175; -875.000; -767.000
415.986;12735.875; -685.000; -607.000
416.111; 1072.750; -798.000; -652.000
416.237;  204.200; -424.000; -571.000
416.363;  956.225; -765.000; -733.000
416.489; 3517.700; -324.000; -251.000
416.615;  338.000; -707.000; -742.000
416.741;  -30.975; -677.000; -784.000
416.866;  -96.775; -673.000; -736.000
416.992; -108.275; -801.000; -818.000
417.118;  -26.625;  -41.000;  -80.000
417.244;  -44.450; -798.000; -531.000
417.369;  -76.275; -801.000; -612.000
417.495;   21.950; -325.000; -254.000
417.621;  -89.650;-1015.000; -803.000
417.746;   15.750; -579.000; -572.000
417.872;   33.050; -254.000; -144.000
417.998;   39.175; -515.000; -530.000
418.123;  897.600;-1073.000; -845.000
418.249; 4597.875; -512.000; -601.000
418.374;  597.375; -916.000; -824.000
418.500;   90.325; -383.000; -482.000
418.626;  103.500;   70.000;  -59.000
418.751;  120.300; -549.000; -448.000
418.877;  169.725; -637.000; -643.000
419.002; 1562.600; -688.000; -560.000
419.128;10659.475; -930.000; -721.000
419.253; 2485.375; -967.000; -837.000
419.379;  329.175; -391.000; -338.000
419.504;  364.075;  325.000;  415.000
419.629;  436.200; -393.000; -212.000
419.755; 2942.050; -317.000; -254.000
419.880;16944.075;  -98.000;   67.000
420.006; 9799.350; -280.000; -221.000
420.131;25546.125; -662.000; -775.000
420.256; 3626.550; -315.000; -316.000
420.382;  468.125; -665.000; -687.000
420.507;   61.350; -649.000; -778.000
420.632;  220.775; -337.000; -339.000
420.758;  386.150; -251.000; -425.000
420.883;  -70.525; -876.000; -672.000
421.008;  -88.150; -775.000; -619.000
421.133;  -75.075; -509.000; -467.000
421.259;  -36.300; -325.000; -259.000
421.384;  -98.950; -834.000; -693.000
421.509;    1.350;-1052.000; -862.000
421.634; 1793.675; -936.000; -820.000
421.759;  760.525; -359.000; -327.000
421.885;  -14.250; -717.000; -656.000
422.010;  -55.175; -673.000; -542.000
422.135; -140.550; -695.000; -727.000
422.260;   43.075;  340.000;  280.000
422.385;  -33.100;   12.000;  -98.000
422.510;   21.300;  151.000;  -26.000
422.635;   43.275;  -87.000;  -43.000
422.760;  121.325; -766.000; -791.000
422.885;   64.500;  -57.000;  -80.000
423.010;  -36.550; -112.000; -169.000
423.135;  -84.450; -481.000; -561.000
423.260;    7.550; -150.000; -245.000
423.385;   87.250;  476.000;  222.000
423.510;   59.450;   71.000;  -22.000
423.635;  104.050;  133.000;   45.000
423.760;   81.650;  383.000;  328.000
423.885;   56.100;  336.000;  391.000
424.010;   26.100;  -68.000;  -13.000
424.135;  -14.125;    5.000;  -33.000
424.259;  -85.200; -654.000; -457.000
424.384;  -60.750; -279.000; -272.000
424.509;  -11.650; -260.000; -186.000
424.634;  -98.375; -761.000; -623.000
424.759;  -21.825; -688.000; -544.000
424.883;  -12.100; -506.000; -527.000
425.008;  165.050; -502.000; -410.000
425.133; 1734.300; -679.000; -653.000
425.258;  786.175; -517.000; -381.000
425.382; 1316.675; -867.000; -774.000
425.507; 3288.700; -487.000; -543.000
425.632;  485.025; -802.000; -663.000
425.756;  394.350; -256.000; -146.000
425.881; 5164.100; -831.000; -857.000
426.006;13493.525; -604.000; -355.000
426.130; 2167.125; -696.000; -508.000
426.255;  274.825; -611.000; -491.000
426.379;  138.525; -189.000; -577.000
426.504;  345.225;  660.000;  544.000
426.629; 3693.875; -519.000; -466.000
426.753; 2467.075;   64.000;  -46.000
426.878;  280.350; -252.000; -288.000
427.002;  155.825; -651.000; -668.000
427.127; 1457.925;  -35.000; -158.000
427.251; 9767.300;  372.000;  401.000
427.375; 2698.100; -191.000; -173.000
427.500; 2802.650; -616.000; -610.000
427.624;  945.075; -234.000; -400.000
427.749;  132.400; -216.000; -225.000
427.873;  -33.350; -499.000; -412.000
427.997;  -35.050; -222.000; -230.000
428.122;   76.850;  795.000;  703.000
428.246;  112.775;  433.000;  434.000
428.371; -123.075; -869.000; -773.000
428.495; -102.450; -624.000; -646.000
428.619;  -26.125; -186.000; -117.000
428.743;   41.275;   65.000;  132.000
428.868;   69.900; -732.000; -643.000
428.992; 1843.450; -219.000; -326.000
429.116;  763.475; -329.000; -357.000
429.240;  395.875;  419.000;  426.000
429.365;  -15.075; -454.000; -574.000
429.489;  -19.425; -638.000; -647.000
429.613;   29.950; -236.000; -177.000
429.737;   32.075; -563.000; -432.000
429.861;  250.975; -247.000; -133.000
429.985; 4921.525; -425.000; -305.000
430.109; 5232.300; -770.000; -908.000
430.234;  599.050;   76.000;  -50.000
430.358;   39.100; -250.000; -160.000
430.482;  -62.275; -672.000; -564.000
430.606;  -63.575; -655.000; -375.000
430.730;   57.650; -437.000; -388.000
430.854;  227.125; -909.000; -835.000
430.978;  -47.100; -795.000; -764.000
431.102;  -79.200; -499.000; -422.000
431.226;  -88.175; -874.000; -815.000
431.350;   50.075;  345.000;  422.000
431.474;  -68.975; -661.000; -373.000
431.597; -137.625;-1060.000; -848.000
431.721;  -80.000; -276.000; -267.000
431.845; -135.525; -704.000; -472.000
431.969;  -83.900; -304.000; -349.000
432.093;  -91.700; -395.000; -317.000
432.217;  -18.825;   32.000;   82.000
432.341;  -90.150; -523.000; -518.000
432.464;   25.025;   96.000;   40.000
432.588;  317.375; -401.000; -329.000
432.712;  146.100;  -52.000;  -52.000
432.836;   37.300;  213.000;  263.000
432.959;  -27.100; -372.000; -311.000
433.083;   72.050;   11.000;    2.000
433.207;  338.550;  285.000;  930.000
433.330; 4304.550; -391.000; -200.000
433.454; 5160.675; -654.000; -638.000
433.578; 3037.675;  583.000;  278.000
433.701;  558.900; -623.000; -675.000
433.825;  210.075; -292.000; -299.000
433.949;  309.925;   28.000;  -72.000
434.072;  133.800; -410.000; -323.000
434.196;    5.650; -309.000; -117.000
434.319; 3761.575;25482.000;25124.000
434.443;  738.400; -656.000; -603.000
434.566; 2314.075;  281.000;   62.000
434.690;  358.600; -637.000; -383.000
434.813;   60.825; -251.000; -173.000
434.937;  -70.225; -569.000; -696.000
435.060;   -4.025; -423.000; -332.000
435.184;  560.050; -492.000; -217.000
435.307;  274.025;  159.000;  102.000
435.431;   16.825;  -40.000;   24.000
435.554;  -80.000; -399.000; -240.000
435.677;  -71.900; -350.000; -258.000
435.801;  -48.175;  -25.000;   49.000
435.924;   22.575;    1.000;  -67.000
436.048;  -77.675;-1019.000; -732.000
436.171;  -51.700; -240.000;  -66.000
436.294;  -27.700; -248.000; -229.000
436.417;   62.875; -963.000; -849.000
436.541;  -87.925; -814.000; -840.000
436.664;  -41.275; -242.000; -316.000
436.787;  -23.875;   13.000;  113.000
436.910; -106.050; -792.000; -422.000
437.034;   25.725;  142.000;  143.000
437.157;  126.375;  -11.000;    0.000
437.280;  -10.250; -392.000; -292.000
437.403;  -47.450; -982.000; -869.000
437.526; 1071.350; -903.000; -865.000
437.649; 3523.575; -505.000; -332.000
437.772;  562.950; -692.000; -540.000
437.896;  168.000;  700.000;  544.000
438.019;  -80.425; -758.000; -503.000
438.142;  -73.775; -596.000; -506.000
438.265;   47.925; -639.000; -670.000
438.388;  850.200; -520.000; -410.000
438.511;  192.025; -597.000; -394.000
438.634;  -33.550; -247.000; -125.000
438.757; -124.250; -693.000; -619.000
438.880;   -8.300;  -34.000;  -57.000
439.003;  -70.650; -417.000; -437.000
439.126;  -57.675; -287.000; -167.000
439.248;  -53.250;  -98.000; -139.000
439.371;  -34.100;    9.000;  -53.000
439.494;   28.325;  510.000;  439.000
439.617;  -50.000;   65.000;  -88.000
439.740; -188.175; -968.000; -816.000
439.863; -134.675; -755.000; -595.000
439.986; -117.425; -476.000; -431.000
440.108;  -43.650; -161.000; -112.000
440.231; -161.150; -950.000; -836.000
440.354;  -38.350;  -64.000; -150.000
440.477;   92.025; -566.000; -542.000
440.599;   43.375; -200.000; -225.000
440.722; -124.175; -709.000; -586.000
440.845;   76.100;  751.000;  928.000
440.968; -110.000; -415.000; -311.000
441.090;  -61.650; -199.000;  -33.000
441.213; -166.025;-1021.000; -825.000
441.336;  -39.650; -159.000;   -5.000
441.458;  -62.125; -549.000; -396.000
441.581;  -58.100; -628.000; -629.000
441.703;  -59.825; -152.000;   13.000
441.826;  -86.250; -557.000; -400.000
441.948;  -65.925;   56.000;   51.000
442.071;   38.925;  555.000;  424.000
442.193; -114.575; -531.000; -485.000
442.316;   31.275;  152.000;   97.000
442.438;   43.100; -233.000;  -10.000
442.561;  105.125;  272.000;  262.000
442.683;  870.850; -809.000; -522.000
442.806; 1750.000;   -8.000;   74.000
442.928;  106.350; -859.000; -604.000
443.051;  -46.700; -577.000; -373.000
443.173;  -76.150; -341.000; -339.000
443.295;  -71.050; -263.000; -371.000
443.418;  -63.400; -321.000;  -29.000
443.540;   -3.800; -106.000;   -4.000
443.662; -107.100; -563.000; -465.000
443.785;  -14.950;  335.000;  199.000
443.907;  -94.000; -362.000; -208.000
444.029; -130.875; -767.000; -494.000
444.152; -138.650; -644.000; -554.000
444.274;  -24.750;  -18.000;  -24.000
444.396; -103.750; -461.000; -221.000
444.518; -139.450; -691.000; -454.000
444.640; -110.550; -268.000; -111.000
444.763;  -15.975;  388.000;  249.000
444.885; -119.150; -432.000; -392.000
445.007;  -34.925;   35.000;   86.000
445.129; -110.700; -610.000; -515.000
445.251;  -89.325; -372.000; -439.000
445.373; -136.700; -537.000; -386.000
445.495;    6.675;  242.000;  350.000
445.617;   66.400;  853.000;  753.000
445.739;  -43.075; -215.000;  -97.000
445.861;  -37.875; -245.000; -112.000
445.984;   -3.275; -267.000; -101.000
446.105;  327.175; -418.000; -251.000
446.227;  860.725; -176.000;  -19.000
446.349;   40.325; -358.000; -249.000
446.471;  -94.875; -615.000; -448.000
446.593;  -39.325; -316.000;   19.000
446.715;   19.450;  -67.000;   41.000
446.837;   67.275;  697.000;  832.000
446.959;  -94.575; -457.000; -478.000
447.081; -130.350; -628.000; -518.000
447.203;   62.025;  862.000;  834.000
447.325;  -99.975; -270.000;   42.000
447.446;   -1.250;  286.000;  530.000
447.568; -159.475; -921.000; -803.000
447.690;  -63.350; -236.000; -245.000
447.812; -151.850; -798.000; -519.000
447.933;  -29.200;  155.000;  127.000
448.055;  -71.100; -306.000; -261.000
448.177;  218.100;   31.000;   79.000
448.299;  163.900; -935.000; -727.000
448.420;   43.650;  -25.000;  159.000
448.542;  -50.275;   -3.000;   33.000
448.664;   -6.050;  109.000;  322.000
448.785;  -30.825;  265.000;   83.000
448.907;  -68.925; -614.000; -353.000
449.028;   -6.575; -771.000; -471.000
449.150;   86.975;  492.000;  589.000
449.272; -177.375;-1044.000; -913.000
449.393;   34.100;  612.000;  694.000
449.515; -150.475; -634.000; -581.000
449.636;  -48.475; -264.000; -155.000
449.758;  105.425;  763.000;  622.000
449.879;  -85.225; -498.000; -396.000
450.001;  -87.125; -149.000;  -49.000
450.122;  -28.525;  -95.000;  162.000
450.244;  -34.475;   37.000;  364.000
450.365;  -88.700; -495.000; -301.000
450.486;  -40.175;   80.000;  268.000
450.608;    8.000;  393.000;  326.000
450.729;   51.725;  578.000;  645.000
450.850;   -9.775; -574.000; -466.000
450.972;  566.775; -552.000; -389.000
451.093; 3988.375;  190.000;  588.000
451.214; 1631.900; -516.000; -337.000
451.336;  323.925;  773.000;  579.000
451.457;   41.800;  264.000;  393.000
451.578;  -43.025; -118.000;  -74.000
451.699; -122.900; -546.000; -540.000
451.821;  -67.575; -284.000;  -50.000
451.942;   10.825;  278.000;  285.000
452.063;   33.950;  228.000;  419.000
452.184;  446.775;  -54.000;  -49.000
452.305;  921.575;  103.000;  170.000
452.427;   88.550; -549.000; -301.000
452.548;  -19.025;   23.000;   79.000
452.669;  -31.225; -257.000;  -89.000
452.790;  -26.625;    3.000;  -18.000
452.911;    2.775;  195.000;  259.000
453.032;  -57.350; -289.000;  -60.000
453.153;  -33.175;  -29.000;   81.000
453.274;   61.900;  737.000;  868.000
453.395;  -57.150;  -51.000;  175.000
453.516;  148.625; 1317.000; 1388.000
453.637;  -48.950; -205.000; -150.000
453.758;  -37.375;   15.000;   69.000
453.879; -126.300; -462.000; -250.000
454.000;   91.425; 1086.000;  948.000
454.121; -123.850; -554.000; -326.000
454.242; -108.600; -599.000; -383.000
454.362;  -57.100;  -99.000;  114.000
454.483;  -30.050; -309.000; -229.000
454.604;   66.325;  512.000;  580.000
454.725; -116.025; -627.000; -555.000
454.846; -117.675; -474.000; -406.000
454.967;  -14.875;  230.000;  539.000
455.087;  -54.375;  179.000;  153.000
455.208;   28.925;  554.000;  856.000
455.329;  -81.475;  -22.000;   82.000
455.450;   37.150;  473.000;  633.000
455.570;  -81.575; -234.000; -211.000
455.691;  -38.250;  201.000;  407.000
455.812; -106.125; -270.000;  -92.000
455.932;  -63.800;  107.000;  -97.000
456.053;  -85.775;   36.000;   24.000
456.173; -111.525; -433.000; -355.000
456.294; -139.275; -476.000; -303.000
456.415;  -70.250;  -73.000;   70.000
456.535;  -33.300;  297.000;  273.000
456.656;  -31.300;  132.000;  240.000
456.776;  -60.300;    3.000;  298.000
456.897;   10.825;  308.000;  513.000
457.017;  -77.400; -153.000;   -3.000
457.138;  -97.825; -402.000; -249.000
457.258;  -22.150;  263.000;  224.000
457.379;   -6.900;  509.000;  521.000
457.499;  -26.500;  443.000;  432.000
457.620; -107.725; -407.000; -231.000
457.740;  -96.075; -132.000;  -11.000
457.860;  -55.575;   87.000;   44.000
457.981;  -36.875;  132.000;  124.000
458.101;  -53.300;  -89.000;   40.000
458.221;  -24.925;  336.000;  402.000
458.342;  -45.450;   -4.000;  -37.000
458.462;    0.150;  617.000;  352.000
458.582;  -48.050; -302.000; -294.000
458.703;  -16.400;  303.000;  154.000
458.823;  -19.225;   22.000;  163.000
458.943;   17.700;  341.000;  467.000
459.063;   -7.450; 1124.000;  192.000
459.183;  -22.950;  328.000;  313.000
459.304;   12.800;  315.000;  517.000
459.424;  -52.125; -246.000;  -89.000
459.544;  297.350;  388.000;  764.000
459.664;  693.575;  499.000;  506.000
459.784;  272.700; 1004.000; 1175.000
459.904;   56.500;  867.000;  744.000
460.024;   83.225;  867.000;  684.000
460.144;   16.450;  449.000;  554.000
460.264;    2.400;  515.000;  327.000
460.385; -101.850; -145.000; -119.000
460.505;   46.950;  905.000;  858.000
460.625;  -85.575;  -17.000;  -68.000
460.745;   -7.050;  396.000;  541.000
460.864;  -60.675;  153.000;  469.000
460.984;   34.200;  499.000;  573.000
461.104;  142.325; 1656.000; 1775.000
461.224;   36.400;  657.000;  650.000
461.344;  -20.925;  431.000;  360.000
461.464;  -20.750;  258.000;  513.000
461.584;    0.725;  283.000;  466.000
461.704;  -37.975;   58.000;  108.000
461.824;  -53.450;  238.000;  259.000
461.943;  -25.125;  191.000;  130.000
462.063;  -73.400;    2.000;  324.000
462.183;   46.075;  639.000;  717.000
462.303;  113.800; 1678.000; 1230.000
462.422;   38.600;  781.000;  840.000
462.542;  -38.675;  271.000;  391.000
462.662;   56.025;  353.000;  380.000
462.782;  215.725;  833.000;  572.000
462.901;  420.775;  545.000;  717.000
463.021;  264.850; 1702.000; 1638.000
463.141;    8.325;  337.000;  770.000
463.260;  -27.800;  614.000;  474.000
463.380;   22.625;  902.000;  884.000
463.499;  -51.500;  342.000;  332.000
463.619;  -31.500;  581.000;  559.000
463.738;  132.850; 1644.000;  903.000
463.858;   22.900;  657.000;  811.000
463.978;  -37.450;  542.000;  396.000
464.097;   54.650;  921.000; 1114.000
464.217;   97.300; 1196.000; 1143.000
464.336;  106.625; 1068.000; 1130.000
464.455;  -32.075;  328.000;  659.000
464.575;   76.675;  597.000;  602.000
464.694;  189.050; 1204.000; 1179.000
464.814;  126.800; 1190.000; 1138.000
464.933;   96.450; 1095.000; 1027.000
465.052;  109.475; 1412.000; 1054.000
465.172;   89.675;  922.000;  799.000
465.291;  161.900; 1376.000; 1320.000
465.410;   10.700;  462.000;  735.000
465.530;   94.325; 1355.000; 1310.000
465.649;   79.400; 1209.000; 1273.000
465.768;  150.025; 1673.000; 1508.000
465.888;   42.400;  941.000; 1174.000
466.007;  102.800; 1335.000; 1440.000
466.126;  -12.800;  721.000;  641.000
466.245;   56.075; 1176.000; 1187.000
466.364;   28.950;  950.000; 1060.000
466.484;   62.025; 1024.000; 1213.000
466.603;   41.025; 1101.000; 1222.000
466.722;  128.075; 1490.000; 1769.000
466.841;   85.425; 1151.000; 1401.000
466.960;   42.950; 1069.000;  972.000
467.079;  133.900; 1971.000; 1786.000
467.198;   57.550; 1238.000; 1181.000
467.317;   84.650; 1768.000; 1162.000
467.436;   80.650; 1709.000; 1261.000
467.555;  128.300; 1796.000; 1746.000
467.674;   73.750; 1227.000; 1329.000
467.793;   47.300; 1376.000; 1374.000
467.912;   93.175; 1658.000; 1539.000
468.031;  149.500; 2038.000; 1930.000
468.150;  143.025; 1842.000; 1837.000
468.269;  202.275; 2313.000; 2090.000
468.388;  190.000; 2168.000; 2339.000
468.507;  258.050; 2884.000; 2903.000
468.626;  220.425; 2555.000; 2541.000
468.744;  115.350; 2018.000; 2174.000
468.863;  203.150; 2312.000; 2523.000
468.982;   97.375; 1503.000; 1555.000
469.101;  222.500; 2788.000; 2692.000
469.220;  163.725; 2333.000; 2176.000
469.338;  252.250; 2935.000; 3051.000
469.457;  202.425; 2719.000; 2545.000
469.576;  358.500; 3953.000; 3784.000
469.695;  238.850; 2877.000; 3066.000
469.813;  422.150; 4148.000; 4192.000
469.932;  409.925; 4255.000; 4485.000
470.051;  416.725; 4075.000; 4161.000
470.169;  790.475; 4470.000; 4338.000
470.288; 1324.475; 4700.000; 4809.000
470.406;  803.025; 5059.000; 5194.000
470.525;  630.450; 6101.000; 5787.000
470.644;  648.775; 6847.000; 6794.000
470.762;  830.450; 8397.000; 7873.000
470.881;  904.825; 8651.000; 8464.000
470.999; 1030.325; 9685.000; 9151.000
471.118; 1122.050;11174.000;10711.000

