
Integration time [ms]: 100.000
Averaging Nr. [scans]: 40
Smoothing Nr. [pixels]: 0
Data measured with spectrometer [name]: 2101012U2
Wave   ;Sample   ;Dark     ;Reference
[nm]   ;[counts] ;[counts] ;[counts] 

197.733;   53.675;  516.000;  404.000
197.879;  -73.950; -610.000; -634.000
198.025;  -43.525; -475.000; -420.000
198.171;  -76.700; -602.000; -612.000
198.317;  -27.600; -401.000; -316.000
198.463;  -63.350; -655.000; -404.000
198.609;   22.050;  181.000; -137.000
198.755;  -80.150; -644.000; -410.000
198.901;  -66.525; -505.000; -424.000
199.047;  -70.850; -615.000; -488.000
199.193;  -39.600; -230.000; -468.000
199.339;  -49.075; -222.000; -369.000
199.485;   35.675;  330.000;  271.000
199.631;   11.125;  227.000;  310.000
199.777;  -64.550; -466.000; -398.000
199.923;  -66.225; -610.000; -424.000
200.069;  -13.125; -141.000;  -58.000
200.215;   40.600;  128.000;  453.000
200.361;   38.300;  243.000;  477.000
200.507;  -72.600; -600.000; -373.000
200.653;  -29.175; -371.000; -194.000
200.798;  -44.700; -215.000; -125.000
200.944;   -1.100; -146.000;  -41.000
201.090;   24.150;   61.000;  222.000
201.236;   -1.850; -116.000; -158.000
201.382;  138.550;  874.000;  903.000
201.528;  -11.150;  -58.000;  -48.000
201.674;  -45.850; -386.000; -293.000
201.819;  -68.850; -540.000; -439.000
201.965;  -86.825; -699.000; -447.000
202.111;  -44.425; -273.000; -226.000
202.257;  -49.225; -250.000; -238.000
202.402;   -5.850;   13.000;  -36.000
202.548;  -35.175; -169.000; -116.000
202.694;   68.075;  410.000; -183.000
202.840;  -82.600; -603.000; -531.000
202.985;  -80.725; -681.000; -639.000
203.131; -112.025; -832.000; -666.000
203.277;  -24.100; -199.000; -262.000
203.423;  -53.925; -434.000; -520.000
203.568;  -32.225; -462.000; -237.000
203.714;  -72.700; -535.000; -542.000
203.860;  -89.125; -682.000; -641.000
204.005;   10.225;  112.000;  167.000
204.151;   59.950;  561.000;  556.000
204.296;  -47.000; -354.000; -221.000
204.442;  -76.250; -600.000; -547.000
204.588;  -63.425; -592.000; -579.000
204.733;    3.450;  178.000;  168.000
204.879; -122.625;-1018.000; -822.000
205.025;    5.250;  -99.000;  126.000
205.170;   -2.200;  -17.000;   94.000
205.316;   73.325;  438.000;  661.000
205.461;  -81.100; -698.000; -554.000
205.607;   74.725;  609.000;  665.000
205.752;  -89.525; -626.000; -551.000
205.898;  -62.750; -501.000; -391.000
206.043;  -56.575; -578.000; -506.000
206.189;  -53.850; -243.000; -285.000
206.334;   64.725;  554.000;  606.000
206.480;   77.500;  409.000;  239.000
206.625;  -84.525; -529.000; -552.000
206.771;  -48.350; -451.000; -373.000
206.916;  -37.625; -210.000; -537.000
207.062;  -83.050; -545.000; -591.000
207.207;  -76.475; -546.000; -443.000
207.353;   42.650;  185.000;  460.000
207.498;    3.450;  196.000;   85.000
207.643;  -48.225; -501.000; -370.000
207.789; -132.500;-1069.000; -910.000
207.934; -102.000; -665.000; -713.000
208.080;  -22.100; -154.000;   66.000
208.225;   -7.225;  -22.000;  -57.000
208.370;  -92.775; -727.000; -619.000
208.516;  -72.150; -741.000; -487.000
208.661;  -33.825; -127.000;  -69.000
208.806;  -26.375; -165.000; -171.000
208.952; -124.025;-1044.000; -731.000
209.097;   66.850;  378.000;  349.000
209.242;  -39.075; -307.000; -382.000
209.387;   64.625;  392.000;  350.000
209.533;  -48.300; -321.000; -350.000
209.678;   68.125;  472.000;  543.000
209.823;  -66.100; -408.000; -310.000
209.969; -101.525; -860.000; -757.000
210.114; -102.450; -907.000; -719.000
210.259; -113.625; -939.000; -889.000
210.404;  -15.000; -171.000;  103.000
210.549;   10.075;  108.000;    3.000
210.695;  -25.025;   -3.000;  -95.000
210.840;   28.600;   94.000;   67.000
210.985;  -65.275; -484.000; -303.000
211.130;   69.000;  268.000;  406.000
211.275;   18.100;  207.000;  199.000
211.420;  -53.825; -300.000; -289.000
211.566;  -70.000; -536.000; -489.000
211.711;   21.500;  218.000;  157.000
211.856;  -70.075; -545.000; -519.000
212.001;   12.750;  151.000;   44.000
212.146;   11.850;  153.000;   49.000
212.291;  -22.875; -210.000; -186.000
212.436;  -27.875; -280.000;   -6.000
212.581;  -81.500; -685.000; -653.000
212.726;  -75.425; -487.000; -538.000
212.871;  -50.250; -552.000; -217.000
213.016; -146.150;-1172.000;-1029.000
213.161;   68.775;  406.000;  291.000
213.306;  -88.050; -435.000; -577.000
213.451; -100.725; -778.000; -689.000
213.596;  -40.100; -455.000; -347.000
213.741;  -64.575; -448.000; -538.000
213.886;  -93.025; -498.000; -517.000
214.031;  -28.350; -294.000; -124.000
214.176;  -56.125; -408.000; -341.000
214.321;  -16.125; -296.000; -157.000
214.466;  -29.125; -163.000;  -43.000
214.611;   -6.050;  -61.000;  -10.000
214.756; -121.425; -948.000; -858.000
214.901;  -34.950; -388.000; -226.000
215.046; -111.525; -797.000; -825.000
215.191;   12.450;  128.000;   35.000
215.336;  -27.225; -157.000;  -19.000
215.480;  -72.900; -684.000; -505.000
215.625;  -25.350; -175.000;  -19.000
215.770;  -86.200; -757.000; -662.000
215.915;   -2.475;   -5.000;  -97.000
216.060;  -18.025; -113.000;  -21.000
216.205;  -98.375; -731.000; -779.000
216.349;  -78.850; -470.000; -533.000
216.494; -149.575; -939.000; -867.000
216.639; -128.675; -823.000; -888.000
216.784;  -88.600; -577.000; -525.000
216.929;   45.075;  392.000;  281.000
217.073;  -21.475; -244.000;  -31.000
217.218;    9.750;   78.000;  -47.000
217.363;  -87.525; -656.000; -618.000
217.507;  -78.800; -623.000; -588.000
217.652; -126.050; -845.000; -874.000
217.797; -102.125; -708.000; -659.000
217.942; -115.225; -856.000; -720.000
218.086;   71.075;  608.000;  539.000
218.231;  -14.350; -174.000;  -26.000
218.376;  -49.675; -337.000; -229.000
218.520;    3.350;  -41.000;   96.000
218.665;  -26.825; -338.000; -204.000
218.810;  -42.875; -275.000; -233.000
218.954;   18.775;  201.000;   35.000
219.099; -101.600; -713.000; -963.000
219.243;  -73.175; -589.000; -554.000
219.388;  -25.600; -264.000; -136.000
219.532;    0.025; -116.000; -116.000
219.677;  -85.725; -564.000; -521.000
219.822;    2.000;   33.000;   89.000
219.966;    0.075;   17.000;  -99.000
220.111;  -30.450; -328.000;  -40.000
220.255;  -88.525; -797.000; -750.000
220.400;  -17.550; -180.000; -146.000
220.544;  -74.275; -516.000; -450.000
220.689;  -60.075; -422.000; -451.000
220.833;  -27.075; -123.000;  -58.000
220.978;  -48.350; -393.000; -563.000
221.122;   12.150;  319.000;  307.000
221.267; -137.075; -906.000; -837.000
221.411;  -70.150; -478.000; -394.000
221.555;  -15.200; -104.000;  -23.000
221.700;  -48.500; -329.000; -222.000
221.844;   35.725;  255.000;  272.000
221.989;  -54.825; -328.000; -311.000
222.133;  -43.775; -289.000; -307.000
222.277;   -8.150;    5.000;   78.000
222.422;    8.300;  227.000;  113.000
222.566;  -53.000; -381.000; -214.000
222.711;  -60.975; -414.000; -479.000
222.855;  -83.075; -643.000; -586.000
222.999;  -79.250; -642.000; -717.000
223.144;  -32.375; -195.000; -194.000
223.288;   46.525;  423.000;  251.000
223.432;   26.450;  184.000;  230.000
223.576;   10.075;  152.000;  -21.000
223.721;   41.600;  364.000;  273.000
223.865;  -55.950; -472.000; -475.000
224.009;  236.300; 1673.000; 1631.000
224.153;  -85.425; -660.000; -671.000
224.298;  -58.850; -531.000; -489.000
224.442;  -10.000;  -74.000;  -33.000
224.586;  -15.925; -169.000; -106.000
224.730;  -95.450; -858.000; -670.000
224.875; -109.500; -739.000; -688.000
225.019;   -3.675;  102.000;  188.000
225.163;   48.050;  208.000;  341.000
225.307;    9.375;   97.000;  -91.000
225.451;   44.500;  360.000;  481.000
225.595;   17.275;  264.000;  176.000
225.739;  -26.850; -170.000;  -94.000
225.884;    0.875;   86.000;    5.000
226.028; -102.950; -760.000; -626.000
226.172;  -33.450; -260.000; -273.000
226.316; -119.175; -941.000; -902.000
226.460;  -60.050; -645.000; -493.000
226.604;  -67.075; -406.000; -400.000
226.748; -103.350; -836.000; -733.000
226.892;  -36.050; -227.000; -181.000
227.036;  -53.450; -537.000; -447.000
227.180;  -62.250; -551.000; -375.000
227.324;  -60.475; -561.000; -580.000
227.468; -108.825; -819.000; -717.000
227.612;    1.100;  242.000;  -28.000
227.756;  -99.125; -845.000; -698.000
227.900;   55.950;  342.000;  441.000
228.044;  -64.125; -509.000; -290.000
228.188;   46.650;  448.000;  568.000
228.332;  -85.425; -546.000; -472.000
228.476;  -35.025; -223.000; -149.000
228.620;  -43.400; -210.000; -150.000
228.764;   64.325;  431.000;  349.000
228.908;  -12.850; -155.000;   30.000
229.052;  -71.825; -615.000; -528.000
229.195;  -20.800; -172.000;   13.000
229.339;  -39.150; -235.000; -305.000
229.483;  -33.725;    5.000; -162.000
229.627;    0.000; -156.000;  139.000
229.771;  -54.100; -218.000; -294.000
229.915;    4.225;  230.000;   79.000
230.059;  -80.925; -648.000; -663.000
230.202;  -31.175; -370.000; -317.000
230.346;   -1.975; -107.000;  107.000
230.490;  -60.475; -489.000; -521.000
230.634; -110.650; -736.000; -553.000
230.777;   65.750;  478.000;  509.000
230.921;  -56.375; -450.000; -359.000
231.065;  -41.675; -246.000; -286.000
231.209;   22.000;  261.000;  265.000
231.352;   25.575;   54.000;   40.000
231.496;    8.050;  568.000;  188.000
231.640;  -90.350; -693.000; -621.000
231.783;   46.025;  546.000;  525.000
231.927;  -38.950; -294.000; -365.000
232.071; -119.000; -962.000; -736.000
232.214; -114.675; -980.000; -764.000
232.358;  -99.850; -683.000; -599.000
232.502;    0.150;  -19.000;    7.000
232.645; -130.975;-1090.000; -927.000
232.789;  -22.850; -257.000; -218.000
232.933;  -44.375; -407.000; -224.000
233.076; -122.650;-1038.000; -897.000
233.220; -105.000; -752.000; -777.000
233.363;  -77.725; -669.000; -477.000
233.507;   52.825;  371.000;  129.000
233.650; -100.750; -764.000; -834.000
233.794;   50.850;  438.000;  461.000
233.938;  -71.125; -530.000; -362.000
234.081;  -20.875;  -93.000;   31.000
234.225;  -73.475; -631.000; -539.000
234.368; -134.975; -773.000; -723.000
234.512;  -42.900; -385.000; -299.000
234.655;  -96.250; -582.000; -555.000
234.798;  -71.600; -493.000; -466.000
234.942; -120.775; -884.000;-1002.000
235.085;  -61.500; -651.000; -443.000
235.229;  -85.725; -405.000; -410.000
235.372;  -71.100; -247.000; -191.000
235.516;  -62.725; -397.000; -321.000
235.659;   14.550;   92.000;  121.000
235.802;  -34.025;  -38.000;  -22.000
235.946;   21.900;  335.000;  215.000
236.089;   23.050;  126.000;  250.000
236.233;   39.925;  275.000;  298.000
236.376;  -46.875; -235.000; -378.000
236.519;  -36.250; -297.000; -319.000
236.663;  -18.100; -215.000; -117.000
236.806; -142.050;-1029.000; -999.000
236.949;   66.100;  543.000;  431.000
237.092;   46.500;  412.000;  391.000
237.236;  -87.600; -589.000; -502.000
237.379;   54.475;  352.000;  428.000
237.522; -116.275; -879.000; -768.000
237.666;  -21.175; -271.000;   18.000
237.809; -113.650; -851.000; -823.000
237.952;   38.525;  469.000;  271.000
238.095;  -68.700; -447.000; -442.000
238.238;   76.350;  688.000;  700.000
238.382;   -7.850;  166.000;  103.000
238.525;  -68.225; -598.000; -511.000
238.668; -139.750;-1060.000; -985.000
238.811;  -85.525; -638.000; -643.000
238.954;  -61.100; -483.000; -334.000
239.097;   74.775;  617.000;  664.000
239.241;   15.725;  394.000;  326.000
239.384;  -27.050; -254.000; -214.000
239.527;  -74.650; -424.000; -224.000
239.670; -147.650; -994.000;-1091.000
239.813; -123.850; -696.000; -658.000
239.956;   61.475;  579.000;  473.000
240.099; -128.725; -778.000; -725.000
240.242;   40.800;  428.000;  432.000
240.385;   46.225;  466.000;  450.000
240.528;  -70.225; -706.000; -473.000
240.671;    2.200;  189.000;  134.000
240.814;  -51.175; -441.000; -158.000
240.957;  -99.100; -767.000; -578.000
241.100; -102.050; -779.000; -755.000
241.243; -142.000;-1234.000; -893.000
241.386;  -66.550; -508.000; -379.000
241.529;  -92.900; -735.000; -547.000
241.672;  -66.775; -566.000; -495.000
241.815; -132.525; -832.000; -808.000
241.958;  -26.825; -125.000; -182.000
242.101;  -79.750; -545.000; -390.000
242.244;  -46.975; -270.000; -325.000
242.387;  -41.525; -304.000; -246.000
242.530;   66.650;  470.000;  134.000
242.673;  -51.400; -381.000; -309.000
242.815; -130.925; -925.000; -899.000
242.958;  -76.925; -482.000; -381.000
243.101;    3.325;  132.000;  187.000
243.244;  -90.250; -564.000; -521.000
243.387;  -52.950; -313.000; -316.000
243.530; -106.375; -657.000; -674.000
243.672;  -12.150;   43.000;  -92.000
243.815;  -56.725; -355.000; -283.000
243.958;  -14.000;   98.000;  -26.000
244.101;  -21.350;   59.000;  -16.000
244.243;  -22.950;  -47.000;  101.000
244.386; -113.200; -761.000; -630.000
244.529;  -30.700; -132.000; -139.000
244.672; -151.425;-1154.000; -951.000
244.814; -102.625; -621.000; -794.000
244.957;  -30.250; -380.000; -304.000
245.100;  -89.725; -489.000; -489.000
245.242;  -59.850; -387.000; -374.000
245.385;  -27.600;  -59.000;  -39.000
245.528; -121.075; -871.000; -705.000
245.670;   70.400;  612.000;  634.000
245.813;  -89.600; -599.000; -547.000
245.956;  -56.400; -324.000; -275.000
246.098;  -81.900; -508.000; -650.000
246.241;    6.725;  194.000;   48.000
246.383;  -17.100; -119.000;  -73.000
246.526;  -79.375; -454.000; -525.000
246.669; -126.375; -889.000; -780.000
246.811;   15.100;  172.000;   -1.000
246.954;  -60.000; -512.000; -426.000
247.096;  -43.175;  -84.000;   -6.000
247.239;  -85.225; -482.000; -445.000
247.381;  -69.525; -647.000; -488.000
247.524;   85.725;  645.000;  679.000
247.666;  -15.800;   58.000;   11.000
247.809; -128.200; -887.000; -691.000
247.951;  -20.225;  -75.000;  138.000
248.094;   19.625;  432.000;  308.000
248.236; -159.200;-1262.000;-1238.000
248.378;    9.800; -356.000;  -81.000
248.521;  -13.900; -334.000; -337.000
248.663;  -40.175; -236.000; -267.000
248.806;  -32.750; -300.000; -266.000
248.948;  -98.625; -886.000; -763.000
249.090;  -41.775; -428.000; -398.000
249.233;  -58.875; -344.000; -381.000
249.375;  -70.675; -474.000; -451.000
249.518;  -25.875;  -83.000; -133.000
249.660;    9.725; -103.000;    3.000
249.802; -172.325;-1303.000;-1189.000
249.945;  -91.250; -612.000; -540.000
250.087; -120.100; -834.000; -768.000
250.229;  -48.550; -362.000; -480.000
250.371;  -71.000; -494.000; -439.000
250.514;  -47.825; -310.000; -244.000
250.656;  -18.775;   69.000;  102.000
250.798; -119.425; -849.000; -800.000
250.940;  -67.050; -322.000; -322.000
251.083;  -33.950; -335.000; -111.000
251.225;   52.650;  338.000;  310.000
251.367;  -41.200; -274.000; -373.000
251.509;  -45.200; -265.000; -210.000
251.651; -103.025; -731.000; -671.000
251.794;   51.850;  538.000;  632.000
251.936; -109.900; -821.000; -747.000
252.078;  -81.900; -540.000; -461.000
252.220;  -61.250; -645.000; -477.000
252.362;   87.500;  344.000;  462.000
252.504;  -65.400; -677.000; -584.000
252.646; -112.275; -875.000; -722.000
252.788;   -2.950;   14.000; -128.000
252.931;  -46.525; -257.000; -253.000
253.073;  -49.775; -376.000; -317.000
253.215;  -21.150;  141.000;  122.000
253.357;  -13.675;   82.000; -153.000
253.499;  -49.825; -374.000; -234.000
253.641;  -88.525; -749.000; -594.000
253.783;  -96.850; -609.000; -527.000
253.925;  -91.175; -586.000; -591.000
254.067; -121.850; -744.000; -667.000
254.209;  -38.825; -391.000; -259.000
254.351; -138.200; -865.000; -883.000
254.493;  -65.750; -441.000; -417.000
254.635; -132.375; -936.000; -818.000
254.777;  -83.725; -752.000; -687.000
254.918;  -75.325; -512.000; -430.000
255.060;  -66.000; -551.000; -395.000
255.202;  -67.250; -473.000; -261.000
255.344;  -90.600; -658.000; -455.000
255.486;  -87.075; -471.000; -406.000
255.628; -104.150; -780.000; -781.000
255.770;  -95.350; -676.000; -536.000
255.912;  -74.450; -559.000; -468.000
256.053;  -94.350; -730.000; -508.000
256.195;  147.150; 1008.000;  903.000
256.337; -110.675; -861.000; -595.000
256.479;   56.900;  532.000;  416.000
256.621;  -52.925; -394.000; -212.000
256.762;  -96.875; -789.000; -742.000
256.904;   57.250;  485.000;  487.000
257.046;  -59.400; -381.000; -271.000
257.188;  -49.200; -351.000; -264.000
257.329;  -86.925; -525.000; -464.000
257.471; -123.550; -939.000; -807.000
257.613;  -63.300; -584.000; -498.000
257.755; -153.575;-1073.000; -982.000
257.896;   22.175;  286.000;  392.000
258.038;  -81.000; -403.000; -352.000
258.180;  -44.475; -354.000; -279.000
258.321;  -82.550; -581.000; -457.000
258.463;  -18.575;  -71.000;  133.000
258.605;  -83.900; -562.000; -570.000
258.746; -115.450; -886.000; -772.000
258.888; -150.225;-1026.000;-1020.000
259.029;    7.125;  121.000;   -8.000
259.171;  -95.925; -614.000; -550.000
259.313;    6.150;  -49.000;  -47.000
259.454;  -68.350; -536.000; -414.000
259.596;  -65.450; -483.000; -390.000
259.737;  -72.150; -590.000; -474.000
259.879;   27.600;  217.000;  311.000
260.020;   84.025;  901.000;  636.000
260.162;  -39.525; -146.000; -253.000
260.303; -121.900; -768.000; -687.000
260.445;  -91.475; -609.000; -613.000
260.586;    4.475;  392.000;  157.000
260.728;  -44.400; -360.000; -248.000
260.869; -130.275; -350.000; -343.000
261.011;   71.975;  706.000;  537.000
261.152;  -73.425; -479.000; -319.000
261.293;  -91.050; -576.000; -595.000
261.435;  -38.800; -219.000; -184.000
261.576;  -50.375; -455.000; -325.000
261.718;   50.400;  420.000;  470.000
261.859; -122.650; -940.000; -949.000
262.000; -127.125; -951.000;-1016.000
262.142;  -32.325;  -52.000;  -60.000
262.283; -120.950; -808.000; -691.000
262.424; -104.675; -666.000; -625.000
262.566; -151.250;-1161.000; -983.000
262.707; -106.125; -840.000; -830.000
262.848; -117.475; -769.000; -726.000
262.990;  -58.900; -362.000; -345.000
263.131;   74.450;  650.000;  681.000
263.272;   -6.325;  -61.000;  -41.000
263.413;  -97.075; -589.000; -561.000
263.555;  -58.750; -669.000; -143.000
263.696;  -93.025; -550.000; -641.000
263.837;  -70.200; -449.000; -551.000
263.978;   -0.425;   -5.000;  -77.000
264.119;  -56.150; -283.000; -264.000
264.261; -123.400; -847.000; -630.000
264.402;   -8.775;   33.000;   40.000
264.543;  -84.200; -509.000; -524.000
264.684;  -13.850;   61.000;  -50.000
264.825;  -84.675; -816.000; -538.000
264.966;  -10.050;  -84.000;  -67.000
265.107; -120.075; -646.000; -670.000
265.248; -113.425; -825.000; -812.000
265.390;  -14.775;  152.000;   -9.000
265.531;  -23.050; -238.000; -107.000
265.672;  -96.100; -557.000; -630.000
265.813;   54.625;  563.000;  439.000
265.954; -147.875; -959.000; -940.000
266.095;  -12.450; -372.000; -322.000
266.236;  -98.750; -686.000; -548.000
266.377;  -53.850; -243.000; -297.000
266.518;  -74.850; -619.000; -547.000
266.659;   23.750;  170.000;  268.000
266.800;   -5.625;   83.000;   85.000
266.941;  -83.675; -487.000; -478.000
267.082;   11.100;  354.000;   99.000
267.223;  -50.325; -344.000; -273.000
267.364; -113.225; -892.000; -686.000
267.504;   -9.950;    3.000;  135.000
267.645;  -16.075;  160.000;   67.000
267.786;  -40.750; -147.000;  -86.000
267.927;  -76.025; -473.000; -379.000
268.068;  -16.350; -186.000;  -61.000
268.209;  -61.200; -175.000; -413.000
268.350;  -66.850; -388.000; -532.000
268.490;  -82.300; -648.000; -521.000
268.631;   20.975;  127.000;  225.000
268.772; -118.400; -874.000; -647.000
268.913;  -62.600; -328.000; -476.000
269.054;   -5.750; -117.000;   12.000
269.194;  -64.800; -418.000; -402.000
269.335; -166.250;-1137.000;-1074.000
269.476;  -22.375;   33.000;  -35.000
269.617;  -52.225; -347.000; -392.000
269.757;  -88.900; -713.000; -646.000
269.898; -106.150; -856.000; -613.000
270.039;  -71.925; -415.000; -405.000
270.180; -132.125; -952.000; -816.000
270.320;  -30.700; -190.000; -250.000
270.461;  -48.125; -277.000; -249.000
270.602;  -17.150; -186.000; -156.000
270.742; -116.675; -868.000; -943.000
270.883;  -56.325; -442.000; -390.000
271.023;  -57.450; -358.000; -357.000
271.164;  -81.475; -607.000; -528.000
271.305; -100.125; -666.000; -654.000
271.445; -107.075; -722.000; -683.000
271.586;  -64.625; -462.000; -283.000
271.726;  -63.925; -397.000; -322.000
271.867;  -65.175; -594.000; -534.000
272.008;  187.300; -473.000; -285.000
272.148;  129.850;  462.000;  468.000
272.289;    4.600; -113.000; -181.000
272.429;   23.925;   19.000;  185.000
272.570;  -82.075; -633.000; -737.000
272.710; -106.400; -825.000; -775.000
272.851;  -19.800;  113.000; -130.000
272.991; -161.000;-1173.000;-1077.000
273.131;  -85.850; -419.000; -459.000
273.272;  -99.400; -683.000; -723.000
273.412;    2.900; -143.000;  -31.000
273.553;  -55.025; -488.000; -507.000
273.693;  129.825;  913.000;  858.000
273.834;  -90.850; -894.000; -692.000
273.974;  -83.600; -664.000; -615.000
274.114; -116.925; -772.000; -560.000
274.255;   65.550;  414.000;  373.000
274.395;   11.275; -180.000; -125.000
274.535;   38.375;  199.000;  350.000
274.676;   25.725;  225.000;   94.000
274.816;    6.700;  110.000;   34.000
274.956;  -90.125; -624.000; -690.000
275.097;  -59.575;-1014.000; -922.000
275.237; -117.850; -913.000; -803.000
275.377;  -98.875; -778.000; -689.000
275.517; -148.450; -878.000; -937.000
275.658;  -67.675; -590.000; -555.000
275.798;  -72.725; -606.000; -413.000
275.938;   10.725;  215.000;  323.000
276.078; -112.650; -626.000; -395.000
276.218;   10.350;   99.000;  104.000
276.359; -121.075;-1026.000;-1024.000
276.499;  -71.450; -605.000; -446.000
276.639;  -28.750; -305.000; -151.000
276.779;  -48.475; -475.000; -357.000
276.919; -114.275; -783.000; -624.000
277.059;  -29.125; -261.000; -212.000
277.199;  -49.975; -357.000; -259.000
277.340;   35.100;  287.000;  175.000
277.480; -112.400; -840.000; -693.000
277.620;   12.200;  192.000;   16.000
277.760; -199.150;-1533.000;-1294.000
277.900;   12.675;  113.000;   33.000
278.040;   14.425;  137.000;  159.000
278.180;   50.050;  270.000;  170.000
278.320;   -8.825;   21.000;   56.000
278.460;  -75.900; -443.000; -469.000
278.600;  -75.550; -708.000; -598.000
278.740;   48.375;  448.000;  224.000
278.880;  -47.325; -768.000; -791.000
279.020;   -6.825; -194.000; -144.000
279.160;  -91.300; -672.000; -595.000
279.300; -119.775; -926.000; -873.000
279.440;  -92.625; -709.000; -622.000
279.579;   -8.550;-1014.000; -929.000
279.719;  -52.175; -410.000; -394.000
279.859;   64.600;   -4.000;   41.000
279.999;   35.700; -208.000;  101.000
280.139;  -25.375; -435.000; -387.000
280.279;  -68.025; -708.000; -745.000
280.419;  -18.675; -229.000; -147.000
280.559;  -31.050; -259.000; -180.000
280.698;  -79.225; -790.000; -639.000
280.838;  -73.975; -778.000; -800.000
280.978; -105.375; -846.000; -790.000
281.118; -117.250; -811.000; -704.000
281.257;  -19.450;   24.000;    6.000
281.397; -110.875;-1094.000; -960.000
281.537;  -86.775; -599.000; -712.000
281.677;  -24.775; -150.000; -101.000
281.816;  -90.200; -700.000; -630.000
281.956;  -41.400; -193.000; -257.000
282.096;  -65.875; -539.000; -396.000
282.235; -103.350; -672.000; -638.000
282.375;  -17.950; -243.000;  -98.000
282.515; -100.375; -715.000; -707.000
282.654;   13.100;   29.000;  106.000
282.794;   11.725;  388.000;  244.000
282.934;  -55.825; -530.000; -491.000
283.073; -141.175;-1030.000; -857.000
283.213;  -58.600; -460.000; -467.000
283.353;  -24.700; -408.000; -349.000
283.492;  -35.375; -264.000; -296.000
283.632;  -46.150; -254.000; -168.000
283.771; -101.500; -859.000; -730.000
283.911;  -56.125; -369.000; -260.000
284.050;  -99.375; -794.000; -748.000
284.190; -153.900;-1229.000;-1096.000
284.329; -138.325;-1055.000; -964.000
284.469;  -79.725; -516.000; -591.000
284.608;  -65.375; -559.000; -598.000
284.748;  -79.000; -614.000; -570.000
284.887;  -11.125;  -87.000;  -20.000
285.027; -125.250; -844.000; -892.000
285.166;  -43.400; -192.000; -249.000
285.306;   -1.575; -116.000;  -33.000
285.445;  -37.900; -229.000; -343.000
285.584;  -95.425; -630.000; -494.000
285.724;  -60.900; -282.000; -322.000
285.863; -114.400; -857.000; -507.000
286.002;  -63.000; -366.000; -276.000
286.142; -113.650; -715.000; -622.000
286.281;  -64.625; -525.000; -493.000
286.420;  -80.500; -554.000; -417.000
286.560;   89.300;  653.000;  623.000
286.699; -141.575; -958.000; -912.000
286.838;  -82.150; -590.000; -591.000
286.978;  -96.875; -533.000; -537.000
287.117; -139.375;-1085.000; -950.000
287.256;  -47.175; -228.000; -211.000
287.395;  -43.450; -197.000; -378.000
287.535;  -63.025; -370.000; -298.000
287.674;  -77.475; -509.000; -484.000
287.813;   57.550;  661.000;  533.000
287.952; -122.150;-1010.000; -871.000
288.091; -150.900;-1049.000; -915.000
288.231;    6.450;   13.000;   15.000
288.370; -172.275;-1217.000;-1200.000
288.509;  -93.550; -728.000; -645.000
288.648;  -95.000; -770.000; -548.000
288.787;  -48.625; -243.000;  -87.000
288.926;  -57.475; -454.000; -475.000
289.065;  108.425;  859.000;  672.000
289.204;  -52.075; -377.000; -217.000
289.344; -101.175; -791.000; -690.000
289.483;   22.125;  416.000;  304.000
289.622;  -24.000; -291.000; -149.000
289.761;  -13.775; -309.000; -166.000
289.900; -110.750; -785.000; -626.000
290.039;  -19.300;  -12.000;  -95.000
290.178;  -46.850; -274.000; -180.000
290.317;  -85.700; -618.000; -479.000
290.456;  -67.675; -463.000; -451.000
290.595; -148.525; -961.000; -833.000
290.734; -146.850; -904.000; -891.000
290.873;  -76.825; -456.000; -420.000
291.011; -112.875; -833.000; -843.000
291.150; -108.650; -770.000; -682.000
291.289;  -25.700; -343.000; -110.000
291.428;  -93.950; -599.000; -480.000
291.567;  -57.750; -370.000; -442.000
291.706;  -12.175;  109.000;  154.000
291.845;  -94.300; -597.000; -505.000
291.984; -168.900;-1234.000;-1061.000
292.122;   65.375;  602.000;  582.000
292.261;   43.975;  620.000;  463.000
292.400;   -0.700; -144.000;  211.000
292.539; -121.725; -959.000; -813.000
292.678;  -33.375; -325.000; -300.000
292.816; -147.175;-1136.000; -965.000
292.955;  -92.425; -844.000; -684.000
293.094;  -15.725; -173.000; -337.000
293.233;  -56.825; -556.000; -400.000
293.371;  -40.925; -225.000;  -84.000
293.510; -115.175; -866.000; -780.000
293.649; -121.350; -959.000; -924.000
293.787;  -54.300;-1083.000;-1012.000
293.926;  -12.525; -113.000;  -32.000
294.065;  -41.750; -379.000; -290.000
294.203;   47.275;  298.000;  406.000
294.342;    9.775;   74.000;  156.000
294.481; 6386.800;51180.000; -836.000
294.619;  -28.400; -425.000; -582.000
294.758; -139.300;-1230.000;-1137.000
294.896;   76.650; -125.000;    5.000
295.035; -118.125;-1040.000;-1006.000
295.174; -113.400;-1082.000; -954.000
295.312;  -46.700; -323.000; -203.000
295.451;  -10.150; -307.000; -428.000
295.589;  -63.625; -389.000; -518.000
295.728;   25.600; -292.000; -165.000
295.866;    8.250;  -36.000;  -51.000
296.005;  -57.500; -584.000; -341.000
296.143;  -70.125; -558.000; -596.000
296.282; -109.600; -957.000; -881.000
296.420;  -82.025; -657.000; -557.000
296.559;  -94.300; -892.000; -633.000
296.697;   39.350; -847.000; -665.000
296.835;   82.475;-1141.000;-1002.000
296.974;   44.325;  -23.000;   39.000
297.112;    7.350; -443.000; -504.000
297.251;  -80.550; -815.000; -755.000
297.389;   87.650; -576.000; -438.000
297.527;   46.675; -145.000;  -83.000
297.666;  -63.775; -486.000; -438.000
297.804;  -65.250; -404.000; -264.000
297.942;   -0.350; -136.000; -161.000
298.081;   -6.100; -183.000;   63.000
298.219;   86.500;  -17.000;  -19.000
298.357;   45.575; -144.000;  -71.000
298.495;   52.975; -810.000; -812.000
298.634;   92.750;  245.000;  219.000
298.772;   74.800; -220.000; -338.000
298.910;  -33.425; -309.000; -182.000
299.048;  -14.325; -130.000; -153.000
299.187;  -37.150; -350.000; -250.000
299.325;    5.250;   52.000;  122.000
299.463;   58.250; -389.000; -299.000
299.601;  112.575; -327.000; -271.000
299.739; -112.925; -908.000; -883.000
299.877;  -86.250; -791.000; -703.000
300.016;  -27.050;-1095.000; -935.000
300.154;  185.700;  -19.000; -161.000
300.292;   54.200; -428.000; -348.000
300.430;   37.525; -408.000; -291.000
300.568;  -93.250; -940.000; -874.000
300.706;  -40.575; -366.000; -469.000
300.844;  -75.425;-1108.000; -979.000
300.982;  112.325;  246.000;  282.000
301.120; -106.150; -965.000; -866.000
301.258;  -73.850; -812.000; -705.000
301.396;   30.200;  104.000;  -41.000
301.534;   92.575; -218.000; -293.000
301.672;    4.525; -664.000; -521.000
301.810;   44.175; -613.000; -545.000
301.948;  134.375;   53.000;  149.000
302.086;  690.025; -250.000;  -32.000
302.224; 1078.175; -610.000; -585.000
302.362;   46.025; -558.000; -622.000
302.500;  -11.100; -923.000; -893.000
302.638;  108.275;  128.000;  245.000
302.776;   -1.050; -352.000; -408.000
302.913;   52.950;  447.000;  236.000
303.051;   -1.550;  -86.000;  -23.000
303.189;   57.725;   90.000;  118.000
303.327;  -22.025; -341.000; -256.000
303.465;  -81.975; -832.000; -588.000
303.603;  -97.225; -805.000; -604.000
303.740;  104.175;  417.000;  241.000
303.878;   32.025; -800.000; -759.000
304.016;  -95.475; -915.000; -790.000
304.154; -118.550;-1123.000;-1152.000
304.291;  -36.125; -505.000; -554.000
304.429;   -1.300;  102.000;   74.000
304.567; -122.825; -908.000; -893.000
304.705;  -49.900; -408.000; -515.000
304.842;  122.325; -616.000; -540.000
304.980;   57.075;  215.000;   35.000
305.118;   57.450; -367.000; -365.000
305.255;  -72.325; -945.000; -927.000
305.393;   44.900;  178.000;  239.000
305.531;  -98.200;-1173.000; -956.000
305.668;  -75.450; -663.000; -582.000
305.806;  132.950; -358.000; -439.000
305.943;  107.550; -629.000; -637.000
306.081;   63.500; -378.000; -267.000
306.219; -103.175; -863.000; -748.000
306.356;   -5.450;  158.000;   27.000
306.494;  104.525;  981.000;  761.000
306.631;  -14.875;  -11.000;  -55.000
306.769;   -7.450; -613.000; -485.000
306.906;   -9.875; -284.000; -258.000
307.044;  -79.250; -473.000; -488.000
307.181;  -69.150; -410.000; -332.000
307.319;    5.050;  112.000;   87.000
307.456; -176.400;-1191.000;-1153.000
307.594; -119.475; -980.000; -727.000
307.731;  -12.400; -371.000; -164.000
307.868;    3.125;  -15.000;   20.000
308.006; -136.725; -961.000; -847.000
308.143;  -68.950; -618.000; -330.000
308.281;  204.525;  -37.000; -254.000
308.418;   -6.525; -748.000; -640.000
308.555;  -67.925; -400.000; -250.000
308.693;  -86.325; -577.000; -573.000
308.830; -106.525; -712.000; -657.000
308.967;  -18.250; -215.000;  -95.000
309.105;  -54.325; -507.000; -396.000
309.242;   46.475; -468.000; -367.000
309.379;  345.825; -577.000; -655.000
309.517;  -60.925; -936.000; -948.000
309.654; -109.175; -910.000; -734.000
309.791;  -82.350; -662.000; -580.000
309.928; -118.575; -977.000; -914.000
310.065;  180.275;  819.000;  697.000
310.203;   -0.825; -825.000; -850.000
310.340;  -24.325; -465.000; -321.000
310.477;  -76.225; -412.000; -516.000
310.614;  -73.025; -383.000; -473.000
310.751;  -70.975; -427.000; -518.000
310.889;  -46.825;    1.000;   11.000
311.026; -156.425;-1161.000; -939.000
311.163;  -48.150; -386.000; -380.000
311.300;  -79.475; -512.000; -479.000
311.437;  -73.650; -658.000; -619.000
311.574; -141.750;-1226.000; -985.000
311.711;  -76.250; -595.000; -433.000
311.848;  -46.475; -380.000; -388.000
311.985;   -0.875;  270.000;   93.000
312.122; -123.575; -932.000; -762.000
312.259; -115.400; -941.000; -994.000
312.396;  -96.550; -508.000; -551.000
312.533;  -95.200; -812.000; -790.000
312.670; -124.325;-1070.000; -898.000
312.807;  -27.975; -352.000; -367.000
312.944;  -83.075; -513.000; -611.000
313.081;  -36.000; -150.000; -415.000
313.218;  -99.850;-1111.000; -867.000
313.355;   16.950; -531.000; -449.000
313.492;   -2.275; -455.000; -292.000
313.629;  126.100;  815.000;  735.000
313.766; -155.775;-1176.000;-1008.000
313.902;  -34.450; -186.000;   21.000
314.039;  -56.925; -372.000; -289.000
314.176;   23.675;  286.000;  192.000
314.313;  -69.725; -569.000; -473.000
314.450;  -86.675; -788.000; -684.000
314.587;  -53.275; -468.000; -480.000
314.723;   10.125;  -78.000;  130.000
314.860;    8.450;  318.000;  332.000
314.997;   31.225;  223.000;  142.000
315.134;  -50.850; -385.000; -368.000
315.270;  -44.375; -480.000; -496.000
315.407; -119.100;-1094.000; -967.000
315.544;  -56.825; -657.000; -538.000
315.681;  -66.300; -681.000; -565.000
315.817;   20.275; -133.000; -176.000
315.954;   21.050; -613.000; -392.000
316.091; -127.375;-1045.000;-1023.000
316.227;  -23.700;  -71.000; -179.000
316.364;  -10.325;   23.000;    6.000
316.500;  -48.750; -113.000; -300.000
316.637;  -49.500; -181.000; -302.000
316.774;  -91.550; -625.000; -358.000
316.910;  -83.425; -598.000; -629.000
317.047;  -68.700; -487.000; -351.000
317.183;  -52.950; -435.000; -566.000
317.320;  -15.500; -367.000; -321.000
317.456;  -67.400; -733.000; -805.000
317.593;  -94.775; -598.000; -641.000
317.729;   -9.350;  168.000;  -67.000
317.866; -198.300;-1434.000;-1285.000
318.002;  -97.150; -708.000; -948.000
318.139;  -80.000; -883.000; -867.000
318.275; -105.025;-1003.000; -738.000
318.412;  -52.750; -517.000; -336.000
318.548;  -21.425; -751.000; -720.000
318.685;  -94.400; -985.000; -888.000
318.821;  -89.275; -762.000; -735.000
318.957;  -16.600;   34.000;  -23.000
319.094;   23.025;  297.000;  154.000
319.230;  -60.550; -756.000; -742.000
319.367;  145.375; -471.000; -520.000
319.503;   79.750; -538.000; -436.000
319.639;  -95.600; -877.000; -793.000
319.775;  -56.100; -750.000; -685.000
319.912;  -63.125; -424.000; -519.000
320.048;  -88.475;-1184.000;-1184.000
320.184;   70.650;   59.000;   70.000
320.321;  -59.200; -497.000; -467.000
320.457;   57.900;  475.000;  662.000
320.593;  -66.850; -375.000; -382.000
320.729; -105.300; -732.000; -734.000
320.866;  -76.875; -577.000; -635.000
321.002;  -55.525; -759.000; -809.000
321.138;  -18.725; -135.000; -211.000
321.274;   70.625; -148.000; -115.000
321.410;   -9.825; -585.000; -353.000
321.546;  -13.175;-1011.000; -911.000
321.683;   48.700;  400.000;  185.000
321.819;    1.925;  -48.000; -117.000
321.955; -107.700; -743.000; -722.000
322.091;  -51.025; -585.000; -540.000
322.227;    1.800; -382.000; -202.000
322.363;  -21.375; -320.000; -215.000
322.499;  -42.750; -343.000; -331.000
322.635;  170.250;  636.000;  443.000
322.771;   23.650; -139.000;   12.000
322.907;   81.475;  129.000;  327.000
323.043;  -21.250; -115.000; -206.000
323.179;  -37.050; -394.000; -363.000
323.315;   29.200; -401.000; -371.000
323.451;  112.875; -328.000; -236.000
323.587;   61.275;  -60.000;  -77.000
323.723;   27.150; -682.000; -601.000
323.859;   -6.250; -258.000;  -76.000
323.995;  -12.425; -467.000; -409.000
324.131; -124.250; -967.000; -892.000
324.267;  -39.150; -254.000; -276.000
324.402; -134.075; -960.000; -983.000
324.538;  -21.100; -279.000; -104.000
324.674;   17.700;  164.000;   77.000
324.810;  139.800;  226.000;  308.000
324.946;    5.400; -810.000; -658.000
325.082;  -72.075; -568.000; -475.000
325.217;  -20.000;  -62.000;   16.000
325.353;  -99.875; -764.000; -659.000
325.489;  -86.600; -540.000; -506.000
325.625;  -72.500; -579.000; -525.000
325.760;   46.050;  517.000;  376.000
325.896;  -26.725; -515.000; -702.000
326.032;  -48.975; -403.000; -352.000
326.168;  -60.450; -462.000; -369.000
326.303;  -62.100; -352.000; -461.000
326.439;  -11.775; -336.000; -276.000
326.575;    3.550; -190.000;  -29.000
326.710;  -14.900; -156.000;  -30.000
326.846;   -8.400;  146.000;  103.000
326.982;  -94.500; -530.000; -548.000
327.117;  -78.025; -481.000; -442.000
327.253;  -94.250; -745.000; -742.000
327.388; -164.975;-1137.000;-1153.000
327.524;  -35.200; -811.000; -578.000
327.659;  -36.475;  -58.000;  -22.000
327.795;  -17.575;   69.000;   45.000
327.931;  -77.875; -723.000; -499.000
328.066;  -28.725; -417.000; -276.000
328.202;  -33.225;   12.000; -129.000
328.337;   92.675;  957.000;  713.000
328.473;   33.150;  -12.000;  -74.000
328.608;  -28.950; -256.000; -267.000
328.743;  -76.350; -799.000; -664.000
328.879;   10.325;  214.000;  114.000
329.014;  -28.650; -102.000; -122.000
329.150;  -86.800; -358.000; -483.000
329.285;  -79.400; -465.000; -466.000
329.421;  -60.500; -548.000; -246.000
329.556;  -27.525;  -36.000;   85.000
329.691;  -97.850; -633.000; -615.000
329.827;  -75.450; -626.000; -480.000
329.962;  -46.450;  131.000; -301.000
330.097;  -94.450; -673.000; -585.000
330.233;  -64.400; -410.000; -223.000
330.368; -123.300; -839.000; -628.000
330.503;  -17.775;    3.000;   98.000
330.638;   -1.850;  -93.000; -125.000
330.774;  -50.600; -609.000; -530.000
330.909;  -36.800; -434.000; -244.000
331.044;  -96.650; -714.000; -708.000
331.179; -169.725;-1217.000;-1109.000
331.315;    5.750;   77.000;   20.000
331.450;    4.050;  157.000;  285.000
331.585;  -91.175; -805.000; -706.000
331.720;  -93.000; -510.000; -460.000
331.855;  -10.725;  -35.000; -102.000
331.990;  225.525;   62.000;  138.000
332.126;  117.500; -110.000;   71.000
332.261;  -22.150; -379.000; -265.000
332.396;    2.000; -135.000; -242.000
332.531; -103.900;-1074.000;-1031.000
332.666;   21.900; -519.000; -363.000
332.801; -107.025; -726.000; -807.000
332.936;  -24.175; -192.000; -122.000
333.071; -151.525; -870.000; -817.000
333.206;   12.250;  307.000;  379.000
333.341;   22.375;  344.000;  418.000
333.476;  -86.225; -627.000; -623.000
333.611;  -41.975; -251.000; -173.000
333.746;  -44.350; -381.000; -464.000
333.881; -124.200; -973.000; -935.000
334.016; -130.500; -936.000; -917.000
334.151; -123.950; -746.000; -702.000
334.286;   36.700;  152.000;  186.000
334.421;  -21.925; -125.000; -178.000
334.556;  -80.150; -611.000; -567.000
334.690;  -72.925; -631.000; -577.000
334.825;   47.525;  381.000;   83.000
334.960;  -59.325; -285.000; -413.000
335.095;    8.750;  135.000;  -91.000
335.230;  -96.700; -722.000; -738.000
335.365; -129.375;-1084.000; -990.000
335.499; -132.775;-1108.000;-1037.000
335.634;   31.500;    9.000;  534.000
335.769;  -79.700; -755.000; -720.000
335.904;  -66.375; -603.000; -561.000
336.038;  -61.600; -735.000; -657.000
336.173; -107.225;-1206.000;-1194.000
336.308;   -1.225; -116.000; -189.000
336.443;   20.350; -544.000; -634.000
336.577;  -67.550; -936.000; -787.000
336.712;   73.075;   -4.000;  -12.000
336.847;  -36.950; -724.000; -607.000
336.981;   68.725; -272.000; -208.000
337.116;  320.025;  615.000;  501.000
337.250;  178.200; -434.000; -421.000
337.385;  241.000; -297.000; -208.000
337.520;   73.250; -632.000; -603.000
337.654;  -38.750; -215.000; -126.000
337.789; -126.900; -989.000; -933.000
337.923;  -48.250; -104.000; -205.000
338.058;  -88.475; -673.000; -738.000
338.192;  -29.450; -611.000; -488.000
338.327;  -19.800;  -18.000; -155.000
338.461;  -69.900; -299.000; -469.000
338.596; -106.950; -780.000; -638.000
338.730;  -95.100; -767.000; -803.000
338.865;   85.050;  -46.000; -140.000
338.999;  -55.725; -846.000; -702.000
339.134;  -25.875; -634.000; -536.000
339.268;   -4.425; -741.000; -603.000
339.403;  344.350; -740.000; -775.000
339.537;  101.850; -894.000; -820.000
339.671; -115.750; -829.000; -813.000
339.806;  -62.525; -556.000; -512.000
339.940;   10.625; -261.000; -235.000
340.074; -115.875; -685.000; -510.000
340.209;  -44.050; -351.000; -230.000
340.343;  -90.700; -517.000; -573.000
340.477;  153.075;  998.000; 1036.000
340.612;  -45.825;-1033.000; -900.000
340.746;  128.150; -199.000; -243.000
340.880;  -59.825; -924.000; -785.000
341.014;  -30.375;  -45.000; -154.000
341.149; -108.025; -756.000; -718.000
341.283; -114.200; -839.000; -754.000
341.417;  -83.150;-1124.000; -938.000
341.551;  148.250; -768.000; -708.000
341.685;  -38.525; -633.000; -611.000
341.820;  -67.350; -562.000; -493.000
341.954;  -65.200; -218.000; -349.000
342.088; -150.675;-1102.000;-1019.000
342.222;   65.250;  565.000;  618.000
342.356;  -57.675; -395.000; -335.000
342.490;  -90.200; -880.000; -841.000
342.624;  -44.925; -339.000; -242.000
342.758;    8.300; -364.000; -312.000
342.892;  -69.975; -710.000; -585.000
343.026;  -41.400;  -58.000; -116.000
343.160;  -77.575; -426.000; -376.000
343.294;  -91.650; -474.000; -337.000
343.428;  -24.800; -488.000; -448.000
343.562;  -12.050; -172.000;  -23.000
343.696;  -29.500; -385.000; -314.000
343.830;  -21.725; -362.000; -356.000
343.964;   12.400; -231.000; -168.000
344.098; 1011.150;  199.000;   70.000
344.232;  850.725; -266.000; -127.000
344.366;   89.350; -567.000; -453.000
344.500;   82.225; -665.000; -744.000
344.634;   50.050; -324.000; -164.000
344.768;  -12.400; -531.000; -341.000
344.902;   20.625;  278.000;  256.000
345.035;  -70.700; -556.000; -496.000
345.169; -126.075; -933.000; -656.000
345.303;  -26.475; -308.000; -482.000
345.437;  -75.300; -826.000; -717.000
345.571;  -94.375; -675.000; -594.000
345.704;  -64.350; -309.000; -532.000
345.838;  -16.525; -331.000; -284.000
345.972;  -28.150; -543.000; -495.000
346.106;  147.775; -179.000; -190.000
346.239;  425.950; -312.000; -243.000
346.373;    9.700; -343.000; -302.000
346.507; -146.600; -950.000; -962.000
346.640;  157.750;  -30.000;   13.000
346.774;  -34.750; -650.000; -797.000
346.908;  -30.850; -138.000;  -11.000
347.041;  -95.625; -646.000; -593.000
347.175;    1.550;  259.000;   27.000
347.309;  -65.225; -698.000; -628.000
347.442; -105.325; -883.000; -732.000
347.576;  275.950;  670.000;  668.000
347.709;  224.200; -123.000;  -52.000
347.843;  -77.575; -933.000; -825.000
347.976;   14.500;  235.000;  294.000
348.110; -171.250;-1268.000;-1186.000
348.243; -101.150; -679.000; -772.000
348.377;   -4.475;  -26.000;   60.000
348.510;   54.450;  403.000;  540.000
348.644;  -32.200;  -37.000; -159.000
348.777;    3.675;  180.000;  191.000
348.911;  -59.200; -142.000; -112.000
349.044;  185.475;  471.000;  448.000
349.178;  204.950;-1069.000;-1006.000
349.311;  100.800;  141.000;  255.000
349.444;  -11.000; -927.000; -813.000
349.578;   -5.900; -347.000; -200.000
349.711; -106.825; -959.000; -862.000
349.845;   16.150; -661.000; -591.000
349.978; -142.050;-1224.000;-1137.000
350.111;  -86.650; -546.000; -612.000
350.244;  -80.500; -596.000; -700.000
350.378;   17.550; -392.000; -393.000
350.511;  -67.425; -393.000; -426.000
350.644; -113.175; -808.000; -806.000
350.778;   13.125;  168.000;  104.000
350.911;   19.550;  134.000;  140.000
351.044;  -88.475; -685.000; -615.000
351.177;  -42.325; -321.000; -281.000
351.310;  -27.100;    3.000; -131.000
351.444;  -81.300; -888.000; -788.000
351.577;  121.725;  140.000;   90.000
351.710;   98.300;  593.000;  417.000
351.843;  -45.825; -165.000;  -77.000
351.976;   -7.875;  149.000;  -79.000
352.109;  -90.600; -621.000; -612.000
352.242;   -9.950; -464.000; -419.000
352.376;  -48.150; -580.000; -636.000
352.509;  191.500; -437.000; -356.000
352.642;   17.450; -654.000; -604.000
352.775;   75.200; -141.000;  -98.000
352.908; -123.775; -933.000; -904.000
353.041;  -94.625; -814.000; -824.000
353.174;  -62.725; -551.000; -424.000
353.307;  -91.500; -753.000; -764.000
353.440;   60.250;  541.000;  453.000
353.573; -118.825; -957.000;-1008.000
353.706;  -48.100; -384.000; -558.000
353.839;  -20.325; -264.000; -220.000
353.971;  -93.075; -657.000; -512.000
354.104;  -78.950; -896.000; -835.000
354.237;  -20.825; -627.000; -662.000
354.370;  -74.175; -846.000; -879.000
354.503; -171.575;-1231.000;-1308.000
354.636;  -34.900; -529.000; -348.000
354.769; -119.750; -937.000; -860.000
354.902;   -4.700; -230.000; -139.000
355.034;  -19.575; -164.000; -220.000
355.167;  -14.875; -262.000; -162.000
355.300;  -83.500;-1061.000; -880.000
355.433;  944.200;  -71.000;  -14.000
355.565; 1489.975; -402.000; -384.000
355.698;  377.750; -356.000; -296.000
355.831;   -6.250; -882.000; -801.000
355.964;   82.125; -285.000; -170.000
356.096;  -73.100; -856.000; -843.000
356.229;   17.025; -523.000; -530.000
356.362;  309.600; -373.000; -266.000
356.494;  586.300; -229.000; -162.000
356.627;  523.975;  269.000;  377.000
356.760;  647.425;  120.000;   53.000
356.892;  919.025; -286.000; -601.000
357.025;  711.350;  403.000;  389.000
357.157;  665.525; -167.000; -179.000
357.290;  625.000; -856.000; -713.000
357.423;  215.400; -667.000; -556.000
357.555;  118.925; -217.000; -228.000
357.688;  145.700; -483.000; -364.000
357.820;  515.825; -870.000; -877.000
357.953; 4118.000; -563.000; -589.000
358.085;  916.725; -632.000; -612.000
358.218; 1302.025;-1131.000; -932.000
358.350;  239.975;  -58.000;  312.000
358.483; -117.125;-1300.000;-1187.000
358.615;    7.450;-1182.000;-1078.000
358.747;  -40.125;-1187.000;-1058.000
358.880;   48.350; -810.000; -744.000
359.012;   -1.525; -376.000; -202.000
359.145;  -31.825; -480.000; -511.000
359.277;   85.450; -962.000; -913.000
359.409; 3360.250;  536.000;  231.000
359.542;  929.025; -738.000; -688.000
359.674;   82.075;   46.000;   13.000
359.806;  -50.250; -565.000; -438.000
359.939;  -38.975; -617.000; -516.000
360.071;   -9.125; -583.000; -579.000
360.203;  -39.025; -411.000; -364.000
360.335;   56.525;  164.000;  -16.000
360.468;  211.150; -249.000; -307.000
360.600; 2699.175; -547.000; -454.000
360.732; 2791.975; -546.000; -423.000
360.864;  393.650;-1216.000;-1044.000
360.996;  312.275; -516.000; -554.000
361.129;   64.275; -389.000; -598.000
361.261;   22.575;  110.000; -113.000
361.393;  -24.675; -252.000; -214.000
361.525;   19.425;   94.000;  244.000
361.657;  -29.825; -821.000; -703.000
361.789;    9.525; -139.000; -155.000
361.921;  257.400; -642.000; -593.000
362.053;  282.300;  524.000;  541.000
362.185;   45.725;  288.000;   72.000
362.318;  -71.225; -709.000; -705.000
362.450;  140.025;  294.000;  444.000
362.582;  121.925; -913.000; -870.000
362.714;  -21.225; -353.000; -332.000
362.846;  -86.500; -606.000; -490.000
362.978; -133.575; -941.000; -811.000
363.109;   59.475; -161.000; -260.000
363.241;  492.825; -739.000; -749.000
363.373;  423.775; -649.000; -564.000
363.505;  634.025; -186.000;  -91.000
363.637;  158.050; -787.000; -601.000
363.769; -125.725;-1067.000;-1080.000
363.901;  -65.400; -596.000; -654.000
364.033; -113.175;-1103.000;-1062.000
364.165;    9.375; -283.000; -283.000
364.296;   73.775; -316.000; -177.000
364.428;   64.000;-1344.000;-1220.000
364.560;  -73.325; -679.000; -661.000
364.692;  -68.500; -738.000; -835.000
364.824;  309.100; -588.000; -456.000
364.955;  455.725; -402.000; -564.000
365.087;  883.825;-1097.000; -852.000
365.219;   14.175; -686.000; -816.000
365.351;  -62.800; -526.000; -572.000
365.482;   64.300;  300.000;  240.000
365.614;  -64.825; -402.000; -314.000
365.746; -103.475; -729.000; -752.000
365.877;  -92.625; -706.000; -672.000
366.009;  236.450;  -35.000;  -62.000
366.141;  -91.650;-1249.000;-1134.000
366.272; -102.600; -803.000; -719.000
366.404; -105.925;-1005.000; -874.000
366.535;  -15.525; -139.000;  -12.000
366.667;  -98.775; -644.000; -649.000
366.799;   38.275;  353.000;  203.000
366.930; -114.900; -862.000; -996.000
367.062;  124.050; -639.000; -613.000
367.193;  137.750; -872.000; -842.000
367.325;  -49.675; -580.000; -684.000
367.456;   54.825; -246.000;   31.000
367.588;  152.875; -371.000; -318.000
367.719;    7.925;  -44.000;  -45.000
367.851;  -30.100; -222.000; -241.000
367.982;  -31.100; -875.000; -732.000
368.113;  121.225; -475.000; -358.000
368.245; -119.800; -960.000; -841.000
368.376;  -27.525; -254.000; -302.000
368.508;  -31.525; -188.000; -263.000
368.639; -140.775;-1166.000;-1034.000
368.770;   -6.700; -670.000; -589.000
368.902;  -60.725; -836.000; -926.000
369.033; -108.150; -906.000; -855.000
369.164;  -53.725; -720.000; -653.000
369.296; -115.200; -452.000; -601.000
369.427;  -10.375; -209.000; -144.000
369.558;  -47.650; -593.000; -377.000
369.689;  -81.700; -721.000; -569.000
369.821; -143.150; -951.000; -845.000
369.952;  -17.225;   42.000; -108.000
370.083;  -56.100; -229.000; -108.000
370.214;  -93.725; -735.000; -650.000
370.345;   -4.950;   65.000;   81.000
370.477;  -77.225; -810.000; -790.000
370.608;  259.625; -328.000; -264.000
370.739;  -19.225;-1233.000;-1292.000
370.870;  -25.350;-1102.000; -923.000
371.001;  112.700; -378.000; -467.000
371.132;  -68.025; -754.000; -735.000
371.263;  -19.725;  -42.000; -148.000
371.394; -125.425; -841.000; -748.000
371.525;   24.675;  345.000;  225.000
371.657;  -80.200; -808.000; -670.000
371.788;   62.800;  103.000;  199.000
371.919;  185.250; -384.000; -304.000
372.050; 4024.875;  -91.000; -156.000
372.181; 1239.250; -188.000; -294.000
372.311;  425.075;   42.000; -127.000
372.442;   52.900; -457.000; -451.000
372.573;   -5.500; -444.000; -340.000
372.704; -111.200;-1008.000; -980.000
372.835;   92.525; -228.000; -289.000
372.966;  -51.475; -646.000; -554.000
373.097;  -53.525; -575.000; -711.000
373.228;  -40.150; -717.000; -542.000
373.359;  154.575; -824.000; -536.000
373.490; 1071.075; -881.000; -727.000
373.620; 1327.525;-1001.000; -803.000
373.751; 2014.750; -332.000; -396.000
373.882;  895.025; -663.000; -733.000
374.013;   77.725; -449.000; -262.000
374.143;  -31.625; -581.000; -659.000
374.274; -104.700; -987.000; -908.000
374.405;  207.050; -388.000; -276.000
374.536;  491.750; -526.000; -387.000
374.666; 1300.925; -759.000; -807.000
374.797;  250.500; -817.000; -868.000
374.928;  989.275; -710.000; -560.000
375.058; 1038.175; -535.000; -500.000
375.189;   86.625;  -59.000;  -93.000
375.320; -101.650; -928.000;-1034.000
375.450;  -45.450; -625.000; -616.000
375.581;  -43.850; -526.000; -436.000
375.712;  -46.775; -574.000; -250.000
375.842;  338.700; -438.000; -415.000
375.973;  256.125; -554.000; -513.000
376.103;  -22.450; -665.000; -648.000
376.234;  -71.400; -531.000; -552.000
376.364;  -25.575; -944.000; -867.000
376.495;  342.725;  925.000;  529.000
376.625;    9.350; -472.000; -485.000
376.756;   96.050; -709.000; -678.000
376.886;  -51.925;-1178.000;-1026.000
377.017;   30.525;-1048.000;-1061.000
377.147;  339.750; -786.000; -782.000
377.278;   46.325;  174.000;  228.000
377.408; -128.250; -801.000; -815.000
377.538; -100.375; -707.000; -693.000
377.669;  -78.875; -537.000; -613.000
377.799;  -96.225; -645.000; -635.000
377.929;  -63.975; -610.000; -428.000
378.060; -120.775; -781.000; -847.000
378.190;  -70.700; -726.000; -531.000
378.320;  -60.125; -401.000; -406.000
378.451;  -13.250; -131.000;  -22.000
378.581;   -1.625;  -67.000; -110.000
378.711;  153.225; 1035.000;  866.000
378.841;   -4.675; -533.000; -675.000
378.972;  -77.300; -871.000; -751.000
379.102;    4.300; -652.000; -579.000
379.232;  -18.225; -126.000;  -73.000
379.362; -102.925;-1001.000; -885.000
379.492;   27.475; -373.000; -424.000
379.623;  107.525;    0.000;  111.000
379.753;  -90.875;-1107.000; -974.000
379.883;  212.975;   59.000;  156.000
380.013;   22.475;-1081.000;-1017.000
380.143; -104.800;-1097.000;-1056.000
380.273;  -92.850; -985.000; -861.000
380.403;   -8.525; -344.000; -257.000
380.533;  -24.475; -651.000; -664.000
380.663;   79.975;  173.000;  128.000
380.793;  -88.925;-1027.000;-1074.000
380.923;  -40.500; -103.000;  -34.000
381.053;  -99.550; -613.000; -623.000
381.183;  -24.300; -106.000; -248.000
381.313;   54.950; -656.000; -470.000
381.443;   52.775; -692.000; -473.000
381.573;  224.825; -402.000; -409.000
381.703;  347.425;-1249.000;-1095.000
381.833; -123.400;-1454.000;-1336.000
381.963;  111.625; -134.000;  -87.000
382.093; 1563.475; -925.000; -909.000
382.223;  499.425; -713.000; -602.000
382.353;    5.250; -801.000; -608.000
382.482;  434.250;-1091.000; -964.000
382.612;  855.725; -872.000; -644.000
382.742;  496.100; -695.000; -622.000
382.872;  299.525; -565.000; -551.000
383.002;   64.425;  347.000; -132.000
383.131;  -24.200; -226.000; -160.000
383.261;  -30.300; -706.000; -768.000
383.391;  276.950; -552.000; -377.000
383.521; 3067.875;  451.000;  263.000
383.650;  750.525; -947.000; -904.000
383.780;  -27.025; -783.000; -656.000
383.910;  107.300;  880.000;  802.000
384.039;   41.525; -794.000; -656.000
384.169;  262.125;-1205.000;-1017.000
384.299;  -11.275; -650.000; -662.000
384.428;  -80.100; -764.000; -680.000
384.558;  -51.475; -308.000; -275.000
384.687;  -55.550; -414.000; -334.000
384.817;    5.350;   75.000;   -2.000
384.947;   14.225; -234.000; -141.000
385.076;  290.875;  982.000;  912.000
385.206;  100.450;  369.000;  480.000
385.335;  -35.525; -549.000; -417.000
385.465;  -82.825; -655.000; -663.000
385.594;  130.550;  -53.000;  -44.000
385.724;  487.150; -868.000; -838.000
385.853;  134.850; -296.000; -270.000
385.982; 1490.375; -743.000; -787.000
386.112; 2426.875;-1052.000; -871.000
386.241;  167.700; -307.000; -312.000
386.371;   15.075; -174.000;  -87.000
386.500;   13.700; -825.000; -789.000
386.629;   19.725; -874.000; -817.000
386.759;   61.550;  -43.000;   68.000
386.888;  -11.650; -170.000; -250.000
387.017;  -79.275; -648.000; -620.000
387.147;  -92.875; -771.000; -798.000
387.276;    7.500; -410.000; -397.000
387.405;   12.300; -398.000; -342.000
387.535;  -45.400; -452.000; -361.000
387.664;  -52.550; -692.000; -620.000
387.793;   64.925; -198.000; -113.000
387.922;  587.475;  255.000;  200.000
388.052;   37.725; -576.000; -423.000
388.181;    9.850; -342.000; -472.000
388.310;   23.425; -889.000; -710.000
388.439;  -44.700; -749.000; -742.000
388.568;  210.500;  365.000;  244.000
388.697; 1201.825; -756.000; -653.000
388.826;  258.450; -768.000; -666.000
388.956;   58.325; -285.000; -307.000
389.085;  -28.975; -347.000; -287.000
389.214; -102.650; -842.000; -872.000
389.343;  -61.150; -645.000; -413.000
389.472;  393.925;  126.000;  149.000
389.601;  519.100;   91.000;    0.000
389.730;   27.700; -568.000; -687.000
389.859;   61.225;  226.000;   46.000
389.988;  204.175; -423.000; -408.000
390.117;  164.125; -168.000; -146.000
390.246;  -16.275; -331.000; -320.000
390.375;  129.550; -673.000; -626.000
390.504;  -57.800; -703.000; -621.000
390.633;  -94.250; -672.000; -726.000
390.761;  -69.975; -732.000; -645.000
390.890;   29.000;   -4.000; -130.000
391.019;  -16.325; -421.000; -441.000
391.148; -138.825; -826.000; -855.000
391.277;  -78.325; -576.000; -493.000
391.406;  -79.825; -821.000; -805.000
391.534;   12.150;  574.000; -301.000
391.663;  -62.725; -583.000; -645.000
391.792;  -80.125; -673.000; -701.000
391.921;  113.125;   -3.000;   15.000
392.050;  219.850; -287.000; -228.000
392.178;  -27.650;-1206.000;-1061.000
392.307;  167.500; -758.000; -712.000
392.436;   83.975; -427.000; -641.000
392.564;   17.950;  166.000;   -6.000
392.693;  -90.625; -860.000; -682.000
392.822;  219.575; -529.000; -534.000
392.950;  119.150; -880.000; -714.000
393.079;  360.650; -188.000; -328.000
393.208;   36.700; -488.000; -511.000
393.336;  -28.525; -170.000; -145.000
393.465;  -55.300; -317.000; -199.000
393.593;    4.525;   62.000;   79.000
393.722; -149.825;-1121.000; -916.000
393.850;  -33.475; -188.000;  -61.000
393.979; -150.725; -926.000; -805.000
394.107;  -64.375; -517.000; -537.000
394.236;  -24.175; -570.000; -507.000
394.364;  237.175;  383.000;  206.000
394.493;  406.475; -911.000; -767.000
394.621;  -17.750; -955.000; -916.000
394.750;  688.000; -873.000; -923.000
394.878; 2835.525; -247.000; -149.000
395.007; 3932.900; -721.000; -807.000
395.135;  298.575; -790.000; -721.000
395.263;  -81.250;-1038.000;-1040.000
395.392;  -18.650;  -25.000; -107.000
395.520; -135.750; -818.000; -679.000
395.648; -101.350; -865.000; -915.000
395.777;   -3.725; -366.000; -405.000
395.905;  -42.675; -449.000; -564.000
396.033;   16.700;  217.000;  172.000
396.162;  646.725; -399.000; -453.000
396.290;  576.125;  -17.000;   -2.000
396.418;  111.075; -555.000; -514.000
396.546;  -60.125; -571.000; -466.000
396.674; -107.875; -850.000; -878.000
396.803;   17.525;  -72.000;  -23.000
396.931;   99.300; -179.000; -199.000
397.059;   87.725;-1026.000; -989.000
397.187; -111.700;-1026.000; -975.000
397.315; -141.175; -884.000; -649.000
397.443; -107.825; -592.000; -443.000
397.572;  -99.850; -578.000; -424.000
397.700;   -2.850; -607.000; -614.000
397.828;   41.675;  120.000;  -90.000
397.956;  -50.975; -508.000; -478.000
398.084;  -60.000; -767.000; -626.000
398.212;   39.100;  137.000;  124.000
398.340;    4.450;  -56.000;  159.000
398.468;   42.400; -390.000; -169.000
398.596; -137.850; -993.000; -953.000
398.724; -130.925; -762.000; -767.000
398.852; -156.575;-1024.000; -976.000
398.980;  -71.300; -560.000; -560.000
399.108;  -54.575; -982.000; -735.000
399.236;   34.725;   13.000;    8.000
399.363;   10.025;  222.000;  196.000
399.491;  -78.900; -404.000; -398.000
399.619; -130.175; -829.000; -800.000
399.747; -109.925; -859.000; -771.000
399.875;   85.175;  220.000;  234.000
400.003;  -59.425; -359.000; -284.000
400.130;  -93.000; -421.000; -341.000
400.258;  -18.650;  -83.000;   38.000
400.386;  -65.375; -352.000; -168.000
400.514;  -49.625; -526.000; -587.000
400.641;  -74.975; -928.000; -802.000
400.769; -135.375; -979.000; -888.000
400.897; -110.125; -838.000; -793.000
401.025;  -13.175; -166.000; -152.000
401.152;   -7.350;  220.000;   38.000
401.280;  -84.050; -430.000; -429.000
401.408; -109.075; -712.000; -576.000
401.535;  -99.975; -735.000; -758.000
401.663; -193.750;-1134.000;-1054.000
401.790;  -78.550; -514.000; -525.000
401.918;   38.675;  436.000;  405.000
402.046;  -19.750;  134.000;  122.000
402.173;  -43.900;  -18.000;    7.000
402.301;  -78.375; -519.000; -397.000
402.428;   12.975;  528.000;  383.000
402.556; -151.800;-1188.000; -913.000
402.683;  -35.800;  -20.000;   -1.000
402.811;  -20.800;  -37.000; -206.000
402.938;  -23.250;   20.000;   27.000
403.066;  232.325; -574.000; -558.000
403.193;  390.525;  299.000;  239.000
403.321;  298.725; -396.000; -574.000
403.448;  347.800;   83.000;   27.000
403.575;  172.700;  -90.000;  -46.000
403.703;  -73.675; -732.000; -557.000
403.830;  -68.900; -531.000; -496.000
403.957; -152.150;-1117.000;-1023.000
404.085;    2.875;  -61.000; -172.000
404.212;  112.975;  -50.000;   63.000
404.339;  247.825; -566.000; -306.000
404.467; 5563.275; -612.000; -524.000
404.594; 3926.275; -287.000; -227.000
404.721;  982.225; -869.000; -764.000
404.848;   77.050; -113.000; -202.000
404.976; -102.475; -856.000; -783.000
405.103;   -6.900;  -14.000;  -82.000
405.230;   -6.450;  190.000;  226.000
405.357;   34.700;  117.000;   44.000
405.484;  251.700;  -49.000;    5.000
405.612;   31.825; -548.000; -563.000
405.739;  -55.675; -488.000; -243.000
405.866;   74.925;  669.000;  385.000
405.993;  -44.250; -398.000; -102.000
406.120; -134.325; -801.000; -887.000
406.247;  -68.750; -323.000; -342.000
406.374;  485.075;  540.000;  629.000
406.501;  138.375; -632.000; -702.000
406.628;  -89.050; -621.000; -589.000
406.755;  -76.025; -803.000; -620.000
406.882;  -34.650; -228.000; -277.000
407.009; -108.300; -719.000; -628.000
407.136;   57.825; -480.000; -401.000
407.263;  166.225; -939.000; -829.000
407.390;  -66.600; -692.000; -614.000
407.517; -180.625;-1139.000;-1187.000
407.644;  -77.875; -332.000; -256.000
407.771;  -74.775; -249.000; -287.000
407.898;    2.225;  168.000;  328.000
408.025;  -71.475; -421.000; -313.000
408.151;   -3.975;   82.000;  153.000
408.278;  -78.575; -267.000; -216.000
408.405; -119.825; -931.000; -899.000
408.532;  -66.000; -549.000; -542.000
408.659; -115.575; -677.000; -648.000
408.785; -212.500;-1298.000;-1170.000
408.912;  -81.750; -412.000; -296.000
409.039; -117.150; -610.000; -686.000
409.166; -116.925; -591.000; -555.000
409.292; -107.725; -571.000; -534.000
409.419; -117.550; -665.000; -649.000
409.546;  -97.825; -431.000; -192.000
409.672; -103.275; -713.000; -545.000
409.799;  -22.325;  -36.000;   34.000
409.926;  -47.850; -180.000; -179.000
410.052; -165.650;-1127.000;-1091.000
410.179;  -50.800; -368.000; -392.000
410.305;  -95.825; -375.000; -493.000
410.432;  -57.050; -220.000; -333.000
410.558; -102.200; -305.000; -380.000
410.685; -106.900; -688.000; -431.000
410.812; -102.975; -409.000; -588.000
410.938; -140.750; -964.000; -808.000
411.065;  -93.675; -671.000; -645.000
411.191;  -35.750; -189.000; -174.000
411.317; -113.600; -823.000; -742.000
411.444;  -75.000; -317.000; -246.000
411.570;  -62.050; -339.000; -294.000
411.697; -135.200; -758.000; -752.000
411.823; -168.950; -989.000; -999.000
411.949;  -30.125;  -56.000;   17.000
412.076; -109.050; -539.000; -519.000
412.202; -116.300; -758.000; -757.000
412.329; -126.425; -798.000; -752.000
412.455; -119.500; -821.000; -657.000
412.581;  -20.800;  -15.000;  172.000
412.707;  -73.575; -540.000; -457.000
412.834;   12.600;  156.000;  219.000
412.960;  -82.825; -785.000; -784.000
413.086; -100.850; -743.000; -701.000
413.212;  142.050;  604.000;  578.000
413.339;  -64.275; -685.000; -701.000
413.465;    2.625; -364.000; -310.000
413.591;  -99.100; -757.000; -474.000
413.717;  -65.750; -358.000; -366.000
413.843; -149.250; -839.000; -861.000
413.969;  -63.975;  -47.000; -292.000
414.096; -100.625; -679.000; -679.000
414.222;  -27.875;  -33.000;   85.000
414.348;  -13.025; -652.000; -385.000
414.474;  104.200;   38.000;  -52.000
414.600;  -31.075; -126.000; -144.000
414.726;  -21.825;  -96.000;  -55.000
414.852;  -60.525; -365.000; -342.000
414.978;   22.650;  104.000;  -18.000
415.104;   40.575;   38.000;   80.000
415.230;   26.500; -329.000; -330.000
415.356;   46.225; -409.000; -514.000
415.482;  193.900;   13.000;  -35.000
415.608;  268.275; -247.000; -323.000
415.734;  937.475;   67.000;   38.000
415.860;19284.050; -875.000; -767.000
415.986;14756.900; -685.000; -607.000
416.111; 1294.325; -798.000; -652.000
416.237;  249.775; -424.000; -571.000
416.363; 1041.725; -765.000; -733.000
416.489; 4113.075; -324.000; -251.000
416.615;  455.600; -707.000; -742.000
416.741;  -20.225; -677.000; -784.000
416.866; -108.050; -673.000; -736.000
416.992; -116.875; -801.000; -818.000
417.118;  -25.275;  -41.000;  -80.000
417.244;  -67.475; -798.000; -531.000
417.369;  -82.025; -801.000; -612.000
417.495;  -13.700; -325.000; -254.000
417.621;  -93.700;-1015.000; -803.000
417.746;   -0.675; -579.000; -572.000
417.872;   40.325; -254.000; -144.000
417.998;   37.775; -515.000; -530.000
418.123;  967.250;-1073.000; -845.000
418.249; 5305.675; -512.000; -601.000
418.374;  765.000; -916.000; -824.000
418.500;   99.850; -383.000; -482.000
418.626;  111.425;   70.000;  -59.000
418.751;  134.575; -549.000; -448.000
418.877;  201.675; -637.000; -643.000
419.002; 1718.575; -688.000; -560.000
419.128;12263.100; -930.000; -721.000
419.253; 3143.350; -967.000; -837.000
419.379;  407.150; -391.000; -338.000
419.504;  389.950;  325.000;  415.000
419.629;  510.300; -393.000; -212.000
419.755; 3294.775; -317.000; -254.000
419.880;20581.725;  -98.000;   67.000
420.006;11082.725; -280.000; -221.000
420.131;29154.025; -662.000; -775.000
420.256; 4419.625; -315.000; -316.000
420.382;  569.850; -665.000; -687.000
420.507;   62.850; -649.000; -778.000
420.632;  140.200; -337.000; -339.000
420.758;  291.925; -251.000; -425.000
420.883;  -81.750; -876.000; -672.000
421.008;  -95.050; -775.000; -619.000
421.133;  -76.600; -509.000; -467.000
421.259;  -43.450; -325.000; -259.000
421.384; -114.625; -834.000; -693.000
421.509;  -43.975;-1052.000; -862.000
421.634; 1317.950; -936.000; -820.000
421.759;  588.050; -359.000; -327.000
421.885;  -50.550; -717.000; -656.000
422.010;  -78.725; -673.000; -542.000
422.135; -149.400; -695.000; -727.000
422.260;   23.100;  340.000;  280.000
422.385;  -38.825;   12.000;  -98.000
422.510;   -2.775;  151.000;  -26.000
422.635;   15.700;  -87.000;  -43.000
422.760;  125.575; -766.000; -791.000
422.885;   52.975;  -57.000;  -80.000
423.010;  -28.800; -112.000; -169.000
423.135;  -95.650; -481.000; -561.000
423.260;  -20.275; -150.000; -245.000
423.385;   67.600;  476.000;  222.000
423.510;   33.625;   71.000;  -22.000
423.635;   94.225;  133.000;   45.000
423.760;   59.000;  383.000;  328.000
423.885;   51.500;  336.000;  391.000
424.010;   24.900;  -68.000;  -13.000
424.135;  -21.250;    5.000;  -33.000
424.259;  -90.175; -654.000; -457.000
424.384;  -64.925; -279.000; -272.000
424.509;  -41.425; -260.000; -186.000
424.634; -103.550; -761.000; -623.000
424.759;  -35.875; -688.000; -544.000
424.883;  -18.275; -506.000; -527.000
425.008;  160.550; -502.000; -410.000
425.133; 1948.325; -679.000; -653.000
425.258;  954.325; -517.000; -381.000
425.382; 1126.125; -867.000; -774.000
425.507; 2933.450; -487.000; -543.000
425.632;  473.925; -802.000; -663.000
425.756;  434.000; -256.000; -146.000
425.881; 6128.500; -831.000; -857.000
426.006;17243.800; -604.000; -355.000
426.130; 2865.425; -696.000; -508.000
426.255;  350.025; -611.000; -491.000
426.379;  159.625; -189.000; -577.000
426.504;  355.250;  660.000;  544.000
426.629; 3933.750; -519.000; -466.000
426.753; 2865.375;   64.000;  -46.000
426.878;  326.475; -252.000; -288.000
427.002;  133.075; -651.000; -668.000
427.127; 1502.400;  -35.000; -158.000
427.251;11113.825;  372.000;  401.000
427.375; 3373.800; -191.000; -173.000
427.500; 2524.100; -616.000; -610.000
427.624;  924.225; -234.000; -400.000
427.749;  101.600; -216.000; -225.000
427.873;  -31.375; -499.000; -412.000
427.997;  -47.500; -222.000; -230.000
428.122;   56.750;  795.000;  703.000
428.246;   64.375;  433.000;  434.000
428.371; -127.375; -869.000; -773.000
428.495; -113.175; -624.000; -646.000
428.619;  -27.725; -186.000; -117.000
428.743;   14.525;   65.000;  132.000
428.868;   30.850; -732.000; -643.000
428.992; 1557.125; -219.000; -326.000
429.116;  655.650; -329.000; -357.000
429.240;  299.625;  419.000;  426.000
429.365;  -34.550; -454.000; -574.000
429.489;  -42.350; -638.000; -647.000
429.613;   12.200; -236.000; -177.000
429.737;   37.375; -563.000; -432.000
429.861;  269.050; -247.000; -133.000
429.985; 5306.850; -425.000; -305.000
430.109; 6172.750; -770.000; -908.000
430.234;  730.450;   76.000;  -50.000
430.358;   78.675; -250.000; -160.000
430.482;  -82.500; -672.000; -564.000
430.606;  -78.900; -655.000; -375.000
430.730;   14.725; -437.000; -388.000
430.854;  152.225; -909.000; -835.000
430.978;  -70.700; -795.000; -764.000
431.102;  -95.050; -499.000; -422.000
431.226; -121.275; -874.000; -815.000
431.350;   26.825;  345.000;  422.000
431.474;  -85.200; -661.000; -373.000
431.597; -146.600;-1060.000; -848.000
431.721;  -98.400; -276.000; -267.000
431.845; -126.300; -704.000; -472.000
431.969;  -89.025; -304.000; -349.000
432.093;  -91.850; -395.000; -317.000
432.217;  -33.150;   32.000;   82.000
432.341;  -92.700; -523.000; -518.000
432.464;   -9.775;   96.000;   40.000
432.588;  231.575; -401.000; -329.000
432.712;  113.550;  -52.000;  -52.000
432.836;   43.150;  213.000;  263.000
432.959;  -21.200; -372.000; -311.000
433.083;   71.950;   11.000;    2.000
433.207;  349.250;  285.000;  930.000
433.330; 4837.725; -391.000; -200.000
433.454; 6198.650; -654.000; -638.000
433.578; 3524.500;  583.000;  278.000
433.701;  698.750; -623.000; -675.000
433.825;  153.700; -292.000; -299.000
433.949;  182.300;   28.000;  -72.000
434.072;   81.800; -410.000; -323.000
434.196;  -18.950; -309.000; -117.000
434.319; 3635.350;25482.000;25124.000
434.443;  708.225; -656.000; -603.000
434.566; 2614.925;  281.000;   62.000
434.690;  455.475; -637.000; -383.000
434.813;   45.025; -251.000; -173.000
434.937;  -81.900; -569.000; -696.000
435.060;  -39.600; -423.000; -332.000
435.184;  363.525; -492.000; -217.000
435.307;  199.500;  159.000;  102.000
435.431;   -1.350;  -40.000;   24.000
435.554;  -72.900; -399.000; -240.000
435.677;  -95.475; -350.000; -258.000
435.801;  -50.575;  -25.000;   49.000
435.924;  -26.550;    1.000;  -67.000
436.048; -113.150;-1019.000; -732.000
436.171;  -78.100; -240.000;  -66.000
436.294;  -44.875; -248.000; -229.000
436.417;   88.725; -963.000; -849.000
436.541;  -98.125; -814.000; -840.000
436.664;  -50.100; -242.000; -316.000
436.787;  -34.925;   13.000;  113.000
436.910; -117.350; -792.000; -422.000
437.034;   -2.925;  142.000;  143.000
437.157;   67.625;  -11.000;    0.000
437.280;  -58.800; -392.000; -292.000
437.403;  -84.725; -982.000; -869.000
437.526;  686.975; -903.000; -865.000
437.649; 2584.175; -505.000; -332.000
437.772;  426.550; -692.000; -540.000
437.896;  142.300;  700.000;  544.000
438.019; -111.175; -758.000; -503.000
438.142;  -85.100; -596.000; -506.000
438.265;  -14.700; -639.000; -670.000
438.388;  649.225; -520.000; -410.000
438.511;  139.750; -597.000; -394.000
438.634;  -37.550; -247.000; -125.000
438.757; -146.000; -693.000; -619.000
438.880;  -24.625;  -34.000;  -57.000
439.003;  -83.450; -417.000; -437.000
439.126;  -75.075; -287.000; -167.000
439.248;  -69.600;  -98.000; -139.000
439.371;  -63.725;    9.000;  -53.000
439.494;   33.925;  510.000;  439.000
439.617;  -52.825;   65.000;  -88.000
439.740; -191.050; -968.000; -816.000
439.863; -144.900; -755.000; -595.000
439.986; -124.775; -476.000; -431.000
440.108;  -41.150; -161.000; -112.000
440.231; -157.225; -950.000; -836.000
440.354;  -40.375;  -64.000; -150.000
440.477;   50.400; -566.000; -542.000
440.599;   13.975; -200.000; -225.000
440.722; -120.325; -709.000; -586.000
440.845;   56.200;  751.000;  928.000
440.968; -115.275; -415.000; -311.000
441.090;  -80.500; -199.000;  -33.000
441.213; -173.025;-1021.000; -825.000
441.336;  -51.650; -159.000;   -5.000
441.458;  -86.150; -549.000; -396.000
441.581;  -80.475; -628.000; -629.000
441.703;  -88.925; -152.000;   13.000
441.826; -112.725; -557.000; -400.000
441.948;  -62.750;   56.000;   51.000
442.071;   26.775;  555.000;  424.000
442.193; -115.625; -531.000; -485.000
442.316;    9.825;  152.000;   97.000
442.438;   31.150; -233.000;  -10.000
442.561;   53.175;  272.000;  262.000
442.683;  580.025; -809.000; -522.000
442.806; 1334.000;   -8.000;   74.000
442.928;   70.250; -859.000; -604.000
443.051;  -73.700; -577.000; -373.000
443.173;  -95.325; -341.000; -339.000
443.295;  -80.300; -263.000; -371.000
443.418;  -65.225; -321.000;  -29.000
443.540;  -15.800; -106.000;   -4.000
443.662; -122.675; -563.000; -465.000
443.785;  -14.075;  335.000;  199.000
443.907; -110.700; -362.000; -208.000
444.029; -136.425; -767.000; -494.000
444.152; -137.175; -644.000; -554.000
444.274;  -31.900;  -18.000;  -24.000
444.396; -103.650; -461.000; -221.000
444.518; -131.725; -691.000; -454.000
444.640; -106.500; -268.000; -111.000
444.763;  -34.350;  388.000;  249.000
444.885; -133.625; -432.000; -392.000
445.007;  -42.425;   35.000;   86.000
445.129; -128.200; -610.000; -515.000
445.251; -113.350; -372.000; -439.000
445.373; -145.625; -537.000; -386.000
445.495;   -6.650;  242.000;  350.000
445.617;   59.650;  853.000;  753.000
445.739;  -60.475; -215.000;  -97.000
445.861;  -18.250; -245.000; -112.000
445.984;  -44.550; -267.000; -101.000
446.105;  202.450; -418.000; -251.000
446.227;  683.575; -176.000;  -19.000
446.349;   30.750; -358.000; -249.000
446.471;  -89.050; -615.000; -448.000
446.593;  -75.625; -316.000;   19.000
446.715;    0.200;  -67.000;   41.000
446.837;   60.375;  697.000;  832.000
446.959; -110.050; -457.000; -478.000
447.081; -139.750; -628.000; -518.000
447.203;   45.200;  862.000;  834.000
447.325;  -96.525; -270.000;   42.000
447.446;  -16.400;  286.000;  530.000
447.568; -166.775; -921.000; -803.000
447.690;  -83.125; -236.000; -245.000
447.812; -159.225; -798.000; -519.000
447.933;  -28.725;  155.000;  127.000
448.055;  -73.175; -306.000; -261.000
448.177;  162.550;   31.000;   79.000
448.299;  133.275; -935.000; -727.000
448.420;   26.200;  -25.000;  159.000
448.542;  -56.775;   -3.000;   33.000
448.664;  -28.650;  109.000;  322.000
448.785;  -53.350;  265.000;   83.000
448.907;  -85.825; -614.000; -353.000
449.028;  -24.475; -771.000; -471.000
449.150;   65.400;  492.000;  589.000
449.272; -184.625;-1044.000; -913.000
449.393;   34.750;  612.000;  694.000
449.515; -142.900; -634.000; -581.000
449.636;  -61.725; -264.000; -155.000
449.758;   73.375;  763.000;  622.000
449.879;  -86.525; -498.000; -396.000
450.001;  -90.550; -149.000;  -49.000
450.122;  -43.800;  -95.000;  162.000
450.244;  -34.550;   37.000;  364.000
450.365; -107.000; -495.000; -301.000
450.486;  -58.650;   80.000;  268.000
450.608;   18.550;  393.000;  326.000
450.729;   64.275;  578.000;  645.000
450.850;   -1.625; -574.000; -466.000
450.972;  675.525; -552.000; -389.000
451.093; 4703.025;  190.000;  588.000
451.214; 2164.600; -516.000; -337.000
451.336;  395.475;  773.000;  579.000
451.457;   56.475;  264.000;  393.000
451.578;  -51.350; -118.000;  -74.000
451.699; -121.300; -546.000; -540.000
451.821;  -70.700; -284.000;  -50.000
451.942;  -11.375;  278.000;  285.000
452.063;   23.675;  228.000;  419.000
452.184;  526.375;  -54.000;  -49.000
452.305; 1081.150;  103.000;  170.000
452.427;  136.550; -549.000; -301.000
452.548;  -23.675;   23.000;   79.000
452.669;  -57.300; -257.000;  -89.000
452.790;  -46.375;    3.000;  -18.000
452.911;  -26.250;  195.000;  259.000
453.032;  -61.950; -289.000;  -60.000
453.153;  -30.075;  -29.000;   81.000
453.274;   43.950;  737.000;  868.000
453.395;  -55.750;  -51.000;  175.000
453.516;  120.125; 1317.000; 1388.000
453.637;  -59.900; -205.000; -150.000
453.758;  -71.450;   15.000;   69.000
453.879; -117.700; -462.000; -250.000
454.000;   72.300; 1086.000;  948.000
454.121; -116.275; -554.000; -326.000
454.242; -122.900; -599.000; -383.000
454.362;  -54.500;  -99.000;  114.000
454.483;  -27.025; -309.000; -229.000
454.604;   56.800;  512.000;  580.000
454.725; -124.775; -627.000; -555.000
454.846; -113.900; -474.000; -406.000
454.967;  -26.175;  230.000;  539.000
455.087;  -55.800;  179.000;  153.000
455.208;    0.850;  554.000;  856.000
455.329;  -66.075;  -22.000;   82.000
455.450;   28.675;  473.000;  633.000
455.570;  -84.500; -234.000; -211.000
455.691;  -60.950;  201.000;  407.000
455.812; -112.575; -270.000;  -92.000
455.932;  -79.650;  107.000;  -97.000
456.053;  -83.225;   36.000;   24.000
456.173; -123.100; -433.000; -355.000
456.294; -135.875; -476.000; -303.000
456.415;  -72.400;  -73.000;   70.000
456.535;  -35.250;  297.000;  273.000
456.656;  -40.850;  132.000;  240.000
456.776;  -69.400;    3.000;  298.000
456.897;  -13.350;  308.000;  513.000
457.017;  -82.225; -153.000;   -3.000
457.138; -100.250; -402.000; -249.000
457.258;  -32.325;  263.000;  224.000
457.379;  -29.725;  509.000;  521.000
457.499;  -20.800;  443.000;  432.000
457.620; -131.675; -407.000; -231.000
457.740; -108.400; -132.000;  -11.000
457.860;  -60.950;   87.000;   44.000
457.981;  -52.475;  132.000;  124.000
458.101;  -65.075;  -89.000;   40.000
458.221;  -14.825;  336.000;  402.000
458.342;  -66.975;   -4.000;  -37.000
458.462;   21.875;  617.000;  352.000
458.582;  -47.400; -302.000; -294.000
458.703;  -12.500;  303.000;  154.000
458.823;  -34.075;   22.000;  163.000
458.943;   17.800;  341.000;  467.000
459.063;  -24.825; 1124.000;  192.000
459.183;  -35.425;  328.000;  313.000
459.304;    0.925;  315.000;  517.000
459.424;  -70.625; -246.000;  -89.000
459.544;  299.150;  388.000;  764.000
459.664;  816.150;  499.000;  506.000
459.784;  312.200; 1004.000; 1175.000
459.904;   40.450;  867.000;  744.000
460.024;   66.550;  867.000;  684.000
460.144;   11.575;  449.000;  554.000
460.264;  -10.850;  515.000;  327.000
460.385;  -95.850; -145.000; -119.000
460.505;   19.150;  905.000;  858.000
460.625; -101.875;  -17.000;  -68.000
460.745;  -31.225;  396.000;  541.000
460.864;  -60.700;  153.000;  469.000
460.984;   13.950;  499.000;  573.000
461.104;  153.575; 1656.000; 1775.000
461.224;   15.725;  657.000;  650.000
461.344;  -17.900;  431.000;  360.000
461.464;  -35.650;  258.000;  513.000
461.584;  -11.625;  283.000;  466.000
461.704;  -59.025;   58.000;  108.000
461.824;  -54.375;  238.000;  259.000
461.943;  -46.625;  191.000;  130.000
462.063;  -63.875;    2.000;  324.000
462.183;   23.425;  639.000;  717.000
462.303;   80.350; 1678.000; 1230.000
462.422;   30.525;  781.000;  840.000
462.542;  -36.975;  271.000;  391.000
462.662;   34.050;  353.000;  380.000
462.782;  219.850;  833.000;  572.000
462.901;  480.700;  545.000;  717.000
463.021;  277.175; 1702.000; 1638.000
463.141;   -0.225;  337.000;  770.000
463.260;  -35.200;  614.000;  474.000
463.380;    4.925;  902.000;  884.000
463.499;  -38.775;  342.000;  332.000
463.619;  -52.175;  581.000;  559.000
463.738;  105.575; 1644.000;  903.000
463.858;    1.375;  657.000;  811.000
463.978;  -40.875;  542.000;  396.000
464.097;   35.325;  921.000; 1114.000
464.217;  108.525; 1196.000; 1143.000
464.336;   97.375; 1068.000; 1130.000
464.455;  -32.600;  328.000;  659.000
464.575;   31.800;  597.000;  602.000
464.694;  195.975; 1204.000; 1179.000
464.814;  125.800; 1190.000; 1138.000
464.933;   81.150; 1095.000; 1027.000
465.052;   92.600; 1412.000; 1054.000
465.172;   85.925;  922.000;  799.000
465.291;  114.500; 1376.000; 1320.000
465.410;    2.600;  462.000;  735.000
465.530;   66.125; 1355.000; 1310.000
465.649;   69.600; 1209.000; 1273.000
465.768;  121.675; 1673.000; 1508.000
465.888;   55.625;  941.000; 1174.000
466.007;   96.800; 1335.000; 1440.000
466.126;    3.525;  721.000;  641.000
466.245;   35.475; 1176.000; 1187.000
466.364;   16.275;  950.000; 1060.000
466.484;   50.150; 1024.000; 1213.000
466.603;   25.825; 1101.000; 1222.000
466.722;  130.350; 1490.000; 1769.000
466.841;   87.425; 1151.000; 1401.000
466.960;   23.650; 1069.000;  972.000
467.079;  127.500; 1971.000; 1786.000
467.198;   54.175; 1238.000; 1181.000
467.317;   78.925; 1768.000; 1162.000
467.436;   45.900; 1709.000; 1261.000
467.555;  117.675; 1796.000; 1746.000
467.674;   52.275; 1227.000; 1329.000
467.793;   38.450; 1376.000; 1374.000
467.912;   70.450; 1658.000; 1539.000
468.031;  133.475; 2038.000; 1930.000
468.150;  141.850; 1842.000; 1837.000
468.269;  193.525; 2313.000; 2090.000
468.388;  187.425; 2168.000; 2339.000
468.507;  234.125; 2884.000; 2903.000
468.626;  245.650; 2555.000; 2541.000
468.744;  119.625; 2018.000; 2174.000
468.863;  189.650; 2312.000; 2523.000
468.982;  104.100; 1503.000; 1555.000
469.101;  218.275; 2788.000; 2692.000
469.220;  148.425; 2333.000; 2176.000
469.338;  244.925; 2935.000; 3051.000
469.457;  198.750; 2719.000; 2545.000
469.576;  333.675; 3953.000; 3784.000
469.695;  233.525; 2877.000; 3066.000
469.813;  398.900; 4148.000; 4192.000
469.932;  396.150; 4255.000; 4485.000
470.051;  404.950; 4075.000; 4161.000
470.169;  829.975; 4470.000; 4338.000
470.288; 1437.450; 4700.000; 4809.000
470.406;  881.725; 5059.000; 5194.000
470.525;  630.775; 6101.000; 5787.000
470.644;  646.125; 6847.000; 6794.000
470.762;  813.700; 8397.000; 7873.000
470.881;  903.550; 8651.000; 8464.000
470.999; 1037.150; 9685.000; 9151.000
471.118; 1102.000;11174.000;10711.000

