
Integration time [ms]: 100.000
Averaging Nr. [scans]: 40
Smoothing Nr. [pixels]: 0
Data measured with spectrometer [name]: 2101012U2
Wave   ;Sample   ;Dark     ;Reference
[nm]   ;[counts] ;[counts] ;[counts] 

197.733;   51.400;  516.000;  404.000
197.879;  -89.200; -610.000; -634.000
198.025;  -44.150; -475.000; -420.000
198.171;  -64.900; -602.000; -612.000
198.317;  -39.325; -401.000; -316.000
198.463;  -72.575; -655.000; -404.000
198.609;   24.325;  181.000; -137.000
198.755;  -82.125; -644.000; -410.000
198.901;  -62.425; -505.000; -424.000
199.047;  -78.125; -615.000; -488.000
199.193;  -38.650; -230.000; -468.000
199.339;  -37.875; -222.000; -369.000
199.485;   24.125;  330.000;  271.000
199.631;   20.650;  227.000;  310.000
199.777;  -63.425; -466.000; -398.000
199.923;  -68.175; -610.000; -424.000
200.069;   -0.950; -141.000;  -58.000
200.215;   57.050;  128.000;  453.000
200.361;   54.975;  243.000;  477.000
200.507;  -67.825; -600.000; -373.000
200.653;  -32.200; -371.000; -194.000
200.798;  -36.050; -215.000; -125.000
200.944;   -5.600; -146.000;  -41.000
201.090;   43.150;   61.000;  222.000
201.236;   -1.950; -116.000; -158.000
201.382;  132.075;  874.000;  903.000
201.528;  -12.200;  -58.000;  -48.000
201.674;  -61.600; -386.000; -293.000
201.819;  -63.250; -540.000; -439.000
201.965;  -89.175; -699.000; -447.000
202.111;  -27.725; -273.000; -226.000
202.257;  -44.675; -250.000; -238.000
202.402;    4.100;   13.000;  -36.000
202.548;  -16.575; -169.000; -116.000
202.694;   87.375;  410.000; -183.000
202.840;  -78.525; -603.000; -531.000
202.985;  -72.225; -681.000; -639.000
203.131; -123.125; -832.000; -666.000
203.277;  -36.225; -199.000; -262.000
203.423;  -64.850; -434.000; -520.000
203.568;  -45.525; -462.000; -237.000
203.714;  -62.150; -535.000; -542.000
203.860;  -89.475; -682.000; -641.000
204.005;   10.050;  112.000;  167.000
204.151;   64.800;  561.000;  556.000
204.296;  -45.875; -354.000; -221.000
204.442;  -74.225; -600.000; -547.000
204.588;  -77.250; -592.000; -579.000
204.733;   32.625;  178.000;  168.000
204.879; -127.025;-1018.000; -822.000
205.025;    3.100;  -99.000;  126.000
205.170;  -15.050;  -17.000;   94.000
205.316;   76.600;  438.000;  661.000
205.461;  -75.200; -698.000; -554.000
205.607;   88.550;  609.000;  665.000
205.752;  -77.525; -626.000; -551.000
205.898;  -63.225; -501.000; -391.000
206.043;  -58.250; -578.000; -506.000
206.189;  -41.925; -243.000; -285.000
206.334;   81.625;  554.000;  606.000
206.480;   80.325;  409.000;  239.000
206.625;  -91.100; -529.000; -552.000
206.771;  -53.325; -451.000; -373.000
206.916;  -32.250; -210.000; -537.000
207.062;  -76.150; -545.000; -591.000
207.207;  -66.950; -546.000; -443.000
207.353;   38.825;  185.000;  460.000
207.498;    8.975;  196.000;   85.000
207.643;  -56.950; -501.000; -370.000
207.789; -130.175;-1069.000; -910.000
207.934;  -95.375; -665.000; -713.000
208.080;  -36.575; -154.000;   66.000
208.225;  -17.825;  -22.000;  -57.000
208.370;  -90.200; -727.000; -619.000
208.516;  -84.050; -741.000; -487.000
208.661;  -27.975; -127.000;  -69.000
208.806;  -27.325; -165.000; -171.000
208.952; -114.850;-1044.000; -731.000
209.097;   67.400;  378.000;  349.000
209.242;  -53.975; -307.000; -382.000
209.387;   60.925;  392.000;  350.000
209.533;  -60.625; -321.000; -350.000
209.678;   84.150;  472.000;  543.000
209.823;  -55.400; -408.000; -310.000
209.969; -103.975; -860.000; -757.000
210.114; -110.150; -907.000; -719.000
210.259; -124.975; -939.000; -889.000
210.404;  -20.800; -171.000;  103.000
210.549;   -4.250;  108.000;    3.000
210.695;   -9.400;   -3.000;  -95.000
210.840;   34.225;   94.000;   67.000
210.985;  -76.675; -484.000; -303.000
211.130;   69.075;  268.000;  406.000
211.275;    8.150;  207.000;  199.000
211.420;  -64.525; -300.000; -289.000
211.566;  -70.800; -536.000; -489.000
211.711;   17.900;  218.000;  157.000
211.856;  -68.775; -545.000; -519.000
212.001;    7.600;  151.000;   44.000
212.146;   39.825;  153.000;   49.000
212.291;  -26.950; -210.000; -186.000
212.436;  -28.275; -280.000;   -6.000
212.581;  -95.600; -685.000; -653.000
212.726;  -76.650; -487.000; -538.000
212.871;  -55.200; -552.000; -217.000
213.016; -156.200;-1172.000;-1029.000
213.161;   51.975;  406.000;  291.000
213.306;  -83.075; -435.000; -577.000
213.451; -102.700; -778.000; -689.000
213.596;  -64.950; -455.000; -347.000
213.741;  -69.725; -448.000; -538.000
213.886;  -79.750; -498.000; -517.000
214.031;  -26.800; -294.000; -124.000
214.176;  -56.000; -408.000; -341.000
214.321;  -21.050; -296.000; -157.000
214.466;  -32.100; -163.000;  -43.000
214.611;   -4.675;  -61.000;  -10.000
214.756; -118.500; -948.000; -858.000
214.901;  -27.075; -388.000; -226.000
215.046; -118.775; -797.000; -825.000
215.191;   18.025;  128.000;   35.000
215.336;   -9.550; -157.000;  -19.000
215.480;  -78.500; -684.000; -505.000
215.625;  -17.200; -175.000;  -19.000
215.770;  -80.450; -757.000; -662.000
215.915;  -18.675;   -5.000;  -97.000
216.060;  -13.800; -113.000;  -21.000
216.205; -111.125; -731.000; -779.000
216.349;  -83.750; -470.000; -533.000
216.494; -139.700; -939.000; -867.000
216.639; -128.275; -823.000; -888.000
216.784;  -95.850; -577.000; -525.000
216.929;   43.875;  392.000;  281.000
217.073;   -9.975; -244.000;  -31.000
217.218;   -4.525;   78.000;  -47.000
217.363;  -76.900; -656.000; -618.000
217.507;  -87.575; -623.000; -588.000
217.652; -130.625; -845.000; -874.000
217.797; -104.450; -708.000; -659.000
217.942; -113.725; -856.000; -720.000
218.086;   82.900;  608.000;  539.000
218.231;  -30.125; -174.000;  -26.000
218.376;  -45.450; -337.000; -229.000
218.520;   -1.150;  -41.000;   96.000
218.665;  -41.250; -338.000; -204.000
218.810;  -48.550; -275.000; -233.000
218.954;   26.425;  201.000;   35.000
219.099; -112.900; -713.000; -963.000
219.243;  -70.725; -589.000; -554.000
219.388;  -37.550; -264.000; -136.000
219.532;  -15.900; -116.000; -116.000
219.677;  -70.975; -564.000; -521.000
219.822;    0.525;   33.000;   89.000
219.966;    1.825;   17.000;  -99.000
220.111;  -40.600; -328.000;  -40.000
220.255;  -92.525; -797.000; -750.000
220.400;  -36.100; -180.000; -146.000
220.544;  -78.650; -516.000; -450.000
220.689;  -71.975; -422.000; -451.000
220.833;   -8.375; -123.000;  -58.000
220.978;  -50.825; -393.000; -563.000
221.122;   26.975;  319.000;  307.000
221.267; -117.050; -906.000; -837.000
221.411;  -53.550; -478.000; -394.000
221.555;  -11.600; -104.000;  -23.000
221.700;  -40.775; -329.000; -222.000
221.844;   31.000;  255.000;  272.000
221.989;  -60.425; -328.000; -311.000
222.133;  -45.300; -289.000; -307.000
222.277;    0.075;    5.000;   78.000
222.422;    7.750;  227.000;  113.000
222.566;  -38.100; -381.000; -214.000
222.711;  -65.425; -414.000; -479.000
222.855;  -80.375; -643.000; -586.000
222.999;  -92.800; -642.000; -717.000
223.144;  -32.900; -195.000; -194.000
223.288;   43.550;  423.000;  251.000
223.432;   20.275;  184.000;  230.000
223.576;   13.450;  152.000;  -21.000
223.721;   38.075;  364.000;  273.000
223.865;  -57.475; -472.000; -475.000
224.009;  218.900; 1673.000; 1631.000
224.153;  -92.750; -660.000; -671.000
224.298;  -77.925; -531.000; -489.000
224.442;  -22.550;  -74.000;  -33.000
224.586;  -20.950; -169.000; -106.000
224.730; -100.500; -858.000; -670.000
224.875; -112.000; -739.000; -688.000
225.019;   -1.225;  102.000;  188.000
225.163;   55.900;  208.000;  341.000
225.307;    3.850;   97.000;  -91.000
225.451;   41.200;  360.000;  481.000
225.595;   41.750;  264.000;  176.000
225.739;   -7.425; -170.000;  -94.000
225.884;   -3.625;   86.000;    5.000
226.028; -111.000; -760.000; -626.000
226.172;  -54.825; -260.000; -273.000
226.316; -115.500; -941.000; -902.000
226.460;  -73.550; -645.000; -493.000
226.604;  -59.650; -406.000; -400.000
226.748; -107.025; -836.000; -733.000
226.892;  -48.200; -227.000; -181.000
227.036;  -46.875; -537.000; -447.000
227.180;  -59.725; -551.000; -375.000
227.324;  -64.950; -561.000; -580.000
227.468; -115.575; -819.000; -717.000
227.612;    5.125;  242.000;  -28.000
227.756; -116.825; -845.000; -698.000
227.900;   55.700;  342.000;  441.000
228.044;  -55.875; -509.000; -290.000
228.188;   53.350;  448.000;  568.000
228.332;  -88.075; -546.000; -472.000
228.476;  -40.725; -223.000; -149.000
228.620;  -40.150; -210.000; -150.000
228.764;   58.525;  431.000;  349.000
228.908;  -36.300; -155.000;   30.000
229.052;  -65.050; -615.000; -528.000
229.195;  -11.675; -172.000;   13.000
229.339;  -38.075; -235.000; -305.000
229.483;  -30.250;    5.000; -162.000
229.627;  -27.075; -156.000;  139.000
229.771;  -48.500; -218.000; -294.000
229.915;   10.400;  230.000;   79.000
230.059;  -98.675; -648.000; -663.000
230.202;  -44.350; -370.000; -317.000
230.346;  -24.375; -107.000;  107.000
230.490;  -72.325; -489.000; -521.000
230.634; -105.125; -736.000; -553.000
230.777;   66.275;  478.000;  509.000
230.921;  -57.550; -450.000; -359.000
231.065;  -46.300; -246.000; -286.000
231.209;   25.075;  261.000;  265.000
231.352;    7.900;   54.000;   40.000
231.496;   22.950;  568.000;  188.000
231.640;  -91.525; -693.000; -621.000
231.783;   52.825;  546.000;  525.000
231.927;  -37.825; -294.000; -365.000
232.071; -115.950; -962.000; -736.000
232.214; -124.525; -980.000; -764.000
232.358; -101.975; -683.000; -599.000
232.502;   -3.600;  -19.000;    7.000
232.645; -146.225;-1090.000; -927.000
232.789;  -22.525; -257.000; -218.000
232.933;  -35.250; -407.000; -224.000
233.076; -127.175;-1038.000; -897.000
233.220; -104.425; -752.000; -777.000
233.363;  -86.375; -669.000; -477.000
233.507;   51.650;  371.000;  129.000
233.650; -100.075; -764.000; -834.000
233.794;   42.700;  438.000;  461.000
233.938;  -78.225; -530.000; -362.000
234.081;  -27.350;  -93.000;   31.000
234.225;  -66.700; -631.000; -539.000
234.368; -105.525; -773.000; -723.000
234.512;  -51.675; -385.000; -299.000
234.655; -101.025; -582.000; -555.000
234.798;  -67.975; -493.000; -466.000
234.942; -127.150; -884.000;-1002.000
235.085;  -74.300; -651.000; -443.000
235.229;  -81.200; -405.000; -410.000
235.372;  -55.125; -247.000; -191.000
235.516;  -64.125; -397.000; -321.000
235.659;   12.575;   92.000;  121.000
235.802;  -23.875;  -38.000;  -22.000
235.946;   26.175;  335.000;  215.000
236.089;   19.975;  126.000;  250.000
236.233;   33.925;  275.000;  298.000
236.376;  -66.625; -235.000; -378.000
236.519;  -56.600; -297.000; -319.000
236.663;  -32.300; -215.000; -117.000
236.806; -135.625;-1029.000; -999.000
236.949;   59.500;  543.000;  431.000
237.092;   49.100;  412.000;  391.000
237.236;  -90.900; -589.000; -502.000
237.379;   61.775;  352.000;  428.000
237.522; -107.625; -879.000; -768.000
237.666;  -21.100; -271.000;   18.000
237.809; -125.500; -851.000; -823.000
237.952;   30.575;  469.000;  271.000
238.095;  -57.400; -447.000; -442.000
238.238;   82.050;  688.000;  700.000
238.382;   -0.350;  166.000;  103.000
238.525;  -67.450; -598.000; -511.000
238.668; -139.450;-1060.000; -985.000
238.811;  -89.200; -638.000; -643.000
238.954;  -62.375; -483.000; -334.000
239.097;  109.825;  617.000;  664.000
239.241;   30.975;  394.000;  326.000
239.384;  -48.525; -254.000; -214.000
239.527;  -62.525; -424.000; -224.000
239.670; -154.150; -994.000;-1091.000
239.813; -113.050; -696.000; -658.000
239.956;   63.575;  579.000;  473.000
240.099; -116.475; -778.000; -725.000
240.242;   66.475;  428.000;  432.000
240.385;   53.250;  466.000;  450.000
240.528;  -70.100; -706.000; -473.000
240.671;   28.050;  189.000;  134.000
240.814;  -49.475; -441.000; -158.000
240.957; -108.900; -767.000; -578.000
241.100; -102.125; -779.000; -755.000
241.243; -137.875;-1234.000; -893.000
241.386;  -67.875; -508.000; -379.000
241.529;  -93.400; -735.000; -547.000
241.672;  -72.075; -566.000; -495.000
241.815; -130.975; -832.000; -808.000
241.958;  -27.625; -125.000; -182.000
242.101;  -93.850; -545.000; -390.000
242.244;  -44.350; -270.000; -325.000
242.387;  -47.600; -304.000; -246.000
242.530;   49.375;  470.000;  134.000
242.673;  -45.075; -381.000; -309.000
242.815; -116.450; -925.000; -899.000
242.958;  -75.300; -482.000; -381.000
243.101;   21.875;  132.000;  187.000
243.244;  -84.550; -564.000; -521.000
243.387;  -59.150; -313.000; -316.000
243.530;  -91.100; -657.000; -674.000
243.672;   -0.550;   43.000;  -92.000
243.815;  -48.150; -355.000; -283.000
243.958;  -10.700;   98.000;  -26.000
244.101;   -2.225;   59.000;  -16.000
244.243;   -9.550;  -47.000;  101.000
244.386; -113.525; -761.000; -630.000
244.529;  -21.250; -132.000; -139.000
244.672; -158.650;-1154.000; -951.000
244.814;  -96.925; -621.000; -794.000
244.957;  -54.225; -380.000; -304.000
245.100;  -91.500; -489.000; -489.000
245.242;  -56.700; -387.000; -374.000
245.385;    7.200;  -59.000;  -39.000
245.528; -130.250; -871.000; -705.000
245.670;   77.900;  612.000;  634.000
245.813;  -82.150; -599.000; -547.000
245.956;  -37.775; -324.000; -275.000
246.098;  -68.900; -508.000; -650.000
246.241;   -2.025;  194.000;   48.000
246.383;  -17.975; -119.000;  -73.000
246.526;  -74.875; -454.000; -525.000
246.669; -126.400; -889.000; -780.000
246.811;    9.875;  172.000;   -1.000
246.954;  -56.325; -512.000; -426.000
247.096;  -33.125;  -84.000;   -6.000
247.239;  -75.150; -482.000; -445.000
247.381;  -79.525; -647.000; -488.000
247.524;   75.300;  645.000;  679.000
247.666;  -20.800;   58.000;   11.000
247.809; -118.425; -887.000; -691.000
247.951;   -8.425;  -75.000;  138.000
248.094;   34.800;  432.000;  308.000
248.236; -157.025;-1262.000;-1238.000
248.378;   -2.900; -356.000;  -81.000
248.521;  -37.000; -334.000; -337.000
248.663;  -48.025; -236.000; -267.000
248.806;  -28.175; -300.000; -266.000
248.948;  -96.575; -886.000; -763.000
249.090;  -52.200; -428.000; -398.000
249.233;  -49.875; -344.000; -381.000
249.375;  -61.750; -474.000; -451.000
249.518;  -34.375;  -83.000; -133.000
249.660;   -6.850; -103.000;    3.000
249.802; -165.400;-1303.000;-1189.000
249.945;  -86.125; -612.000; -540.000
250.087; -128.325; -834.000; -768.000
250.229;  -54.500; -362.000; -480.000
250.371;  -89.400; -494.000; -439.000
250.514;  -61.075; -310.000; -244.000
250.656;  -62.750;   69.000;  102.000
250.798; -128.975; -849.000; -800.000
250.940;  -65.125; -322.000; -322.000
251.083;  -33.650; -335.000; -111.000
251.225;   60.775;  338.000;  310.000
251.367;  -48.575; -274.000; -373.000
251.509;  -41.250; -265.000; -210.000
251.651;  -95.625; -731.000; -671.000
251.794;   75.125;  538.000;  632.000
251.936; -121.700; -821.000; -747.000
252.078;  -72.350; -540.000; -461.000
252.220;  -86.250; -645.000; -477.000
252.362;   69.275;  344.000;  462.000
252.504;  -75.850; -677.000; -584.000
252.646; -121.800; -875.000; -722.000
252.788;    3.550;   14.000; -128.000
252.931;  -45.225; -257.000; -253.000
253.073;  -59.575; -376.000; -317.000
253.215;   -7.450;  141.000;  122.000
253.357;  -19.925;   82.000; -153.000
253.499;  -58.200; -374.000; -234.000
253.641;  -96.775; -749.000; -594.000
253.783;  -92.825; -609.000; -527.000
253.925;  -98.900; -586.000; -591.000
254.067; -114.975; -744.000; -667.000
254.209;  -21.075; -391.000; -259.000
254.351; -130.225; -865.000; -883.000
254.493;  -70.775; -441.000; -417.000
254.635; -123.475; -936.000; -818.000
254.777;  -94.575; -752.000; -687.000
254.918;  -73.625; -512.000; -430.000
255.060;  -67.125; -551.000; -395.000
255.202;  -48.600; -473.000; -261.000
255.344;  -90.700; -658.000; -455.000
255.486;  -76.350; -471.000; -406.000
255.628; -115.675; -780.000; -781.000
255.770; -104.425; -676.000; -536.000
255.912;  -73.800; -559.000; -468.000
256.053;  -83.550; -730.000; -508.000
256.195;  150.650; 1008.000;  903.000
256.337; -104.175; -861.000; -595.000
256.479;   55.425;  532.000;  416.000
256.621;  -40.250; -394.000; -212.000
256.762; -104.450; -789.000; -742.000
256.904;   65.175;  485.000;  487.000
257.046;  -56.775; -381.000; -271.000
257.188;  -57.075; -351.000; -264.000
257.329;  -78.175; -525.000; -464.000
257.471; -120.650; -939.000; -807.000
257.613;  -72.225; -584.000; -498.000
257.755; -146.575;-1073.000; -982.000
257.896;   21.625;  286.000;  392.000
258.038;  -76.425; -403.000; -352.000
258.180;  -34.725; -354.000; -279.000
258.321;  -75.550; -581.000; -457.000
258.463;  -23.350;  -71.000;  133.000
258.605;  -81.550; -562.000; -570.000
258.746; -112.500; -886.000; -772.000
258.888; -155.700;-1026.000;-1020.000
259.029;    0.475;  121.000;   -8.000
259.171; -100.250; -614.000; -550.000
259.313;  -11.300;  -49.000;  -47.000
259.454;  -71.550; -536.000; -414.000
259.596;  -63.350; -483.000; -390.000
259.737;  -78.325; -590.000; -474.000
259.879;   42.650;  217.000;  311.000
260.020;   88.175;  901.000;  636.000
260.162;  -35.750; -146.000; -253.000
260.303; -115.650; -768.000; -687.000
260.445;  -83.075; -609.000; -613.000
260.586;   33.550;  392.000;  157.000
260.728;  -44.325; -360.000; -248.000
260.869;  -73.225; -350.000; -343.000
261.011;   81.550;  706.000;  537.000
261.152;  -62.225; -479.000; -319.000
261.293;  -75.975; -576.000; -595.000
261.435;  -21.350; -219.000; -184.000
261.576;  -59.550; -455.000; -325.000
261.718;   41.550;  420.000;  470.000
261.859; -129.725; -940.000; -949.000
262.000; -127.625; -951.000;-1016.000
262.142;  -31.150;  -52.000;  -60.000
262.283; -109.425; -808.000; -691.000
262.424;  -93.775; -666.000; -625.000
262.566; -161.150;-1161.000; -983.000
262.707; -118.525; -840.000; -830.000
262.848; -110.900; -769.000; -726.000
262.990;  -46.275; -362.000; -345.000
263.131;   58.300;  650.000;  681.000
263.272;  -18.300;  -61.000;  -41.000
263.413;  -96.825; -589.000; -561.000
263.555;  -75.475; -669.000; -143.000
263.696;  -95.375; -550.000; -641.000
263.837;  -67.400; -449.000; -551.000
263.978;  -13.375;   -5.000;  -77.000
264.119;  -58.775; -283.000; -264.000
264.261; -126.325; -847.000; -630.000
264.402;   -1.375;   33.000;   40.000
264.543;  -82.525; -509.000; -524.000
264.684;  -13.200;   61.000;  -50.000
264.825;  -62.250; -816.000; -538.000
264.966;   -7.650;  -84.000;  -67.000
265.107; -116.300; -646.000; -670.000
265.248; -123.075; -825.000; -812.000
265.390;  -10.475;  152.000;   -9.000
265.531;  -21.675; -238.000; -107.000
265.672;  -81.525; -557.000; -630.000
265.813;   50.625;  563.000;  439.000
265.954; -143.150; -959.000; -940.000
266.095;  -18.600; -372.000; -322.000
266.236; -100.300; -686.000; -548.000
266.377;  -49.975; -243.000; -297.000
266.518;  -68.275; -619.000; -547.000
266.659;   14.850;  170.000;  268.000
266.800;    2.050;   83.000;   85.000
266.941;  -87.550; -487.000; -478.000
267.082;   14.725;  354.000;   99.000
267.223;  -54.625; -344.000; -273.000
267.364; -127.550; -892.000; -686.000
267.504;  -21.325;    3.000;  135.000
267.645;   -2.475;  160.000;   67.000
267.786;  -30.500; -147.000;  -86.000
267.927;  -84.200; -473.000; -379.000
268.068;  -14.050; -186.000;  -61.000
268.209;  -41.475; -175.000; -413.000
268.350;  -74.650; -388.000; -532.000
268.490;  -82.700; -648.000; -521.000
268.631;   35.650;  127.000;  225.000
268.772; -112.825; -874.000; -647.000
268.913;  -45.275; -328.000; -476.000
269.054;  -23.300; -117.000;   12.000
269.194;  -62.600; -418.000; -402.000
269.335; -160.850;-1137.000;-1074.000
269.476;  -17.950;   33.000;  -35.000
269.617;  -47.800; -347.000; -392.000
269.757;  -99.025; -713.000; -646.000
269.898; -103.150; -856.000; -613.000
270.039;  -64.950; -415.000; -405.000
270.180; -133.450; -952.000; -816.000
270.320;  -25.950; -190.000; -250.000
270.461;  -32.025; -277.000; -249.000
270.602;  -31.525; -186.000; -156.000
270.742; -117.575; -868.000; -943.000
270.883;  -64.675; -442.000; -390.000
271.023;  -62.800; -358.000; -357.000
271.164;  -76.500; -607.000; -528.000
271.305;  -99.650; -666.000; -654.000
271.445;  -93.225; -722.000; -683.000
271.586;  -72.075; -462.000; -283.000
271.726;  -45.500; -397.000; -322.000
271.867;  -61.450; -594.000; -534.000
272.008;  183.300; -473.000; -285.000
272.148;  130.675;  462.000;  468.000
272.289;    7.800; -113.000; -181.000
272.429;    9.250;   19.000;  185.000
272.570;  -87.375; -633.000; -737.000
272.710; -106.375; -825.000; -775.000
272.851;  -30.000;  113.000; -130.000
272.991; -166.875;-1173.000;-1077.000
273.131;  -72.325; -419.000; -459.000
273.272;  -94.950; -683.000; -723.000
273.412;    0.775; -143.000;  -31.000
273.553;  -55.150; -488.000; -507.000
273.693;  134.950;  913.000;  858.000
273.834;  -92.200; -894.000; -692.000
273.974;  -79.825; -664.000; -615.000
274.114;  -91.900; -772.000; -560.000
274.255;   79.200;  414.000;  373.000
274.395;   21.900; -180.000; -125.000
274.535;   45.450;  199.000;  350.000
274.676;   17.050;  225.000;   94.000
274.816;  -13.425;  110.000;   34.000
274.956;  -88.600; -624.000; -690.000
275.097;  -68.200;-1014.000; -922.000
275.237;  -98.100; -913.000; -803.000
275.377; -100.525; -778.000; -689.000
275.517; -147.125; -878.000; -937.000
275.658;  -58.025; -590.000; -555.000
275.798;  -65.500; -606.000; -413.000
275.938;   18.925;  215.000;  323.000
276.078; -114.625; -626.000; -395.000
276.218;    2.775;   99.000;  104.000
276.359; -127.825;-1026.000;-1024.000
276.499;  -69.375; -605.000; -446.000
276.639;  -36.050; -305.000; -151.000
276.779;  -55.825; -475.000; -357.000
276.919; -106.350; -783.000; -624.000
277.059;  -22.700; -261.000; -212.000
277.199;  -60.775; -357.000; -259.000
277.340;   38.375;  287.000;  175.000
277.480; -110.350; -840.000; -693.000
277.620;   34.425;  192.000;   16.000
277.760; -209.175;-1533.000;-1294.000
277.900;    3.000;  113.000;   33.000
278.040;   23.575;  137.000;  159.000
278.180;   41.925;  270.000;  170.000
278.320;    3.600;   21.000;   56.000
278.460;  -79.800; -443.000; -469.000
278.600;  -93.200; -708.000; -598.000
278.740;   50.950;  448.000;  224.000
278.880;  -26.200; -768.000; -791.000
279.020;   -5.225; -194.000; -144.000
279.160;  -88.275; -672.000; -595.000
279.300; -111.450; -926.000; -873.000
279.440;  -89.975; -709.000; -622.000
279.579;  -34.775;-1014.000; -929.000
279.719;  -51.250; -410.000; -394.000
279.859;   62.375;   -4.000;   41.000
279.999;   22.400; -208.000;  101.000
280.139;  -23.875; -435.000; -387.000
280.279;  -76.625; -708.000; -745.000
280.419;  -17.950; -229.000; -147.000
280.559;  -35.775; -259.000; -180.000
280.698;  -70.825; -790.000; -639.000
280.838;  -89.025; -778.000; -800.000
280.978; -113.825; -846.000; -790.000
281.118; -128.825; -811.000; -704.000
281.257;    6.975;   24.000;    6.000
281.397;  -91.075;-1094.000; -960.000
281.537;  -89.550; -599.000; -712.000
281.677;   -7.000; -150.000; -101.000
281.816;  -89.225; -700.000; -630.000
281.956;  -22.625; -193.000; -257.000
282.096;  -78.850; -539.000; -396.000
282.235; -102.400; -672.000; -638.000
282.375;   -9.925; -243.000;  -98.000
282.515;  -99.975; -715.000; -707.000
282.654;   25.325;   29.000;  106.000
282.794;   29.925;  388.000;  244.000
282.934;  -54.375; -530.000; -491.000
283.073; -122.750;-1030.000; -857.000
283.213;  -55.400; -460.000; -467.000
283.353;  -19.975; -408.000; -349.000
283.492;  -36.625; -264.000; -296.000
283.632;  -40.675; -254.000; -168.000
283.771; -102.775; -859.000; -730.000
283.911;  -44.950; -369.000; -260.000
284.050; -105.325; -794.000; -748.000
284.190; -167.375;-1229.000;-1096.000
284.329; -137.775;-1055.000; -964.000
284.469;  -54.025; -516.000; -591.000
284.608;  -55.050; -559.000; -598.000
284.748;  -95.650; -614.000; -570.000
284.887;  -16.675;  -87.000;  -20.000
285.027; -120.350; -844.000; -892.000
285.166;  -34.725; -192.000; -249.000
285.306;   19.700; -116.000;  -33.000
285.445;  -49.875; -229.000; -343.000
285.584;  -92.900; -630.000; -494.000
285.724;  -52.300; -282.000; -322.000
285.863; -112.575; -857.000; -507.000
286.002;  -49.125; -366.000; -276.000
286.142; -105.850; -715.000; -622.000
286.281;  -69.600; -525.000; -493.000
286.420;  -71.125; -554.000; -417.000
286.560;  109.800;  653.000;  623.000
286.699; -131.800; -958.000; -912.000
286.838;  -74.575; -590.000; -591.000
286.978;  -84.600; -533.000; -537.000
287.117; -125.775;-1085.000; -950.000
287.256;  -25.275; -228.000; -211.000
287.395;  -48.700; -197.000; -378.000
287.535;  -44.325; -370.000; -298.000
287.674;  -85.550; -509.000; -484.000
287.813;   61.500;  661.000;  533.000
287.952; -140.675;-1010.000; -871.000
288.091; -142.925;-1049.000; -915.000
288.231;   16.600;   13.000;   15.000
288.370; -181.550;-1217.000;-1200.000
288.509;  -98.850; -728.000; -645.000
288.648;  -85.550; -770.000; -548.000
288.787;  -37.525; -243.000;  -87.000
288.926;  -69.225; -454.000; -475.000
289.065;  110.050;  859.000;  672.000
289.204;  -59.425; -377.000; -217.000
289.344; -102.200; -791.000; -690.000
289.483;   33.925;  416.000;  304.000
289.622;  -25.325; -291.000; -149.000
289.761;  -25.025; -309.000; -166.000
289.900; -110.025; -785.000; -626.000
290.039;   -9.125;  -12.000;  -95.000
290.178;  -48.500; -274.000; -180.000
290.317;  -79.775; -618.000; -479.000
290.456;  -63.125; -463.000; -451.000
290.595; -130.175; -961.000; -833.000
290.734; -144.250; -904.000; -891.000
290.873;  -70.575; -456.000; -420.000
291.011; -111.825; -833.000; -843.000
291.150; -106.150; -770.000; -682.000
291.289;  -10.925; -343.000; -110.000
291.428; -104.400; -599.000; -480.000
291.567;  -59.400; -370.000; -442.000
291.706;   -4.225;  109.000;  154.000
291.845;  -82.100; -597.000; -505.000
291.984; -161.950;-1234.000;-1061.000
292.122;   66.375;  602.000;  582.000
292.261;   38.075;  620.000;  463.000
292.400;   12.600; -144.000;  211.000
292.539; -116.550; -959.000; -813.000
292.678;  -27.075; -325.000; -300.000
292.816; -151.700;-1136.000; -965.000
292.955;  -83.775; -844.000; -684.000
293.094;  -34.875; -173.000; -337.000
293.233;  -50.050; -556.000; -400.000
293.371;  -31.475; -225.000;  -84.000
293.510; -119.225; -866.000; -780.000
293.649; -113.000; -959.000; -924.000
293.787;  -45.450;-1083.000;-1012.000
293.926;    0.625; -113.000;  -32.000
294.065;  -44.175; -379.000; -290.000
294.203;   57.275;  298.000;  406.000
294.342;   14.925;   74.000;  156.000
294.481; 6143.900;51180.000; -836.000
294.619;  -16.825; -425.000; -582.000
294.758; -131.925;-1230.000;-1137.000
294.896;   86.325; -125.000;    5.000
295.035; -121.975;-1040.000;-1006.000
295.174; -110.675;-1082.000; -954.000
295.312;  -40.550; -323.000; -203.000
295.451;   10.375; -307.000; -428.000
295.589;  -53.850; -389.000; -518.000
295.728;   19.775; -292.000; -165.000
295.866;    5.225;  -36.000;  -51.000
296.005;  -50.050; -584.000; -341.000
296.143;  -53.025; -558.000; -596.000
296.282;  -90.725; -957.000; -881.000
296.420;  -78.875; -657.000; -557.000
296.559;  -74.525; -892.000; -633.000
296.697;   63.275; -847.000; -665.000
296.835;  109.600;-1141.000;-1002.000
296.974;   60.625;  -23.000;   39.000
297.112;   41.400; -443.000; -504.000
297.251;  -55.950; -815.000; -755.000
297.389;  125.625; -576.000; -438.000
297.527;   36.500; -145.000;  -83.000
297.666;  -57.325; -486.000; -438.000
297.804;  -38.675; -404.000; -264.000
297.942;   -1.450; -136.000; -161.000
298.081;   -6.375; -183.000;   63.000
298.219;   89.475;  -17.000;  -19.000
298.357;   60.000; -144.000;  -71.000
298.495;   42.525; -810.000; -812.000
298.634;   95.050;  245.000;  219.000
298.772;   87.300; -220.000; -338.000
298.910;  -31.575; -309.000; -182.000
299.048;   -1.675; -130.000; -153.000
299.187;  -21.125; -350.000; -250.000
299.325;   20.375;   52.000;  122.000
299.463;   83.850; -389.000; -299.000
299.601;  147.525; -327.000; -271.000
299.739; -101.625; -908.000; -883.000
299.877;  -71.700; -791.000; -703.000
300.016;  -30.825;-1095.000; -935.000
300.154;  190.850;  -19.000; -161.000
300.292;   78.625; -428.000; -348.000
300.430;   51.875; -408.000; -291.000
300.568;  -88.225; -940.000; -874.000
300.706;  -41.200; -366.000; -469.000
300.844;  -51.375;-1108.000; -979.000
300.982;  124.975;  246.000;  282.000
301.120; -107.675; -965.000; -866.000
301.258;  -54.825; -812.000; -705.000
301.396;   56.475;  104.000;  -41.000
301.534;  123.475; -218.000; -293.000
301.672;   22.250; -664.000; -521.000
301.810;   71.625; -613.000; -545.000
301.948;  159.425;   53.000;  149.000
302.086;  709.600; -250.000;  -32.000
302.224; 1125.950; -610.000; -585.000
302.362;   64.075; -558.000; -622.000
302.500;   12.650; -923.000; -893.000
302.638;  142.725;  128.000;  245.000
302.776;    6.475; -352.000; -408.000
302.913;   42.775;  447.000;  236.000
303.051;   25.675;  -86.000;  -23.000
303.189;   64.450;   90.000;  118.000
303.327;  -35.000; -341.000; -256.000
303.465;  -85.475; -832.000; -588.000
303.603; -102.350; -805.000; -604.000
303.740;  116.600;  417.000;  241.000
303.878;   41.825; -800.000; -759.000
304.016;  -82.175; -915.000; -790.000
304.154; -118.250;-1123.000;-1152.000
304.291;  -17.825; -505.000; -554.000
304.429;   15.575;  102.000;   74.000
304.567; -119.475; -908.000; -893.000
304.705;  -47.200; -408.000; -515.000
304.842;  126.375; -616.000; -540.000
304.980;   68.225;  215.000;   35.000
305.118;   82.175; -367.000; -365.000
305.255;  -44.000; -945.000; -927.000
305.393;   55.525;  178.000;  239.000
305.531;  -77.375;-1173.000; -956.000
305.668;  -74.500; -663.000; -582.000
305.806;  115.075; -358.000; -439.000
305.943;  131.500; -629.000; -637.000
306.081;   79.225; -378.000; -267.000
306.219;  -99.200; -863.000; -748.000
306.356;   12.800;  158.000;   27.000
306.494;  111.475;  981.000;  761.000
306.631;    6.375;  -11.000;  -55.000
306.769;   15.725; -613.000; -485.000
306.906;   -2.225; -284.000; -258.000
307.044;  -75.050; -473.000; -488.000
307.181;  -63.425; -410.000; -332.000
307.319;   13.175;  112.000;   87.000
307.456; -163.525;-1191.000;-1153.000
307.594;  -97.150; -980.000; -727.000
307.731;  -11.700; -371.000; -164.000
307.868;   -7.675;  -15.000;   20.000
308.006; -137.525; -961.000; -847.000
308.143;  -64.550; -618.000; -330.000
308.281;  157.950;  -37.000; -254.000
308.418;   -8.175; -748.000; -640.000
308.555;  -65.925; -400.000; -250.000
308.693;  -65.875; -577.000; -573.000
308.830; -114.725; -712.000; -657.000
308.967;   -7.100; -215.000;  -95.000
309.105;  -38.900; -507.000; -396.000
309.242;   35.900; -468.000; -367.000
309.379;  326.075; -577.000; -655.000
309.517;  -70.525; -936.000; -948.000
309.654; -100.200; -910.000; -734.000
309.791;  -63.950; -662.000; -580.000
309.928; -111.975; -977.000; -914.000
310.065;  190.350;  819.000;  697.000
310.203;    8.625; -825.000; -850.000
310.340;    9.175; -465.000; -321.000
310.477;  -62.100; -412.000; -516.000
310.614;  -52.950; -383.000; -473.000
310.751;  -61.750; -427.000; -518.000
310.889;  -12.975;    1.000;   11.000
311.026; -150.450;-1161.000; -939.000
311.163;  -25.325; -386.000; -380.000
311.300;  -68.800; -512.000; -479.000
311.437;  -86.175; -658.000; -619.000
311.574; -151.150;-1226.000; -985.000
311.711;  -57.050; -595.000; -433.000
311.848;  -36.075; -380.000; -388.000
311.985;   13.550;  270.000;   93.000
312.122; -115.800; -932.000; -762.000
312.259; -114.950; -941.000; -994.000
312.396;  -65.300; -508.000; -551.000
312.533;  -83.200; -812.000; -790.000
312.670; -121.225;-1070.000; -898.000
312.807;  -35.600; -352.000; -367.000
312.944;  -71.825; -513.000; -611.000
313.081;  -18.825; -150.000; -415.000
313.218;  -93.950;-1111.000; -867.000
313.355;   29.275; -531.000; -449.000
313.492;   24.675; -455.000; -292.000
313.629;  132.650;  815.000;  735.000
313.766; -147.700;-1176.000;-1008.000
313.902;  -11.600; -186.000;   21.000
314.039;  -38.575; -372.000; -289.000
314.176;   30.700;  286.000;  192.000
314.313;  -72.400; -569.000; -473.000
314.450;  -77.200; -788.000; -684.000
314.587;  -50.850; -468.000; -480.000
314.723;    7.975;  -78.000;  130.000
314.860;   40.625;  318.000;  332.000
314.997;   28.675;  223.000;  142.000
315.134;  -28.525; -385.000; -368.000
315.270;  -28.550; -480.000; -496.000
315.407; -121.175;-1094.000; -967.000
315.544;  -37.475; -657.000; -538.000
315.681;  -49.100; -681.000; -565.000
315.817;   38.525; -133.000; -176.000
315.954;   31.450; -613.000; -392.000
316.091; -118.125;-1045.000;-1023.000
316.227;  -37.025;  -71.000; -179.000
316.364;    9.975;   23.000;    6.000
316.500;  -39.725; -113.000; -300.000
316.637;  -49.225; -181.000; -302.000
316.774;  -86.200; -625.000; -358.000
316.910;  -96.550; -598.000; -629.000
317.047;  -61.850; -487.000; -351.000
317.183;  -46.075; -435.000; -566.000
317.320;  -24.475; -367.000; -321.000
317.456;  -78.250; -733.000; -805.000
317.593;  -87.275; -598.000; -641.000
317.729;    2.200;  168.000;  -67.000
317.866; -196.100;-1434.000;-1285.000
318.002;  -95.900; -708.000; -948.000
318.139;  -79.675; -883.000; -867.000
318.275; -101.150;-1003.000; -738.000
318.412;  -59.775; -517.000; -336.000
318.548;  -17.725; -751.000; -720.000
318.685;  -98.175; -985.000; -888.000
318.821; -103.675; -762.000; -735.000
318.957;  -17.500;   34.000;  -23.000
319.094;   42.150;  297.000;  154.000
319.230;  -43.425; -756.000; -742.000
319.367;  164.900; -471.000; -520.000
319.503;   76.325; -538.000; -436.000
319.639;  -96.325; -877.000; -793.000
319.775;  -45.700; -750.000; -685.000
319.912;  -44.200; -424.000; -519.000
320.048;  -83.600;-1184.000;-1184.000
320.184;   47.750;   59.000;   70.000
320.321;  -66.150; -497.000; -467.000
320.457;   47.675;  475.000;  662.000
320.593;  -74.125; -375.000; -382.000
320.729; -117.000; -732.000; -734.000
320.866;  -73.425; -577.000; -635.000
321.002;  -68.200; -759.000; -809.000
321.138;   -2.800; -135.000; -211.000
321.274;   70.325; -148.000; -115.000
321.410;  -15.100; -585.000; -353.000
321.546;  -11.525;-1011.000; -911.000
321.683;   76.600;  400.000;  185.000
321.819;    2.925;  -48.000; -117.000
321.955; -111.500; -743.000; -722.000
322.091;  -42.050; -585.000; -540.000
322.227;   -9.275; -382.000; -202.000
322.363;  -12.025; -320.000; -215.000
322.499;  -23.500; -343.000; -331.000
322.635;  168.025;  636.000;  443.000
322.771;   33.575; -139.000;   12.000
322.907;   95.550;  129.000;  327.000
323.043;   -2.500; -115.000; -206.000
323.179;  -37.325; -394.000; -363.000
323.315;   71.475; -401.000; -371.000
323.451;  135.750; -328.000; -236.000
323.587;   83.950;  -60.000;  -77.000
323.723;   33.875; -682.000; -601.000
323.859;  -11.025; -258.000;  -76.000
323.995;  -26.200; -467.000; -409.000
324.131; -114.375; -967.000; -892.000
324.267;  -39.525; -254.000; -276.000
324.402; -131.975; -960.000; -983.000
324.538;  -15.800; -279.000; -104.000
324.674;   34.400;  164.000;   77.000
324.810;  177.300;  226.000;  308.000
324.946;   36.900; -810.000; -658.000
325.082;  -67.025; -568.000; -475.000
325.217;   -3.675;  -62.000;   16.000
325.353;  -89.450; -764.000; -659.000
325.489;  -80.375; -540.000; -506.000
325.625;  -85.675; -579.000; -525.000
325.760;   63.875;  517.000;  376.000
325.896;  -27.375; -515.000; -702.000
326.032;  -55.150; -403.000; -352.000
326.168;  -59.625; -462.000; -369.000
326.303;  -65.350; -352.000; -461.000
326.439;  -28.475; -336.000; -276.000
326.575;    7.450; -190.000;  -29.000
326.710;   10.825; -156.000;  -30.000
326.846;   -2.250;  146.000;  103.000
326.982; -103.025; -530.000; -548.000
327.117;  -74.025; -481.000; -442.000
327.253; -100.825; -745.000; -742.000
327.388; -148.700;-1137.000;-1153.000
327.524;  -20.900; -811.000; -578.000
327.659;  -19.950;  -58.000;  -22.000
327.795;  -12.350;   69.000;   45.000
327.931;  -74.475; -723.000; -499.000
328.066;  -19.350; -417.000; -276.000
328.202;   -0.550;   12.000; -129.000
328.337;   96.125;  957.000;  713.000
328.473;   36.675;  -12.000;  -74.000
328.608;  -18.625; -256.000; -267.000
328.743;  -68.800; -799.000; -664.000
328.879;   22.775;  214.000;  114.000
329.014;  -47.300; -102.000; -122.000
329.150;  -77.775; -358.000; -483.000
329.285;  -72.450; -465.000; -466.000
329.421;  -53.350; -548.000; -246.000
329.556;  -10.900;  -36.000;   85.000
329.691;  -91.000; -633.000; -615.000
329.827;  -70.350; -626.000; -480.000
329.962;  -41.000;  131.000; -301.000
330.097;  -86.875; -673.000; -585.000
330.233;  -54.650; -410.000; -223.000
330.368; -117.900; -839.000; -628.000
330.503;  -24.000;    3.000;   98.000
330.638;   20.600;  -93.000; -125.000
330.774;  -42.625; -609.000; -530.000
330.909;  -48.950; -434.000; -244.000
331.044;  -94.725; -714.000; -708.000
331.179; -167.725;-1217.000;-1109.000
331.315;   11.875;   77.000;   20.000
331.450;   17.750;  157.000;  285.000
331.585;  -69.350; -805.000; -706.000
331.720;  -75.550; -510.000; -460.000
331.855;  -15.775;  -35.000; -102.000
331.990;  164.450;   62.000;  138.000
332.126;   96.850; -110.000;   71.000
332.261;  -21.900; -379.000; -265.000
332.396;  -24.925; -135.000; -242.000
332.531; -120.550;-1074.000;-1031.000
332.666;   19.175; -519.000; -363.000
332.801; -105.725; -726.000; -807.000
332.936;  -15.075; -192.000; -122.000
333.071; -131.600; -870.000; -817.000
333.206;   17.175;  307.000;  379.000
333.341;   27.375;  344.000;  418.000
333.476;  -80.400; -627.000; -623.000
333.611;  -40.175; -251.000; -173.000
333.746;  -42.650; -381.000; -464.000
333.881;  -90.975; -973.000; -935.000
334.016; -119.000; -936.000; -917.000
334.151; -114.675; -746.000; -702.000
334.286;   39.100;  152.000;  186.000
334.421;   -2.100; -125.000; -178.000
334.556;  -69.500; -611.000; -567.000
334.690;  -78.250; -631.000; -577.000
334.825;   74.050;  381.000;   83.000
334.960;  -51.325; -285.000; -413.000
335.095;   18.225;  135.000;  -91.000
335.230;  -85.400; -722.000; -738.000
335.365; -129.800;-1084.000; -990.000
335.499; -115.025;-1108.000;-1037.000
335.634;   33.700;    9.000;  534.000
335.769;  -81.475; -755.000; -720.000
335.904;  -49.750; -603.000; -561.000
336.038;  -50.550; -735.000; -657.000
336.173; -105.125;-1206.000;-1194.000
336.308;   38.275; -116.000; -189.000
336.443;   30.675; -544.000; -634.000
336.577;  -55.875; -936.000; -787.000
336.712;   93.200;   -4.000;  -12.000
336.847;   -2.450; -724.000; -607.000
336.981;  101.500; -272.000; -208.000
337.116;  344.150;  615.000;  501.000
337.250;  220.850; -434.000; -421.000
337.385;  177.725; -297.000; -208.000
337.520;   15.400; -632.000; -603.000
337.654;  -25.925; -215.000; -126.000
337.789; -134.725; -989.000; -933.000
337.923;  -21.450; -104.000; -205.000
338.058;  -70.500; -673.000; -738.000
338.192;  -10.375; -611.000; -488.000
338.327;   -0.750;  -18.000; -155.000
338.461;  -49.925; -299.000; -469.000
338.596;  -99.575; -780.000; -638.000
338.730; -105.400; -767.000; -803.000
338.865;   49.750;  -46.000; -140.000
338.999;  -76.975; -846.000; -702.000
339.134;  -26.775; -634.000; -536.000
339.268;    9.650; -741.000; -603.000
339.403;  265.550; -740.000; -775.000
339.537;   47.425; -894.000; -820.000
339.671; -123.450; -829.000; -813.000
339.806;  -62.450; -556.000; -512.000
339.940;   -9.550; -261.000; -235.000
340.074;  -89.775; -685.000; -510.000
340.209;  -38.325; -351.000; -230.000
340.343;  -88.350; -517.000; -573.000
340.477;  146.325;  998.000; 1036.000
340.612;  -75.000;-1033.000; -900.000
340.746;   92.225; -199.000; -243.000
340.880;  -57.825; -924.000; -785.000
341.014;  -23.600;  -45.000; -154.000
341.149; -107.375; -756.000; -718.000
341.283; -103.575; -839.000; -754.000
341.417;  -67.850;-1124.000; -938.000
341.551;  206.975; -768.000; -708.000
341.685;  -10.875; -633.000; -611.000
341.820;  -59.450; -562.000; -493.000
341.954;  -46.075; -218.000; -349.000
342.088; -166.250;-1102.000;-1019.000
342.222;   53.725;  565.000;  618.000
342.356;  -64.700; -395.000; -335.000
342.490;  -73.275; -880.000; -841.000
342.624;  -48.325; -339.000; -242.000
342.758;   27.925; -364.000; -312.000
342.892;  -45.950; -710.000; -585.000
343.026;  -33.450;  -58.000; -116.000
343.160;  -57.950; -426.000; -376.000
343.294;  -79.975; -474.000; -337.000
343.428;  -10.175; -488.000; -448.000
343.562;    0.600; -172.000;  -23.000
343.696;  -11.950; -385.000; -314.000
343.830;    0.825; -362.000; -356.000
343.964;   34.325; -231.000; -168.000
344.098; 1145.875;  199.000;   70.000
344.232;  957.075; -266.000; -127.000
344.366;  110.825; -567.000; -453.000
344.500;   94.275; -665.000; -744.000
344.634;   59.825; -324.000; -164.000
344.768;    1.275; -531.000; -341.000
344.902;   14.675;  278.000;  256.000
345.035;  -76.700; -556.000; -496.000
345.169; -117.850; -933.000; -656.000
345.303;  -44.600; -308.000; -482.000
345.437;  -49.900; -826.000; -717.000
345.571;  -92.275; -675.000; -594.000
345.704;  -63.000; -309.000; -532.000
345.838;  -19.300; -331.000; -284.000
345.972;  -34.800; -543.000; -495.000
346.106;  119.350; -179.000; -190.000
346.239;  432.500; -312.000; -243.000
346.373;    5.600; -343.000; -302.000
346.507; -129.425; -950.000; -962.000
346.640;  178.700;  -30.000;   13.000
346.774;  -26.625; -650.000; -797.000
346.908;   -6.550; -138.000;  -11.000
347.041;  -99.150; -646.000; -593.000
347.175;   -1.225;  259.000;   27.000
347.309;  -37.475; -698.000; -628.000
347.442;  -96.475; -883.000; -732.000
347.576;  360.375;  670.000;  668.000
347.709;  267.525; -123.000;  -52.000
347.843;  -72.525; -933.000; -825.000
347.976;   40.850;  235.000;  294.000
348.110; -182.000;-1268.000;-1186.000
348.243; -101.750; -679.000; -772.000
348.377;   -0.875;  -26.000;   60.000
348.510;   55.100;  403.000;  540.000
348.644;  -26.125;  -37.000; -159.000
348.777;   -1.875;  180.000;  191.000
348.911;  -53.100; -142.000; -112.000
349.044;  204.575;  471.000;  448.000
349.178;  227.575;-1069.000;-1006.000
349.311;  115.325;  141.000;  255.000
349.444;  -28.350; -927.000; -813.000
349.578;   -9.925; -347.000; -200.000
349.711;  -84.700; -959.000; -862.000
349.845;   21.950; -661.000; -591.000
349.978; -123.625;-1224.000;-1137.000
350.111;  -81.375; -546.000; -612.000
350.244;  -57.600; -596.000; -700.000
350.378;   25.300; -392.000; -393.000
350.511;  -62.575; -393.000; -426.000
350.644; -109.025; -808.000; -806.000
350.778;   19.925;  168.000;  104.000
350.911;   -4.900;  134.000;  140.000
351.044;  -85.950; -685.000; -615.000
351.177;  -29.150; -321.000; -281.000
351.310;  -20.900;    3.000; -131.000
351.444;  -59.825; -888.000; -788.000
351.577;  159.250;  140.000;   90.000
351.710;  106.425;  593.000;  417.000
351.843;  -31.275; -165.000;  -77.000
351.976;    4.975;  149.000;  -79.000
352.109;  -81.425; -621.000; -612.000
352.242;  -15.700; -464.000; -419.000
352.376;  -32.650; -580.000; -636.000
352.509;  257.175; -437.000; -356.000
352.642;   56.400; -654.000; -604.000
352.775;   87.025; -141.000;  -98.000
352.908; -103.775; -933.000; -904.000
353.041;  -80.450; -814.000; -824.000
353.174;  -54.925; -551.000; -424.000
353.307;  -78.200; -753.000; -764.000
353.440;   88.925;  541.000;  453.000
353.573; -110.050; -957.000;-1008.000
353.706;  -56.600; -384.000; -558.000
353.839;    0.450; -264.000; -220.000
353.971;  -85.550; -657.000; -512.000
354.104;  -84.800; -896.000; -835.000
354.237;  -30.475; -627.000; -662.000
354.370;  -75.600; -846.000; -879.000
354.503; -174.925;-1231.000;-1308.000
354.636;  -25.550; -529.000; -348.000
354.769; -119.375; -937.000; -860.000
354.902;    6.650; -230.000; -139.000
355.034;  -19.275; -164.000; -220.000
355.167;  -11.450; -262.000; -162.000
355.300;  -96.800;-1061.000; -880.000
355.433;  781.525;  -71.000;  -14.000
355.565; 1198.875; -402.000; -384.000
355.698;  304.800; -356.000; -296.000
355.831;    2.375; -882.000; -801.000
355.964;  112.325; -285.000; -170.000
356.096;  -49.425; -856.000; -843.000
356.229;   25.400; -523.000; -530.000
356.362;  256.900; -373.000; -266.000
356.494;  468.400; -229.000; -162.000
356.627;  563.625;  269.000;  377.000
356.760;  578.900;  120.000;   53.000
356.892;  727.275; -286.000; -601.000
357.025;  776.025;  403.000;  389.000
357.157;  765.300; -167.000; -179.000
357.290;  457.375; -856.000; -713.000
357.423;  154.800; -667.000; -556.000
357.555;  143.950; -217.000; -228.000
357.688;  167.600; -483.000; -364.000
357.820;  512.850; -870.000; -877.000
357.953; 4070.150; -563.000; -589.000
358.085;  973.750; -632.000; -612.000
358.218; 1649.275;-1131.000; -932.000
358.350;  285.375;  -58.000;  312.000
358.483;  -90.800;-1300.000;-1187.000
358.615;   29.575;-1182.000;-1078.000
358.747;  -13.275;-1187.000;-1058.000
358.880;   74.575; -810.000; -744.000
359.012;   20.700; -376.000; -202.000
359.145;  -35.150; -480.000; -511.000
359.277;   89.900; -962.000; -913.000
359.409; 3443.650;  536.000;  231.000
359.542;  916.900; -738.000; -688.000
359.674;   84.625;   46.000;   13.000
359.806;  -50.250; -565.000; -438.000
359.939;  -47.375; -617.000; -516.000
360.071;  -29.025; -583.000; -579.000
360.203;  -22.725; -411.000; -364.000
360.335;   60.700;  164.000;  -16.000
360.468;  216.075; -249.000; -307.000
360.600; 2658.550; -547.000; -454.000
360.732; 2170.125; -546.000; -423.000
360.864;  300.425;-1216.000;-1044.000
360.996;  399.225; -516.000; -554.000
361.129;   79.150; -389.000; -598.000
361.261;   32.650;  110.000; -113.000
361.393;  -39.825; -252.000; -214.000
361.525;   34.425;   94.000;  244.000
361.657;  -41.375; -821.000; -703.000
361.789;   11.550; -139.000; -155.000
361.921;  333.750; -642.000; -593.000
362.053;  310.600;  524.000;  541.000
362.185;   72.450;  288.000;   72.000
362.318;  -62.225; -709.000; -705.000
362.450;  179.325;  294.000;  444.000
362.582;  260.200; -913.000; -870.000
362.714;  -16.475; -353.000; -332.000
362.846;  -80.000; -606.000; -490.000
362.978; -136.475; -941.000; -811.000
363.109;   70.250; -161.000; -260.000
363.241;  581.250; -739.000; -749.000
363.373;  374.375; -649.000; -564.000
363.505;  495.550; -186.000;  -91.000
363.637;  120.200; -787.000; -601.000
363.769; -105.525;-1067.000;-1080.000
363.901;  -67.900; -596.000; -654.000
364.033; -106.750;-1103.000;-1062.000
364.165;    1.900; -283.000; -283.000
364.296;   61.425; -316.000; -177.000
364.428;   21.900;-1344.000;-1220.000
364.560;  -71.250; -679.000; -661.000
364.692;  -57.800; -738.000; -835.000
364.824;  390.600; -588.000; -456.000
364.955;  413.600; -402.000; -564.000
365.087;  595.175;-1097.000; -852.000
365.219;    4.000; -686.000; -816.000
365.351;  -68.400; -526.000; -572.000
365.482;   57.575;  300.000;  240.000
365.614;  -47.025; -402.000; -314.000
365.746; -102.300; -729.000; -752.000
365.877;  -89.900; -706.000; -672.000
366.009;  195.600;  -35.000;  -62.000
366.141;  -94.075;-1249.000;-1134.000
366.272; -106.075; -803.000; -719.000
366.404; -115.475;-1005.000; -874.000
366.535;  -19.775; -139.000;  -12.000
366.667; -105.975; -644.000; -649.000
366.799;   38.575;  353.000;  203.000
366.930;  -94.725; -862.000; -996.000
367.062;  112.700; -639.000; -613.000
367.193;   81.650; -872.000; -842.000
367.325;  -68.825; -580.000; -684.000
367.456;  134.725; -246.000;   31.000
367.588;  121.800; -371.000; -318.000
367.719;   13.125;  -44.000;  -45.000
367.851;   -7.575; -222.000; -241.000
367.982;  -21.800; -875.000; -732.000
368.113;  151.975; -475.000; -358.000
368.245;  -96.825; -960.000; -841.000
368.376;   -5.275; -254.000; -302.000
368.508;  -18.350; -188.000; -263.000
368.639; -135.475;-1166.000;-1034.000
368.770;   15.100; -670.000; -589.000
368.902;  -36.650; -836.000; -926.000
369.033;  -88.700; -906.000; -855.000
369.164;  -64.400; -720.000; -653.000
369.296; -102.750; -452.000; -601.000
369.427;   14.525; -209.000; -144.000
369.558;  -43.625; -593.000; -377.000
369.689;  -85.425; -721.000; -569.000
369.821; -134.925; -951.000; -845.000
369.952;  -18.150;   42.000; -108.000
370.083;  -41.300; -229.000; -108.000
370.214;  -76.375; -735.000; -650.000
370.345;  -19.250;   65.000;   81.000
370.477;  -66.025; -810.000; -790.000
370.608;  320.575; -328.000; -264.000
370.739;  -23.775;-1233.000;-1292.000
370.870;   -8.025;-1102.000; -923.000
371.001;  124.325; -378.000; -467.000
371.132;  -64.225; -754.000; -735.000
371.263;  -21.000;  -42.000; -148.000
371.394; -125.050; -841.000; -748.000
371.525;   31.525;  345.000;  225.000
371.657;  -92.600; -808.000; -670.000
371.788;   89.875;  103.000;  199.000
371.919;  213.850; -384.000; -304.000
372.050; 4344.975;  -91.000; -156.000
372.181; 1307.675; -188.000; -294.000
372.311;  466.750;   42.000; -127.000
372.442;   56.650; -457.000; -451.000
372.573;  -13.500; -444.000; -340.000
372.704; -108.575;-1008.000; -980.000
372.835;  117.300; -228.000; -289.000
372.966;  -42.350; -646.000; -554.000
373.097;  -47.975; -575.000; -711.000
373.228;  -20.675; -717.000; -542.000
373.359;  212.600; -824.000; -536.000
373.490; 1203.875; -881.000; -727.000
373.620; 1491.300;-1001.000; -803.000
373.751; 2308.225; -332.000; -396.000
373.882; 1042.375; -663.000; -733.000
374.013;  111.725; -449.000; -262.000
374.143;  -23.100; -581.000; -659.000
374.274;  -88.500; -987.000; -908.000
374.405;  214.125; -388.000; -276.000
374.536;  576.825; -526.000; -387.000
374.666; 1484.350; -759.000; -807.000
374.797;  332.800; -817.000; -868.000
374.928; 1144.300; -710.000; -560.000
375.058; 1147.925; -535.000; -500.000
375.189;  105.125;  -59.000;  -93.000
375.320;  -93.150; -928.000;-1034.000
375.450;  -33.450; -625.000; -616.000
375.581;  -53.500; -526.000; -436.000
375.712;  -24.175; -574.000; -250.000
375.842;  422.375; -438.000; -415.000
375.973;  307.825; -554.000; -513.000
376.103;    1.550; -665.000; -648.000
376.234;  -73.475; -531.000; -552.000
376.364;  -13.825; -944.000; -867.000
376.495;  372.000;  925.000;  529.000
376.625;   43.900; -472.000; -485.000
376.756;   98.725; -709.000; -678.000
376.886;  -32.550;-1178.000;-1026.000
377.017;  -13.700;-1048.000;-1061.000
377.147;  222.050; -786.000; -782.000
377.278;   42.375;  174.000;  228.000
377.408; -121.950; -801.000; -815.000
377.538; -103.275; -707.000; -693.000
377.669;  -83.100; -537.000; -613.000
377.799;  -72.700; -645.000; -635.000
377.929;  -13.500; -610.000; -428.000
378.060; -125.600; -781.000; -847.000
378.190;  -56.075; -726.000; -531.000
378.320;  -63.250; -401.000; -406.000
378.451;   -3.150; -131.000;  -22.000
378.581;   -7.900;  -67.000; -110.000
378.711;  180.050; 1035.000;  866.000
378.841;   12.650; -533.000; -675.000
378.972;  -49.150; -871.000; -751.000
379.102;   16.725; -652.000; -579.000
379.232;    3.675; -126.000;  -73.000
379.362;  -95.525;-1001.000; -885.000
379.492;   55.150; -373.000; -424.000
379.623;  140.425;    0.000;  111.000
379.753;  -78.125;-1107.000; -974.000
379.883;  231.575;   59.000;  156.000
380.013;   43.050;-1081.000;-1017.000
380.143;  -93.200;-1097.000;-1056.000
380.273;  -85.225; -985.000; -861.000
380.403;    5.350; -344.000; -257.000
380.533;    2.000; -651.000; -664.000
380.663;   97.825;  173.000;  128.000
380.793;  -77.550;-1027.000;-1074.000
380.923;  -22.125; -103.000;  -34.000
381.053;  -81.000; -613.000; -623.000
381.183;  -28.725; -106.000; -248.000
381.313;   74.825; -656.000; -470.000
381.443;   64.300; -692.000; -473.000
381.573;  317.725; -402.000; -409.000
381.703;  429.375;-1249.000;-1095.000
381.833;  -89.875;-1454.000;-1336.000
381.963;  144.450; -134.000;  -87.000
382.093; 1645.800; -925.000; -909.000
382.223;  528.750; -713.000; -602.000
382.353;   12.900; -801.000; -608.000
382.482;  534.725;-1091.000; -964.000
382.612;  942.125; -872.000; -644.000
382.742;  523.700; -695.000; -622.000
382.872;  381.800; -565.000; -551.000
383.002;   75.700;  347.000; -132.000
383.131;   -4.625; -226.000; -160.000
383.261;  -28.525; -706.000; -768.000
383.391;  288.225; -552.000; -377.000
383.521; 2366.175;  451.000;  263.000
383.650;  490.425; -947.000; -904.000
383.780;  -26.100; -783.000; -656.000
383.910;  118.950;  880.000;  802.000
384.039;   55.450; -794.000; -656.000
384.169;  315.375;-1205.000;-1017.000
384.299;    5.925; -650.000; -662.000
384.428;  -72.825; -764.000; -680.000
384.558;  -28.425; -308.000; -275.000
384.687;  -10.750; -414.000; -334.000
384.817;   20.750;   75.000;   -2.000
384.947;   53.450; -234.000; -141.000
385.076;  348.350;  982.000;  912.000
385.206;  137.575;  369.000;  480.000
385.335;   -5.550; -549.000; -417.000
385.465;  -56.550; -655.000; -663.000
385.594;  172.525;  -53.000;  -44.000
385.724;  594.800; -868.000; -838.000
385.853;  186.200; -296.000; -270.000
385.982; 1765.400; -743.000; -787.000
386.112; 2738.000;-1052.000; -871.000
386.241;  212.200; -307.000; -312.000
386.371;   40.675; -174.000;  -87.000
386.500;   18.525; -825.000; -789.000
386.629;   35.150; -874.000; -817.000
386.759;   71.800;  -43.000;   68.000
386.888;   17.150; -170.000; -250.000
387.017;  -50.450; -648.000; -620.000
387.147;  -56.350; -771.000; -798.000
387.276;   37.800; -410.000; -397.000
387.405;   50.575; -398.000; -342.000
387.535;  -20.150; -452.000; -361.000
387.664;  -51.250; -692.000; -620.000
387.793;   83.650; -198.000; -113.000
387.922;  690.575;  255.000;  200.000
388.052;   76.750; -576.000; -423.000
388.181;   82.825; -342.000; -472.000
388.310;  102.775; -889.000; -710.000
388.439;   -5.025; -749.000; -742.000
388.568;  251.825;  365.000;  244.000
388.697; 1393.225; -756.000; -653.000
388.826;  315.100; -768.000; -666.000
388.956;  104.925; -285.000; -307.000
389.085;  -13.875; -347.000; -287.000
389.214; -104.150; -842.000; -872.000
389.343;  -62.550; -645.000; -413.000
389.472;  329.875;  126.000;  149.000
389.601;  503.650;   91.000;    0.000
389.730;   31.600; -568.000; -687.000
389.859;   90.225;  226.000;   46.000
389.988;  257.725; -423.000; -408.000
390.117;  180.375; -168.000; -146.000
390.246;    7.500; -331.000; -320.000
390.375;  185.475; -673.000; -626.000
390.504;  -52.625; -703.000; -621.000
390.633;  -83.250; -672.000; -726.000
390.761;  -44.750; -732.000; -645.000
390.890;   57.925;   -4.000; -130.000
391.019;  -16.650; -421.000; -441.000
391.148; -133.525; -826.000; -855.000
391.277;  -48.650; -576.000; -493.000
391.406;  -46.625; -821.000; -805.000
391.534;   33.425;  574.000; -301.000
391.663;  -47.650; -583.000; -645.000
391.792;  -73.575; -673.000; -701.000
391.921;  169.875;   -3.000;   15.000
392.050;  298.225; -287.000; -228.000
392.178;    7.250;-1206.000;-1061.000
392.307;  221.625; -758.000; -712.000
392.436;  133.025; -427.000; -641.000
392.564;   22.825;  166.000;   -6.000
392.693;  -73.825; -860.000; -682.000
392.822;  302.950; -529.000; -534.000
392.950;  164.850; -880.000; -714.000
393.079;  441.950; -188.000; -328.000
393.208;   52.875; -488.000; -511.000
393.336;   -5.325; -170.000; -145.000
393.465;  -49.675; -317.000; -199.000
393.593;    6.500;   62.000;   79.000
393.722; -157.075;-1121.000; -916.000
393.850;  -36.875; -188.000;  -61.000
393.979; -150.700; -926.000; -805.000
394.107;  -68.300; -517.000; -537.000
394.236;   -6.050; -570.000; -507.000
394.364;  216.975;  383.000;  206.000
394.493;  349.275; -911.000; -767.000
394.621;  -23.775; -955.000; -916.000
394.750;  554.625; -873.000; -923.000
394.878; 2347.550; -247.000; -149.000
395.007; 3254.500; -721.000; -807.000
395.135;  226.025; -790.000; -721.000
395.263; -102.375;-1038.000;-1040.000
395.392;   11.800;  -25.000; -107.000
395.520; -137.425; -818.000; -679.000
395.648;  -81.300; -865.000; -915.000
395.777;    3.250; -366.000; -405.000
395.905;  -35.300; -449.000; -564.000
396.033;   12.950;  217.000;  172.000
396.162;  581.200; -399.000; -453.000
396.290;  489.000;  -17.000;   -2.000
396.418;  149.700; -555.000; -514.000
396.546;  -52.475; -571.000; -466.000
396.674;  -94.225; -850.000; -878.000
396.803;   15.325;  -72.000;  -23.000
396.931;  133.300; -179.000; -199.000
397.059;  117.850;-1026.000; -989.000
397.187;  -90.450;-1026.000; -975.000
397.315; -121.050; -884.000; -649.000
397.443;  -99.750; -592.000; -443.000
397.572;  -82.925; -578.000; -424.000
397.700;   30.750; -607.000; -614.000
397.828;   23.350;  120.000;  -90.000
397.956;  -48.825; -508.000; -478.000
398.084;  -70.600; -767.000; -626.000
398.212;   55.075;  137.000;  124.000
398.340;   32.275;  -56.000;  159.000
398.468;   63.650; -390.000; -169.000
398.596; -120.025; -993.000; -953.000
398.724; -118.400; -762.000; -767.000
398.852; -166.525;-1024.000; -976.000
398.980;  -67.775; -560.000; -560.000
399.108;  -37.075; -982.000; -735.000
399.236;   47.175;   13.000;    8.000
399.363;   24.650;  222.000;  196.000
399.491;  -69.350; -404.000; -398.000
399.619; -115.850; -829.000; -800.000
399.747;  -91.450; -859.000; -771.000
399.875;   95.700;  220.000;  234.000
400.003;  -52.350; -359.000; -284.000
400.130;  -92.275; -421.000; -341.000
400.258;  -35.475;  -83.000;   38.000
400.386;  -63.400; -352.000; -168.000
400.514;  -26.975; -526.000; -587.000
400.641;  -53.875; -928.000; -802.000
400.769; -136.075; -979.000; -888.000
400.897; -114.975; -838.000; -793.000
401.025;   -2.300; -166.000; -152.000
401.152;   -4.925;  220.000;   38.000
401.280;  -95.475; -430.000; -429.000
401.408; -110.575; -712.000; -576.000
401.535;  -98.400; -735.000; -758.000
401.663; -190.050;-1134.000;-1054.000
401.790;  -89.275; -514.000; -525.000
401.918;   49.400;  436.000;  405.000
402.046;  -26.575;  134.000;  122.000
402.173;  -30.500;  -18.000;    7.000
402.301;  -70.050; -519.000; -397.000
402.428;   49.650;  528.000;  383.000
402.556; -140.975;-1188.000; -913.000
402.683;  -23.575;  -20.000;   -1.000
402.811;  -22.225;  -37.000; -206.000
402.938;  -14.800;   20.000;   27.000
403.066;  264.700; -574.000; -558.000
403.193;  450.325;  299.000;  239.000
403.321;  360.625; -396.000; -574.000
403.448;  438.675;   83.000;   27.000
403.575;  193.850;  -90.000;  -46.000
403.703;  -77.975; -732.000; -557.000
403.830;  -76.750; -531.000; -496.000
403.957; -146.875;-1117.000;-1023.000
404.085;   12.825;  -61.000; -172.000
404.212;  102.600;  -50.000;   63.000
404.339;  221.300; -566.000; -306.000
404.467; 4578.300; -612.000; -524.000
404.594; 3460.725; -287.000; -227.000
404.721;  965.125; -869.000; -764.000
404.848;   89.250; -113.000; -202.000
404.976; -101.800; -856.000; -783.000
405.103;   -9.075;  -14.000;  -82.000
405.230;  -10.100;  190.000;  226.000
405.357;   23.500;  117.000;   44.000
405.484;  210.950;  -49.000;    5.000
405.612;   35.300; -548.000; -563.000
405.739;  -61.750; -488.000; -243.000
405.866;   83.350;  669.000;  385.000
405.993;  -41.675; -398.000; -102.000
406.120; -138.650; -801.000; -887.000
406.247;  -48.650; -323.000; -342.000
406.374;  586.750;  540.000;  629.000
406.501;  190.325; -632.000; -702.000
406.628;  -65.850; -621.000; -589.000
406.755;  -80.400; -803.000; -620.000
406.882;  -39.375; -228.000; -277.000
407.009; -106.375; -719.000; -628.000
407.136;   81.600; -480.000; -401.000
407.263;  236.900; -939.000; -829.000
407.390;  -62.000; -692.000; -614.000
407.517; -160.300;-1139.000;-1187.000
407.644;  -56.175; -332.000; -256.000
407.771;  -54.550; -249.000; -287.000
407.898;   23.875;  168.000;  328.000
408.025;  -49.475; -421.000; -313.000
408.151;  -12.125;   82.000;  153.000
408.278;  -66.200; -267.000; -216.000
408.405; -117.025; -931.000; -899.000
408.532;  -72.475; -549.000; -542.000
408.659; -123.225; -677.000; -648.000
408.785; -209.000;-1298.000;-1170.000
408.912;  -76.325; -412.000; -296.000
409.039; -115.325; -610.000; -686.000
409.166; -100.650; -591.000; -555.000
409.292; -121.550; -571.000; -534.000
409.419; -135.375; -665.000; -649.000
409.546;  -90.625; -431.000; -192.000
409.672; -123.075; -713.000; -545.000
409.799;  -27.850;  -36.000;   34.000
409.926;  -46.175; -180.000; -179.000
410.052; -171.500;-1127.000;-1091.000
410.179;  -53.450; -368.000; -392.000
410.305;  -80.925; -375.000; -493.000
410.432;  -53.850; -220.000; -333.000
410.558;  -77.725; -305.000; -380.000
410.685; -108.800; -688.000; -431.000
410.812; -100.325; -409.000; -588.000
410.938; -141.700; -964.000; -808.000
411.065;  -93.600; -671.000; -645.000
411.191;  -33.475; -189.000; -174.000
411.317; -105.775; -823.000; -742.000
411.444;  -76.600; -317.000; -246.000
411.570;  -78.200; -339.000; -294.000
411.697; -125.325; -758.000; -752.000
411.823; -176.925; -989.000; -999.000
411.949;  -30.525;  -56.000;   17.000
412.076; -119.450; -539.000; -519.000
412.202; -114.575; -758.000; -757.000
412.329; -110.650; -798.000; -752.000
412.455; -108.300; -821.000; -657.000
412.581;  -13.950;  -15.000;  172.000
412.707;  -56.375; -540.000; -457.000
412.834;   27.100;  156.000;  219.000
412.960;  -84.325; -785.000; -784.000
413.086; -114.975; -743.000; -701.000
413.212;  188.725;  604.000;  578.000
413.339;  -45.600; -685.000; -701.000
413.465;   27.650; -364.000; -310.000
413.591;  -84.350; -757.000; -474.000
413.717;  -60.400; -358.000; -366.000
413.843; -133.575; -839.000; -861.000
413.969;  -60.775;  -47.000; -292.000
414.096;  -87.700; -679.000; -679.000
414.222;  -13.425;  -33.000;   85.000
414.348;   -3.450; -652.000; -385.000
414.474;  127.025;   38.000;  -52.000
414.600;  -10.100; -126.000; -144.000
414.726;  -18.100;  -96.000;  -55.000
414.852;  -51.700; -365.000; -342.000
414.978;   35.475;  104.000;  -18.000
415.104;   30.550;   38.000;   80.000
415.230;   15.725; -329.000; -330.000
415.356;   49.600; -409.000; -514.000
415.482;  193.900;   13.000;  -35.000
415.608;  229.125; -247.000; -323.000
415.734;  841.200;   67.000;   38.000
415.860;17320.175; -875.000; -767.000
415.986;12543.050; -685.000; -607.000
416.111; 1052.350; -798.000; -652.000
416.237;  194.650; -424.000; -571.000
416.363;  910.000; -765.000; -733.000
416.489; 3300.675; -324.000; -251.000
416.615;  327.350; -707.000; -742.000
416.741;  -53.500; -677.000; -784.000
416.866; -101.275; -673.000; -736.000
416.992; -149.425; -801.000; -818.000
417.118;  -22.850;  -41.000;  -80.000
417.244;  -72.900; -798.000; -531.000
417.369;  -87.000; -801.000; -612.000
417.495;  -17.675; -325.000; -254.000
417.621;  -70.000;-1015.000; -803.000
417.746;   -3.700; -579.000; -572.000
417.872;   21.425; -254.000; -144.000
417.998;   18.350; -515.000; -530.000
418.123;  831.950;-1073.000; -845.000
418.249; 4365.625; -512.000; -601.000
418.374;  567.525; -916.000; -824.000
418.500;   79.425; -383.000; -482.000
418.626;   98.850;   70.000;  -59.000
418.751;   98.800; -549.000; -448.000
418.877;  146.425; -637.000; -643.000
419.002; 1423.200; -688.000; -560.000
419.128;10181.425; -930.000; -721.000
419.253; 2466.050; -967.000; -837.000
419.379;  309.925; -391.000; -338.000
419.504;  330.675;  325.000;  415.000
419.629;  395.925; -393.000; -212.000
419.755; 2714.350; -317.000; -254.000
419.880;16085.325;  -98.000;   67.000
420.006; 9275.200; -280.000; -221.000
420.131;24546.250; -662.000; -775.000
420.256; 3569.100; -315.000; -316.000
420.382;  475.775; -665.000; -687.000
420.507;   45.375; -649.000; -778.000
420.632;  194.225; -337.000; -339.000
420.758;  380.175; -251.000; -425.000
420.883;  -67.775; -876.000; -672.000
421.008;  -97.925; -775.000; -619.000
421.133;  -74.500; -509.000; -467.000
421.259;  -44.900; -325.000; -259.000
421.384; -113.550; -834.000; -693.000
421.509;  -12.850;-1052.000; -862.000
421.634; 1714.475; -936.000; -820.000
421.759;  736.775; -359.000; -327.000
421.885;  -47.300; -717.000; -656.000
422.010;  -73.850; -673.000; -542.000
422.135; -150.150; -695.000; -727.000
422.260;   25.375;  340.000;  280.000
422.385;  -49.750;   12.000;  -98.000
422.510;    6.100;  151.000;  -26.000
422.635;   24.625;  -87.000;  -43.000
422.760;   92.650; -766.000; -791.000
422.885;   60.775;  -57.000;  -80.000
423.010;  -45.250; -112.000; -169.000
423.135;  -91.000; -481.000; -561.000
423.260;   -1.700; -150.000; -245.000
423.385;   89.700;  476.000;  222.000
423.510;   30.725;   71.000;  -22.000
423.635;   94.525;  133.000;   45.000
423.760;   53.475;  383.000;  328.000
423.885;   61.550;  336.000;  391.000
424.010;    4.700;  -68.000;  -13.000
424.135;  -17.950;    5.000;  -33.000
424.259;  -97.225; -654.000; -457.000
424.384;  -60.950; -279.000; -272.000
424.509;  -23.800; -260.000; -186.000
424.634; -114.425; -761.000; -623.000
424.759;  -34.350; -688.000; -544.000
424.883;  -26.100; -506.000; -527.000
425.008;  133.650; -502.000; -410.000
425.133; 1651.875; -679.000; -653.000
425.258;  758.075; -517.000; -381.000
425.382; 1214.325; -867.000; -774.000
425.507; 3157.525; -487.000; -543.000
425.632;  462.050; -802.000; -663.000
425.756;  358.350; -256.000; -146.000
425.881; 4782.525; -831.000; -857.000
426.006;12691.900; -604.000; -355.000
426.130; 2072.975; -696.000; -508.000
426.255;  273.200; -611.000; -491.000
426.379;  120.350; -189.000; -577.000
426.504;  328.750;  660.000;  544.000
426.629; 3501.950; -519.000; -466.000
426.753; 2398.300;   64.000;  -46.000
426.878;  276.900; -252.000; -288.000
427.002;  149.250; -651.000; -668.000
427.127; 1354.025;  -35.000; -158.000
427.251; 9245.225;  372.000;  401.000
427.375; 2673.225; -191.000; -173.000
427.500; 2669.175; -616.000; -610.000
427.624;  929.975; -234.000; -400.000
427.749;  132.900; -216.000; -225.000
427.873;  -30.750; -499.000; -412.000
427.997;  -35.700; -222.000; -230.000
428.122;   77.750;  795.000;  703.000
428.246;   88.925;  433.000;  434.000
428.371; -116.150; -869.000; -773.000
428.495; -101.700; -624.000; -646.000
428.619;  -32.125; -186.000; -117.000
428.743;   26.975;   65.000;  132.000
428.868;   41.750; -732.000; -643.000
428.992; 1753.800; -219.000; -326.000
429.116;  738.975; -329.000; -357.000
429.240;  358.650;  419.000;  426.000
429.365;   -2.475; -454.000; -574.000
429.489;  -33.175; -638.000; -647.000
429.613;   12.025; -236.000; -177.000
429.737;   12.875; -563.000; -432.000
429.861;  232.150; -247.000; -133.000
429.985; 4652.950; -425.000; -305.000
430.109; 4989.550; -770.000; -908.000
430.234;  599.425;   76.000;  -50.000
430.358;   58.625; -250.000; -160.000
430.482;  -68.800; -672.000; -564.000
430.606;  -68.900; -655.000; -375.000
430.730;   38.900; -437.000; -388.000
430.854;  216.425; -909.000; -835.000
430.978;  -49.300; -795.000; -764.000
431.102;  -76.475; -499.000; -422.000
431.226; -101.475; -874.000; -815.000
431.350;   41.275;  345.000;  422.000
431.474;  -60.600; -661.000; -373.000
431.597; -130.425;-1060.000; -848.000
431.721;  -95.100; -276.000; -267.000
431.845; -136.225; -704.000; -472.000
431.969;  -92.975; -304.000; -349.000
432.093;  -93.800; -395.000; -317.000
432.217;  -20.625;   32.000;   82.000
432.341;  -86.350; -523.000; -518.000
432.464;   10.775;   96.000;   40.000
432.588;  288.600; -401.000; -329.000
432.712;  142.800;  -52.000;  -52.000
432.836;   40.700;  213.000;  263.000
432.959;  -41.800; -372.000; -311.000
433.083;   57.150;   11.000;    2.000
433.207;  311.525;  285.000;  930.000
433.330; 4021.950; -391.000; -200.000
433.454; 4927.800; -654.000; -638.000
433.578; 2903.400;  583.000;  278.000
433.701;  550.875; -623.000; -675.000
433.825;  210.200; -292.000; -299.000
433.949;  295.875;   28.000;  -72.000
434.072;  136.350; -410.000; -323.000
434.196;    0.250; -309.000; -117.000
434.319; 3712.475;25482.000;25124.000
434.443;  722.250; -656.000; -603.000
434.566; 2183.700;  281.000;   62.000
434.690;  341.575; -637.000; -383.000
434.813;   43.825; -251.000; -173.000
434.937;  -75.475; -569.000; -696.000
435.060;  -25.350; -423.000; -332.000
435.184;  528.700; -492.000; -217.000
435.307;  305.550;  159.000;  102.000
435.431;    6.225;  -40.000;   24.000
435.554;  -68.750; -399.000; -240.000
435.677;  -83.875; -350.000; -258.000
435.801;  -50.075;  -25.000;   49.000
435.924;   13.950;    1.000;  -67.000
436.048;  -78.575;-1019.000; -732.000
436.171;  -68.675; -240.000;  -66.000
436.294;  -36.000; -248.000; -229.000
436.417;   36.450; -963.000; -849.000
436.541;  -94.625; -814.000; -840.000
436.664;  -60.000; -242.000; -316.000
436.787;  -21.700;   13.000;  113.000
436.910; -113.625; -792.000; -422.000
437.034;   20.075;  142.000;  143.000
437.157;   98.925;  -11.000;    0.000
437.280;  -22.325; -392.000; -292.000
437.403;  -44.875; -982.000; -869.000
437.526; 1011.550; -903.000; -865.000
437.649; 3455.450; -505.000; -332.000
437.772;  560.200; -692.000; -540.000
437.896;  157.200;  700.000;  544.000
438.019;  -90.550; -758.000; -503.000
438.142;  -82.700; -596.000; -506.000
438.265;   33.125; -639.000; -670.000
438.388;  812.100; -520.000; -410.000
438.511;  189.675; -597.000; -394.000
438.634;  -40.425; -247.000; -125.000
438.757; -133.325; -693.000; -619.000
438.880;  -22.275;  -34.000;  -57.000
439.003;  -74.525; -417.000; -437.000
439.126;  -93.350; -287.000; -167.000
439.248;  -60.625;  -98.000; -139.000
439.371;  -37.025;    9.000;  -53.000
439.494;   35.425;  510.000;  439.000
439.617;  -61.875;   65.000;  -88.000
439.740; -183.250; -968.000; -816.000
439.863; -144.700; -755.000; -595.000
439.986; -121.525; -476.000; -431.000
440.108;  -57.025; -161.000; -112.000
440.231; -153.900; -950.000; -836.000
440.354;  -34.300;  -64.000; -150.000
440.477;   90.400; -566.000; -542.000
440.599;   29.925; -200.000; -225.000
440.722; -118.475; -709.000; -586.000
440.845;   58.675;  751.000;  928.000
440.968; -125.000; -415.000; -311.000
441.090;  -65.975; -199.000;  -33.000
441.213; -179.550;-1021.000; -825.000
441.336;  -51.225; -159.000;   -5.000
441.458;  -68.200; -549.000; -396.000
441.581;  -65.475; -628.000; -629.000
441.703;  -65.575; -152.000;   13.000
441.826; -119.850; -557.000; -400.000
441.948;  -45.475;   56.000;   51.000
442.071;   26.725;  555.000;  424.000
442.193; -116.200; -531.000; -485.000
442.316;   14.825;  152.000;   97.000
442.438;   23.200; -233.000;  -10.000
442.561;   74.900;  272.000;  262.000
442.683;  833.975; -809.000; -522.000
442.806; 1702.800;   -8.000;   74.000
442.928;  113.825; -859.000; -604.000
443.051;  -61.400; -577.000; -373.000
443.173;  -91.100; -341.000; -339.000
443.295;  -90.200; -263.000; -371.000
443.418;  -66.150; -321.000;  -29.000
443.540;  -11.400; -106.000;   -4.000
443.662; -128.350; -563.000; -465.000
443.785;  -15.025;  335.000;  199.000
443.907; -106.650; -362.000; -208.000
444.029; -136.650; -767.000; -494.000
444.152; -142.250; -644.000; -554.000
444.274;  -27.950;  -18.000;  -24.000
444.396; -120.475; -461.000; -221.000
444.518; -134.725; -691.000; -454.000
444.640; -107.625; -268.000; -111.000
444.763;  -25.025;  388.000;  249.000
444.885; -114.475; -432.000; -392.000
445.007;  -37.475;   35.000;   86.000
445.129; -118.750; -610.000; -515.000
445.251; -103.825; -372.000; -439.000
445.373; -141.725; -537.000; -386.000
445.495;    4.375;  242.000;  350.000
445.617;   52.700;  853.000;  753.000
445.739;  -66.650; -215.000;  -97.000
445.861;  -27.225; -245.000; -112.000
445.984;  -24.450; -267.000; -101.000
446.105;  305.275; -418.000; -251.000
446.227;  826.075; -176.000;  -19.000
446.349;   36.075; -358.000; -249.000
446.471;  -92.800; -615.000; -448.000
446.593;  -54.925; -316.000;   19.000
446.715;   -4.525;  -67.000;   41.000
446.837;   65.200;  697.000;  832.000
446.959;  -96.025; -457.000; -478.000
447.081; -138.400; -628.000; -518.000
447.203;   60.200;  862.000;  834.000
447.325;  -99.600; -270.000;   42.000
447.446;  -18.625;  286.000;  530.000
447.568; -152.325; -921.000; -803.000
447.690;  -77.325; -236.000; -245.000
447.812; -154.250; -798.000; -519.000
447.933;  -30.875;  155.000;  127.000
448.055;  -64.925; -306.000; -261.000
448.177;  198.900;   31.000;   79.000
448.299;  152.700; -935.000; -727.000
448.420;   25.100;  -25.000;  159.000
448.542;  -57.825;   -3.000;   33.000
448.664;  -29.025;  109.000;  322.000
448.785;  -40.050;  265.000;   83.000
448.907;  -89.525; -614.000; -353.000
449.028;   -7.900; -771.000; -471.000
449.150;   61.900;  492.000;  589.000
449.272; -177.325;-1044.000; -913.000
449.393;   26.925;  612.000;  694.000
449.515; -148.575; -634.000; -581.000
449.636;  -56.575; -264.000; -155.000
449.758;   84.750;  763.000;  622.000
449.879;  -88.875; -498.000; -396.000
450.001;  -81.450; -149.000;  -49.000
450.122;  -50.100;  -95.000;  162.000
450.244;  -25.050;   37.000;  364.000
450.365; -104.600; -495.000; -301.000
450.486;  -44.550;   80.000;  268.000
450.608;   15.475;  393.000;  326.000
450.729;   52.325;  578.000;  645.000
450.850;  -38.325; -574.000; -466.000
450.972;  523.650; -552.000; -389.000
451.093; 3747.650;  190.000;  588.000
451.214; 1570.300; -516.000; -337.000
451.336;  320.850;  773.000;  579.000
451.457;   38.175;  264.000;  393.000
451.578;  -34.325; -118.000;  -74.000
451.699; -119.800; -546.000; -540.000
451.821;  -82.375; -284.000;  -50.000
451.942;   -9.325;  278.000;  285.000
452.063;   25.450;  228.000;  419.000
452.184;  415.900;  -54.000;  -49.000
452.305;  872.825;  103.000;  170.000
452.427;   77.250; -549.000; -301.000
452.548;  -26.125;   23.000;   79.000
452.669;  -42.650; -257.000;  -89.000
452.790;  -49.225;    3.000;  -18.000
452.911;    3.350;  195.000;  259.000
453.032;  -71.075; -289.000;  -60.000
453.153;  -34.775;  -29.000;   81.000
453.274;   52.500;  737.000;  868.000
453.395;  -46.950;  -51.000;  175.000
453.516;  141.850; 1317.000; 1388.000
453.637;  -44.550; -205.000; -150.000
453.758;  -60.200;   15.000;   69.000
453.879; -133.900; -462.000; -250.000
454.000;   75.775; 1086.000;  948.000
454.121;  -95.750; -554.000; -326.000
454.242; -130.500; -599.000; -383.000
454.362;  -60.325;  -99.000;  114.000
454.483;  -35.425; -309.000; -229.000
454.604;   55.075;  512.000;  580.000
454.725; -127.825; -627.000; -555.000
454.846; -114.200; -474.000; -406.000
454.967;  -32.325;  230.000;  539.000
455.087;  -50.625;  179.000;  153.000
455.208;   23.650;  554.000;  856.000
455.329;  -50.750;  -22.000;   82.000
455.450;   20.350;  473.000;  633.000
455.570;  -91.200; -234.000; -211.000
455.691;  -46.650;  201.000;  407.000
455.812; -120.275; -270.000;  -92.000
455.932;  -60.225;  107.000;  -97.000
456.053;  -90.800;   36.000;   24.000
456.173; -105.900; -433.000; -355.000
456.294; -138.675; -476.000; -303.000
456.415;  -68.175;  -73.000;   70.000
456.535;  -40.275;  297.000;  273.000
456.656;  -57.150;  132.000;  240.000
456.776;  -90.025;    3.000;  298.000
456.897;  -11.825;  308.000;  513.000
457.017;  -79.125; -153.000;   -3.000
457.138; -101.050; -402.000; -249.000
457.258;  -44.050;  263.000;  224.000
457.379;  -16.325;  509.000;  521.000
457.499;  -40.500;  443.000;  432.000
457.620; -139.325; -407.000; -231.000
457.740; -109.775; -132.000;  -11.000
457.860;  -61.175;   87.000;   44.000
457.981;  -58.050;  132.000;  124.000
458.101;  -76.550;  -89.000;   40.000
458.221;  -23.775;  336.000;  402.000
458.342;  -67.425;   -4.000;  -37.000
458.462;    9.950;  617.000;  352.000
458.582;  -64.650; -302.000; -294.000
458.703;  -25.525;  303.000;  154.000
458.823;  -52.350;   22.000;  163.000
458.943;   13.075;  341.000;  467.000
459.063;  -31.600; 1124.000;  192.000
459.183;  -16.500;  328.000;  313.000
459.304;    9.850;  315.000;  517.000
459.424;  -70.175; -246.000;  -89.000
459.544;  258.175;  388.000;  764.000
459.664;  660.100;  499.000;  506.000
459.784;  238.250; 1004.000; 1175.000
459.904;   51.550;  867.000;  744.000
460.024;   81.175;  867.000;  684.000
460.144;   13.725;  449.000;  554.000
460.264;   -2.500;  515.000;  327.000
460.385; -106.175; -145.000; -119.000
460.505;   20.050;  905.000;  858.000
460.625; -105.750;  -17.000;  -68.000
460.745;  -27.050;  396.000;  541.000
460.864;  -32.975;  153.000;  469.000
460.984;   15.900;  499.000;  573.000
461.104;  131.625; 1656.000; 1775.000
461.224;    6.050;  657.000;  650.000
461.344;  -22.675;  431.000;  360.000
461.464;  -17.675;  258.000;  513.000
461.584;  -11.850;  283.000;  466.000
461.704;  -49.000;   58.000;  108.000
461.824;  -56.425;  238.000;  259.000
461.943;  -43.850;  191.000;  130.000
462.063;  -86.250;    2.000;  324.000
462.183;   49.000;  639.000;  717.000
462.303;  131.225; 1678.000; 1230.000
462.422;   24.700;  781.000;  840.000
462.542;  -40.250;  271.000;  391.000
462.662;   34.250;  353.000;  380.000
462.782;  206.050;  833.000;  572.000
462.901;  385.775;  545.000;  717.000
463.021;  257.775; 1702.000; 1638.000
463.141;  -10.550;  337.000;  770.000
463.260;  -20.625;  614.000;  474.000
463.380;    6.650;  902.000;  884.000
463.499;  -46.900;  342.000;  332.000
463.619;  -42.775;  581.000;  559.000
463.738;  105.850; 1644.000;  903.000
463.858;   17.900;  657.000;  811.000
463.978;  -28.350;  542.000;  396.000
464.097;   29.475;  921.000; 1114.000
464.217;   73.275; 1196.000; 1143.000
464.336;  103.700; 1068.000; 1130.000
464.455;  -51.375;  328.000;  659.000
464.575;   62.025;  597.000;  602.000
464.694;  179.925; 1204.000; 1179.000
464.814;  107.150; 1190.000; 1138.000
464.933;   65.550; 1095.000; 1027.000
465.052;   95.175; 1412.000; 1054.000
465.172;  105.175;  922.000;  799.000
465.291;  144.150; 1376.000; 1320.000
465.410;    9.525;  462.000;  735.000
465.530;   79.650; 1355.000; 1310.000
465.649;   65.300; 1209.000; 1273.000
465.768;  136.475; 1673.000; 1508.000
465.888;   51.775;  941.000; 1174.000
466.007;   94.750; 1335.000; 1440.000
466.126;    2.925;  721.000;  641.000
466.245;   44.025; 1176.000; 1187.000
466.364;   33.725;  950.000; 1060.000
466.484;   38.875; 1024.000; 1213.000
466.603;   34.500; 1101.000; 1222.000
466.722;  124.700; 1490.000; 1769.000
466.841;   76.150; 1151.000; 1401.000
466.960;   36.725; 1069.000;  972.000
467.079;  133.925; 1971.000; 1786.000
467.198;   32.925; 1238.000; 1181.000
467.317;   92.650; 1768.000; 1162.000
467.436;   66.000; 1709.000; 1261.000
467.555;  127.400; 1796.000; 1746.000
467.674;   47.275; 1227.000; 1329.000
467.793;   44.300; 1376.000; 1374.000
467.912;   85.275; 1658.000; 1539.000
468.031;  136.625; 2038.000; 1930.000
468.150;  150.550; 1842.000; 1837.000
468.269;  205.375; 2313.000; 2090.000
468.388;  162.725; 2168.000; 2339.000
468.507;  252.550; 2884.000; 2903.000
468.626;  225.175; 2555.000; 2541.000
468.744;  137.575; 2018.000; 2174.000
468.863;  183.225; 2312.000; 2523.000
468.982;   75.050; 1503.000; 1555.000
469.101;  211.975; 2788.000; 2692.000
469.220;  150.100; 2333.000; 2176.000
469.338;  243.850; 2935.000; 3051.000
469.457;  172.750; 2719.000; 2545.000
469.576;  348.050; 3953.000; 3784.000
469.695;  256.900; 2877.000; 3066.000
469.813;  422.150; 4148.000; 4192.000
469.932;  410.950; 4255.000; 4485.000
470.051;  404.250; 4075.000; 4161.000
470.169;  766.250; 4470.000; 4338.000
470.288; 1290.700; 4700.000; 4809.000
470.406;  804.425; 5059.000; 5194.000
470.525;  620.200; 6101.000; 5787.000
470.644;  636.475; 6847.000; 6794.000
470.762;  819.325; 8397.000; 7873.000
470.881;  896.975; 8651.000; 8464.000
470.999; 1026.025; 9685.000; 9151.000
471.118; 1128.775;11174.000;10711.000

