
Integration time [ms]: 100.000
Averaging Nr. [scans]: 40
Smoothing Nr. [pixels]: 0
Data measured with spectrometer [name]: 2101012U2
Wave   ;Sample   ;Dark     ;Reference
[nm]   ;[counts] ;[counts] ;[counts] 

197.733;   50.900;  516.000;  404.000
197.879;  -80.600; -610.000; -634.000
198.025;  -45.850; -475.000; -420.000
198.171;  -62.525; -602.000; -612.000
198.317;  -18.700; -401.000; -316.000
198.463;  -59.725; -655.000; -404.000
198.609;   36.625;  181.000; -137.000
198.755;  -73.000; -644.000; -410.000
198.901;  -67.675; -505.000; -424.000
199.047;  -62.700; -615.000; -488.000
199.193;  -29.875; -230.000; -468.000
199.339;  -52.000; -222.000; -369.000
199.485;   46.050;  330.000;  271.000
199.631;   10.225;  227.000;  310.000
199.777;  -62.575; -466.000; -398.000
199.923;  -63.000; -610.000; -424.000
200.069;  -12.950; -141.000;  -58.000
200.215;   42.675;  128.000;  453.000
200.361;   41.725;  243.000;  477.000
200.507;  -75.925; -600.000; -373.000
200.653;  -28.075; -371.000; -194.000
200.798;  -35.850; -215.000; -125.000
200.944;   -2.575; -146.000;  -41.000
201.090;   26.725;   61.000;  222.000
201.236;  -12.400; -116.000; -158.000
201.382;  124.825;  874.000;  903.000
201.528;    5.425;  -58.000;  -48.000
201.674;  -51.825; -386.000; -293.000
201.819;  -76.375; -540.000; -439.000
201.965;  -74.550; -699.000; -447.000
202.111;  -22.575; -273.000; -226.000
202.257;  -37.475; -250.000; -238.000
202.402;   14.850;   13.000;  -36.000
202.548;  -20.325; -169.000; -116.000
202.694;   77.425;  410.000; -183.000
202.840;  -78.200; -603.000; -531.000
202.985;  -76.950; -681.000; -639.000
203.131; -100.650; -832.000; -666.000
203.277;  -23.950; -199.000; -262.000
203.423;  -57.050; -434.000; -520.000
203.568;  -36.000; -462.000; -237.000
203.714;  -61.225; -535.000; -542.000
203.860;  -85.075; -682.000; -641.000
204.005;    3.675;  112.000;  167.000
204.151;   81.325;  561.000;  556.000
204.296;  -46.050; -354.000; -221.000
204.442;  -68.575; -600.000; -547.000
204.588;  -79.200; -592.000; -579.000
204.733;   30.325;  178.000;  168.000
204.879; -124.025;-1018.000; -822.000
205.025;   14.025;  -99.000;  126.000
205.170;    0.175;  -17.000;   94.000
205.316;   81.875;  438.000;  661.000
205.461;  -81.200; -698.000; -554.000
205.607;   80.225;  609.000;  665.000
205.752;  -72.350; -626.000; -551.000
205.898;  -44.875; -501.000; -391.000
206.043;  -66.250; -578.000; -506.000
206.189;  -52.500; -243.000; -285.000
206.334;   68.775;  554.000;  606.000
206.480;   59.975;  409.000;  239.000
206.625;  -68.650; -529.000; -552.000
206.771;  -35.125; -451.000; -373.000
206.916;  -34.875; -210.000; -537.000
207.062;  -79.400; -545.000; -591.000
207.207;  -57.925; -546.000; -443.000
207.353;   57.775;  185.000;  460.000
207.498;   14.925;  196.000;   85.000
207.643;  -57.625; -501.000; -370.000
207.789; -135.925;-1069.000; -910.000
207.934; -101.200; -665.000; -713.000
208.080;  -21.700; -154.000;   66.000
208.225;  -15.750;  -22.000;  -57.000
208.370;  -94.500; -727.000; -619.000
208.516;  -73.225; -741.000; -487.000
208.661;  -39.125; -127.000;  -69.000
208.806;  -29.425; -165.000; -171.000
208.952; -132.625;-1044.000; -731.000
209.097;   81.450;  378.000;  349.000
209.242;  -48.175; -307.000; -382.000
209.387;   72.675;  392.000;  350.000
209.533;  -55.150; -321.000; -350.000
209.678;   85.250;  472.000;  543.000
209.823;  -50.650; -408.000; -310.000
209.969; -107.575; -860.000; -757.000
210.114; -103.700; -907.000; -719.000
210.259; -112.925; -939.000; -889.000
210.404;   -8.050; -171.000;  103.000
210.549;   -1.825;  108.000;    3.000
210.695;  -14.425;   -3.000;  -95.000
210.840;   38.875;   94.000;   67.000
210.985;  -68.250; -484.000; -303.000
211.130;   67.350;  268.000;  406.000
211.275;   17.025;  207.000;  199.000
211.420;  -50.550; -300.000; -289.000
211.566;  -79.100; -536.000; -489.000
211.711;   22.850;  218.000;  157.000
211.856;  -55.625; -545.000; -519.000
212.001;   15.800;  151.000;   44.000
212.146;   19.050;  153.000;   49.000
212.291;  -24.400; -210.000; -186.000
212.436;  -32.950; -280.000;   -6.000
212.581;  -74.025; -685.000; -653.000
212.726;  -77.600; -487.000; -538.000
212.871;  -50.400; -552.000; -217.000
213.016; -142.775;-1172.000;-1029.000
213.161;   72.300;  406.000;  291.000
213.306;  -75.100; -435.000; -577.000
213.451;  -89.700; -778.000; -689.000
213.596;  -47.825; -455.000; -347.000
213.741;  -56.900; -448.000; -538.000
213.886;  -89.050; -498.000; -517.000
214.031;  -16.650; -294.000; -124.000
214.176;  -37.825; -408.000; -341.000
214.321;  -13.800; -296.000; -157.000
214.466;  -33.900; -163.000;  -43.000
214.611;   -2.275;  -61.000;  -10.000
214.756; -111.550; -948.000; -858.000
214.901;  -35.300; -388.000; -226.000
215.046; -114.775; -797.000; -825.000
215.191;   22.025;  128.000;   35.000
215.336;  -18.950; -157.000;  -19.000
215.480;  -74.500; -684.000; -505.000
215.625;   -4.350; -175.000;  -19.000
215.770;  -83.600; -757.000; -662.000
215.915;  -11.200;   -5.000;  -97.000
216.060;   -7.625; -113.000;  -21.000
216.205; -116.600; -731.000; -779.000
216.349;  -68.575; -470.000; -533.000
216.494; -129.950; -939.000; -867.000
216.639; -117.050; -823.000; -888.000
216.784;  -81.375; -577.000; -525.000
216.929;   45.825;  392.000;  281.000
217.073;  -17.200; -244.000;  -31.000
217.218;    8.400;   78.000;  -47.000
217.363;  -85.225; -656.000; -618.000
217.507;  -78.275; -623.000; -588.000
217.652; -130.800; -845.000; -874.000
217.797;  -90.925; -708.000; -659.000
217.942; -117.150; -856.000; -720.000
218.086;   64.125;  608.000;  539.000
218.231;  -19.850; -174.000;  -26.000
218.376;  -25.300; -337.000; -229.000
218.520;    5.650;  -41.000;   96.000
218.665;  -36.900; -338.000; -204.000
218.810;  -50.125; -275.000; -233.000
218.954;   20.575;  201.000;   35.000
219.099; -108.000; -713.000; -963.000
219.243;  -71.950; -589.000; -554.000
219.388;  -31.950; -264.000; -136.000
219.532;   -0.700; -116.000; -116.000
219.677;  -68.625; -564.000; -521.000
219.822;   13.075;   33.000;   89.000
219.966;   -7.650;   17.000;  -99.000
220.111;  -27.200; -328.000;  -40.000
220.255;  -82.450; -797.000; -750.000
220.400;  -15.100; -180.000; -146.000
220.544;  -67.850; -516.000; -450.000
220.689;  -47.650; -422.000; -451.000
220.833;  -30.300; -123.000;  -58.000
220.978;  -42.525; -393.000; -563.000
221.122;   32.725;  319.000;  307.000
221.267; -114.050; -906.000; -837.000
221.411;  -63.775; -478.000; -394.000
221.555;   -0.125; -104.000;  -23.000
221.700;  -38.825; -329.000; -222.000
221.844;   32.075;  255.000;  272.000
221.989;  -54.475; -328.000; -311.000
222.133;  -41.300; -289.000; -307.000
222.277;   -7.600;    5.000;   78.000
222.422;   18.250;  227.000;  113.000
222.566;  -33.475; -381.000; -214.000
222.711;  -52.975; -414.000; -479.000
222.855;  -75.525; -643.000; -586.000
222.999;  -74.050; -642.000; -717.000
223.144;  -29.950; -195.000; -194.000
223.288;   55.700;  423.000;  251.000
223.432;   24.675;  184.000;  230.000
223.576;   13.325;  152.000;  -21.000
223.721;   39.150;  364.000;  273.000
223.865;  -53.725; -472.000; -475.000
224.009;  231.850; 1673.000; 1631.000
224.153;  -71.500; -660.000; -671.000
224.298;  -54.275; -531.000; -489.000
224.442;  -23.225;  -74.000;  -33.000
224.586;  -15.800; -169.000; -106.000
224.730;  -96.075; -858.000; -670.000
224.875;  -94.125; -739.000; -688.000
225.019;   16.275;  102.000;  188.000
225.163;   45.400;  208.000;  341.000
225.307;   20.500;   97.000;  -91.000
225.451;   48.975;  360.000;  481.000
225.595;   29.000;  264.000;  176.000
225.739;  -29.825; -170.000;  -94.000
225.884;   -0.800;   86.000;    5.000
226.028;  -91.275; -760.000; -626.000
226.172;  -29.750; -260.000; -273.000
226.316; -125.175; -941.000; -902.000
226.460;  -72.700; -645.000; -493.000
226.604;  -45.875; -406.000; -400.000
226.748;  -89.650; -836.000; -733.000
226.892;  -29.100; -227.000; -181.000
227.036;  -36.675; -537.000; -447.000
227.180;  -52.375; -551.000; -375.000
227.324;  -72.225; -561.000; -580.000
227.468; -111.950; -819.000; -717.000
227.612;    5.150;  242.000;  -28.000
227.756; -103.200; -845.000; -698.000
227.900;   54.825;  342.000;  441.000
228.044;  -72.150; -509.000; -290.000
228.188;   50.500;  448.000;  568.000
228.332;  -70.875; -546.000; -472.000
228.476;  -24.050; -223.000; -149.000
228.620;  -23.800; -210.000; -150.000
228.764;   57.275;  431.000;  349.000
228.908;  -15.725; -155.000;   30.000
229.052;  -73.350; -615.000; -528.000
229.195;   -5.675; -172.000;   13.000
229.339;  -35.100; -235.000; -305.000
229.483;  -30.175;    5.000; -162.000
229.627;   -6.200; -156.000;  139.000
229.771;  -57.025; -218.000; -294.000
229.915;    8.850;  230.000;   79.000
230.059;  -90.550; -648.000; -663.000
230.202;  -39.025; -370.000; -317.000
230.346;  -11.625; -107.000;  107.000
230.490;  -58.250; -489.000; -521.000
230.634;  -98.725; -736.000; -553.000
230.777;   81.400;  478.000;  509.000
230.921;  -63.425; -450.000; -359.000
231.065;  -37.800; -246.000; -286.000
231.209;   15.550;  261.000;  265.000
231.352;    6.925;   54.000;   40.000
231.496;   27.950;  568.000;  188.000
231.640;  -84.525; -693.000; -621.000
231.783;   47.700;  546.000;  525.000
231.927;  -50.925; -294.000; -365.000
232.071; -123.575; -962.000; -736.000
232.214; -106.325; -980.000; -764.000
232.358;  -99.300; -683.000; -599.000
232.502;   -2.950;  -19.000;    7.000
232.645; -137.575;-1090.000; -927.000
232.789;  -30.650; -257.000; -218.000
232.933;  -35.075; -407.000; -224.000
233.076; -118.350;-1038.000; -897.000
233.220; -108.350; -752.000; -777.000
233.363;  -81.775; -669.000; -477.000
233.507;   49.025;  371.000;  129.000
233.650;  -95.875; -764.000; -834.000
233.794;   43.000;  438.000;  461.000
233.938;  -56.150; -530.000; -362.000
234.081;   -7.575;  -93.000;   31.000
234.225;  -61.850; -631.000; -539.000
234.368; -110.250; -773.000; -723.000
234.512;  -52.675; -385.000; -299.000
234.655;  -90.400; -582.000; -555.000
234.798;  -52.700; -493.000; -466.000
234.942; -128.675; -884.000;-1002.000
235.085;  -75.150; -651.000; -443.000
235.229;  -86.350; -405.000; -410.000
235.372;  -36.900; -247.000; -191.000
235.516;  -70.725; -397.000; -321.000
235.659;   11.450;   92.000;  121.000
235.802;  -10.800;  -38.000;  -22.000
235.946;   23.025;  335.000;  215.000
236.089;   34.525;  126.000;  250.000
236.233;   44.400;  275.000;  298.000
236.376;  -46.650; -235.000; -378.000
236.519;  -62.375; -297.000; -319.000
236.663;  -22.675; -215.000; -117.000
236.806; -133.250;-1029.000; -999.000
236.949;   46.825;  543.000;  431.000
237.092;   61.800;  412.000;  391.000
237.236;  -88.200; -589.000; -502.000
237.379;   71.275;  352.000;  428.000
237.522; -105.300; -879.000; -768.000
237.666;  -15.625; -271.000;   18.000
237.809; -129.550; -851.000; -823.000
237.952;   36.875;  469.000;  271.000
238.095;  -69.050; -447.000; -442.000
238.238;   86.225;  688.000;  700.000
238.382;   -8.050;  166.000;  103.000
238.525;  -71.750; -598.000; -511.000
238.668; -137.425;-1060.000; -985.000
238.811;  -87.825; -638.000; -643.000
238.954;  -67.300; -483.000; -334.000
239.097;   84.625;  617.000;  664.000
239.241;   18.275;  394.000;  326.000
239.384;  -37.925; -254.000; -214.000
239.527;  -57.375; -424.000; -224.000
239.670; -149.275; -994.000;-1091.000
239.813; -106.025; -696.000; -658.000
239.956;   68.625;  579.000;  473.000
240.099; -114.150; -778.000; -725.000
240.242;   51.600;  428.000;  432.000
240.385;   48.500;  466.000;  450.000
240.528;  -75.875; -706.000; -473.000
240.671;   10.400;  189.000;  134.000
240.814;  -53.750; -441.000; -158.000
240.957;  -99.325; -767.000; -578.000
241.100;  -98.350; -779.000; -755.000
241.243; -149.625;-1234.000; -893.000
241.386;  -64.000; -508.000; -379.000
241.529;  -91.925; -735.000; -547.000
241.672;  -59.625; -566.000; -495.000
241.815; -122.450; -832.000; -808.000
241.958;  -22.150; -125.000; -182.000
242.101;  -78.700; -545.000; -390.000
242.244;  -56.225; -270.000; -325.000
242.387;  -41.050; -304.000; -246.000
242.530;   58.250;  470.000;  134.000
242.673;  -45.150; -381.000; -309.000
242.815; -116.875; -925.000; -899.000
242.958;  -71.600; -482.000; -381.000
243.101;   -7.675;  132.000;  187.000
243.244;  -76.175; -564.000; -521.000
243.387;  -46.950; -313.000; -316.000
243.530;  -90.925; -657.000; -674.000
243.672;   -4.750;   43.000;  -92.000
243.815;  -51.150; -355.000; -283.000
243.958;  -10.575;   98.000;  -26.000
244.101;    1.400;   59.000;  -16.000
244.243;  -12.525;  -47.000;  101.000
244.386; -113.325; -761.000; -630.000
244.529;  -31.200; -132.000; -139.000
244.672; -147.125;-1154.000; -951.000
244.814;  -86.725; -621.000; -794.000
244.957;  -55.300; -380.000; -304.000
245.100;  -81.600; -489.000; -489.000
245.242;  -56.875; -387.000; -374.000
245.385;   -7.850;  -59.000;  -39.000
245.528; -116.650; -871.000; -705.000
245.670;   77.775;  612.000;  634.000
245.813;  -82.875; -599.000; -547.000
245.956;  -31.800; -324.000; -275.000
246.098;  -67.050; -508.000; -650.000
246.241;    6.450;  194.000;   48.000
246.383;  -12.650; -119.000;  -73.000
246.526;  -73.275; -454.000; -525.000
246.669; -129.750; -889.000; -780.000
246.811;    2.400;  172.000;   -1.000
246.954;  -64.000; -512.000; -426.000
247.096;  -21.825;  -84.000;   -6.000
247.239;  -68.450; -482.000; -445.000
247.381;  -65.250; -647.000; -488.000
247.524;   75.600;  645.000;  679.000
247.666;  -12.625;   58.000;   11.000
247.809; -112.450; -887.000; -691.000
247.951;    0.425;  -75.000;  138.000
248.094;   24.450;  432.000;  308.000
248.236; -160.000;-1262.000;-1238.000
248.378;   11.100; -356.000;  -81.000
248.521;  -21.275; -334.000; -337.000
248.663;  -46.650; -236.000; -267.000
248.806;  -20.075; -300.000; -266.000
248.948;  -88.325; -886.000; -763.000
249.090;  -30.875; -428.000; -398.000
249.233;  -45.675; -344.000; -381.000
249.375;  -64.750; -474.000; -451.000
249.518;  -27.350;  -83.000; -133.000
249.660;   -9.950; -103.000;    3.000
249.802; -165.200;-1303.000;-1189.000
249.945;  -69.125; -612.000; -540.000
250.087; -113.425; -834.000; -768.000
250.229;  -54.250; -362.000; -480.000
250.371;  -73.250; -494.000; -439.000
250.514;  -48.225; -310.000; -244.000
250.656;   -8.275;   69.000;  102.000
250.798; -114.000; -849.000; -800.000
250.940;  -60.700; -322.000; -322.000
251.083;  -22.050; -335.000; -111.000
251.225;   48.675;  338.000;  310.000
251.367;  -37.575; -274.000; -373.000
251.509;  -33.975; -265.000; -210.000
251.651;  -94.950; -731.000; -671.000
251.794;   63.500;  538.000;  632.000
251.936; -110.650; -821.000; -747.000
252.078;  -82.000; -540.000; -461.000
252.220;  -63.400; -645.000; -477.000
252.362;   90.500;  344.000;  462.000
252.504;  -64.800; -677.000; -584.000
252.646; -110.975; -875.000; -722.000
252.788;    2.900;   14.000; -128.000
252.931;  -59.350; -257.000; -253.000
253.073;  -60.150; -376.000; -317.000
253.215;  -16.875;  141.000;  122.000
253.357;  -33.375;   82.000; -153.000
253.499;  -47.675; -374.000; -234.000
253.641;  -81.825; -749.000; -594.000
253.783;  -88.075; -609.000; -527.000
253.925;  -83.575; -586.000; -591.000
254.067; -108.375; -744.000; -667.000
254.209;  -33.550; -391.000; -259.000
254.351; -132.025; -865.000; -883.000
254.493;  -58.050; -441.000; -417.000
254.635; -143.775; -936.000; -818.000
254.777;  -90.850; -752.000; -687.000
254.918;  -62.775; -512.000; -430.000
255.060;  -49.200; -551.000; -395.000
255.202;  -62.150; -473.000; -261.000
255.344;  -63.875; -658.000; -455.000
255.486;  -68.450; -471.000; -406.000
255.628;  -95.675; -780.000; -781.000
255.770;  -86.725; -676.000; -536.000
255.912;  -70.375; -559.000; -468.000
256.053;  -93.700; -730.000; -508.000
256.195;  142.450; 1008.000;  903.000
256.337;  -89.975; -861.000; -595.000
256.479;   46.650;  532.000;  416.000
256.621;  -38.125; -394.000; -212.000
256.762;  -91.325; -789.000; -742.000
256.904;   52.850;  485.000;  487.000
257.046;  -46.525; -381.000; -271.000
257.188;  -47.550; -351.000; -264.000
257.329;  -71.050; -525.000; -464.000
257.471; -119.850; -939.000; -807.000
257.613;  -60.750; -584.000; -498.000
257.755; -139.525;-1073.000; -982.000
257.896;   48.100;  286.000;  392.000
258.038;  -83.925; -403.000; -352.000
258.180;  -40.600; -354.000; -279.000
258.321;  -78.250; -581.000; -457.000
258.463;  -15.625;  -71.000;  133.000
258.605;  -92.550; -562.000; -570.000
258.746;  -98.700; -886.000; -772.000
258.888; -150.650;-1026.000;-1020.000
259.029;   25.300;  121.000;   -8.000
259.171;  -93.375; -614.000; -550.000
259.313;  -12.000;  -49.000;  -47.000
259.454;  -69.550; -536.000; -414.000
259.596;  -56.425; -483.000; -390.000
259.737;  -75.975; -590.000; -474.000
259.879;   48.675;  217.000;  311.000
260.020;   79.750;  901.000;  636.000
260.162;  -32.125; -146.000; -253.000
260.303; -114.275; -768.000; -687.000
260.445;  -73.775; -609.000; -613.000
260.586;   38.625;  392.000;  157.000
260.728;  -45.225; -360.000; -248.000
260.869; -106.675; -350.000; -343.000
261.011;   61.275;  706.000;  537.000
261.152;  -73.525; -479.000; -319.000
261.293;  -78.050; -576.000; -595.000
261.435;  -27.750; -219.000; -184.000
261.576;  -45.875; -455.000; -325.000
261.718;   44.500;  420.000;  470.000
261.859; -124.525; -940.000; -949.000
262.000; -138.825; -951.000;-1016.000
262.142;  -13.025;  -52.000;  -60.000
262.283; -122.675; -808.000; -691.000
262.424;  -97.775; -666.000; -625.000
262.566; -146.900;-1161.000; -983.000
262.707; -109.275; -840.000; -830.000
262.848; -114.625; -769.000; -726.000
262.990;  -36.300; -362.000; -345.000
263.131;   69.075;  650.000;  681.000
263.272;    5.425;  -61.000;  -41.000
263.413;  -97.450; -589.000; -561.000
263.555;  -76.550; -669.000; -143.000
263.696;  -91.100; -550.000; -641.000
263.837;  -66.125; -449.000; -551.000
263.978;   -6.700;   -5.000;  -77.000
264.119;  -51.875; -283.000; -264.000
264.261; -118.050; -847.000; -630.000
264.402;    6.350;   33.000;   40.000
264.543;  -82.325; -509.000; -524.000
264.684;  -13.275;   61.000;  -50.000
264.825;  -76.050; -816.000; -538.000
264.966;   -9.050;  -84.000;  -67.000
265.107; -115.950; -646.000; -670.000
265.248; -105.250; -825.000; -812.000
265.390;  -12.400;  152.000;   -9.000
265.531;  -23.525; -238.000; -107.000
265.672; -100.075; -557.000; -630.000
265.813;   45.075;  563.000;  439.000
265.954; -128.950; -959.000; -940.000
266.095;   -6.075; -372.000; -322.000
266.236; -101.800; -686.000; -548.000
266.377;  -48.675; -243.000; -297.000
266.518;  -67.000; -619.000; -547.000
266.659;   28.600;  170.000;  268.000
266.800;   -6.225;   83.000;   85.000
266.941;  -68.700; -487.000; -478.000
267.082;    9.700;  354.000;   99.000
267.223;  -55.100; -344.000; -273.000
267.364; -128.675; -892.000; -686.000
267.504;  -31.625;    3.000;  135.000
267.645;   -3.000;  160.000;   67.000
267.786;  -39.800; -147.000;  -86.000
267.927;  -69.150; -473.000; -379.000
268.068;  -15.000; -186.000;  -61.000
268.209;  -38.825; -175.000; -413.000
268.350;  -59.425; -388.000; -532.000
268.490;  -92.800; -648.000; -521.000
268.631;   32.150;  127.000;  225.000
268.772; -119.225; -874.000; -647.000
268.913;  -46.350; -328.000; -476.000
269.054;  -15.325; -117.000;   12.000
269.194;  -50.675; -418.000; -402.000
269.335; -154.375;-1137.000;-1074.000
269.476;  -19.600;   33.000;  -35.000
269.617;  -60.725; -347.000; -392.000
269.757; -100.675; -713.000; -646.000
269.898; -101.500; -856.000; -613.000
270.039;  -65.825; -415.000; -405.000
270.180; -134.750; -952.000; -816.000
270.320;  -23.800; -190.000; -250.000
270.461;  -37.475; -277.000; -249.000
270.602;  -13.050; -186.000; -156.000
270.742; -117.200; -868.000; -943.000
270.883;  -67.350; -442.000; -390.000
271.023;  -75.425; -358.000; -357.000
271.164;  -76.575; -607.000; -528.000
271.305;  -89.075; -666.000; -654.000
271.445;  -77.400; -722.000; -683.000
271.586;  -68.650; -462.000; -283.000
271.726;  -49.550; -397.000; -322.000
271.867;  -44.000; -594.000; -534.000
272.008;  196.075; -473.000; -285.000
272.148;  130.175;  462.000;  468.000
272.289;    8.525; -113.000; -181.000
272.429;   20.525;   19.000;  185.000
272.570;  -83.200; -633.000; -737.000
272.710; -102.850; -825.000; -775.000
272.851;  -16.325;  113.000; -130.000
272.991; -163.250;-1173.000;-1077.000
273.131;  -73.275; -419.000; -459.000
273.272;  -98.525; -683.000; -723.000
273.412;   10.175; -143.000;  -31.000
273.553;  -62.600; -488.000; -507.000
273.693;  136.075;  913.000;  858.000
273.834;  -74.450; -894.000; -692.000
273.974;  -67.050; -664.000; -615.000
274.114;  -98.025; -772.000; -560.000
274.255;   65.650;  414.000;  373.000
274.395;   13.175; -180.000; -125.000
274.535;   38.300;  199.000;  350.000
274.676;   18.775;  225.000;   94.000
274.816;    7.800;  110.000;   34.000
274.956;  -94.750; -624.000; -690.000
275.097;  -72.300;-1014.000; -922.000
275.237; -119.725; -913.000; -803.000
275.377; -102.150; -778.000; -689.000
275.517; -144.800; -878.000; -937.000
275.658;  -53.350; -590.000; -555.000
275.798;  -70.675; -606.000; -413.000
275.938;   18.325;  215.000;  323.000
276.078;  -96.750; -626.000; -395.000
276.218;    4.150;   99.000;  104.000
276.359; -136.200;-1026.000;-1024.000
276.499;  -68.900; -605.000; -446.000
276.639;  -25.575; -305.000; -151.000
276.779;  -42.325; -475.000; -357.000
276.919; -108.975; -783.000; -624.000
277.059;  -24.375; -261.000; -212.000
277.199;  -61.200; -357.000; -259.000
277.340;   48.625;  287.000;  175.000
277.480; -102.875; -840.000; -693.000
277.620;   23.550;  192.000;   16.000
277.760; -199.325;-1533.000;-1294.000
277.900;    9.150;  113.000;   33.000
278.040;   12.650;  137.000;  159.000
278.180;   34.050;  270.000;  170.000
278.320;   -3.225;   21.000;   56.000
278.460;  -57.025; -443.000; -469.000
278.600;  -94.450; -708.000; -598.000
278.740;   53.600;  448.000;  224.000
278.880;  -47.275; -768.000; -791.000
279.020;  -10.700; -194.000; -144.000
279.160;  -91.700; -672.000; -595.000
279.300; -114.150; -926.000; -873.000
279.440;  -98.675; -709.000; -622.000
279.579;  -17.925;-1014.000; -929.000
279.719;  -45.575; -410.000; -394.000
279.859;   77.350;   -4.000;   41.000
279.999;   25.025; -208.000;  101.000
280.139;    1.575; -435.000; -387.000
280.279;  -68.975; -708.000; -745.000
280.419;  -14.475; -229.000; -147.000
280.559;  -30.350; -259.000; -180.000
280.698;  -71.325; -790.000; -639.000
280.838;  -90.950; -778.000; -800.000
280.978;  -96.200; -846.000; -790.000
281.118; -107.500; -811.000; -704.000
281.257;   -1.200;   24.000;    6.000
281.397; -108.425;-1094.000; -960.000
281.537;  -84.650; -599.000; -712.000
281.677;  -15.900; -150.000; -101.000
281.816;  -93.550; -700.000; -630.000
281.956;  -40.050; -193.000; -257.000
282.096;  -62.425; -539.000; -396.000
282.235;  -96.150; -672.000; -638.000
282.375;  -20.550; -243.000;  -98.000
282.515; -110.325; -715.000; -707.000
282.654;   20.100;   29.000;  106.000
282.794;   26.675;  388.000;  244.000
282.934;  -49.550; -530.000; -491.000
283.073; -128.350;-1030.000; -857.000
283.213;  -48.175; -460.000; -467.000
283.353;  -38.375; -408.000; -349.000
283.492;  -37.975; -264.000; -296.000
283.632;  -49.325; -254.000; -168.000
283.771;  -91.175; -859.000; -730.000
283.911;  -62.225; -369.000; -260.000
284.050; -119.275; -794.000; -748.000
284.190; -163.675;-1229.000;-1096.000
284.329; -143.875;-1055.000; -964.000
284.469;  -69.325; -516.000; -591.000
284.608;  -64.225; -559.000; -598.000
284.748;  -85.350; -614.000; -570.000
284.887;    2.850;  -87.000;  -20.000
285.027; -121.750; -844.000; -892.000
285.166;  -29.250; -192.000; -249.000
285.306;   11.600; -116.000;  -33.000
285.445;  -35.475; -229.000; -343.000
285.584;  -90.100; -630.000; -494.000
285.724;  -38.075; -282.000; -322.000
285.863; -107.425; -857.000; -507.000
286.002;  -53.450; -366.000; -276.000
286.142; -100.050; -715.000; -622.000
286.281;  -72.575; -525.000; -493.000
286.420;  -81.625; -554.000; -417.000
286.560;   91.750;  653.000;  623.000
286.699; -133.700; -958.000; -912.000
286.838;  -81.025; -590.000; -591.000
286.978;  -82.550; -533.000; -537.000
287.117; -127.825;-1085.000; -950.000
287.256;  -31.400; -228.000; -211.000
287.395;  -34.525; -197.000; -378.000
287.535;  -56.100; -370.000; -298.000
287.674;  -77.825; -509.000; -484.000
287.813;   56.725;  661.000;  533.000
287.952; -136.950;-1010.000; -871.000
288.091; -136.025;-1049.000; -915.000
288.231;    8.875;   13.000;   15.000
288.370; -172.500;-1217.000;-1200.000
288.509;  -83.600; -728.000; -645.000
288.648;  -91.400; -770.000; -548.000
288.787;  -37.000; -243.000;  -87.000
288.926;  -57.700; -454.000; -475.000
289.065;  107.225;  859.000;  672.000
289.204;  -54.075; -377.000; -217.000
289.344;  -78.075; -791.000; -690.000
289.483;   21.875;  416.000;  304.000
289.622;  -26.575; -291.000; -149.000
289.761;  -22.025; -309.000; -166.000
289.900; -114.275; -785.000; -626.000
290.039;   -3.600;  -12.000;  -95.000
290.178;  -37.750; -274.000; -180.000
290.317;  -80.075; -618.000; -479.000
290.456;  -66.450; -463.000; -451.000
290.595; -126.125; -961.000; -833.000
290.734; -137.000; -904.000; -891.000
290.873;  -59.950; -456.000; -420.000
291.011; -110.175; -833.000; -843.000
291.150;  -91.750; -770.000; -682.000
291.289;  -15.375; -343.000; -110.000
291.428; -103.850; -599.000; -480.000
291.567;  -61.650; -370.000; -442.000
291.706;   -3.525;  109.000;  154.000
291.845;  -88.025; -597.000; -505.000
291.984; -160.300;-1234.000;-1061.000
292.122;   72.400;  602.000;  582.000
292.261;   36.225;  620.000;  463.000
292.400;  -17.950; -144.000;  211.000
292.539; -115.750; -959.000; -813.000
292.678;  -29.225; -325.000; -300.000
292.816; -163.300;-1136.000; -965.000
292.955;  -85.575; -844.000; -684.000
293.094;  -27.675; -173.000; -337.000
293.233;  -67.650; -556.000; -400.000
293.371;  -24.600; -225.000;  -84.000
293.510; -106.075; -866.000; -780.000
293.649; -137.125; -959.000; -924.000
293.787;  -57.300;-1083.000;-1012.000
293.926;  -22.450; -113.000;  -32.000
294.065;  -49.125; -379.000; -290.000
294.203;   39.350;  298.000;  406.000
294.342;   12.450;   74.000;  156.000
294.481; 5315.625;51180.000; -836.000
294.619;  -30.775; -425.000; -582.000
294.758; -137.200;-1230.000;-1137.000
294.896;   86.050; -125.000;    5.000
295.035; -120.400;-1040.000;-1006.000
295.174; -114.350;-1082.000; -954.000
295.312;  -49.050; -323.000; -203.000
295.451;   -8.525; -307.000; -428.000
295.589;  -49.050; -389.000; -518.000
295.728;   25.525; -292.000; -165.000
295.866;   12.250;  -36.000;  -51.000
296.005;  -67.850; -584.000; -341.000
296.143;  -64.750; -558.000; -596.000
296.282; -100.825; -957.000; -881.000
296.420;  -90.575; -657.000; -557.000
296.559;  -77.725; -892.000; -633.000
296.697;   46.675; -847.000; -665.000
296.835;   74.775;-1141.000;-1002.000
296.974;   42.425;  -23.000;   39.000
297.112;   15.975; -443.000; -504.000
297.251;  -64.650; -815.000; -755.000
297.389;  114.225; -576.000; -438.000
297.527;   31.600; -145.000;  -83.000
297.666;  -48.850; -486.000; -438.000
297.804;  -41.200; -404.000; -264.000
297.942;  -13.300; -136.000; -161.000
298.081;   -4.325; -183.000;   63.000
298.219;   64.175;  -17.000;  -19.000
298.357;   52.900; -144.000;  -71.000
298.495;   40.150; -810.000; -812.000
298.634;   84.400;  245.000;  219.000
298.772;   62.450; -220.000; -338.000
298.910;  -38.525; -309.000; -182.000
299.048;   -4.775; -130.000; -153.000
299.187;  -29.775; -350.000; -250.000
299.325;   14.150;   52.000;  122.000
299.463;   67.475; -389.000; -299.000
299.601;  130.300; -327.000; -271.000
299.739;  -96.200; -908.000; -883.000
299.877;  -85.025; -791.000; -703.000
300.016;  -37.500;-1095.000; -935.000
300.154;  159.725;  -19.000; -161.000
300.292;   68.025; -428.000; -348.000
300.430;   42.625; -408.000; -291.000
300.568; -104.075; -940.000; -874.000
300.706;  -54.775; -366.000; -469.000
300.844;  -68.725;-1108.000; -979.000
300.982;  116.075;  246.000;  282.000
301.120; -117.675; -965.000; -866.000
301.258;  -62.200; -812.000; -705.000
301.396;   45.150;  104.000;  -41.000
301.534;   89.650; -218.000; -293.000
301.672;    1.425; -664.000; -521.000
301.810;   40.225; -613.000; -545.000
301.948;  123.875;   53.000;  149.000
302.086;  683.700; -250.000;  -32.000
302.224;  996.125; -610.000; -585.000
302.362;   49.950; -558.000; -622.000
302.500;  -18.400; -923.000; -893.000
302.638;  110.900;  128.000;  245.000
302.776;    4.100; -352.000; -408.000
302.913;   43.175;  447.000;  236.000
303.051;    6.900;  -86.000;  -23.000
303.189;   69.500;   90.000;  118.000
303.327;  -27.700; -341.000; -256.000
303.465;  -76.600; -832.000; -588.000
303.603;  -83.700; -805.000; -604.000
303.740;  118.275;  417.000;  241.000
303.878;   21.350; -800.000; -759.000
304.016;  -89.175; -915.000; -790.000
304.154; -129.700;-1123.000;-1152.000
304.291;  -25.000; -505.000; -554.000
304.429;   -0.625;  102.000;   74.000
304.567; -113.900; -908.000; -893.000
304.705;  -60.725; -408.000; -515.000
304.842;  108.350; -616.000; -540.000
304.980;   50.275;  215.000;   35.000
305.118;   49.950; -367.000; -365.000
305.255;  -63.650; -945.000; -927.000
305.393;   58.700;  178.000;  239.000
305.531;  -96.700;-1173.000; -956.000
305.668;  -59.050; -663.000; -582.000
305.806;  111.600; -358.000; -439.000
305.943;  119.050; -629.000; -637.000
306.081;   57.350; -378.000; -267.000
306.219;  -88.275; -863.000; -748.000
306.356;  -10.725;  158.000;   27.000
306.494;  116.275;  981.000;  761.000
306.631;  -10.100;  -11.000;  -55.000
306.769;   -1.900; -613.000; -485.000
306.906;   -8.000; -284.000; -258.000
307.044;  -69.800; -473.000; -488.000
307.181;  -61.475; -410.000; -332.000
307.319;   17.075;  112.000;   87.000
307.456; -155.300;-1191.000;-1153.000
307.594;  -90.375; -980.000; -727.000
307.731;   -2.725; -371.000; -164.000
307.868;    3.500;  -15.000;   20.000
308.006; -137.775; -961.000; -847.000
308.143;  -68.300; -618.000; -330.000
308.281;  191.100;  -37.000; -254.000
308.418;    4.300; -748.000; -640.000
308.555;  -67.350; -400.000; -250.000
308.693;  -71.325; -577.000; -573.000
308.830;  -95.100; -712.000; -657.000
308.967;   -9.475; -215.000;  -95.000
309.105;  -47.250; -507.000; -396.000
309.242;   50.200; -468.000; -367.000
309.379;  351.325; -577.000; -655.000
309.517;  -55.950; -936.000; -948.000
309.654; -108.675; -910.000; -734.000
309.791;  -75.950; -662.000; -580.000
309.928; -109.425; -977.000; -914.000
310.065;  172.625;  819.000;  697.000
310.203;   -2.225; -825.000; -850.000
310.340;   -1.700; -465.000; -321.000
310.477;  -78.500; -412.000; -516.000
310.614;  -62.825; -383.000; -473.000
310.751;  -69.650; -427.000; -518.000
310.889;  -22.225;    1.000;   11.000
311.026; -156.650;-1161.000; -939.000
311.163;  -47.850; -386.000; -380.000
311.300;  -86.400; -512.000; -479.000
311.437;  -73.500; -658.000; -619.000
311.574; -152.250;-1226.000; -985.000
311.711;  -60.750; -595.000; -433.000
311.848;  -40.600; -380.000; -388.000
311.985;   19.500;  270.000;   93.000
312.122; -117.425; -932.000; -762.000
312.259; -125.725; -941.000; -994.000
312.396;  -79.050; -508.000; -551.000
312.533;  -91.525; -812.000; -790.000
312.670; -134.175;-1070.000; -898.000
312.807;  -35.300; -352.000; -367.000
312.944;  -75.075; -513.000; -611.000
313.081;  -31.625; -150.000; -415.000
313.218; -100.475;-1111.000; -867.000
313.355;    9.600; -531.000; -449.000
313.492;    4.975; -455.000; -292.000
313.629;  124.475;  815.000;  735.000
313.766; -145.300;-1176.000;-1008.000
313.902;  -21.750; -186.000;   21.000
314.039;  -57.125; -372.000; -289.000
314.176;   18.975;  286.000;  192.000
314.313;  -75.475; -569.000; -473.000
314.450;  -68.025; -788.000; -684.000
314.587;  -56.350; -468.000; -480.000
314.723;    2.875;  -78.000;  130.000
314.860;   34.200;  318.000;  332.000
314.997;   17.275;  223.000;  142.000
315.134;  -31.375; -385.000; -368.000
315.270;  -34.250; -480.000; -496.000
315.407; -101.450;-1094.000; -967.000
315.544;  -51.875; -657.000; -538.000
315.681;  -69.100; -681.000; -565.000
315.817;   30.325; -133.000; -176.000
315.954;   14.400; -613.000; -392.000
316.091; -116.775;-1045.000;-1023.000
316.227;  -25.325;  -71.000; -179.000
316.364;   13.000;   23.000;    6.000
316.500;  -47.400; -113.000; -300.000
316.637;  -38.825; -181.000; -302.000
316.774;  -99.000; -625.000; -358.000
316.910;  -81.500; -598.000; -629.000
317.047;  -65.900; -487.000; -351.000
317.183;  -52.050; -435.000; -566.000
317.320;  -21.925; -367.000; -321.000
317.456;  -68.875; -733.000; -805.000
317.593;  -96.475; -598.000; -641.000
317.729;   -8.975;  168.000;  -67.000
317.866; -204.325;-1434.000;-1285.000
318.002;  -84.000; -708.000; -948.000
318.139; -106.550; -883.000; -867.000
318.275; -108.675;-1003.000; -738.000
318.412;  -69.175; -517.000; -336.000
318.548;  -27.425; -751.000; -720.000
318.685; -100.100; -985.000; -888.000
318.821;  -94.450; -762.000; -735.000
318.957;  -11.625;   34.000;  -23.000
319.094;   37.750;  297.000;  154.000
319.230;  -42.550; -756.000; -742.000
319.367;  148.225; -471.000; -520.000
319.503;   74.775; -538.000; -436.000
319.639;  -68.575; -877.000; -793.000
319.775;  -53.200; -750.000; -685.000
319.912;  -53.475; -424.000; -519.000
320.048;  -66.825;-1184.000;-1184.000
320.184;   71.475;   59.000;   70.000
320.321;  -59.425; -497.000; -467.000
320.457;   45.750;  475.000;  662.000
320.593;  -63.725; -375.000; -382.000
320.729; -103.675; -732.000; -734.000
320.866;  -80.500; -577.000; -635.000
321.002;  -75.250; -759.000; -809.000
321.138;  -16.075; -135.000; -211.000
321.274;   83.675; -148.000; -115.000
321.410;  -18.275; -585.000; -353.000
321.546;  -23.300;-1011.000; -911.000
321.683;   45.875;  400.000;  185.000
321.819;  -11.050;  -48.000; -117.000
321.955; -109.250; -743.000; -722.000
322.091;  -40.325; -585.000; -540.000
322.227;  -12.300; -382.000; -202.000
322.363;  -29.525; -320.000; -215.000
322.499;  -46.825; -343.000; -331.000
322.635;  176.950;  636.000;  443.000
322.771;   36.025; -139.000;   12.000
322.907;   84.025;  129.000;  327.000
323.043;  -18.800; -115.000; -206.000
323.179;  -30.800; -394.000; -363.000
323.315;   36.100; -401.000; -371.000
323.451;  113.550; -328.000; -236.000
323.587;   66.050;  -60.000;  -77.000
323.723;   20.975; -682.000; -601.000
323.859;  -10.450; -258.000;  -76.000
323.995;  -16.100; -467.000; -409.000
324.131; -114.500; -967.000; -892.000
324.267;  -39.900; -254.000; -276.000
324.402; -117.425; -960.000; -983.000
324.538;  -22.050; -279.000; -104.000
324.674;   13.350;  164.000;   77.000
324.810;  147.100;  226.000;  308.000
324.946;   18.350; -810.000; -658.000
325.082;  -78.225; -568.000; -475.000
325.217;  -30.000;  -62.000;   16.000
325.353; -101.550; -764.000; -659.000
325.489;  -94.000; -540.000; -506.000
325.625;  -72.425; -579.000; -525.000
325.760;   51.500;  517.000;  376.000
325.896;  -28.275; -515.000; -702.000
326.032;  -50.600; -403.000; -352.000
326.168;  -69.100; -462.000; -369.000
326.303;  -56.175; -352.000; -461.000
326.439;  -35.375; -336.000; -276.000
326.575;   -0.900; -190.000;  -29.000
326.710;   -1.400; -156.000;  -30.000
326.846;  -21.000;  146.000;  103.000
326.982;  -90.525; -530.000; -548.000
327.117;  -63.475; -481.000; -442.000
327.253;  -75.525; -745.000; -742.000
327.388; -118.675;-1137.000;-1153.000
327.524;  -68.625; -811.000; -578.000
327.659;  -24.700;  -58.000;  -22.000
327.795;  -24.100;   69.000;   45.000
327.931;  -98.650; -723.000; -499.000
328.066;  -27.700; -417.000; -276.000
328.202;  -12.000;   12.000; -129.000
328.337;   97.375;  957.000;  713.000
328.473;   45.125;  -12.000;  -74.000
328.608;  -18.950; -256.000; -267.000
328.743;  -83.050; -799.000; -664.000
328.879;   12.950;  214.000;  114.000
329.014;  -41.025; -102.000; -122.000
329.150;  -86.475; -358.000; -483.000
329.285;  -80.200; -465.000; -466.000
329.421;  -41.950; -548.000; -246.000
329.556;  -16.900;  -36.000;   85.000
329.691;  -91.500; -633.000; -615.000
329.827;  -81.575; -626.000; -480.000
329.962;  -46.300;  131.000; -301.000
330.097;  -90.875; -673.000; -585.000
330.233;  -49.450; -410.000; -223.000
330.368; -128.750; -839.000; -628.000
330.503;  -19.075;    3.000;   98.000
330.638;    3.275;  -93.000; -125.000
330.774;  -60.100; -609.000; -530.000
330.909;  -48.975; -434.000; -244.000
331.044;  -97.025; -714.000; -708.000
331.179; -171.450;-1217.000;-1109.000
331.315;   11.100;   77.000;   20.000
331.450;    6.775;  157.000;  285.000
331.585;  -93.775; -805.000; -706.000
331.720;  -78.525; -510.000; -460.000
331.855;  -17.050;  -35.000; -102.000
331.990;  214.625;   62.000;  138.000
332.126;  120.700; -110.000;   71.000
332.261;  -14.850; -379.000; -265.000
332.396;    3.550; -135.000; -242.000
332.531;  -93.225;-1074.000;-1031.000
332.666;   24.025; -519.000; -363.000
332.801; -112.475; -726.000; -807.000
332.936;  -20.475; -192.000; -122.000
333.071; -139.975; -870.000; -817.000
333.206;   22.000;  307.000;  379.000
333.341;   29.650;  344.000;  418.000
333.476; -103.775; -627.000; -623.000
333.611;  -28.275; -251.000; -173.000
333.746;  -50.925; -381.000; -464.000
333.881; -109.100; -973.000; -935.000
334.016; -129.475; -936.000; -917.000
334.151; -139.450; -746.000; -702.000
334.286;   26.500;  152.000;  186.000
334.421;  -17.750; -125.000; -178.000
334.556;  -69.550; -611.000; -567.000
334.690;  -77.475; -631.000; -577.000
334.825;   58.300;  381.000;   83.000
334.960;  -61.100; -285.000; -413.000
335.095;   10.800;  135.000;  -91.000
335.230;  -95.900; -722.000; -738.000
335.365; -119.650;-1084.000; -990.000
335.499; -128.725;-1108.000;-1037.000
335.634;   22.550;    9.000;  534.000
335.769; -106.275; -755.000; -720.000
335.904;  -50.975; -603.000; -561.000
336.038;  -58.400; -735.000; -657.000
336.173; -108.250;-1206.000;-1194.000
336.308;   19.225; -116.000; -189.000
336.443;   16.425; -544.000; -634.000
336.577;  -64.525; -936.000; -787.000
336.712;   50.400;   -4.000;  -12.000
336.847;  -41.325; -724.000; -607.000
336.981;   69.125; -272.000; -208.000
337.116;  304.175;  615.000;  501.000
337.250;  180.225; -434.000; -421.000
337.385;  237.725; -297.000; -208.000
337.520;   74.175; -632.000; -603.000
337.654;  -39.525; -215.000; -126.000
337.789; -137.225; -989.000; -933.000
337.923;  -31.950; -104.000; -205.000
338.058;  -95.400; -673.000; -738.000
338.192;  -28.600; -611.000; -488.000
338.327;  -12.925;  -18.000; -155.000
338.461;  -49.925; -299.000; -469.000
338.596;  -86.825; -780.000; -638.000
338.730; -100.825; -767.000; -803.000
338.865;   82.075;  -46.000; -140.000
338.999;  -49.650; -846.000; -702.000
339.134;  -29.400; -634.000; -536.000
339.268;   13.200; -741.000; -603.000
339.403;  359.500; -740.000; -775.000
339.537;  107.675; -894.000; -820.000
339.671; -109.100; -829.000; -813.000
339.806;  -53.750; -556.000; -512.000
339.940;   -1.725; -261.000; -235.000
340.074;  -88.175; -685.000; -510.000
340.209;  -43.025; -351.000; -230.000
340.343;  -85.900; -517.000; -573.000
340.477;  125.675;  998.000; 1036.000
340.612;  -56.400;-1033.000; -900.000
340.746;  123.525; -199.000; -243.000
340.880;  -62.275; -924.000; -785.000
341.014;   -8.600;  -45.000; -154.000
341.149; -111.625; -756.000; -718.000
341.283; -110.600; -839.000; -754.000
341.417;  -94.975;-1124.000; -938.000
341.551;  142.000; -768.000; -708.000
341.685;  -33.900; -633.000; -611.000
341.820;  -48.225; -562.000; -493.000
341.954;  -49.125; -218.000; -349.000
342.088; -162.700;-1102.000;-1019.000
342.222;   61.275;  565.000;  618.000
342.356;  -55.275; -395.000; -335.000
342.490;  -94.325; -880.000; -841.000
342.624;  -36.125; -339.000; -242.000
342.758;    9.350; -364.000; -312.000
342.892;  -54.325; -710.000; -585.000
343.026;  -37.675;  -58.000; -116.000
343.160;  -64.000; -426.000; -376.000
343.294;  -83.125; -474.000; -337.000
343.428;  -14.925; -488.000; -448.000
343.562;  -18.675; -172.000;  -23.000
343.696;  -30.550; -385.000; -314.000
343.830;  -23.400; -362.000; -356.000
343.964;   14.225; -231.000; -168.000
344.098;  979.700;  199.000;   70.000
344.232;  808.400; -266.000; -127.000
344.366;   97.475; -567.000; -453.000
344.500;   83.550; -665.000; -744.000
344.634;   36.550; -324.000; -164.000
344.768;   -9.225; -531.000; -341.000
344.902;   27.925;  278.000;  256.000
345.035;  -68.425; -556.000; -496.000
345.169; -130.100; -933.000; -656.000
345.303;  -19.425; -308.000; -482.000
345.437;  -68.975; -826.000; -717.000
345.571;  -76.725; -675.000; -594.000
345.704;  -72.675; -309.000; -532.000
345.838;  -13.625; -331.000; -284.000
345.972;  -25.800; -543.000; -495.000
346.106;  170.925; -179.000; -190.000
346.239;  432.200; -312.000; -243.000
346.373;   14.975; -343.000; -302.000
346.507; -135.425; -950.000; -962.000
346.640;  148.700;  -30.000;   13.000
346.774;  -18.625; -650.000; -797.000
346.908;  -20.025; -138.000;  -11.000
347.041;  -99.750; -646.000; -593.000
347.175;   -5.325;  259.000;   27.000
347.309;  -55.700; -698.000; -628.000
347.442; -100.425; -883.000; -732.000
347.576;  290.400;  670.000;  668.000
347.709;  214.675; -123.000;  -52.000
347.843;  -78.825; -933.000; -825.000
347.976;   32.300;  235.000;  294.000
348.110; -181.825;-1268.000;-1186.000
348.243; -108.575; -679.000; -772.000
348.377;   -8.900;  -26.000;   60.000
348.510;   50.550;  403.000;  540.000
348.644;  -32.500;  -37.000; -159.000
348.777;    7.075;  180.000;  191.000
348.911;  -49.925; -142.000; -112.000
349.044;  182.225;  471.000;  448.000
349.178;  165.725;-1069.000;-1006.000
349.311;  110.150;  141.000;  255.000
349.444;   -6.250; -927.000; -813.000
349.578;   -4.375; -347.000; -200.000
349.711; -100.950; -959.000; -862.000
349.845;   15.425; -661.000; -591.000
349.978; -145.350;-1224.000;-1137.000
350.111;  -87.475; -546.000; -612.000
350.244;  -82.325; -596.000; -700.000
350.378;   -0.900; -392.000; -393.000
350.511;  -71.175; -393.000; -426.000
350.644; -116.250; -808.000; -806.000
350.778;   -1.000;  168.000;  104.000
350.911;   -9.125;  134.000;  140.000
351.044;  -99.400; -685.000; -615.000
351.177;  -31.725; -321.000; -281.000
351.310;  -22.500;    3.000; -131.000
351.444;  -69.950; -888.000; -788.000
351.577;  132.275;  140.000;   90.000
351.710;  109.000;  593.000;  417.000
351.843;  -44.325; -165.000;  -77.000
351.976;    3.100;  149.000;  -79.000
352.109;  -80.200; -621.000; -612.000
352.242;  -21.750; -464.000; -419.000
352.376;  -44.475; -580.000; -636.000
352.509;  190.875; -437.000; -356.000
352.642;   25.250; -654.000; -604.000
352.775;   67.800; -141.000;  -98.000
352.908; -103.775; -933.000; -904.000
353.041; -109.850; -814.000; -824.000
353.174;  -57.200; -551.000; -424.000
353.307;  -91.575; -753.000; -764.000
353.440;   65.500;  541.000;  453.000
353.573; -106.650; -957.000;-1008.000
353.706;  -18.750; -384.000; -558.000
353.839;   -5.425; -264.000; -220.000
353.971;  -93.550; -657.000; -512.000
354.104;  -84.750; -896.000; -835.000
354.237;  -34.675; -627.000; -662.000
354.370;  -87.175; -846.000; -879.000
354.503; -171.950;-1231.000;-1308.000
354.636;  -36.025; -529.000; -348.000
354.769; -128.425; -937.000; -860.000
354.902;  -11.650; -230.000; -139.000
355.034;  -19.850; -164.000; -220.000
355.167;  -17.150; -262.000; -162.000
355.300;  -85.275;-1061.000; -880.000
355.433;  947.300;  -71.000;  -14.000
355.565; 1488.750; -402.000; -384.000
355.698;  368.750; -356.000; -296.000
355.831;    5.800; -882.000; -801.000
355.964;   93.675; -285.000; -170.000
356.096;  -91.200; -856.000; -843.000
356.229;    1.175; -523.000; -530.000
356.362;  305.550; -373.000; -266.000
356.494;  590.525; -229.000; -162.000
356.627;  513.175;  269.000;  377.000
356.760;  669.350;  120.000;   53.000
356.892;  919.900; -286.000; -601.000
357.025;  711.975;  403.000;  389.000
357.157;  651.000; -167.000; -179.000
357.290;  641.750; -856.000; -713.000
357.423;  184.950; -667.000; -556.000
357.555;  137.375; -217.000; -228.000
357.688;  146.350; -483.000; -364.000
357.820;  500.025; -870.000; -877.000
357.953; 3857.325; -563.000; -589.000
358.085;  867.550; -632.000; -612.000
358.218; 1232.175;-1131.000; -932.000
358.350;  236.425;  -58.000;  312.000
358.483; -103.950;-1300.000;-1187.000
358.615;   -5.400;-1182.000;-1078.000
358.747;  -38.600;-1187.000;-1058.000
358.880;   34.700; -810.000; -744.000
359.012;   -1.300; -376.000; -202.000
359.145;  -39.000; -480.000; -511.000
359.277;   74.525; -962.000; -913.000
359.409; 3190.400;  536.000;  231.000
359.542;  862.400; -738.000; -688.000
359.674;   76.525;   46.000;   13.000
359.806;  -69.475; -565.000; -438.000
359.939;  -46.725; -617.000; -516.000
360.071;  -19.800; -583.000; -579.000
360.203;  -21.075; -411.000; -364.000
360.335;   55.275;  164.000;  -16.000
360.468;  188.850; -249.000; -307.000
360.600; 2516.400; -547.000; -454.000
360.732; 2777.350; -546.000; -423.000
360.864;  393.650;-1216.000;-1044.000
360.996;  302.825; -516.000; -554.000
361.129;   52.650; -389.000; -598.000
361.261;   17.025;  110.000; -113.000
361.393;  -40.600; -252.000; -214.000
361.525;   30.000;   94.000;  244.000
361.657;  -30.125; -821.000; -703.000
361.789;   -0.725; -139.000; -155.000
361.921;  261.700; -642.000; -593.000
362.053;  269.175;  524.000;  541.000
362.185;   47.475;  288.000;   72.000
362.318;  -83.275; -709.000; -705.000
362.450;  133.200;  294.000;  444.000
362.582;  141.875; -913.000; -870.000
362.714;  -40.475; -353.000; -332.000
362.846;  -94.700; -606.000; -490.000
362.978; -146.275; -941.000; -811.000
363.109;   58.525; -161.000; -260.000
363.241;  470.900; -739.000; -749.000
363.373;  433.075; -649.000; -564.000
363.505;  634.375; -186.000;  -91.000
363.637;  169.450; -787.000; -601.000
363.769; -110.250;-1067.000;-1080.000
363.901;  -64.300; -596.000; -654.000
364.033; -121.600;-1103.000;-1062.000
364.165;   10.100; -283.000; -283.000
364.296;   81.975; -316.000; -177.000
364.428;   63.325;-1344.000;-1220.000
364.560;  -62.750; -679.000; -661.000
364.692;  -72.500; -738.000; -835.000
364.824;  280.000; -588.000; -456.000
364.955;  435.475; -402.000; -564.000
365.087;  883.400;-1097.000; -852.000
365.219;   29.650; -686.000; -816.000
365.351;  -65.475; -526.000; -572.000
365.482;   46.025;  300.000;  240.000
365.614;  -26.400; -402.000; -314.000
365.746;  -99.025; -729.000; -752.000
365.877;  -96.550; -706.000; -672.000
366.009;  243.375;  -35.000;  -62.000
366.141;  -85.650;-1249.000;-1134.000
366.272; -112.775; -803.000; -719.000
366.404; -109.050;-1005.000; -874.000
366.535;   -6.825; -139.000;  -12.000
366.667;  -92.525; -644.000; -649.000
366.799;   36.400;  353.000;  203.000
366.930; -110.300; -862.000; -996.000
367.062;  111.575; -639.000; -613.000
367.193;  146.925; -872.000; -842.000
367.325;  -53.300; -580.000; -684.000
367.456;   70.400; -246.000;   31.000
367.588;  167.800; -371.000; -318.000
367.719;   28.125;  -44.000;  -45.000
367.851;  -31.100; -222.000; -241.000
367.982;  -48.200; -875.000; -732.000
368.113;   99.825; -475.000; -358.000
368.245; -123.050; -960.000; -841.000
368.376;  -19.200; -254.000; -302.000
368.508;  -42.050; -188.000; -263.000
368.639; -139.275;-1166.000;-1034.000
368.770;  -17.225; -670.000; -589.000
368.902;  -58.900; -836.000; -926.000
369.033; -107.425; -906.000; -855.000
369.164;  -40.900; -720.000; -653.000
369.296; -114.025; -452.000; -601.000
369.427;    1.300; -209.000; -144.000
369.558;  -49.750; -593.000; -377.000
369.689;  -94.525; -721.000; -569.000
369.821; -133.175; -951.000; -845.000
369.952;  -24.725;   42.000; -108.000
370.083;  -47.175; -229.000; -108.000
370.214;  -77.225; -735.000; -650.000
370.345;  -11.575;   65.000;   81.000
370.477;  -72.050; -810.000; -790.000
370.608;  247.875; -328.000; -264.000
370.739;  -53.325;-1233.000;-1292.000
370.870;  -41.850;-1102.000; -923.000
371.001;  107.275; -378.000; -467.000
371.132;  -69.300; -754.000; -735.000
371.263;  -30.575;  -42.000; -148.000
371.394; -133.775; -841.000; -748.000
371.525;   23.450;  345.000;  225.000
371.657;  -89.775; -808.000; -670.000
371.788;   80.075;  103.000;  199.000
371.919;  177.600; -384.000; -304.000
372.050; 3796.500;  -91.000; -156.000
372.181; 1186.925; -188.000; -294.000
372.311;  388.350;   42.000; -127.000
372.442;   40.500; -457.000; -451.000
372.573;  -24.675; -444.000; -340.000
372.704; -111.075;-1008.000; -980.000
372.835;   96.700; -228.000; -289.000
372.966;  -57.150; -646.000; -554.000
373.097;  -48.925; -575.000; -711.000
373.228;  -23.600; -717.000; -542.000
373.359;  146.500; -824.000; -536.000
373.490; 1000.750; -881.000; -727.000
373.620; 1265.825;-1001.000; -803.000
373.751; 1869.500; -332.000; -396.000
373.882;  883.225; -663.000; -733.000
374.013;   74.875; -449.000; -262.000
374.143;  -34.450; -581.000; -659.000
374.274;  -99.850; -987.000; -908.000
374.405;  178.525; -388.000; -276.000
374.536;  486.700; -526.000; -387.000
374.666; 1226.075; -759.000; -807.000
374.797;  246.700; -817.000; -868.000
374.928;  942.350; -710.000; -560.000
375.058;  990.000; -535.000; -500.000
375.189;   83.025;  -59.000;  -93.000
375.320;  -94.300; -928.000;-1034.000
375.450;  -38.775; -625.000; -616.000
375.581;  -50.325; -526.000; -436.000
375.712;  -31.675; -574.000; -250.000
375.842;  328.825; -438.000; -415.000
375.973;  243.475; -554.000; -513.000
376.103;  -41.000; -665.000; -648.000
376.234;  -81.975; -531.000; -552.000
376.364;  -26.175; -944.000; -867.000
376.495;  337.000;  925.000;  529.000
376.625;   -1.600; -472.000; -485.000
376.756;   72.250; -709.000; -678.000
376.886;  -69.700;-1178.000;-1026.000
377.017;   44.525;-1048.000;-1061.000
377.147;  362.875; -786.000; -782.000
377.278;   60.225;  174.000;  228.000
377.408; -128.700; -801.000; -815.000
377.538; -108.100; -707.000; -693.000
377.669;  -79.525; -537.000; -613.000
377.799;  -76.725; -645.000; -635.000
377.929;  -51.775; -610.000; -428.000
378.060; -117.600; -781.000; -847.000
378.190;  -72.050; -726.000; -531.000
378.320;  -50.500; -401.000; -406.000
378.451;   -4.950; -131.000;  -22.000
378.581;  -18.400;  -67.000; -110.000
378.711;  135.150; 1035.000;  866.000
378.841;   -4.975; -533.000; -675.000
378.972;  -72.625; -871.000; -751.000
379.102;   -2.275; -652.000; -579.000
379.232;  -12.200; -126.000;  -73.000
379.362;  -98.125;-1001.000; -885.000
379.492;    8.475; -373.000; -424.000
379.623;  113.700;    0.000;  111.000
379.753;  -95.000;-1107.000; -974.000
379.883;  208.450;   59.000;  156.000
380.013;   15.125;-1081.000;-1017.000
380.143;  -97.150;-1097.000;-1056.000
380.273; -105.975; -985.000; -861.000
380.403;   -5.350; -344.000; -257.000
380.533;  -16.750; -651.000; -664.000
380.663;   70.000;  173.000;  128.000
380.793;  -66.725;-1027.000;-1074.000
380.923;   -3.400; -103.000;  -34.000
381.053;  -85.825; -613.000; -623.000
381.183;  -36.800; -106.000; -248.000
381.313;   50.550; -656.000; -470.000
381.443;   40.375; -692.000; -473.000
381.573;  210.500; -402.000; -409.000
381.703;  328.700;-1249.000;-1095.000
381.833; -109.725;-1454.000;-1336.000
381.963;  115.450; -134.000;  -87.000
382.093; 1467.375; -925.000; -909.000
382.223;  488.775; -713.000; -602.000
382.353;  -10.100; -801.000; -608.000
382.482;  397.975;-1091.000; -964.000
382.612;  829.525; -872.000; -644.000
382.742;  485.400; -695.000; -622.000
382.872;  289.975; -565.000; -551.000
383.002;   71.875;  347.000; -132.000
383.131;  -13.375; -226.000; -160.000
383.261;  -46.550; -706.000; -768.000
383.391;  294.000; -552.000; -377.000
383.521; 3110.800;  451.000;  263.000
383.650;  760.375; -947.000; -904.000
383.780;  -12.975; -783.000; -656.000
383.910;  103.925;  880.000;  802.000
384.039;   40.150; -794.000; -656.000
384.169;  247.500;-1205.000;-1017.000
384.299;   -8.175; -650.000; -662.000
384.428;  -89.350; -764.000; -680.000
384.558;  -43.325; -308.000; -275.000
384.687;  -36.600; -414.000; -334.000
384.817;   19.175;   75.000;   -2.000
384.947;   18.275; -234.000; -141.000
385.076;  295.475;  982.000;  912.000
385.206;  102.500;  369.000;  480.000
385.335;  -28.175; -549.000; -417.000
385.465;  -72.200; -655.000; -663.000
385.594;  137.475;  -53.000;  -44.000
385.724;  468.150; -868.000; -838.000
385.853;  123.975; -296.000; -270.000
385.982; 1415.125; -743.000; -787.000
386.112; 2338.700;-1052.000; -871.000
386.241;  150.825; -307.000; -312.000
386.371;   17.500; -174.000;  -87.000
386.500;   16.825; -825.000; -789.000
386.629;   47.450; -874.000; -817.000
386.759;   67.675;  -43.000;   68.000
386.888;   -0.900; -170.000; -250.000
387.017;  -75.175; -648.000; -620.000
387.147;  -73.475; -771.000; -798.000
387.276;   26.150; -410.000; -397.000
387.405;   18.750; -398.000; -342.000
387.535;  -37.875; -452.000; -361.000
387.664;  -70.350; -692.000; -620.000
387.793;   72.350; -198.000; -113.000
387.922;  560.800;  255.000;  200.000
388.052;   14.625; -576.000; -423.000
388.181;   31.675; -342.000; -472.000
388.310;   21.775; -889.000; -710.000
388.439;  -26.600; -749.000; -742.000
388.568;  187.575;  365.000;  244.000
388.697; 1131.100; -756.000; -653.000
388.826;  237.900; -768.000; -666.000
388.956;   66.625; -285.000; -307.000
389.085;  -33.250; -347.000; -287.000
389.214; -108.650; -842.000; -872.000
389.343;  -72.225; -645.000; -413.000
389.472;  378.100;  126.000;  149.000
389.601;  517.325;   91.000;    0.000
389.730;   19.550; -568.000; -687.000
389.859;   64.125;  226.000;   46.000
389.988;  189.425; -423.000; -408.000
390.117;  155.150; -168.000; -146.000
390.246;  -17.050; -331.000; -320.000
390.375;  118.250; -673.000; -626.000
390.504;  -68.975; -703.000; -621.000
390.633; -107.850; -672.000; -726.000
390.761;  -58.100; -732.000; -645.000
390.890;   25.175;   -4.000; -130.000
391.019;  -38.600; -421.000; -441.000
391.148; -131.325; -826.000; -855.000
391.277;  -75.300; -576.000; -493.000
391.406;  -64.200; -821.000; -805.000
391.534;   13.100;  574.000; -301.000
391.663;  -74.150; -583.000; -645.000
391.792;  -74.175; -673.000; -701.000
391.921;  102.250;   -3.000;   15.000
392.050;  199.425; -287.000; -228.000
392.178;  -25.150;-1206.000;-1061.000
392.307;  136.075; -758.000; -712.000
392.436;   88.775; -427.000; -641.000
392.564;   19.400;  166.000;   -6.000
392.693;  -84.825; -860.000; -682.000
392.822;  218.775; -529.000; -534.000
392.950;  102.700; -880.000; -714.000
393.079;  333.400; -188.000; -328.000
393.208;   60.875; -488.000; -511.000
393.336;  -22.750; -170.000; -145.000
393.465;  -44.950; -317.000; -199.000
393.593;    8.875;   62.000;   79.000
393.722; -152.450;-1121.000; -916.000
393.850;  -34.075; -188.000;  -61.000
393.979; -147.725; -926.000; -805.000
394.107;  -70.650; -517.000; -537.000
394.236;  -14.300; -570.000; -507.000
394.364;  214.050;  383.000;  206.000
394.493;  390.450; -911.000; -767.000
394.621;    8.550; -955.000; -916.000
394.750;  676.500; -873.000; -923.000
394.878; 2865.200; -247.000; -149.000
395.007; 3998.625; -721.000; -807.000
395.135;  315.150; -790.000; -721.000
395.263;  -88.000;-1038.000;-1040.000
395.392;   -0.675;  -25.000; -107.000
395.520; -141.050; -818.000; -679.000
395.648;  -82.825; -865.000; -915.000
395.777;  -10.150; -366.000; -405.000
395.905;  -42.100; -449.000; -564.000
396.033;   16.900;  217.000;  172.000
396.162;  614.625; -399.000; -453.000
396.290;  569.750;  -17.000;   -2.000
396.418;  113.075; -555.000; -514.000
396.546;  -73.700; -571.000; -466.000
396.674;  -96.000; -850.000; -878.000
396.803;   10.550;  -72.000;  -23.000
396.931;  105.175; -179.000; -199.000
397.059;   71.575;-1026.000; -989.000
397.187;  -95.750;-1026.000; -975.000
397.315; -136.600; -884.000; -649.000
397.443; -101.025; -592.000; -443.000
397.572;  -82.950; -578.000; -424.000
397.700;    1.875; -607.000; -614.000
397.828;   26.625;  120.000;  -90.000
397.956;  -48.575; -508.000; -478.000
398.084;  -58.550; -767.000; -626.000
398.212;   24.525;  137.000;  124.000
398.340;   12.900;  -56.000;  159.000
398.468;   33.800; -390.000; -169.000
398.596; -150.925; -993.000; -953.000
398.724; -110.925; -762.000; -767.000
398.852; -158.175;-1024.000; -976.000
398.980;  -62.300; -560.000; -560.000
399.108;  -62.300; -982.000; -735.000
399.236;   34.050;   13.000;    8.000
399.363;    1.125;  222.000;  196.000
399.491;  -77.675; -404.000; -398.000
399.619; -130.725; -829.000; -800.000
399.747; -100.600; -859.000; -771.000
399.875;   59.625;  220.000;  234.000
400.003;  -45.825; -359.000; -284.000
400.130;  -89.275; -421.000; -341.000
400.258;  -44.925;  -83.000;   38.000
400.386;  -74.250; -352.000; -168.000
400.514;  -36.350; -526.000; -587.000
400.641;  -79.600; -928.000; -802.000
400.769; -139.850; -979.000; -888.000
400.897; -103.875; -838.000; -793.000
401.025;  -23.725; -166.000; -152.000
401.152;   -6.375;  220.000;   38.000
401.280;  -99.175; -430.000; -429.000
401.408; -126.000; -712.000; -576.000
401.535; -112.100; -735.000; -758.000
401.663; -192.575;-1134.000;-1054.000
401.790;  -85.400; -514.000; -525.000
401.918;   34.675;  436.000;  405.000
402.046;  -18.150;  134.000;  122.000
402.173;  -41.125;  -18.000;    7.000
402.301;  -75.900; -519.000; -397.000
402.428;   15.975;  528.000;  383.000
402.556; -133.800;-1188.000; -913.000
402.683;  -37.400;  -20.000;   -1.000
402.811;  -24.175;  -37.000; -206.000
402.938;   -6.525;   20.000;   27.000
403.066;  201.625; -574.000; -558.000
403.193;  377.525;  299.000;  239.000
403.321;  277.750; -396.000; -574.000
403.448;  361.025;   83.000;   27.000
403.575;  167.375;  -90.000;  -46.000
403.703;  -83.225; -732.000; -557.000
403.830;  -71.800; -531.000; -496.000
403.957; -145.525;-1117.000;-1023.000
404.085;    7.175;  -61.000; -172.000
404.212;  108.175;  -50.000;   63.000
404.339;  265.600; -566.000; -306.000
404.467; 5616.300; -612.000; -524.000
404.594; 3902.125; -287.000; -227.000
404.721;  950.825; -869.000; -764.000
404.848;   91.750; -113.000; -202.000
404.976;  -98.925; -856.000; -783.000
405.103;  -13.950;  -14.000;  -82.000
405.230;  -11.125;  190.000;  226.000
405.357;   19.100;  117.000;   44.000
405.484;  239.050;  -49.000;    5.000
405.612;   47.375; -548.000; -563.000
405.739;  -63.975; -488.000; -243.000
405.866;   80.550;  669.000;  385.000
405.993;  -36.350; -398.000; -102.000
406.120; -127.250; -801.000; -887.000
406.247;  -66.200; -323.000; -342.000
406.374;  458.125;  540.000;  629.000
406.501;  125.425; -632.000; -702.000
406.628;  -69.550; -621.000; -589.000
406.755;  -94.650; -803.000; -620.000
406.882;  -45.375; -228.000; -277.000
407.009; -101.225; -719.000; -628.000
407.136;   35.350; -480.000; -401.000
407.263;  162.875; -939.000; -829.000
407.390;  -84.375; -692.000; -614.000
407.517; -167.325;-1139.000;-1187.000
407.644;  -44.625; -332.000; -256.000
407.771; -127.000; -249.000; -287.000
407.898;    0.000;  168.000;  328.000
408.025;  -74.175; -421.000; -313.000
408.151;    0.950;   82.000;  153.000
408.278;  -73.700; -267.000; -216.000
408.405; -108.825; -931.000; -899.000
408.532;  -60.925; -549.000; -542.000
408.659; -120.025; -677.000; -648.000
408.785; -198.175;-1298.000;-1170.000
408.912;  -65.250; -412.000; -296.000
409.039; -107.350; -610.000; -686.000
409.166; -102.650; -591.000; -555.000
409.292; -108.925; -571.000; -534.000
409.419; -131.675; -665.000; -649.000
409.546;  -97.925; -431.000; -192.000
409.672; -108.675; -713.000; -545.000
409.799;  -30.825;  -36.000;   34.000
409.926;  -37.975; -180.000; -179.000
410.052; -185.050;-1127.000;-1091.000
410.179;  -68.125; -368.000; -392.000
410.305;  -85.825; -375.000; -493.000
410.432;  -50.925; -220.000; -333.000
410.558; -102.725; -305.000; -380.000
410.685; -109.900; -688.000; -431.000
410.812;  -86.950; -409.000; -588.000
410.938; -140.675; -964.000; -808.000
411.065; -106.700; -671.000; -645.000
411.191;  -27.075; -189.000; -174.000
411.317; -113.575; -823.000; -742.000
411.444;  -79.600; -317.000; -246.000
411.570;  -70.650; -339.000; -294.000
411.697; -117.250; -758.000; -752.000
411.823; -171.075; -989.000; -999.000
411.949;  -34.000;  -56.000;   17.000
412.076; -103.775; -539.000; -519.000
412.202; -116.050; -758.000; -757.000
412.329; -129.825; -798.000; -752.000
412.455; -117.875; -821.000; -657.000
412.581;  -21.300;  -15.000;  172.000
412.707;  -63.675; -540.000; -457.000
412.834;   11.225;  156.000;  219.000
412.960;  -71.425; -785.000; -784.000
413.086; -103.350; -743.000; -701.000
413.212;  148.550;  604.000;  578.000
413.339;  -59.550; -685.000; -701.000
413.465;    1.650; -364.000; -310.000
413.591;  -95.975; -757.000; -474.000
413.717;  -56.425; -358.000; -366.000
413.843; -136.500; -839.000; -861.000
413.969;  -62.150;  -47.000; -292.000
414.096; -100.100; -679.000; -679.000
414.222;  -25.375;  -33.000;   85.000
414.348;  -28.275; -652.000; -385.000
414.474;  107.700;   38.000;  -52.000
414.600;  -18.175; -126.000; -144.000
414.726;  -20.925;  -96.000;  -55.000
414.852;  -61.475; -365.000; -342.000
414.978;   15.100;  104.000;  -18.000
415.104;   36.225;   38.000;   80.000
415.230;   23.025; -329.000; -330.000
415.356;   31.850; -409.000; -514.000
415.482;  200.825;   13.000;  -35.000
415.608;  277.550; -247.000; -323.000
415.734;  946.000;   67.000;   38.000
415.860;19496.675; -875.000; -767.000
415.986;15138.000; -685.000; -607.000
416.111; 1317.025; -798.000; -652.000
416.237;  265.775; -424.000; -571.000
416.363; 1062.575; -765.000; -733.000
416.489; 4183.100; -324.000; -251.000
416.615;  468.250; -707.000; -742.000
416.741;  -28.050; -677.000; -784.000
416.866; -101.325; -673.000; -736.000
416.992; -131.350; -801.000; -818.000
417.118;  -19.025;  -41.000;  -80.000
417.244;  -63.775; -798.000; -531.000
417.369;  -75.350; -801.000; -612.000
417.495;  -10.025; -325.000; -254.000
417.621;  -83.075;-1015.000; -803.000
417.746;    1.550; -579.000; -572.000
417.872;   35.750; -254.000; -144.000
417.998;   56.825; -515.000; -530.000
418.123;  974.300;-1073.000; -845.000
418.249; 5382.425; -512.000; -601.000
418.374;  802.825; -916.000; -824.000
418.500;  114.725; -383.000; -482.000
418.626;  105.650;   70.000;  -59.000
418.751;  125.275; -549.000; -448.000
418.877;  200.725; -637.000; -643.000
419.002; 1668.325; -688.000; -560.000
419.128;12461.425; -930.000; -721.000
419.253; 3267.900; -967.000; -837.000
419.379;  422.425; -391.000; -338.000
419.504;  390.250;  325.000;  415.000
419.629;  508.175; -393.000; -212.000
419.755; 3297.675; -317.000; -254.000
419.880;20671.825;  -98.000;   67.000
420.006;11241.725; -280.000; -221.000
420.131;29637.350; -662.000; -775.000
420.256; 4593.075; -315.000; -316.000
420.382;  591.750; -665.000; -687.000
420.507;   70.075; -649.000; -778.000
420.632;  155.975; -337.000; -339.000
420.758;  279.175; -251.000; -425.000
420.883;  -72.550; -876.000; -672.000
421.008; -102.800; -775.000; -619.000
421.133;  -99.100; -509.000; -467.000
421.259;  -61.250; -325.000; -259.000
421.384; -107.075; -834.000; -693.000
421.509;  -46.075;-1052.000; -862.000
421.634; 1211.200; -936.000; -820.000
421.759;  582.900; -359.000; -327.000
421.885;  -50.000; -717.000; -656.000
422.010;  -93.200; -673.000; -542.000
422.135; -133.400; -695.000; -727.000
422.260;   32.750;  340.000;  280.000
422.385;  -36.675;   12.000;  -98.000
422.510;   13.775;  151.000;  -26.000
422.635;    3.775;  -87.000;  -43.000
422.760;  109.175; -766.000; -791.000
422.885;   75.475;  -57.000;  -80.000
423.010;  -30.625; -112.000; -169.000
423.135;  -99.875; -481.000; -561.000
423.260;  -16.850; -150.000; -245.000
423.385;   59.750;  476.000;  222.000
423.510;   20.850;   71.000;  -22.000
423.635;  100.475;  133.000;   45.000
423.760;   37.300;  383.000;  328.000
423.885;   44.625;  336.000;  391.000
424.010;   19.075;  -68.000;  -13.000
424.135;  -19.325;    5.000;  -33.000
424.259;  -90.750; -654.000; -457.000
424.384;  -63.350; -279.000; -272.000
424.509;  -37.150; -260.000; -186.000
424.634; -108.975; -761.000; -623.000
424.759;   -6.425; -688.000; -544.000
424.883;  -21.350; -506.000; -527.000
425.008;  162.225; -502.000; -410.000
425.133; 1962.775; -679.000; -653.000
425.258;  972.600; -517.000; -381.000
425.382; 1029.875; -867.000; -774.000
425.507; 2792.625; -487.000; -543.000
425.632;  473.400; -802.000; -663.000
425.756;  431.725; -256.000; -146.000
425.881; 6040.850; -831.000; -857.000
426.006;17444.500; -604.000; -355.000
426.130; 2943.725; -696.000; -508.000
426.255;  393.800; -611.000; -491.000
426.379;  154.275; -189.000; -577.000
426.504;  363.775;  660.000;  544.000
426.629; 3930.175; -519.000; -466.000
426.753; 2923.075;   64.000;  -46.000
426.878;  345.575; -252.000; -288.000
427.002;  196.600; -651.000; -668.000
427.127; 1500.975;  -35.000; -158.000
427.251;11188.600;  372.000;  401.000
427.375; 3460.025; -191.000; -173.000
427.500; 2401.850; -616.000; -610.000
427.624;  875.200; -234.000; -400.000
427.749;  109.675; -216.000; -225.000
427.873;  -28.850; -499.000; -412.000
427.997;  -39.125; -222.000; -230.000
428.122;   86.000;  795.000;  703.000
428.246;   71.175;  433.000;  434.000
428.371; -125.800; -869.000; -773.000
428.495;  -99.275; -624.000; -646.000
428.619;  -39.025; -186.000; -117.000
428.743;   16.125;   65.000;  132.000
428.868;    9.950; -732.000; -643.000
428.992; 1455.275; -219.000; -326.000
429.116;  609.675; -329.000; -357.000
429.240;  298.375;  419.000;  426.000
429.365;  -17.425; -454.000; -574.000
429.489;  -35.875; -638.000; -647.000
429.613;   19.350; -236.000; -177.000
429.737;   26.050; -563.000; -432.000
429.861;  275.100; -247.000; -133.000
429.985; 5377.950; -425.000; -305.000
430.109; 6296.875; -770.000; -908.000
430.234;  758.900;   76.000;  -50.000
430.358;   90.900; -250.000; -160.000
430.482;  -71.225; -672.000; -564.000
430.606;  -62.800; -655.000; -375.000
430.730;    4.350; -437.000; -388.000
430.854;  170.775; -909.000; -835.000
430.978;  -65.150; -795.000; -764.000
431.102; -103.425; -499.000; -422.000
431.226; -117.750; -874.000; -815.000
431.350;   30.950;  345.000;  422.000
431.474;  -84.700; -661.000; -373.000
431.597; -154.625;-1060.000; -848.000
431.721;  -84.975; -276.000; -267.000
431.845; -132.500; -704.000; -472.000
431.969;  -84.200; -304.000; -349.000
432.093;  -89.050; -395.000; -317.000
432.217;   -7.875;   32.000;   82.000
432.341;  -78.975; -523.000; -518.000
432.464;   -1.400;   96.000;   40.000
432.588;  219.325; -401.000; -329.000
432.712;   94.125;  -52.000;  -52.000
432.836;   41.625;  213.000;  263.000
432.959;  -15.775; -372.000; -311.000
433.083;   61.650;   11.000;    2.000
433.207;  361.275;  285.000;  930.000
433.330; 4792.500; -391.000; -200.000
433.454; 6355.975; -654.000; -638.000
433.578; 3603.900;  583.000;  278.000
433.701;  706.775; -623.000; -675.000
433.825;  158.975; -292.000; -299.000
433.949;  181.500;   28.000;  -72.000
434.072;   77.350; -410.000; -323.000
434.196;   -9.200; -309.000; -117.000
434.319; 3614.325;25482.000;25124.000
434.443;  710.600; -656.000; -603.000
434.566; 2673.450;  281.000;   62.000
434.690;  505.250; -637.000; -383.000
434.813;   60.075; -251.000; -173.000
434.937;  -76.600; -569.000; -696.000
435.060;  -48.475; -423.000; -332.000
435.184;  330.725; -492.000; -217.000
435.307;  184.650;  159.000;  102.000
435.431;  -10.175;  -40.000;   24.000
435.554;  -76.975; -399.000; -240.000
435.677;  -89.075; -350.000; -258.000
435.801;  -55.675;  -25.000;   49.000
435.924;  -20.875;    1.000;  -67.000
436.048; -107.675;-1019.000; -732.000
436.171;  -74.600; -240.000;  -66.000
436.294;  -33.925; -248.000; -229.000
436.417;   83.850; -963.000; -849.000
436.541;  -86.250; -814.000; -840.000
436.664;  -48.775; -242.000; -316.000
436.787;  -31.925;   13.000;  113.000
436.910; -120.700; -792.000; -422.000
437.034;    9.725;  142.000;  143.000
437.157;   56.375;  -11.000;    0.000
437.280;  -44.500; -392.000; -292.000
437.403;  -98.650; -982.000; -869.000
437.526;  630.375; -903.000; -865.000
437.649; 2462.025; -505.000; -332.000
437.772;  405.075; -692.000; -540.000
437.896;  130.975;  700.000;  544.000
438.019;  -97.050; -758.000; -503.000
438.142;  -93.925; -596.000; -506.000
438.265;  -21.300; -639.000; -670.000
438.388;  599.250; -520.000; -410.000
438.511;  135.550; -597.000; -394.000
438.634;  -44.025; -247.000; -125.000
438.757; -147.350; -693.000; -619.000
438.880;  -18.000;  -34.000;  -57.000
439.003;  -93.600; -417.000; -437.000
439.126;  -66.250; -287.000; -167.000
439.248;  -73.700;  -98.000; -139.000
439.371;  -49.475;    9.000;  -53.000
439.494;   13.525;  510.000;  439.000
439.617;  -53.775;   65.000;  -88.000
439.740; -175.100; -968.000; -816.000
439.863; -148.275; -755.000; -595.000
439.986; -133.900; -476.000; -431.000
440.108;  -52.250; -161.000; -112.000
440.231; -163.050; -950.000; -836.000
440.354;  -41.100;  -64.000; -150.000
440.477;   50.075; -566.000; -542.000
440.599;   20.175; -200.000; -225.000
440.722; -121.075; -709.000; -586.000
440.845;   53.325;  751.000;  928.000
440.968; -111.275; -415.000; -311.000
441.090;  -65.125; -199.000;  -33.000
441.213; -157.175;-1021.000; -825.000
441.336;  -63.700; -159.000;   -5.000
441.458;  -88.450; -549.000; -396.000
441.581;  -82.875; -628.000; -629.000
441.703;  -82.075; -152.000;   13.000
441.826; -119.325; -557.000; -400.000
441.948;  -69.300;   56.000;   51.000
442.071;   23.350;  555.000;  424.000
442.193; -124.275; -531.000; -485.000
442.316;   12.800;  152.000;   97.000
442.438;   24.425; -233.000;  -10.000
442.561;   79.725;  272.000;  262.000
442.683;  563.275; -809.000; -522.000
442.806; 1241.225;   -8.000;   74.000
442.928;   48.925; -859.000; -604.000
443.051;  -63.675; -577.000; -373.000
443.173;  -86.625; -341.000; -339.000
443.295;  -74.650; -263.000; -371.000
443.418;  -71.475; -321.000;  -29.000
443.540;  -25.375; -106.000;   -4.000
443.662; -112.700; -563.000; -465.000
443.785;  -32.425;  335.000;  199.000
443.907; -100.350; -362.000; -208.000
444.029; -124.250; -767.000; -494.000
444.152; -143.725; -644.000; -554.000
444.274;  -29.475;  -18.000;  -24.000
444.396; -117.025; -461.000; -221.000
444.518; -131.700; -691.000; -454.000
444.640; -105.825; -268.000; -111.000
444.763;  -23.700;  388.000;  249.000
444.885; -117.150; -432.000; -392.000
445.007;  -34.325;   35.000;   86.000
445.129; -122.625; -610.000; -515.000
445.251;  -93.325; -372.000; -439.000
445.373; -144.875; -537.000; -386.000
445.495;   -4.975;  242.000;  350.000
445.617;   45.200;  853.000;  753.000
445.739;  -80.675; -215.000;  -97.000
445.861;  -43.400; -245.000; -112.000
445.984;  -31.850; -267.000; -101.000
446.105;  195.800; -418.000; -251.000
446.227;  663.275; -176.000;  -19.000
446.349;   24.650; -358.000; -249.000
446.471; -101.825; -615.000; -448.000
446.593;  -62.425; -316.000;   19.000
446.715;    3.875;  -67.000;   41.000
446.837;   66.000;  697.000;  832.000
446.959;  -99.250; -457.000; -478.000
447.081; -141.025; -628.000; -518.000
447.203;   53.700;  862.000;  834.000
447.325;  -84.600; -270.000;   42.000
447.446;  -15.450;  286.000;  530.000
447.568; -153.700; -921.000; -803.000
447.690;  -74.775; -236.000; -245.000
447.812; -153.375; -798.000; -519.000
447.933;  -17.100;  155.000;  127.000
448.055;  -64.700; -306.000; -261.000
448.177;  140.925;   31.000;   79.000
448.299;  100.975; -935.000; -727.000
448.420;   33.575;  -25.000;  159.000
448.542;  -50.575;   -3.000;   33.000
448.664;  -31.025;  109.000;  322.000
448.785;  -41.925;  265.000;   83.000
448.907;  -90.300; -614.000; -353.000
449.028;  -37.050; -771.000; -471.000
449.150;   66.400;  492.000;  589.000
449.272; -179.700;-1044.000; -913.000
449.393;   12.550;  612.000;  694.000
449.515; -140.925; -634.000; -581.000
449.636;  -72.800; -264.000; -155.000
449.758;   64.050;  763.000;  622.000
449.879;  -81.475; -498.000; -396.000
450.001;  -80.950; -149.000;  -49.000
450.122;  -41.000;  -95.000;  162.000
450.244;  -29.350;   37.000;  364.000
450.365; -106.400; -495.000; -301.000
450.486;  -38.725;   80.000;  268.000
450.608;   23.875;  393.000;  326.000
450.729;   65.775;  578.000;  645.000
450.850;   -2.825; -574.000; -466.000
450.972;  707.525; -552.000; -389.000
451.093; 4740.050;  190.000;  588.000
451.214; 2223.800; -516.000; -337.000
451.336;  408.275;  773.000;  579.000
451.457;   51.950;  264.000;  393.000
451.578;  -45.550; -118.000;  -74.000
451.699; -128.075; -546.000; -540.000
451.821;  -65.650; -284.000;  -50.000
451.942;   -8.000;  278.000;  285.000
452.063;   18.925;  228.000;  419.000
452.184;  518.575;  -54.000;  -49.000
452.305; 1104.075;  103.000;  170.000
452.427;  150.050; -549.000; -301.000
452.548;  -26.125;   23.000;   79.000
452.669;  -50.050; -257.000;  -89.000
452.790;  -64.825;    3.000;  -18.000
452.911;  -14.425;  195.000;  259.000
453.032;  -67.175; -289.000;  -60.000
453.153;  -39.275;  -29.000;   81.000
453.274;   68.950;  737.000;  868.000
453.395;  -50.775;  -51.000;  175.000
453.516;  116.275; 1317.000; 1388.000
453.637;  -63.750; -205.000; -150.000
453.758;  -59.500;   15.000;   69.000
453.879; -124.475; -462.000; -250.000
454.000;   70.475; 1086.000;  948.000
454.121; -121.300; -554.000; -326.000
454.242; -112.875; -599.000; -383.000
454.362;  -60.750;  -99.000;  114.000
454.483;  -39.375; -309.000; -229.000
454.604;   65.050;  512.000;  580.000
454.725; -129.625; -627.000; -555.000
454.846; -129.325; -474.000; -406.000
454.967;  -28.500;  230.000;  539.000
455.087;  -56.275;  179.000;  153.000
455.208;    5.125;  554.000;  856.000
455.329;  -60.925;  -22.000;   82.000
455.450;   24.500;  473.000;  633.000
455.570;  -91.350; -234.000; -211.000
455.691;  -45.950;  201.000;  407.000
455.812; -102.500; -270.000;  -92.000
455.932;  -64.650;  107.000;  -97.000
456.053;  -77.800;   36.000;   24.000
456.173; -101.075; -433.000; -355.000
456.294; -133.800; -476.000; -303.000
456.415;  -70.750;  -73.000;   70.000
456.535;  -51.650;  297.000;  273.000
456.656;  -53.700;  132.000;  240.000
456.776;  -68.650;    3.000;  298.000
456.897;  -20.875;  308.000;  513.000
457.017;  -75.375; -153.000;   -3.000
457.138; -113.350; -402.000; -249.000
457.258;  -35.725;  263.000;  224.000
457.379;  -13.400;  509.000;  521.000
457.499;  -28.450;  443.000;  432.000
457.620; -111.175; -407.000; -231.000
457.740; -112.150; -132.000;  -11.000
457.860;  -71.825;   87.000;   44.000
457.981;  -40.275;  132.000;  124.000
458.101;  -75.500;  -89.000;   40.000
458.221;  -27.425;  336.000;  402.000
458.342;  -62.700;   -4.000;  -37.000
458.462;    9.950;  617.000;  352.000
458.582;  -38.175; -302.000; -294.000
458.703;   -5.150;  303.000;  154.000
458.823;  -34.050;   22.000;  163.000
458.943;   30.150;  341.000;  467.000
459.063;  -26.525; 1124.000;  192.000
459.183;  -29.225;  328.000;  313.000
459.304;    1.525;  315.000;  517.000
459.424;  -64.700; -246.000;  -89.000
459.544;  305.200;  388.000;  764.000
459.664;  826.775;  499.000;  506.000
459.784;  328.325; 1004.000; 1175.000
459.904;   54.900;  867.000;  744.000
460.024;   56.050;  867.000;  684.000
460.144;   10.750;  449.000;  554.000
460.264;  -12.525;  515.000;  327.000
460.385; -105.950; -145.000; -119.000
460.505;   29.700;  905.000;  858.000
460.625;  -99.600;  -17.000;  -68.000
460.745;  -19.425;  396.000;  541.000
460.864;  -48.250;  153.000;  469.000
460.984;   -4.250;  499.000;  573.000
461.104;  112.600; 1656.000; 1775.000
461.224;   13.275;  657.000;  650.000
461.344;  -35.100;  431.000;  360.000
461.464;  -44.025;  258.000;  513.000
461.584;  -10.475;  283.000;  466.000
461.704;  -47.650;   58.000;  108.000
461.824;  -67.975;  238.000;  259.000
461.943;  -53.400;  191.000;  130.000
462.063;  -76.275;    2.000;  324.000
462.183;   28.250;  639.000;  717.000
462.303;   99.850; 1678.000; 1230.000
462.422;   25.600;  781.000;  840.000
462.542;  -42.100;  271.000;  391.000
462.662;   52.000;  353.000;  380.000
462.782;  228.875;  833.000;  572.000
462.901;  481.450;  545.000;  717.000
463.021;  278.650; 1702.000; 1638.000
463.141;   -5.025;  337.000;  770.000
463.260;  -19.825;  614.000;  474.000
463.380;    9.700;  902.000;  884.000
463.499;  -37.500;  342.000;  332.000
463.619;  -22.175;  581.000;  559.000
463.738;  111.675; 1644.000;  903.000
463.858;    0.850;  657.000;  811.000
463.978;  -30.850;  542.000;  396.000
464.097;   50.350;  921.000; 1114.000
464.217;  117.800; 1196.000; 1143.000
464.336;  110.075; 1068.000; 1130.000
464.455;  -28.350;  328.000;  659.000
464.575;   33.800;  597.000;  602.000
464.694;  165.975; 1204.000; 1179.000
464.814;  131.550; 1190.000; 1138.000
464.933;   56.700; 1095.000; 1027.000
465.052;   85.550; 1412.000; 1054.000
465.172;   67.250;  922.000;  799.000
465.291;  137.025; 1376.000; 1320.000
465.410;    6.825;  462.000;  735.000
465.530;   95.575; 1355.000; 1310.000
465.649;   75.700; 1209.000; 1273.000
465.768;  140.025; 1673.000; 1508.000
465.888;   46.025;  941.000; 1174.000
466.007;   77.675; 1335.000; 1440.000
466.126;   -8.025;  721.000;  641.000
466.245;   31.625; 1176.000; 1187.000
466.364;   11.625;  950.000; 1060.000
466.484;   60.225; 1024.000; 1213.000
466.603;   30.075; 1101.000; 1222.000
466.722;  109.000; 1490.000; 1769.000
466.841;   90.450; 1151.000; 1401.000
466.960;   42.700; 1069.000;  972.000
467.079;  128.500; 1971.000; 1786.000
467.198;   59.475; 1238.000; 1181.000
467.317;   83.450; 1768.000; 1162.000
467.436;   78.775; 1709.000; 1261.000
467.555;  131.050; 1796.000; 1746.000
467.674;   49.850; 1227.000; 1329.000
467.793;   45.400; 1376.000; 1374.000
467.912;   83.900; 1658.000; 1539.000
468.031;  136.825; 2038.000; 1930.000
468.150;  136.400; 1842.000; 1837.000
468.269;  191.775; 2313.000; 2090.000
468.388;  183.075; 2168.000; 2339.000
468.507;  249.400; 2884.000; 2903.000
468.626;  242.000; 2555.000; 2541.000
468.744;  139.750; 2018.000; 2174.000
468.863;  191.675; 2312.000; 2523.000
468.982;  104.700; 1503.000; 1555.000
469.101;  231.925; 2788.000; 2692.000
469.220;  148.950; 2333.000; 2176.000
469.338;  246.850; 2935.000; 3051.000
469.457;  194.375; 2719.000; 2545.000
469.576;  349.350; 3953.000; 3784.000
469.695;  246.050; 2877.000; 3066.000
469.813;  437.100; 4148.000; 4192.000
469.932;  399.500; 4255.000; 4485.000
470.051;  404.450; 4075.000; 4161.000
470.169;  816.325; 4470.000; 4338.000
470.288; 1458.825; 4700.000; 4809.000
470.406;  898.425; 5059.000; 5194.000
470.525;  627.125; 6101.000; 5787.000
470.644;  642.825; 6847.000; 6794.000
470.762;  836.625; 8397.000; 7873.000
470.881;  904.425; 8651.000; 8464.000
470.999; 1035.875; 9685.000; 9151.000
471.118; 1105.750;11174.000;10711.000

