
Integration time [ms]: 200.000
Averaging Nr. [scans]: 10
Smoothing Nr. [pixels]: 0
Data measured with spectrometer [name]: 2101012U2
Wave   ;Sample   ;Dark     ;Reference
[nm]   ;[counts] ;[counts] ;[counts] 

197.733;  135.500;  516.000;  404.000
197.879; -172.000; -610.000; -634.000
198.025; -112.800; -475.000; -420.000
198.171; -142.100; -602.000; -612.000
198.317;  -54.100; -401.000; -316.000
198.463; -104.700; -655.000; -404.000
198.609;   80.200;  181.000; -137.000
198.755; -180.600; -644.000; -410.000
198.901; -112.200; -505.000; -424.000
199.047; -154.300; -615.000; -488.000
199.193;  -51.900; -230.000; -468.000
199.339;  -93.300; -222.000; -369.000
199.485;   99.200;  330.000;  271.000
199.631;   41.800;  227.000;  310.000
199.777;  -97.400; -466.000; -398.000
199.923; -134.100; -610.000; -424.000
200.069;  -22.100; -141.000;  -58.000
200.215;   94.600;  128.000;  453.000
200.361;  104.500;  243.000;  477.000
200.507; -117.500; -600.000; -373.000
200.653;  -47.400; -371.000; -194.000
200.798;  -92.800; -215.000; -125.000
200.944;    7.400; -146.000;  -41.000
201.090;   86.000;   61.000;  222.000
201.236;   -5.100; -116.000; -158.000
201.382;  278.100;  874.000;  903.000
201.528;  -10.700;  -58.000;  -48.000
201.674; -126.600; -386.000; -293.000
201.819; -112.300; -540.000; -439.000
201.965; -182.600; -699.000; -447.000
202.111;  -54.300; -273.000; -226.000
202.257;  -63.400; -250.000; -238.000
202.402;   50.100;   13.000;  -36.000
202.548;  -50.800; -169.000; -116.000
202.694;  214.500;  410.000; -183.000
202.840; -178.400; -603.000; -531.000
202.985; -108.500; -681.000; -639.000
203.131; -223.000; -832.000; -666.000
203.277;  -38.300; -199.000; -262.000
203.423; -103.500; -434.000; -520.000
203.568;  -29.800; -462.000; -237.000
203.714; -120.300; -535.000; -542.000
203.860; -157.200; -682.000; -641.000
204.005;   57.800;  112.000;  167.000
204.151;  190.100;  561.000;  556.000
204.296;  -68.100; -354.000; -221.000
204.442; -151.300; -600.000; -547.000
204.588; -144.600; -592.000; -579.000
204.733;   62.900;  178.000;  168.000
204.879; -263.800;-1018.000; -822.000
205.025;   43.200;  -99.000;  126.000
205.170;   31.000;  -17.000;   94.000
205.316;  184.300;  438.000;  661.000
205.461; -169.200; -698.000; -554.000
205.607;  203.300;  609.000;  665.000
205.752; -160.800; -626.000; -551.000
205.898;  -86.900; -501.000; -391.000
206.043; -129.800; -578.000; -506.000
206.189;  -63.700; -243.000; -285.000
206.334;  185.600;  554.000;  606.000
206.480;  124.300;  409.000;  239.000
206.625; -196.900; -529.000; -552.000
206.771;  -70.200; -451.000; -373.000
206.916;  -61.500; -210.000; -537.000
207.062; -149.100; -545.000; -591.000
207.207; -122.700; -546.000; -443.000
207.353;  134.600;  185.000;  460.000
207.498;   25.200;  196.000;   85.000
207.643;  -74.500; -501.000; -370.000
207.789; -251.400;-1069.000; -910.000
207.934; -187.800; -665.000; -713.000
208.080;  -28.400; -154.000;   66.000
208.225;    6.800;  -22.000;  -57.000
208.370; -165.000; -727.000; -619.000
208.516; -136.500; -741.000; -487.000
208.661;  -75.300; -127.000;  -69.000
208.806;  -23.100; -165.000; -171.000
208.952; -260.000;-1044.000; -731.000
209.097;  167.300;  378.000;  349.000
209.242;  -75.200; -307.000; -382.000
209.387;  143.300;  392.000;  350.000
209.533; -105.800; -321.000; -350.000
209.678;  204.500;  472.000;  543.000
209.823;  -79.300; -408.000; -310.000
209.969; -235.200; -860.000; -757.000
210.114; -237.900; -907.000; -719.000
210.259; -226.400; -939.000; -889.000
210.404;  -32.600; -171.000;  103.000
210.549;   29.500;  108.000;    3.000
210.695;  -14.400;   -3.000;  -95.000
210.840;  105.000;   94.000;   67.000
210.985; -157.500; -484.000; -303.000
211.130;  160.800;  268.000;  406.000
211.275;   56.000;  207.000;  199.000
211.420;  -92.600; -300.000; -289.000
211.566; -144.100; -536.000; -489.000
211.711;   44.500;  218.000;  157.000
211.856; -139.600; -545.000; -519.000
212.001;   35.900;  151.000;   44.000
212.146;   17.800;  153.000;   49.000
212.291;  -45.000; -210.000; -186.000
212.436;  -67.400; -280.000;   -6.000
212.581; -171.300; -685.000; -653.000
212.726; -154.400; -487.000; -538.000
212.871; -100.300; -552.000; -217.000
213.016; -294.900;-1172.000;-1029.000
213.161;  157.600;  406.000;  291.000
213.306; -148.300; -435.000; -577.000
213.451; -198.100; -778.000; -689.000
213.596;  -99.700; -455.000; -347.000
213.741;  -85.800; -448.000; -538.000
213.886; -150.500; -498.000; -517.000
214.031;  -33.800; -294.000; -124.000
214.176;  -67.100; -408.000; -341.000
214.321;  -23.600; -296.000; -157.000
214.466;  -49.500; -163.000;  -43.000
214.611;   -1.300;  -61.000;  -10.000
214.756; -235.200; -948.000; -858.000
214.901;  -41.500; -388.000; -226.000
215.046; -255.700; -797.000; -825.000
215.191;   19.200;  128.000;   35.000
215.336;  -25.400; -157.000;  -19.000
215.480; -130.400; -684.000; -505.000
215.625;   12.200; -175.000;  -19.000
215.770; -164.100; -757.000; -662.000
215.915;  -22.500;   -5.000;  -97.000
216.060;    1.700; -113.000;  -21.000
216.205; -206.300; -731.000; -779.000
216.349; -119.400; -470.000; -533.000
216.494; -261.900; -939.000; -867.000
216.639; -233.600; -823.000; -888.000
216.784; -176.800; -577.000; -525.000
216.929;  124.300;  392.000;  281.000
217.073;  -16.900; -244.000;  -31.000
217.218;   40.300;   78.000;  -47.000
217.363; -181.400; -656.000; -618.000
217.507; -139.300; -623.000; -588.000
217.652; -275.200; -845.000; -874.000
217.797; -163.200; -708.000; -659.000
217.942; -237.500; -856.000; -720.000
218.086;  176.200;  608.000;  539.000
218.231;    0.900; -174.000;  -26.000
218.376;  -46.800; -337.000; -229.000
218.520;   -8.800;  -41.000;   96.000
218.665;  -51.300; -338.000; -204.000
218.810;  -97.100; -275.000; -233.000
218.954;   52.700;  201.000;   35.000
219.099; -238.800; -713.000; -963.000
219.243; -154.700; -589.000; -554.000
219.388;  -53.700; -264.000; -136.000
219.532;    8.500; -116.000; -116.000
219.677; -152.300; -564.000; -521.000
219.822;   13.900;   33.000;   89.000
219.966;  -13.300;   17.000;  -99.000
220.111;  -64.400; -328.000;  -40.000
220.255; -181.000; -797.000; -750.000
220.400;  -22.300; -180.000; -146.000
220.544; -150.400; -516.000; -450.000
220.689;  -95.800; -422.000; -451.000
220.833;  -52.200; -123.000;  -58.000
220.978;  -71.800; -393.000; -563.000
221.122;   45.300;  319.000;  307.000
221.267; -191.600; -906.000; -837.000
221.411; -120.600; -478.000; -394.000
221.555;  -18.300; -104.000;  -23.000
221.700;  -76.900; -329.000; -222.000
221.844;  112.600;  255.000;  272.000
221.989;  -76.400; -328.000; -311.000
222.133;  -69.700; -289.000; -307.000
222.277;   -6.200;    5.000;   78.000
222.422;   73.800;  227.000;  113.000
222.566;  -61.700; -381.000; -214.000
222.711;  -99.500; -414.000; -479.000
222.855; -164.100; -643.000; -586.000
222.999; -164.200; -642.000; -717.000
223.144;  -66.300; -195.000; -194.000
223.288;  153.300;  423.000;  251.000
223.432;   15.600;  184.000;  230.000
223.576;   56.200;  152.000;  -21.000
223.721;   97.700;  364.000;  273.000
223.865;  -92.400; -472.000; -475.000
224.009;  561.400; 1673.000; 1631.000
224.153; -167.000; -660.000; -671.000
224.298; -160.800; -531.000; -489.000
224.442;    1.200;  -74.000;  -33.000
224.586;   -4.300; -169.000; -106.000
224.730; -195.600; -858.000; -670.000
224.875; -213.400; -739.000; -688.000
225.019;   90.800;  102.000;  188.000
225.163;  123.800;  208.000;  341.000
225.307;   75.400;   97.000;  -91.000
225.451;   98.500;  360.000;  481.000
225.595;  126.200;  264.000;  176.000
225.739;  -13.500; -170.000;  -94.000
225.884;   26.500;   86.000;    5.000
226.028; -176.800; -760.000; -626.000
226.172;  -65.700; -260.000; -273.000
226.316; -226.500; -941.000; -902.000
226.460; -146.000; -645.000; -493.000
226.604;  -88.900; -406.000; -400.000
226.748; -179.300; -836.000; -733.000
226.892;  -42.700; -227.000; -181.000
227.036;  -66.200; -537.000; -447.000
227.180; -125.900; -551.000; -375.000
227.324; -116.700; -561.000; -580.000
227.468; -240.700; -819.000; -717.000
227.612;   25.400;  242.000;  -28.000
227.756; -201.200; -845.000; -698.000
227.900;  158.600;  342.000;  441.000
228.044; -104.300; -509.000; -290.000
228.188;  143.900;  448.000;  568.000
228.332; -180.500; -546.000; -472.000
228.476;  -40.600; -223.000; -149.000
228.620;  -58.400; -210.000; -150.000
228.764;  159.800;  431.000;  349.000
228.908;  -40.400; -155.000;   30.000
229.052; -112.400; -615.000; -528.000
229.195;   16.700; -172.000;   13.000
229.339;  -42.000; -235.000; -305.000
229.483;  -67.300;    5.000; -162.000
229.627;   -0.400; -156.000;  139.000
229.771;  -91.700; -218.000; -294.000
229.915;   60.600;  230.000;   79.000
230.059; -147.600; -648.000; -663.000
230.202;  -71.500; -370.000; -317.000
230.346;  -16.100; -107.000;  107.000
230.490; -104.000; -489.000; -521.000
230.634; -208.200; -736.000; -553.000
230.777;  176.300;  478.000;  509.000
230.921; -117.800; -450.000; -359.000
231.065; -101.900; -246.000; -286.000
231.209;   52.600;  261.000;  265.000
231.352;   60.500;   54.000;   40.000
231.496;   69.200;  568.000;  188.000
231.640; -139.100; -693.000; -621.000
231.783;  174.600;  546.000;  525.000
231.927;  -59.500; -294.000; -365.000
232.071; -260.700; -962.000; -736.000
232.214; -208.400; -980.000; -764.000
232.358; -196.600; -683.000; -599.000
232.502;   52.200;  -19.000;    7.000
232.645; -275.000;-1090.000; -927.000
232.789;  -16.900; -257.000; -218.000
232.933;  -97.400; -407.000; -224.000
233.076; -253.300;-1038.000; -897.000
233.220; -184.900; -752.000; -777.000
233.363; -142.200; -669.000; -477.000
233.507;  140.200;  371.000;  129.000
233.650; -182.400; -764.000; -834.000
233.794;  104.600;  438.000;  461.000
233.938;  -81.800; -530.000; -362.000
234.081;  -24.100;  -93.000;   31.000
234.225; -129.500; -631.000; -539.000
234.368; -234.200; -773.000; -723.000
234.512;  -29.300; -385.000; -299.000
234.655; -127.000; -582.000; -555.000
234.798;  -97.500; -493.000; -466.000
234.942; -229.400; -884.000;-1002.000
235.085; -156.100; -651.000; -443.000
235.229; -139.900; -405.000; -410.000
235.372;  -80.200; -247.000; -191.000
235.516; -123.200; -397.000; -321.000
235.659;   89.700;   92.000;  121.000
235.802;  -11.900;  -38.000;  -22.000
235.946;   91.700;  335.000;  215.000
236.089;   77.900;  126.000;  250.000
236.233;  144.700;  275.000;  298.000
236.376;  -52.300; -235.000; -378.000
236.519;  -75.600; -297.000; -319.000
236.663;  -30.000; -215.000; -117.000
236.806; -253.700;-1029.000; -999.000
236.949;  137.700;  543.000;  431.000
237.092;  159.800;  412.000;  391.000
237.236; -169.000; -589.000; -502.000
237.379;  167.300;  352.000;  428.000
237.522; -241.900; -879.000; -768.000
237.666;   22.800; -271.000;   18.000
237.809; -265.600; -851.000; -823.000
237.952;  109.700;  469.000;  271.000
238.095; -122.000; -447.000; -442.000
238.238;  205.700;  688.000;  700.000
238.382;   23.500;  166.000;  103.000
238.525; -114.400; -598.000; -511.000
238.668; -280.200;-1060.000; -985.000
238.811; -131.800; -638.000; -643.000
238.954; -103.000; -483.000; -334.000
239.097;  233.100;  617.000;  664.000
239.241;   48.900;  394.000;  326.000
239.384;  -41.200; -254.000; -214.000
239.527; -150.500; -424.000; -224.000
239.670; -262.500; -994.000;-1091.000
239.813; -230.000; -696.000; -658.000
239.956;  178.600;  579.000;  473.000
240.099; -209.200; -778.000; -725.000
240.242;  142.200;  428.000;  432.000
240.385;  113.200;  466.000;  450.000
240.528;  -97.800; -706.000; -473.000
240.671;   44.800;  189.000;  134.000
240.814;  -66.400; -441.000; -158.000
240.957; -191.400; -767.000; -578.000
241.100; -167.600; -779.000; -755.000
241.243; -273.500;-1234.000; -893.000
241.386;  -99.900; -508.000; -379.000
241.529; -174.900; -735.000; -547.000
241.672; -115.400; -566.000; -495.000
241.815; -214.800; -832.000; -808.000
241.958;  -24.100; -125.000; -182.000
242.101; -165.700; -545.000; -390.000
242.244;  -70.500; -270.000; -325.000
242.387;  -80.400; -304.000; -246.000
242.530;  170.200;  470.000;  134.000
242.673;  -66.700; -381.000; -309.000
242.815; -233.400; -925.000; -899.000
242.958; -139.300; -482.000; -381.000
243.101;   78.500;  132.000;  187.000
243.244; -151.000; -564.000; -521.000
243.387;  -71.600; -313.000; -316.000
243.530; -189.900; -657.000; -674.000
243.672;   28.400;   43.000;  -92.000
243.815;  -78.900; -355.000; -283.000
243.958;    6.400;   98.000;  -26.000
244.101;   43.700;   59.000;  -16.000
244.243;   18.600;  -47.000;  101.000
244.386; -214.200; -761.000; -630.000
244.529;  -29.700; -132.000; -139.000
244.672; -290.800;-1154.000; -951.000
244.814; -190.700; -621.000; -794.000
244.957;  -39.600; -380.000; -304.000
245.100; -136.800; -489.000; -489.000
245.242; -115.000; -387.000; -374.000
245.385;   35.900;  -59.000;  -39.000
245.528; -259.200; -871.000; -705.000
245.670;  200.500;  612.000;  634.000
245.813; -156.700; -599.000; -547.000
245.956;  -36.000; -324.000; -275.000
246.098; -140.400; -508.000; -650.000
246.241;   73.000;  194.000;   48.000
246.383;   -9.100; -119.000;  -73.000
246.526; -148.500; -454.000; -525.000
246.669; -243.500; -889.000; -780.000
246.811;   84.000;  172.000;   -1.000
246.954;  -83.600; -512.000; -426.000
247.096;  -28.700;  -84.000;   -6.000
247.239; -132.200; -482.000; -445.000
247.381; -115.700; -647.000; -488.000
247.524;  168.100;  645.000;  679.000
247.666;   53.400;   58.000;   11.000
247.809; -227.900; -887.000; -691.000
247.951;   17.500;  -75.000;  138.000
248.094;   73.800;  432.000;  308.000
248.236; -297.400;-1262.000;-1238.000
248.378;   12.400; -356.000;  -81.000
248.521;  -26.100; -334.000; -337.000
248.663;  -37.500; -236.000; -267.000
248.806;  -33.100; -300.000; -266.000
248.948; -170.500; -886.000; -763.000
249.090;  -48.000; -428.000; -398.000
249.233;  -83.600; -344.000; -381.000
249.375; -121.900; -474.000; -451.000
249.518;    9.800;  -83.000; -133.000
249.660;   -7.500; -103.000;    3.000
249.802; -352.600;-1303.000;-1189.000
249.945; -125.500; -612.000; -540.000
250.087; -213.200; -834.000; -768.000
250.229;  -70.200; -362.000; -480.000
250.371; -149.300; -494.000; -439.000
250.514;  -70.900; -310.000; -244.000
250.656; -105.900;   69.000;  102.000
250.798; -217.200; -849.000; -800.000
250.940; -104.300; -322.000; -322.000
251.083;    0.800; -335.000; -111.000
251.225;  124.300;  338.000;  310.000
251.367;  -29.500; -274.000; -373.000
251.509;  -53.000; -265.000; -210.000
251.651; -187.100; -731.000; -671.000
251.794;  143.800;  538.000;  632.000
251.936; -183.100; -821.000; -747.000
252.078; -114.500; -540.000; -461.000
252.220; -116.700; -645.000; -477.000
252.362;  195.000;  344.000;  462.000
252.504; -119.200; -677.000; -584.000
252.646; -218.500; -875.000; -722.000
252.788;   17.900;   14.000; -128.000
252.931;  -84.600; -257.000; -253.000
253.073;  -93.700; -376.000; -317.000
253.215;  -11.400;  141.000;  122.000
253.357;  -12.000;   82.000; -153.000
253.499;  -93.900; -374.000; -234.000
253.641; -162.900; -749.000; -594.000
253.783; -180.800; -609.000; -527.000
253.925; -159.300; -586.000; -591.000
254.067; -215.300; -744.000; -667.000
254.209;  -27.100; -391.000; -259.000
254.351; -247.000; -865.000; -883.000
254.493; -114.800; -441.000; -417.000
254.635; -218.300; -936.000; -818.000
254.777; -141.800; -752.000; -687.000
254.918; -119.600; -512.000; -430.000
255.060; -100.500; -551.000; -395.000
255.202; -101.500; -473.000; -261.000
255.344; -106.100; -658.000; -455.000
255.486;  -89.000; -471.000; -406.000
255.628; -178.700; -780.000; -781.000
255.770; -180.300; -676.000; -536.000
255.912;  -91.500; -559.000; -468.000
256.053; -175.100; -730.000; -508.000
256.195;  370.400; 1008.000;  903.000
256.337; -211.600; -861.000; -595.000
256.479;  154.000;  532.000;  416.000
256.621;  -73.500; -394.000; -212.000
256.762; -172.100; -789.000; -742.000
256.904;  129.900;  485.000;  487.000
257.046;  -87.600; -381.000; -271.000
257.188;  -66.100; -351.000; -264.000
257.329; -149.500; -525.000; -464.000
257.471; -229.000; -939.000; -807.000
257.613;  -94.100; -584.000; -498.000
257.755; -287.300;-1073.000; -982.000
257.896;  123.400;  286.000;  392.000
258.038;  -92.900; -403.000; -352.000
258.180;  -35.200; -354.000; -279.000
258.321; -161.400; -581.000; -457.000
258.463;   42.700;  -71.000;  133.000
258.605; -154.800; -562.000; -570.000
258.746; -164.800; -886.000; -772.000
258.888; -306.900;-1026.000;-1020.000
259.029;   72.100;  121.000;   -8.000
259.171; -148.500; -614.000; -550.000
259.313;   44.500;  -49.000;  -47.000
259.454; -139.800; -536.000; -414.000
259.596;  -73.700; -483.000; -390.000
259.737; -140.600; -590.000; -474.000
259.879;  123.300;  217.000;  311.000
260.020;  207.400;  901.000;  636.000
260.162;  -28.300; -146.000; -253.000
260.303; -220.300; -768.000; -687.000
260.445; -139.000; -609.000; -613.000
260.586;  108.900;  392.000;  157.000
260.728;  -49.600; -360.000; -248.000
260.869; -154.700; -350.000; -343.000
261.011;  222.000;  706.000;  537.000
261.152;  -97.900; -479.000; -319.000
261.293; -124.100; -576.000; -595.000
261.435;  -63.500; -219.000; -184.000
261.576;  -64.600; -455.000; -325.000
261.718;  137.900;  420.000;  470.000
261.859; -212.200; -940.000; -949.000
262.000; -272.500; -951.000;-1016.000
262.142;   15.300;  -52.000;  -60.000
262.283; -218.400; -808.000; -691.000
262.424; -179.200; -666.000; -625.000
262.566; -314.600;-1161.000; -983.000
262.707; -214.200; -840.000; -830.000
262.848; -226.400; -769.000; -726.000
262.990;  -72.500; -362.000; -345.000
263.131;  191.200;  650.000;  681.000
263.272;   34.300;  -61.000;  -41.000
263.413; -187.500; -589.000; -561.000
263.555;  -86.600; -669.000; -143.000
263.696; -176.300; -550.000; -641.000
263.837;  -98.900; -449.000; -551.000
263.978;    7.600;   -5.000;  -77.000
264.119;  -74.700; -283.000; -264.000
264.261; -224.000; -847.000; -630.000
264.402;   -2.600;   33.000;   40.000
264.543; -137.000; -509.000; -524.000
264.684;   -4.700;   61.000;  -50.000
264.825; -145.100; -816.000; -538.000
264.966;   21.700;  -84.000;  -67.000
265.107; -202.000; -646.000; -670.000
265.248; -226.000; -825.000; -812.000
265.390;   -0.100;  152.000;   -9.000
265.531;    0.700; -238.000; -107.000
265.672; -168.000; -557.000; -630.000
265.813;  195.600;  563.000;  439.000
265.954; -301.100; -959.000; -940.000
266.095;    8.300; -372.000; -322.000
266.236; -187.500; -686.000; -548.000
266.377;  -75.700; -243.000; -297.000
266.518; -142.700; -619.000; -547.000
266.659;   90.400;  170.000;  268.000
266.800;   43.100;   83.000;   85.000
266.941; -127.800; -487.000; -478.000
267.082;   62.500;  354.000;   99.000
267.223;  -85.600; -344.000; -273.000
267.364; -228.800; -892.000; -686.000
267.504;   -1.200;    3.000;  135.000
267.645;    2.800;  160.000;   67.000
267.786;  -30.900; -147.000;  -86.000
267.927; -135.400; -473.000; -379.000
268.068;   -1.300; -186.000;  -61.000
268.209;  -88.200; -175.000; -413.000
268.350;  -98.500; -388.000; -532.000
268.490; -143.700; -648.000; -521.000
268.631;  122.300;  127.000;  225.000
268.772; -212.300; -874.000; -647.000
268.913;  -89.500; -328.000; -476.000
269.054;  -24.300; -117.000;   12.000
269.194;  -69.100; -418.000; -402.000
269.335; -336.600;-1137.000;-1074.000
269.476;   30.800;   33.000;  -35.000
269.617; -109.900; -347.000; -392.000
269.757; -168.100; -713.000; -646.000
269.898; -189.500; -856.000; -613.000
270.039; -123.500; -415.000; -405.000
270.180; -270.800; -952.000; -816.000
270.320;  -41.100; -190.000; -250.000
270.461;  -51.300; -277.000; -249.000
270.602;    4.300; -186.000; -156.000
270.742; -239.500; -868.000; -943.000
270.883;  -68.500; -442.000; -390.000
271.023;  -96.500; -358.000; -357.000
271.164; -120.700; -607.000; -528.000
271.305; -209.000; -666.000; -654.000
271.445; -130.300; -722.000; -683.000
271.586; -108.500; -462.000; -283.000
271.726;  -66.700; -397.000; -322.000
271.867; -128.900; -594.000; -534.000
272.008;  331.800; -473.000; -285.000
272.148;  235.100;  462.000;  468.000
272.289;   42.600; -113.000; -181.000
272.429;   62.200;   19.000;  185.000
272.570; -183.700; -633.000; -737.000
272.710; -183.500; -825.000; -775.000
272.851;  -22.900;  113.000; -130.000
272.991; -324.200;-1173.000;-1077.000
273.131;  -89.400; -419.000; -459.000
273.272; -195.400; -683.000; -723.000
273.412;   34.000; -143.000;  -31.000
273.553; -108.100; -488.000; -507.000
273.693;  271.300;  913.000;  858.000
273.834; -203.300; -894.000; -692.000
273.974; -125.200; -664.000; -615.000
274.114; -174.900; -772.000; -560.000
274.255;  180.400;  414.000;  373.000
274.395;   34.400; -180.000; -125.000
274.535;  132.400;  199.000;  350.000
274.676;   69.300;  225.000;   94.000
274.816;   26.500;  110.000;   34.000
274.956; -146.300; -624.000; -690.000
275.097; -120.700;-1014.000; -922.000
275.237; -224.700; -913.000; -803.000
275.377; -161.100; -778.000; -689.000
275.517; -284.900; -878.000; -937.000
275.658; -110.000; -590.000; -555.000
275.798; -140.600; -606.000; -413.000
275.938;   80.100;  215.000;  323.000
276.078; -163.600; -626.000; -395.000
276.218;   52.500;   99.000;  104.000
276.359; -256.400;-1026.000;-1024.000
276.499; -120.000; -605.000; -446.000
276.639;  -20.800; -305.000; -151.000
276.779;  -88.500; -475.000; -357.000
276.919; -200.200; -783.000; -624.000
277.059;  -31.700; -261.000; -212.000
277.199;  -33.300; -357.000; -259.000
277.340;  124.100;  287.000;  175.000
277.480; -211.300; -840.000; -693.000
277.620;   95.900;  192.000;   16.000
277.760; -382.800;-1533.000;-1294.000
277.900;   61.500;  113.000;   33.000
278.040;   53.000;  137.000;  159.000
278.180;   98.400;  270.000;  170.000
278.320;   27.900;   21.000;   56.000
278.460;  -92.800; -443.000; -469.000
278.600; -161.300; -708.000; -598.000
278.740;  142.100;  448.000;  224.000
278.880; -139.200; -768.000; -791.000
279.020;   33.600; -194.000; -144.000
279.160; -149.900; -672.000; -595.000
279.300; -220.100; -926.000; -873.000
279.440; -208.200; -709.000; -622.000
279.579;  -85.000;-1014.000; -929.000
279.719;  -97.000; -410.000; -394.000
279.859;  145.900;   -4.000;   41.000
279.999;   66.900; -208.000;  101.000
280.139;  -20.500; -435.000; -387.000
280.279; -140.700; -708.000; -745.000
280.419;  -16.900; -229.000; -147.000
280.559;  -75.500; -259.000; -180.000
280.698; -139.200; -790.000; -639.000
280.838; -187.200; -778.000; -800.000
280.978; -198.800; -846.000; -790.000
281.118; -220.400; -811.000; -704.000
281.257;   59.400;   24.000;    6.000
281.397; -268.700;-1094.000; -960.000
281.537; -162.800; -599.000; -712.000
281.677;   17.800; -150.000; -101.000
281.816; -126.000; -700.000; -630.000
281.956;  -65.300; -193.000; -257.000
282.096; -108.500; -539.000; -396.000
282.235; -212.500; -672.000; -638.000
282.375;  -27.100; -243.000;  -98.000
282.515; -196.300; -715.000; -707.000
282.654;   91.500;   29.000;  106.000
282.794;   93.600;  388.000;  244.000
282.934;  -83.500; -530.000; -491.000
283.073; -254.000;-1030.000; -857.000
283.213; -105.300; -460.000; -467.000
283.353;  -72.700; -408.000; -349.000
283.492;  -46.800; -264.000; -296.000
283.632;  -42.100; -254.000; -168.000
283.771; -162.900; -859.000; -730.000
283.911;  -77.400; -369.000; -260.000
284.050; -176.900; -794.000; -748.000
284.190; -311.900;-1229.000;-1096.000
284.329; -272.400;-1055.000; -964.000
284.469; -104.200; -516.000; -591.000
284.608;  -90.000; -559.000; -598.000
284.748; -156.300; -614.000; -570.000
284.887;   44.700;  -87.000;  -20.000
285.027; -232.200; -844.000; -892.000
285.166;  -34.700; -192.000; -249.000
285.306;   27.200; -116.000;  -33.000
285.445;  -52.200; -229.000; -343.000
285.584; -176.100; -630.000; -494.000
285.724;  -74.800; -282.000; -322.000
285.863; -203.400; -857.000; -507.000
286.002;  -64.400; -366.000; -276.000
286.142; -221.400; -715.000; -622.000
286.281; -109.900; -525.000; -493.000
286.420; -140.900; -554.000; -417.000
286.560;  239.400;  653.000;  623.000
286.699; -246.700; -958.000; -912.000
286.838; -136.600; -590.000; -591.000
286.978; -183.900; -533.000; -537.000
287.117; -271.600;-1085.000; -950.000
287.256;  -40.500; -228.000; -211.000
287.395;  -67.000; -197.000; -378.000
287.535;  -93.800; -370.000; -298.000
287.674; -119.300; -509.000; -484.000
287.813;  145.600;  661.000;  533.000
287.952; -252.900;-1010.000; -871.000
288.091; -266.500;-1049.000; -915.000
288.231;   32.400;   13.000;   15.000
288.370; -344.000;-1217.000;-1200.000
288.509; -150.200; -728.000; -645.000
288.648; -137.900; -770.000; -548.000
288.787;  -38.400; -243.000;  -87.000
288.926; -125.500; -454.000; -475.000
289.065;  290.700;  859.000;  672.000
289.204;  -88.500; -377.000; -217.000
289.344; -164.900; -791.000; -690.000
289.483;   75.600;  416.000;  304.000
289.622;  -16.200; -291.000; -149.000
289.761;  -14.900; -309.000; -166.000
289.900; -200.700; -785.000; -626.000
290.039;   14.200;  -12.000;  -95.000
290.178;  -70.900; -274.000; -180.000
290.317; -132.600; -618.000; -479.000
290.456;  -88.300; -463.000; -451.000
290.595; -266.900; -961.000; -833.000
290.734; -276.200; -904.000; -891.000
290.873; -118.900; -456.000; -420.000
291.011; -199.500; -833.000; -843.000
291.150; -211.900; -770.000; -682.000
291.289;  -12.200; -343.000; -110.000
291.428; -143.600; -599.000; -480.000
291.567;  -71.300; -370.000; -442.000
291.706;   -5.600;  109.000;  154.000
291.845; -153.600; -597.000; -505.000
291.984; -323.200;-1234.000;-1061.000
292.122;  199.400;  602.000;  582.000
292.261;  104.000;  620.000;  463.000
292.400;   19.000; -144.000;  211.000
292.539; -226.200; -959.000; -813.000
292.678;  -17.100; -325.000; -300.000
292.816; -286.700;-1136.000; -965.000
292.955; -150.300; -844.000; -684.000
293.094;  -30.700; -173.000; -337.000
293.233; -102.000; -556.000; -400.000
293.371;  -36.600; -225.000;  -84.000
293.510; -199.100; -866.000; -780.000
293.649; -276.300; -959.000; -924.000
293.787; -134.800;-1083.000;-1012.000
293.926;    2.500; -113.000;  -32.000
294.065;  -49.000; -379.000; -290.000
294.203;  174.600;  298.000;  406.000
294.342;  103.500;   74.000;  156.000
294.481;12404.400;51180.000; -836.000
294.619;  -29.400; -425.000; -582.000
294.758; -282.100;-1230.000;-1137.000
294.896;  144.600; -125.000;    5.000
295.035; -254.000;-1040.000;-1006.000
295.174; -215.800;-1082.000; -954.000
295.312;  -86.900; -323.000; -203.000
295.451;  -46.400; -307.000; -428.000
295.589; -108.300; -389.000; -518.000
295.728;   85.500; -292.000; -165.000
295.866;   27.800;  -36.000;  -51.000
296.005; -123.300; -584.000; -341.000
296.143; -113.900; -558.000; -596.000
296.282; -155.300; -957.000; -881.000
296.420; -154.800; -657.000; -557.000
296.559; -156.000; -892.000; -633.000
296.697;  -14.600; -847.000; -665.000
296.835;   70.400;-1141.000;-1002.000
296.974;  112.100;  -23.000;   39.000
297.112;   17.300; -443.000; -504.000
297.251; -156.500; -815.000; -755.000
297.389;  153.400; -576.000; -438.000
297.527;   97.500; -145.000;  -83.000
297.666;  -80.600; -486.000; -438.000
297.804;  -74.700; -404.000; -264.000
297.942;   46.000; -136.000; -161.000
298.081;   36.300; -183.000;   63.000
298.219;  139.500;  -17.000;  -19.000
298.357;   94.600; -144.000;  -71.000
298.495;   27.000; -810.000; -812.000
298.634;   99.800;  245.000;  219.000
298.772;   77.400; -220.000; -338.000
298.910;  -55.500; -309.000; -182.000
299.048;   13.200; -130.000; -153.000
299.187;  -35.900; -350.000; -250.000
299.325;   57.900;   52.000;  122.000
299.463;   39.000; -389.000; -299.000
299.601;  159.300; -327.000; -271.000
299.739; -208.200; -908.000; -883.000
299.877; -142.800; -791.000; -703.000
300.016; -134.200;-1095.000; -935.000
300.154;  281.300;  -19.000; -161.000
300.292;   72.200; -428.000; -348.000
300.430;   76.300; -408.000; -291.000
300.568; -221.100; -940.000; -874.000
300.706;  -78.300; -366.000; -469.000
300.844; -191.800;-1108.000; -979.000
300.982;  279.700;  246.000;  282.000
301.120; -217.200; -965.000; -866.000
301.258; -106.200; -812.000; -705.000
301.396;   96.300;  104.000;  -41.000
301.534;  135.500; -218.000; -293.000
301.672;  -33.000; -664.000; -521.000
301.810;   31.800; -613.000; -545.000
301.948;  259.600;   53.000;  149.000
302.086;  914.200; -250.000;  -32.000
302.224; 1445.200; -610.000; -585.000
302.362;   42.200; -558.000; -622.000
302.500;  -95.300; -923.000; -893.000
302.638;  224.600;  128.000;  245.000
302.776;  -15.400; -352.000; -408.000
302.913;  128.200;  447.000;  236.000
303.051;    4.200;  -86.000;  -23.000
303.189;  153.700;   90.000;  118.000
303.327;  -61.700; -341.000; -256.000
303.465; -111.500; -832.000; -588.000
303.603; -180.300; -805.000; -604.000
303.740;  219.900;  417.000;  241.000
303.878;  -17.400; -800.000; -759.000
304.016; -146.400; -915.000; -790.000
304.154; -237.000;-1123.000;-1152.000
304.291;  -68.000; -505.000; -554.000
304.429;   21.900;  102.000;   74.000
304.567; -259.100; -908.000; -893.000
304.705; -112.500; -408.000; -515.000
304.842;  143.100; -616.000; -540.000
304.980;  138.000;  215.000;   35.000
305.118;   81.000; -367.000; -365.000
305.255; -152.100; -945.000; -927.000
305.393;  157.400;  178.000;  239.000
305.531; -229.400;-1173.000; -956.000
305.668;  -81.600; -663.000; -582.000
305.806;  163.900; -358.000; -439.000
305.943;  149.100; -629.000; -637.000
306.081;  119.300; -378.000; -267.000
306.219; -177.100; -863.000; -748.000
306.356;   64.000;  158.000;   27.000
306.494;  321.700;  981.000;  761.000
306.631;   54.700;  -11.000;  -55.000
306.769;    0.600; -613.000; -485.000
306.906;   -5.600; -284.000; -258.000
307.044;  -90.900; -473.000; -488.000
307.181; -109.000; -410.000; -332.000
307.319;   52.200;  112.000;   87.000
307.456; -330.600;-1191.000;-1153.000
307.594; -191.900; -980.000; -727.000
307.731;  -26.000; -371.000; -164.000
307.868;   48.200;  -15.000;   20.000
308.006; -224.800; -961.000; -847.000
308.143;  -47.900; -618.000; -330.000
308.281;  356.700;  -37.000; -254.000
308.418;  -24.200; -748.000; -640.000
308.555;  -97.900; -400.000; -250.000
308.693;  -86.500; -577.000; -573.000
308.830; -201.800; -712.000; -657.000
308.967;    3.900; -215.000;  -95.000
309.105;  -58.000; -507.000; -396.000
309.242;  108.400; -468.000; -367.000
309.379;  676.400; -577.000; -655.000
309.517;  -98.000; -936.000; -948.000
309.654; -151.300; -910.000; -734.000
309.791;  -62.000; -662.000; -580.000
309.928; -182.400; -977.000; -914.000
310.065;  375.200;  819.000;  697.000
310.203;  -25.100; -825.000; -850.000
310.340;   21.400; -465.000; -321.000
310.477; -105.600; -412.000; -516.000
310.614;  -88.500; -383.000; -473.000
310.751; -127.900; -427.000; -518.000
310.889;    9.000;    1.000;   11.000
311.026; -296.800;-1161.000; -939.000
311.163;  -51.700; -386.000; -380.000
311.300; -105.000; -512.000; -479.000
311.437; -115.600; -658.000; -619.000
311.574; -284.300;-1226.000; -985.000
311.711;  -94.200; -595.000; -433.000
311.848;  -40.500; -380.000; -388.000
311.985;  126.000;  270.000;   93.000
312.122; -197.400; -932.000; -762.000
312.259; -217.800; -941.000; -994.000
312.396; -120.000; -508.000; -551.000
312.533; -128.200; -812.000; -790.000
312.670; -242.000;-1070.000; -898.000
312.807;  -28.800; -352.000; -367.000
312.944; -114.100; -513.000; -611.000
313.081;   -4.100; -150.000; -415.000
313.218; -194.600;-1111.000; -867.000
313.355;   38.400; -531.000; -449.000
313.492;   68.100; -455.000; -292.000
313.629;  317.600;  815.000;  735.000
313.766; -320.000;-1176.000;-1008.000
313.902;   34.200; -186.000;   21.000
314.039;  -47.000; -372.000; -289.000
314.176;   94.800;  286.000;  192.000
314.313; -123.700; -569.000; -473.000
314.450; -127.000; -788.000; -684.000
314.587;  -93.700; -468.000; -480.000
314.723;   52.200;  -78.000;  130.000
314.860;  106.800;  318.000;  332.000
314.997;   86.300;  223.000;  142.000
315.134;  -30.100; -385.000; -368.000
315.270;  -33.500; -480.000; -496.000
315.407; -226.900;-1094.000; -967.000
315.544;  -98.400; -657.000; -538.000
315.681;  -86.900; -681.000; -565.000
315.817;   63.000; -133.000; -176.000
315.954;    7.800; -613.000; -392.000
316.091; -205.500;-1045.000;-1023.000
316.227;    6.700;  -71.000; -179.000
316.364;   42.300;   23.000;    6.000
316.500;  -93.700; -113.000; -300.000
316.637;  -35.400; -181.000; -302.000
316.774; -142.900; -625.000; -358.000
316.910; -154.300; -598.000; -629.000
317.047; -114.100; -487.000; -351.000
317.183;  -53.600; -435.000; -566.000
317.320;   39.800; -367.000; -321.000
317.456;  -86.000; -733.000; -805.000
317.593; -151.000; -598.000; -641.000
317.729;   72.700;  168.000;  -67.000
317.866; -398.500;-1434.000;-1285.000
318.002; -139.800; -708.000; -948.000
318.139; -188.200; -883.000; -867.000
318.275; -191.500;-1003.000; -738.000
318.412;  -77.700; -517.000; -336.000
318.548;  -89.300; -751.000; -720.000
318.685; -172.500; -985.000; -888.000
318.821; -129.900; -762.000; -735.000
318.957;    3.700;   34.000;  -23.000
319.094;  125.200;  297.000;  154.000
319.230; -122.200; -756.000; -742.000
319.367;  242.100; -471.000; -520.000
319.503;   93.300; -538.000; -436.000
319.639; -192.700; -877.000; -793.000
319.775; -120.900; -750.000; -685.000
319.912;  -67.200; -424.000; -519.000
320.048; -175.200;-1184.000;-1184.000
320.184;  216.300;   59.000;   70.000
320.321;  -91.000; -497.000; -467.000
320.457;  176.900;  475.000;  662.000
320.593; -101.500; -375.000; -382.000
320.729; -176.100; -732.000; -734.000
320.866;  -97.600; -577.000; -635.000
321.002; -139.600; -759.000; -809.000
321.138;  -21.000; -135.000; -211.000
321.274;  158.000; -148.000; -115.000
321.410;  -31.600; -585.000; -353.000
321.546;  -75.700;-1011.000; -911.000
321.683;  135.300;  400.000;  185.000
321.819;   49.600;  -48.000; -117.000
321.955; -194.100; -743.000; -722.000
322.091;  -58.500; -585.000; -540.000
322.227;    8.000; -382.000; -202.000
322.363;  -28.200; -320.000; -215.000
322.499;  -58.600; -343.000; -331.000
322.635;  347.700;  636.000;  443.000
322.771;   68.500; -139.000;   12.000
322.907;  221.100;  129.000;  327.000
323.043;  -21.800; -115.000; -206.000
323.179;  -30.000; -394.000; -363.000
323.315;  -17.700; -401.000; -371.000
323.451;  155.100; -328.000; -236.000
323.587;  138.900;  -60.000;  -77.000
323.723;   12.900; -682.000; -601.000
323.859;  -19.400; -258.000;  -76.000
323.995;  -17.100; -467.000; -409.000
324.131; -220.800; -967.000; -892.000
324.267;  -33.200; -254.000; -276.000
324.402; -252.300; -960.000; -983.000
324.538;  -15.900; -279.000; -104.000
324.674;   79.000;  164.000;   77.000
324.810;  234.600;  226.000;  308.000
324.946;   -0.100; -810.000; -658.000
325.082;  -92.600; -568.000; -475.000
325.217;   -6.900;  -62.000;   16.000
325.353; -174.100; -764.000; -659.000
325.489; -128.000; -540.000; -506.000
325.625;  -83.900; -579.000; -525.000
325.760;  190.000;  517.000;  376.000
325.896;   23.300; -515.000; -702.000
326.032;  -69.200; -403.000; -352.000
326.168;  -79.300; -462.000; -369.000
326.303;  -77.900; -352.000; -461.000
326.439;   -3.300; -336.000; -276.000
326.575;   39.800; -190.000;  -29.000
326.710;   33.800; -156.000;  -30.000
326.846;    7.800;  146.000;  103.000
326.982; -154.600; -530.000; -548.000
327.117; -105.200; -481.000; -442.000
327.253; -131.200; -745.000; -742.000
327.388; -223.300;-1137.000;-1153.000
327.524;  -98.700; -811.000; -578.000
327.659;   -5.500;  -58.000;  -22.000
327.795;   10.100;   69.000;   45.000
327.931; -137.100; -723.000; -499.000
328.066;  -26.200; -417.000; -276.000
328.202;  -50.000;   12.000; -129.000
328.337;  258.400;  957.000;  713.000
328.473;   13.100;  -12.000;  -74.000
328.608;   -6.400; -256.000; -267.000
328.743; -142.000; -799.000; -664.000
328.879;   65.100;  214.000;  114.000
329.014;  -53.800; -102.000; -122.000
329.150; -128.900; -358.000; -483.000
329.285; -113.500; -465.000; -466.000
329.421;  -59.100; -548.000; -246.000
329.556;    0.600;  -36.000;   85.000
329.691; -130.300; -633.000; -615.000
329.827; -145.800; -626.000; -480.000
329.962;  -32.600;  131.000; -301.000
330.097; -127.700; -673.000; -585.000
330.233;  -49.800; -410.000; -223.000
330.368; -214.000; -839.000; -628.000
330.503;   54.500;    3.000;   98.000
330.638;   48.000;  -93.000; -125.000
330.774;  -73.200; -609.000; -530.000
330.909;  -27.900; -434.000; -244.000
331.044; -135.700; -714.000; -708.000
331.179; -320.600;-1217.000;-1109.000
331.315;  115.900;   77.000;   20.000
331.450;   42.600;  157.000;  285.000
331.585;  -95.400; -805.000; -706.000
331.720; -120.300; -510.000; -460.000
331.855;   24.800;  -35.000; -102.000
331.990;  579.500;   62.000;  138.000
332.126;  369.500; -110.000;   71.000
332.261;    1.300; -379.000; -265.000
332.396;   61.900; -135.000; -242.000
332.531; -166.600;-1074.000;-1031.000
332.666;  116.600; -519.000; -363.000
332.801; -184.400; -726.000; -807.000
332.936;   13.800; -192.000; -122.000
333.071; -281.100; -870.000; -817.000
333.206;  107.400;  307.000;  379.000
333.341;   77.900;  344.000;  418.000
333.476; -141.800; -627.000; -623.000
333.611;  -39.700; -251.000; -173.000
333.746;  -38.200; -381.000; -464.000
333.881; -207.100; -973.000; -935.000
334.016; -225.500; -936.000; -917.000
334.151; -208.700; -746.000; -702.000
334.286;   98.800;  152.000;  186.000
334.421;  -18.200; -125.000; -178.000
334.556; -118.600; -611.000; -567.000
334.690; -137.700; -631.000; -577.000
334.825;  136.200;  381.000;   83.000
334.960;  -94.400; -285.000; -413.000
335.095;   66.600;  135.000;  -91.000
335.230; -169.800; -722.000; -738.000
335.365; -252.400;-1084.000; -990.000
335.499; -238.400;-1108.000;-1037.000
335.634;   77.700;    9.000;  534.000
335.769; -183.400; -755.000; -720.000
335.904;  -99.600; -603.000; -561.000
336.038; -107.800; -735.000; -657.000
336.173; -185.600;-1206.000;-1194.000
336.308;   17.400; -116.000; -189.000
336.443;  108.300; -544.000; -634.000
336.577; -150.000; -936.000; -787.000
336.712;  135.700;   -4.000;  -12.000
336.847;  -71.400; -724.000; -607.000
336.981;  137.000; -272.000; -208.000
337.116;  497.400;  615.000;  501.000
337.250;  214.700; -434.000; -421.000
337.385;  599.400; -297.000; -208.000
337.520;  219.300; -632.000; -603.000
337.654;  -47.200; -215.000; -126.000
337.789; -220.400; -989.000; -933.000
337.923;  -10.300; -104.000; -205.000
338.058; -135.300; -673.000; -738.000
338.192;  -62.500; -611.000; -488.000
338.327;   25.400;  -18.000; -155.000
338.461; -119.900; -299.000; -469.000
338.596; -114.900; -780.000; -638.000
338.730; -171.900; -767.000; -803.000
338.865;  231.600;  -46.000; -140.000
338.999;  -88.400; -846.000; -702.000
339.134;   -9.200; -634.000; -536.000
339.268;   12.500; -741.000; -603.000
339.403;  805.900; -740.000; -775.000
339.537;  302.700; -894.000; -820.000
339.671; -179.900; -829.000; -813.000
339.806; -105.000; -556.000; -512.000
339.940;   85.800; -261.000; -235.000
340.074; -164.800; -685.000; -510.000
340.209;  -59.300; -351.000; -230.000
340.343; -143.700; -517.000; -573.000
340.477;  380.500;  998.000; 1036.000
340.612;  -73.000;-1033.000; -900.000
340.746;  314.200; -199.000; -243.000
340.880; -141.900; -924.000; -785.000
341.014;   30.500;  -45.000; -154.000
341.149; -240.000; -756.000; -718.000
341.283; -184.700; -839.000; -754.000
341.417; -210.100;-1124.000; -938.000
341.551;  197.400; -768.000; -708.000
341.685;  -51.000; -633.000; -611.000
341.820;  -64.900; -562.000; -493.000
341.954;  -34.600; -218.000; -349.000
342.088; -239.100;-1102.000;-1019.000
342.222;  124.600;  565.000;  618.000
342.356;  -53.300; -395.000; -335.000
342.490; -164.000; -880.000; -841.000
342.624;  -38.000; -339.000; -242.000
342.758;   26.000; -364.000; -312.000
342.892;  -79.300; -710.000; -585.000
343.026;  -23.400;  -58.000; -116.000
343.160;  -79.700; -426.000; -376.000
343.294; -106.200; -474.000; -337.000
343.428;  -24.700; -488.000; -448.000
343.562;   -2.000; -172.000;  -23.000
343.696;  -10.100; -385.000; -314.000
343.830;   -7.100; -362.000; -356.000
343.964;   64.300; -231.000; -168.000
344.098; 1352.900;  199.000;   70.000
344.232; 1166.400; -266.000; -127.000
344.366;  161.300; -567.000; -453.000
344.500;   82.000; -665.000; -744.000
344.634;   43.400; -324.000; -164.000
344.768;    2.200; -531.000; -341.000
344.902;   82.700;  278.000;  256.000
345.035; -107.700; -556.000; -496.000
345.169; -236.200; -933.000; -656.000
345.303;  -73.500; -308.000; -482.000
345.437; -136.400; -826.000; -717.000
345.571; -102.200; -675.000; -594.000
345.704; -103.200; -309.000; -532.000
345.838;   21.100; -331.000; -284.000
345.972;  -43.100; -543.000; -495.000
346.106;  389.500; -179.000; -190.000
346.239;  833.200; -312.000; -243.000
346.373;   47.900; -343.000; -302.000
346.507; -243.000; -950.000; -962.000
346.640;  227.500;  -30.000;   13.000
346.774; -112.500; -650.000; -797.000
346.908;   26.500; -138.000;  -11.000
347.041; -128.300; -646.000; -593.000
347.175;   77.500;  259.000;   27.000
347.309; -135.500; -698.000; -628.000
347.442; -178.700; -883.000; -732.000
347.576;  495.700;  670.000;  668.000
347.709;  331.700; -123.000;  -52.000
347.843; -185.000; -933.000; -825.000
347.976;  130.700;  235.000;  294.000
348.110; -332.500;-1268.000;-1186.000
348.243; -166.800; -679.000; -772.000
348.377;   56.200;  -26.000;   60.000
348.510;  188.000;  403.000;  540.000
348.644;  -27.800;  -37.000; -159.000
348.777;   89.100;  180.000;  191.000
348.911;  -39.200; -142.000; -112.000
349.044;  343.700;  471.000;  448.000
349.178;  165.800;-1069.000;-1006.000
349.311;  290.600;  141.000;  255.000
349.444;   33.400; -927.000; -813.000
349.578;   14.300; -347.000; -200.000
349.711; -208.500; -959.000; -862.000
349.845;  -13.700; -661.000; -591.000
349.978; -288.700;-1224.000;-1137.000
350.111; -118.400; -546.000; -612.000
350.244; -133.500; -596.000; -700.000
350.378;   42.600; -392.000; -393.000
350.511;  -93.300; -393.000; -426.000
350.644; -168.600; -808.000; -806.000
350.778;   63.600;  168.000;  104.000
350.911;   48.400;  134.000;  140.000
351.044; -130.900; -685.000; -615.000
351.177;  -25.600; -321.000; -281.000
351.310;  -18.600;    3.000; -131.000
351.444; -139.300; -888.000; -788.000
351.577;  222.700;  140.000;   90.000
351.710;  239.700;  593.000;  417.000
351.843;  -25.100; -165.000;  -77.000
351.976;   56.100;  149.000;  -79.000
352.109; -151.000; -621.000; -612.000
352.242;  -35.400; -464.000; -419.000
352.376; -116.000; -580.000; -636.000
352.509;  288.700; -437.000; -356.000
352.642;  -26.400; -654.000; -604.000
352.775;  149.100; -141.000;  -98.000
352.908; -238.900; -933.000; -904.000
353.041; -162.700; -814.000; -824.000
353.174; -108.500; -551.000; -424.000
353.307; -139.500; -753.000; -764.000
353.440;  156.200;  541.000;  453.000
353.573; -226.900; -957.000;-1008.000
353.706; -108.100; -384.000; -558.000
353.839;   12.100; -264.000; -220.000
353.971; -144.200; -657.000; -512.000
354.104; -123.000; -896.000; -835.000
354.237;  -50.700; -627.000; -662.000
354.370; -133.400; -846.000; -879.000
354.503; -345.000;-1231.000;-1308.000
354.636;  -24.500; -529.000; -348.000
354.769; -228.300; -937.000; -860.000
354.902;   20.000; -230.000; -139.000
355.034;   31.600; -164.000; -220.000
355.167;    3.700; -262.000; -162.000
355.300; -180.600;-1061.000; -880.000
355.433; 2079.100;  -71.000;  -14.000
355.565; 3236.500; -402.000; -384.000
355.698;  816.700; -356.000; -296.000
355.831;    1.900; -882.000; -801.000
355.964;  134.300; -285.000; -170.000
356.096; -175.700; -856.000; -843.000
356.229;    8.400; -523.000; -530.000
356.362;  755.400; -373.000; -266.000
356.494; 1334.000; -229.000; -162.000
356.627;  883.500;  269.000;  377.000
356.760; 1398.700;  120.000;   53.000
356.892; 2083.000; -286.000; -601.000
357.025; 1097.100;  403.000;  389.000
357.157;  956.900; -167.000; -179.000
357.290; 1494.800; -856.000; -713.000
357.423;  398.300; -667.000; -556.000
357.555;  244.800; -217.000; -228.000
357.688;  202.400; -483.000; -364.000
357.820;  646.000; -870.000; -877.000
357.953; 5668.000; -563.000; -589.000
358.085; 1180.600; -632.000; -612.000
358.218; 1632.300;-1131.000; -932.000
358.350;  341.900;  -58.000;  312.000
358.483; -241.900;-1300.000;-1187.000
358.615;  -71.500;-1182.000;-1078.000
358.747; -175.300;-1187.000;-1058.000
358.880;   36.000; -810.000; -744.000
359.012;   12.900; -376.000; -202.000
359.145;  -61.300; -480.000; -511.000
359.277;   23.200; -962.000; -913.000
359.409; 4724.300;  536.000;  231.000
359.542; 1122.000; -738.000; -688.000
359.674;  168.100;   46.000;   13.000
359.806;  -94.900; -565.000; -438.000
359.939;  -30.800; -617.000; -516.000
360.071;   -6.900; -583.000; -579.000
360.203;    0.200; -411.000; -364.000
360.335;  146.500;  164.000;  -16.000
360.468;  350.700; -249.000; -307.000
360.600; 3923.300; -547.000; -454.000
360.732; 6006.300; -546.000; -423.000
360.864;  837.100;-1216.000;-1044.000
360.996;  433.000; -516.000; -554.000
361.129;   89.400; -389.000; -598.000
361.261;   86.500;  110.000; -113.000
361.393;   -8.200; -252.000; -214.000
361.525;   95.400;   94.000;  244.000
361.657;  -79.300; -821.000; -703.000
361.789;   39.900; -139.000; -155.000
361.921;  333.300; -642.000; -593.000
362.053;  477.200;  524.000;  541.000
362.185;  125.900;  288.000;   72.000
362.318; -136.800; -709.000; -705.000
362.450;  229.600;  294.000;  444.000
362.582;   73.700; -913.000; -870.000
362.714;  -65.700; -353.000; -332.000
362.846; -117.000; -606.000; -490.000
362.978; -225.900; -941.000; -811.000
363.109;   90.500; -161.000; -260.000
363.241;  694.600; -739.000; -749.000
363.373;  977.600; -649.000; -564.000
363.505; 1534.800; -186.000;  -91.000
363.637;  354.400; -787.000; -601.000
363.769; -220.700;-1067.000;-1080.000
363.901;  -93.700; -596.000; -654.000
364.033; -219.400;-1103.000;-1062.000
364.165;   26.800; -283.000; -283.000
364.296;  193.500; -316.000; -177.000
364.428;  208.600;-1344.000;-1220.000
364.560;  -86.100; -679.000; -661.000
364.692; -112.500; -738.000; -835.000
364.824;  354.800; -588.000; -456.000
364.955;  902.900; -402.000; -564.000
365.087; 2122.700;-1097.000; -852.000
365.219;  134.500; -686.000; -816.000
365.351;  -73.700; -526.000; -572.000
365.482;  140.400;  300.000;  240.000
365.614;  -29.200; -402.000; -314.000
365.746; -146.600; -729.000; -752.000
365.877; -147.300; -706.000; -672.000
366.009;  642.400;  -35.000;  -62.000
366.141; -128.300;-1249.000;-1134.000
366.272; -181.100; -803.000; -719.000
366.404; -189.400;-1005.000; -874.000
366.535;   39.200; -139.000;  -12.000
366.667; -141.600; -644.000; -649.000
366.799;  151.700;  353.000;  203.000
366.930; -208.700; -862.000; -996.000
367.062;  334.700; -639.000; -613.000
367.193;  393.300; -872.000; -842.000
367.325;  -74.000; -580.000; -684.000
367.456;   54.400; -246.000;   31.000
367.588;  433.800; -371.000; -318.000
367.719;   84.300;  -44.000;  -45.000
367.851;   11.600; -222.000; -241.000
367.982;  -94.900; -875.000; -732.000
368.113;  152.100; -475.000; -358.000
368.245; -218.700; -960.000; -841.000
368.376;   11.500; -254.000; -302.000
368.508;   -6.800; -188.000; -263.000
368.639; -226.900;-1166.000;-1034.000
368.770;  -47.800; -670.000; -589.000
368.902; -107.200; -836.000; -926.000
369.033; -188.800; -906.000; -855.000
369.164;  -33.200; -720.000; -653.000
369.296; -179.100; -452.000; -601.000
369.427;   42.700; -209.000; -144.000
369.558;  -69.200; -593.000; -377.000
369.689; -128.300; -721.000; -569.000
369.821; -226.800; -951.000; -845.000
369.952;   44.500;   42.000; -108.000
370.083;  -40.900; -229.000; -108.000
370.214; -106.700; -735.000; -650.000
370.345;   44.800;   65.000;   81.000
370.477; -123.500; -810.000; -790.000
370.608;  361.200; -328.000; -264.000
370.739; -143.200;-1233.000;-1292.000
370.870; -126.000;-1102.000; -923.000
371.001;  163.600; -378.000; -467.000
371.132; -132.200; -754.000; -735.000
371.263;   19.600;  -42.000; -148.000
371.394; -243.200; -841.000; -748.000
371.525;  114.600;  345.000;  225.000
371.657; -176.800; -808.000; -670.000
371.788;  209.000;  103.000;  199.000
371.919;  223.800; -384.000; -304.000
372.050; 5469.800;  -91.000; -156.000
372.181; 1528.400; -188.000; -294.000
372.311;  573.900;   42.000; -127.000
372.442;   35.300; -457.000; -451.000
372.573;   -9.600; -444.000; -340.000
372.704; -222.200;-1008.000; -980.000
372.835;  167.900; -228.000; -289.000
372.966;  -89.500; -646.000; -554.000
373.097; -108.300; -575.000; -711.000
373.228;  -67.200; -717.000; -542.000
373.359;  163.400; -824.000; -536.000
373.490; 1354.800; -881.000; -727.000
373.620; 1672.600;-1001.000; -803.000
373.751; 2576.400; -332.000; -396.000
373.882; 1122.000; -663.000; -733.000
374.013;  104.100; -449.000; -262.000
374.143;  -58.400; -581.000; -659.000
374.274; -175.500; -987.000; -908.000
374.405;  308.000; -388.000; -276.000
374.536;  643.500; -526.000; -387.000
374.666; 1565.400; -759.000; -807.000
374.797;  313.500; -817.000; -868.000
374.928; 1247.400; -710.000; -560.000
375.058; 1243.500; -535.000; -500.000
375.189;  143.500;  -59.000;  -93.000
375.320; -186.600; -928.000;-1034.000
375.450;  -66.800; -625.000; -616.000
375.581;  -44.200; -526.000; -436.000
375.712;  -24.400; -574.000; -250.000
375.842;  483.600; -438.000; -415.000
375.973;  335.500; -554.000; -513.000
376.103;  -92.200; -665.000; -648.000
376.234; -104.900; -531.000; -552.000
376.364;  -94.800; -944.000; -867.000
376.495;  603.000;  925.000;  529.000
376.625;  -19.100; -472.000; -485.000
376.756;  119.400; -709.000; -678.000
376.886; -161.800;-1178.000;-1026.000
377.017;  210.600;-1048.000;-1061.000
377.147;  883.600; -786.000; -782.000
377.278;  163.500;  174.000;  228.000
377.408; -197.600; -801.000; -815.000
377.538; -137.700; -707.000; -693.000
377.669; -113.600; -537.000; -613.000
377.799; -167.100; -645.000; -635.000
377.929;  -95.200; -610.000; -428.000
378.060; -215.800; -781.000; -847.000
378.190;  -75.900; -726.000; -531.000
378.320;  -11.300; -401.000; -406.000
378.451;   27.600; -131.000;  -22.000
378.581;   27.400;  -67.000; -110.000
378.711;  316.500; 1035.000;  866.000
378.841;  -17.700; -533.000; -675.000
378.972; -135.900; -871.000; -751.000
379.102;    9.900; -652.000; -579.000
379.232;   -6.400; -126.000;  -73.000
379.362; -178.000;-1001.000; -885.000
379.492;   41.500; -373.000; -424.000
379.623;  227.000;    0.000;  111.000
379.753; -172.100;-1107.000; -974.000
379.883;  369.100;   59.000;  156.000
380.013;  -37.300;-1081.000;-1017.000
380.143; -173.700;-1097.000;-1056.000
380.273; -186.700; -985.000; -861.000
380.403;   42.900; -344.000; -257.000
380.533;  -33.000; -651.000; -664.000
380.663;  151.500;  173.000;  128.000
380.793; -185.400;-1027.000;-1074.000
380.923;   14.400; -103.000;  -34.000
381.053; -142.900; -613.000; -623.000
381.183;    9.100; -106.000; -248.000
381.313;   46.700; -656.000; -470.000
381.443;   72.300; -692.000; -473.000
381.573;  286.900; -402.000; -409.000
381.703;  347.300;-1249.000;-1095.000
381.833; -294.200;-1454.000;-1336.000
381.963;  251.800; -134.000;  -87.000
382.093; 2193.200; -925.000; -909.000
382.223;  584.100; -713.000; -602.000
382.353;  -55.700; -801.000; -608.000
382.482;  506.200;-1091.000; -964.000
382.612; 1121.000; -872.000; -644.000
382.742;  627.200; -695.000; -622.000
382.872;  395.000; -565.000; -551.000
383.002;  149.800;  347.000; -132.000
383.131;   10.900; -226.000; -160.000
383.261;  -22.400; -706.000; -768.000
383.391;  586.000; -552.000; -377.000
383.521; 7127.200;  451.000;  263.000
383.650; 1584.600; -947.000; -904.000
383.780;   -5.000; -783.000; -656.000
383.910;  271.700;  880.000;  802.000
384.039;   62.500; -794.000; -656.000
384.169;  271.000;-1205.000;-1017.000
384.299;   -9.800; -650.000; -662.000
384.428; -154.500; -764.000; -680.000
384.558;  -51.400; -308.000; -275.000
384.687;  -30.000; -414.000; -334.000
384.817;  100.900;   75.000;   -2.000
384.947;   78.400; -234.000; -141.000
385.076;  592.300;  982.000;  912.000
385.206;  235.000;  369.000;  480.000
385.335;  -55.600; -549.000; -417.000
385.465; -166.000; -655.000; -663.000
385.594;  277.500;  -53.000;  -44.000
385.724;  567.500; -868.000; -838.000
385.853;  239.200; -296.000; -270.000
385.982; 2030.200; -743.000; -787.000
386.112; 3052.000;-1052.000; -871.000
386.241;  211.700; -307.000; -312.000
386.371;   46.700; -174.000;  -87.000
386.500;   -6.500; -825.000; -789.000
386.629;   60.200; -874.000; -817.000
386.759;  163.400;  -43.000;   68.000
386.888;   64.500; -170.000; -250.000
387.017; -100.900; -648.000; -620.000
387.147; -116.900; -771.000; -798.000
387.276;    6.900; -410.000; -397.000
387.405;   55.600; -398.000; -342.000
387.535;  -60.500; -452.000; -361.000
387.664;  -63.600; -692.000; -620.000
387.793;  128.900; -198.000; -113.000
387.922;  816.500;  255.000;  200.000
388.052;   36.800; -576.000; -423.000
388.181;   45.200; -342.000; -472.000
388.310;  -32.600; -889.000; -710.000
388.439;  -74.900; -749.000; -742.000
388.568;  378.000;  365.000;  244.000
388.697; 1496.200; -756.000; -653.000
388.826;  264.400; -768.000; -666.000
388.956;  111.700; -285.000; -307.000
389.085;  -32.400; -347.000; -287.000
389.214; -141.100; -842.000; -872.000
389.343;  -88.200; -645.000; -413.000
389.472;  943.100;  126.000;  149.000
389.601; 1036.400;   91.000;    0.000
389.730;   36.000; -568.000; -687.000
389.859;  194.200;  226.000;   46.000
389.988;  341.100; -423.000; -408.000
390.117;  254.500; -168.000; -146.000
390.246;   26.700; -331.000; -320.000
390.375;  141.100; -673.000; -626.000
390.504;  -65.100; -703.000; -621.000
390.633; -183.000; -672.000; -726.000
390.761;  -97.000; -732.000; -645.000
390.890;   65.100;   -4.000; -130.000
391.019;  -26.300; -421.000; -441.000
391.148; -189.800; -826.000; -855.000
391.277; -102.300; -576.000; -493.000
391.406; -157.900; -821.000; -805.000
391.534;  116.600;  574.000; -301.000
391.663; -108.000; -583.000; -645.000
391.792; -158.900; -673.000; -701.000
391.921;  182.300;   -3.000;   15.000
392.050;  294.100; -287.000; -228.000
392.178; -108.800;-1206.000;-1061.000
392.307;  220.900; -758.000; -712.000
392.436;  105.600; -427.000; -641.000
392.564;   73.800;  166.000;   -6.000
392.693; -122.800; -860.000; -682.000
392.822;  297.500; -529.000; -534.000
392.950;   93.600; -880.000; -714.000
393.079;  475.300; -188.000; -328.000
393.208;   15.300; -488.000; -511.000
393.336;   44.400; -170.000; -145.000
393.465;  -69.800; -317.000; -199.000
393.593;  116.300;   62.000;   79.000
393.722; -253.700;-1121.000; -916.000
393.850;   -1.500; -188.000;  -61.000
393.979; -270.500; -926.000; -805.000
394.107;  -66.800; -517.000; -537.000
394.236;    5.100; -570.000; -507.000
394.364;  545.400;  383.000;  206.000
394.493;  736.800; -911.000; -767.000
394.621;   15.800; -955.000; -916.000
394.750; 1703.600; -873.000; -923.000
394.878; 6683.300; -247.000; -149.000
395.007; 8560.800; -721.000; -807.000
395.135;  660.800; -790.000; -721.000
395.263; -178.600;-1038.000;-1040.000
395.392;   91.600;  -25.000; -107.000
395.520; -217.200; -818.000; -679.000
395.648; -139.100; -865.000; -915.000
395.777;   22.500; -366.000; -405.000
395.905;  -61.100; -449.000; -564.000
396.033;   76.700;  217.000;  172.000
396.162; 1195.600; -399.000; -453.000
396.290; 1050.400;  -17.000;   -2.000
396.418;  146.400; -555.000; -514.000
396.546; -150.200; -571.000; -466.000
396.674; -172.300; -850.000; -878.000
396.803;   46.900;  -72.000;  -23.000
396.931;  164.500; -179.000; -199.000
397.059;    6.100;-1026.000; -989.000
397.187; -185.700;-1026.000; -975.000
397.315; -240.700; -884.000; -649.000
397.443; -146.700; -592.000; -443.000
397.572; -136.100; -578.000; -424.000
397.700;  -19.300; -607.000; -614.000
397.828;   33.300;  120.000;  -90.000
397.956;  -28.000; -508.000; -478.000
398.084;  -89.000; -767.000; -626.000
398.212;  110.800;  137.000;  124.000
398.340;   45.100;  -56.000;  159.000
398.468;   59.500; -390.000; -169.000
398.596; -245.800; -993.000; -953.000
398.724; -167.700; -762.000; -767.000
398.852; -285.300;-1024.000; -976.000
398.980; -102.300; -560.000; -560.000
399.108; -123.200; -982.000; -735.000
399.236;  118.300;   13.000;    8.000
399.363;   83.900;  222.000;  196.000
399.491; -118.900; -404.000; -398.000
399.619; -217.600; -829.000; -800.000
399.747; -154.900; -859.000; -771.000
399.875;  175.300;  220.000;  234.000
400.003;  -50.200; -359.000; -284.000
400.130; -102.900; -421.000; -341.000
400.258;   31.000;  -83.000;   38.000
400.386;  -51.700; -352.000; -168.000
400.514;  -36.000; -526.000; -587.000
400.641; -173.900; -928.000; -802.000
400.769; -236.100; -979.000; -888.000
400.897; -195.600; -838.000; -793.000
401.025;    0.700; -166.000; -152.000
401.152;   62.400;  220.000;   38.000
401.280; -110.300; -430.000; -429.000
401.408; -226.500; -712.000; -576.000
401.535; -160.800; -735.000; -758.000
401.663; -350.500;-1134.000;-1054.000
401.790; -102.700; -514.000; -525.000
401.918;  161.200;  436.000;  405.000
402.046;   29.400;  134.000;  122.000
402.173;   39.500;  -18.000;    7.000
402.301;  -57.900; -519.000; -397.000
402.428;  141.800;  528.000;  383.000
402.556; -225.400;-1188.000; -913.000
402.683;   -3.500;  -20.000;   -1.000
402.811;   12.000;  -37.000; -206.000
402.938;   28.700;   20.000;   27.000
403.066;  301.900; -574.000; -558.000
403.193;  488.400;  299.000;  239.000
403.321;  378.900; -396.000; -574.000
403.448;  489.600;   83.000;   27.000
403.575;  234.600;  -90.000;  -46.000
403.703; -156.900; -732.000; -557.000
403.830;  -46.000; -531.000; -496.000
403.957; -228.200;-1117.000;-1023.000
404.085;   93.700;  -61.000; -172.000
404.212;  256.100;  -50.000;   63.000
404.339;  717.600; -566.000; -306.000
404.467;13267.500; -612.000; -524.000
404.594; 7585.000; -287.000; -227.000
404.721; 1621.300; -869.000; -764.000
404.848;  205.900; -113.000; -202.000
404.976; -177.700; -856.000; -783.000
405.103;   29.900;  -14.000;  -82.000
405.230;   38.300;  190.000;  226.000
405.357;  130.900;  117.000;   44.000
405.484;  675.300;  -49.000;    5.000
405.612;  147.400; -548.000; -563.000
405.739;  -98.800; -488.000; -243.000
405.866;  240.000;  669.000;  385.000
405.993;  -46.500; -398.000; -102.000
406.120; -237.000; -801.000; -887.000
406.247;  -63.800; -323.000; -342.000
406.374;  773.000;  540.000;  629.000
406.501;  110.500; -632.000; -702.000
406.628; -118.000; -621.000; -589.000
406.755; -147.500; -803.000; -620.000
406.882;  -10.000; -228.000; -277.000
407.009; -151.800; -719.000; -628.000
407.136;  120.800; -480.000; -401.000
407.263;  177.100; -939.000; -829.000
407.390; -108.100; -692.000; -614.000
407.517; -293.200;-1139.000;-1187.000
407.644;  -44.400; -332.000; -256.000
407.771;  -79.600; -249.000; -287.000
407.898;   91.600;  168.000;  328.000
408.025;  -81.700; -421.000; -313.000
408.151;   69.000;   82.000;  153.000
408.278;  -62.100; -267.000; -216.000
408.405; -173.100; -931.000; -899.000
408.532; -107.000; -549.000; -542.000
408.659; -162.300; -677.000; -648.000
408.785; -360.200;-1298.000;-1170.000
408.912;  -88.800; -412.000; -296.000
409.039; -182.900; -610.000; -686.000
409.166; -158.700; -591.000; -555.000
409.292; -169.600; -571.000; -534.000
409.419; -172.600; -665.000; -649.000
409.546;  -98.800; -431.000; -192.000
409.672; -161.700; -713.000; -545.000
409.799;    5.500;  -36.000;   34.000
409.926;  -36.100; -180.000; -179.000
410.052; -322.200;-1127.000;-1091.000
410.179;  -56.700; -368.000; -392.000
410.305; -135.100; -375.000; -493.000
410.432;  -27.900; -220.000; -333.000
410.558; -114.600; -305.000; -380.000
410.685; -141.600; -688.000; -431.000
410.812; -162.200; -409.000; -588.000
410.938; -226.000; -964.000; -808.000
411.065; -147.200; -671.000; -645.000
411.191;   40.800; -189.000; -174.000
411.317; -202.700; -823.000; -742.000
411.444;  -49.600; -317.000; -246.000
411.570;  -64.200; -339.000; -294.000
411.697; -186.400; -758.000; -752.000
411.823; -288.300; -989.000; -999.000
411.949;    0.700;  -56.000;   17.000
412.076; -159.100; -539.000; -519.000
412.202; -173.700; -758.000; -757.000
412.329; -228.200; -798.000; -752.000
412.455; -187.100; -821.000; -657.000
412.581;   28.400;  -15.000;  172.000
412.707;  -78.500; -540.000; -457.000
412.834;   70.400;  156.000;  219.000
412.960; -102.800; -785.000; -784.000
413.086; -197.500; -743.000; -701.000
413.212;  334.100;  604.000;  578.000
413.339; -142.200; -685.000; -701.000
413.465;   -3.300; -364.000; -310.000
413.591; -170.600; -757.000; -474.000
413.717;  -55.400; -358.000; -366.000
413.843; -211.500; -839.000; -861.000
413.969;  -43.200;  -47.000; -292.000
414.096; -150.000; -679.000; -679.000
414.222;   70.000;  -33.000;   85.000
414.348;  -11.100; -652.000; -385.000
414.474;  197.100;   38.000;  -52.000
414.600;    8.200; -126.000; -144.000
414.726;   50.500;  -96.000;  -55.000
414.852;  -71.000; -365.000; -342.000
414.978;  141.800;  104.000;  -18.000
415.104;  173.400;   38.000;   80.000
415.230;  138.200; -329.000; -330.000
415.356;  139.000; -409.000; -514.000
415.482;  466.900;   13.000;  -35.000
415.608;  681.200; -247.000; -323.000
415.734; 2200.400;   67.000;   38.000
415.860;44709.700; -875.000; -767.000
415.986;29228.900; -685.000; -607.000
416.111; 2459.900; -798.000; -652.000
416.237;  597.600; -424.000; -571.000
416.363; 2822.400; -765.000; -733.000
416.489; 9233.400; -324.000; -251.000
416.615;  963.500; -707.000; -742.000
416.741;   14.400; -677.000; -784.000
416.866; -119.700; -673.000; -736.000
416.992; -164.500; -801.000; -818.000
417.118;   20.400;  -41.000;  -80.000
417.244;  -72.900; -798.000; -531.000
417.369; -130.900; -801.000; -612.000
417.495;   25.400; -325.000; -254.000
417.621; -124.600;-1015.000; -803.000
417.746;   62.600; -579.000; -572.000
417.872;  127.600; -254.000; -144.000
417.998;  213.800; -515.000; -530.000
418.123; 2696.300;-1073.000; -845.000
418.249;11909.500; -512.000; -601.000
418.374; 1564.500; -916.000; -824.000
418.500;  309.000; -383.000; -482.000
418.626;  293.100;   70.000;  -59.000
418.751;  308.700; -549.000; -448.000
418.877;  521.000; -637.000; -643.000
419.002; 4540.300; -688.000; -560.000
419.128;27969.000; -930.000; -721.000
419.253; 6121.700; -967.000; -837.000
419.379;  887.800; -391.000; -338.000
419.504;  938.200;  325.000;  415.000
419.629; 1197.600; -393.000; -212.000
419.755; 8936.000; -317.000; -254.000
419.880;46866.100;  -98.000;   67.000
420.006;25841.400; -280.000; -221.000
420.131;60791.500; -662.000; -775.000
420.256; 7896.800; -315.000; -316.000
420.382; 1185.800; -665.000; -687.000
420.507;  179.100; -649.000; -778.000
420.632;  261.900; -337.000; -339.000
420.758;  336.600; -251.000; -425.000
420.883; -147.400; -876.000; -672.000
421.008; -119.900; -775.000; -619.000
421.133; -106.000; -509.000; -467.000
421.259;  -24.300; -325.000; -259.000
421.384; -186.700; -834.000; -693.000
421.509; -117.600;-1052.000; -862.000
421.634; 1518.300; -936.000; -820.000
421.759;  616.000; -359.000; -327.000
421.885;  -86.000; -717.000; -656.000
422.010;  -84.500; -673.000; -542.000
422.135; -227.600; -695.000; -727.000
422.260;  134.600;  340.000;  280.000
422.385;   -6.800;   12.000;  -98.000
422.510;   96.800;  151.000;  -26.000
422.635;   93.800;  -87.000;  -43.000
422.760;  181.400; -766.000; -791.000
422.885;  144.000;  -57.000;  -80.000
423.010;   45.900; -112.000; -169.000
423.135; -128.100; -481.000; -561.000
423.260;   16.400; -150.000; -245.000
423.385;  173.600;  476.000;  222.000
423.510;  142.200;   71.000;  -22.000
423.635;  175.400;  133.000;   45.000
423.760;  198.800;  383.000;  328.000
423.885;  149.500;  336.000;  391.000
424.010;   90.900;  -68.000;  -13.000
424.135;   17.900;    5.000;  -33.000
424.259;  -92.200; -654.000; -457.000
424.384;  -63.900; -279.000; -272.000
424.509;   22.300; -260.000; -186.000
424.634; -128.500; -761.000; -623.000
424.759;  -14.000; -688.000; -544.000
424.883;   53.100; -506.000; -527.000
425.008;  408.800; -502.000; -410.000
425.133; 4575.600; -679.000; -653.000
425.258; 1901.600; -517.000; -381.000
425.382; 1718.300; -867.000; -774.000
425.507; 3834.400; -487.000; -543.000
425.632;  727.300; -802.000; -663.000
425.756; 1050.500; -256.000; -146.000
425.881;16437.000; -831.000; -857.000
426.006;39297.600; -604.000; -355.000
426.130; 5385.600; -696.000; -508.000
426.255;  811.700; -611.000; -491.000
426.379;  427.100; -189.000; -577.000
426.504;  947.800;  660.000;  544.000
426.629; 9244.000; -519.000; -466.000
426.753; 5597.100;   64.000;  -46.000
426.878;  703.200; -252.000; -288.000
427.002;  480.100; -651.000; -668.000
427.127; 3778.100;  -35.000; -158.000
427.251;25590.600;  372.000;  401.000
427.375; 6216.600; -191.000; -173.000
427.500; 3688.900; -616.000; -610.000
427.624; 1113.100; -234.000; -400.000
427.749;  245.500; -216.000; -225.000
427.873;  -22.500; -499.000; -412.000
427.997;  -13.300; -222.000; -230.000
428.122;  242.400;  795.000;  703.000
428.246;  218.800;  433.000;  434.000
428.371; -194.600; -869.000; -773.000
428.495; -124.600; -624.000; -646.000
428.619;  -27.700; -186.000; -117.000
428.743;  153.100;   65.000;  132.000
428.868;   50.000; -732.000; -643.000
428.992; 2169.700; -219.000; -326.000
429.116;  784.400; -329.000; -357.000
429.240;  450.000;  419.000;  426.000
429.365;    9.200; -454.000; -574.000
429.489;  -34.200; -638.000; -647.000
429.613;  105.700; -236.000; -177.000
429.737;  165.500; -563.000; -432.000
429.861;  670.900; -247.000; -133.000
429.985;13065.400; -425.000; -305.000
430.109;12804.200; -770.000; -908.000
430.234; 1425.800;   76.000;  -50.000
430.358;  220.000; -250.000; -160.000
430.482;  -94.900; -672.000; -564.000
430.606;  -64.100; -655.000; -375.000
430.730;   59.400; -437.000; -388.000
430.854;  136.000; -909.000; -835.000
430.978;  -87.500; -795.000; -764.000
431.102;  -89.200; -499.000; -422.000
431.226; -167.400; -874.000; -815.000
431.350;  123.000;  345.000;  422.000
431.474;  -73.500; -661.000; -373.000
431.597; -240.700;-1060.000; -848.000
431.721;  -85.200; -276.000; -267.000
431.845; -191.800; -704.000; -472.000
431.969;  -73.200; -304.000; -349.000
432.093; -138.200; -395.000; -317.000
432.217;   46.200;   32.000;   82.000
432.341; -131.000; -523.000; -518.000
432.464;   68.500;   96.000;   40.000
432.588;  345.000; -401.000; -329.000
432.712;  202.900;  -52.000;  -52.000
432.836;  207.000;  213.000;  263.000
432.959;   24.500; -372.000; -311.000
433.083;  257.100;   11.000;    2.000
433.207;  948.100;  285.000;  930.000
433.330;12301.200; -391.000; -200.000
433.454;13408.800; -654.000; -638.000
433.578; 7935.800;  583.000;  278.000
433.701; 1357.800; -623.000; -675.000
433.825;  276.500; -292.000; -299.000
433.949;  318.800;   28.000;  -72.000
434.072;   63.600; -410.000; -323.000
434.196;   37.100; -309.000; -117.000
434.319; 8163.800;25482.000;25124.000
434.443; 1700.600; -656.000; -603.000
434.566; 6004.600;  281.000;   62.000
434.690;  924.700; -637.000; -383.000
434.813;  198.100; -251.000; -173.000
434.937;  -73.000; -569.000; -696.000
435.060;  -32.900; -423.000; -332.000
435.184;  391.500; -492.000; -217.000
435.307;  243.500;  159.000;  102.000
435.431;   57.500;  -40.000;   24.000
435.554; -100.000; -399.000; -240.000
435.677;  -97.300; -350.000; -258.000
435.801;  -45.900;  -25.000;   49.000
435.924;   14.900;    1.000;  -67.000
436.048; -214.200;-1019.000; -732.000
436.171;  -80.100; -240.000;  -66.000
436.294;   46.800; -248.000; -229.000
436.417;  313.800; -963.000; -849.000
436.541; -124.000; -814.000; -840.000
436.664;  -33.400; -242.000; -316.000
436.787;   29.500;   13.000;  113.000
436.910; -162.200; -792.000; -422.000
437.034;   53.900;  142.000;  143.000
437.157;  154.000;  -11.000;    0.000
437.280;  -61.000; -392.000; -292.000
437.403; -181.300; -982.000; -869.000
437.526;  784.000; -903.000; -865.000
437.649; 2835.600; -505.000; -332.000
437.772;  276.700; -692.000; -540.000
437.896;  269.800;  700.000;  544.000
438.019; -164.200; -758.000; -503.000
438.142; -116.800; -596.000; -506.000
438.265;  -22.400; -639.000; -670.000
438.388;  795.400; -520.000; -410.000
438.511;   83.300; -597.000; -394.000
438.634;  -24.100; -247.000; -125.000
438.757; -236.400; -693.000; -619.000
438.880;    9.600;  -34.000;  -57.000
439.003; -116.400; -417.000; -437.000
439.126;  -37.800; -287.000; -167.000
439.248;  -55.600;  -98.000; -139.000
439.371;  -10.200;    9.000;  -53.000
439.494;  164.200;  510.000;  439.000
439.617;  -25.800;   65.000;  -88.000
439.740; -280.400; -968.000; -816.000
439.863; -196.500; -755.000; -595.000
439.986; -187.900; -476.000; -431.000
440.108;  -31.400; -161.000; -112.000
440.231; -297.300; -950.000; -836.000
440.354;  -17.000;  -64.000; -150.000
440.477;   26.300; -566.000; -542.000
440.599;   56.200; -200.000; -225.000
440.722; -218.100; -709.000; -586.000
440.845;  216.300;  751.000;  928.000
440.968; -135.900; -415.000; -311.000
441.090;  -47.600; -199.000;  -33.000
441.213; -305.600;-1021.000; -825.000
441.336;  -32.300; -159.000;   -5.000
441.458;  -72.900; -549.000; -396.000
441.581; -124.500; -628.000; -629.000
441.703;  -86.600; -152.000;   13.000
441.826; -146.200; -557.000; -400.000
441.948;  -46.500;   56.000;   51.000
442.071;  154.800;  555.000;  424.000
442.193; -173.500; -531.000; -485.000
442.316;  126.800;  152.000;   97.000
442.438;  191.700; -233.000;  -10.000
442.561;  212.300;  272.000;  262.000
442.683;  758.600; -809.000; -522.000
442.806; 1507.800;   -8.000;   74.000
442.928;  -86.300; -859.000; -604.000
443.051; -109.300; -577.000; -373.000
443.173; -128.000; -341.000; -339.000
443.295;  -87.900; -263.000; -371.000
443.418;  -75.000; -321.000;  -29.000
443.540;   33.600; -106.000;   -4.000
443.662; -176.600; -563.000; -465.000
443.785;   41.500;  335.000;  199.000
443.907; -138.400; -362.000; -208.000
444.029; -168.800; -767.000; -494.000
444.152; -225.400; -644.000; -554.000
444.274;   17.900;  -18.000;  -24.000
444.396; -148.600; -461.000; -221.000
444.518; -232.700; -691.000; -454.000
444.640; -145.700; -268.000; -111.000
444.763;   49.000;  388.000;  249.000
444.885; -183.400; -432.000; -392.000
445.007;   10.100;   35.000;   86.000
445.129; -173.400; -610.000; -515.000
445.251;  -94.400; -372.000; -439.000
445.373; -214.700; -537.000; -386.000
445.495;   86.100;  242.000;  350.000
445.617;  165.100;  853.000;  753.000
445.739;  -92.100; -215.000;  -97.000
445.861;  -22.700; -245.000; -112.000
445.984;   -6.000; -267.000; -101.000
446.105;  308.600; -418.000; -251.000
446.227;  851.200; -176.000;  -19.000
446.349;   17.200; -358.000; -249.000
446.471; -146.500; -615.000; -448.000
446.593;  -69.700; -316.000;   19.000
446.715;   52.800;  -67.000;   41.000
446.837;  214.600;  697.000;  832.000
446.959; -122.300; -457.000; -478.000
447.081; -194.300; -628.000; -518.000
447.203;  200.500;  862.000;  834.000
447.325;  -92.700; -270.000;   42.000
447.446;   76.800;  286.000;  530.000
447.568; -269.200; -921.000; -803.000
447.690; -101.600; -236.000; -245.000
447.812; -266.100; -798.000; -519.000
447.933;   13.000;  155.000;  127.000
448.055;  -61.700; -306.000; -261.000
448.177;  287.900;   31.000;   79.000
448.299;   40.000; -935.000; -727.000
448.420;  101.800;  -25.000;  159.000
448.542;   -8.300;   -3.000;   33.000
448.664;   63.900;  109.000;  322.000
448.785;   17.400;  265.000;   83.000
448.907;  -93.900; -614.000; -353.000
449.028;  -68.900; -771.000; -471.000
449.150;  203.300;  492.000;  589.000
449.272; -283.000;-1044.000; -913.000
449.393;  156.200;  612.000;  694.000
449.515; -251.200; -634.000; -581.000
449.636;  -29.800; -264.000; -155.000
449.758;  206.600;  763.000;  622.000
449.879;  -93.100; -498.000; -396.000
450.001;  -71.700; -149.000;  -49.000
450.122;   34.700;  -95.000;  162.000
450.244;   39.800;   37.000;  364.000
450.365; -116.100; -495.000; -301.000
450.486;   45.400;   80.000;  268.000
450.608;  161.000;  393.000;  326.000
450.729;  301.000;  578.000;  645.000
450.850;  137.000; -574.000; -466.000
450.972; 1912.300; -552.000; -389.000
451.093;11594.300;  190.000;  588.000
451.214; 4354.700; -516.000; -337.000
451.336;  885.900;  773.000;  579.000
451.457;  218.500;  264.000;  393.000
451.578;    0.000; -118.000;  -74.000
451.699; -197.700; -546.000; -540.000
451.821;  -36.500; -284.000;  -50.000
451.942;   52.200;  278.000;  285.000
452.063;  170.300;  228.000;  419.000
452.184; 1465.200;  -54.000;  -49.000
452.305; 2487.200;  103.000;  170.000
452.427;  301.500; -549.000; -301.000
452.548;   62.300;   23.000;   79.000
452.669;  -26.600; -257.000;  -89.000
452.790;    0.300;    3.000;  -18.000
452.911;  102.600;  195.000;  259.000
453.032; -100.200; -289.000;  -60.000
453.153;   18.800;  -29.000;   81.000
453.274;  231.600;  737.000;  868.000
453.395;  -20.400;  -51.000;  175.000
453.516;  347.800; 1317.000; 1388.000
453.637;  -83.800; -205.000; -150.000
453.758;  -20.500;   15.000;   69.000
453.879; -165.200; -462.000; -250.000
454.000;  263.800; 1086.000;  948.000
454.121; -178.500; -554.000; -326.000
454.242; -145.700; -599.000; -383.000
454.362;  -57.900;  -99.000;  114.000
454.483;  -13.400; -309.000; -229.000
454.604;  156.300;  512.000;  580.000
454.725; -200.200; -627.000; -555.000
454.846; -194.600; -474.000; -406.000
454.967;   50.200;  230.000;  539.000
455.087;    1.700;  179.000;  153.000
455.208;  111.500;  554.000;  856.000
455.329;  -55.900;  -22.000;   82.000
455.450;  224.600;  473.000;  633.000
455.570;  -81.000; -234.000; -211.000
455.691;  -10.600;  201.000;  407.000
455.812; -167.000; -270.000;  -92.000
455.932;  -53.600;  107.000;  -97.000
456.053;  -85.300;   36.000;   24.000
456.173; -133.400; -433.000; -355.000
456.294; -192.900; -476.000; -303.000
456.415;  -70.100;  -73.000;   70.000
456.535;  -17.700;  297.000;  273.000
456.656;   -2.200;  132.000;  240.000
456.776;  -83.100;    3.000;  298.000
456.897;   57.500;  308.000;  513.000
457.017;  -79.600; -153.000;   -3.000
457.138; -150.900; -402.000; -249.000
457.258;    2.500;  263.000;  224.000
457.379;   54.100;  509.000;  521.000
457.499;   43.300;  443.000;  432.000
457.620; -185.100; -407.000; -231.000
457.740; -118.200; -132.000;  -11.000
457.860;   -3.700;   87.000;   44.000
457.981;  -18.200;  132.000;  124.000
458.101;  -54.700;  -89.000;   40.000
458.221;   25.800;  336.000;  402.000
458.342;  -49.100;   -4.000;  -37.000
458.462;  150.300;  617.000;  352.000
458.582;   -2.800; -302.000; -294.000
458.703;  129.000;  303.000;  154.000
458.823;   42.600;   22.000;  163.000
458.943;  147.800;  341.000;  467.000
459.063;   40.200; 1124.000;  192.000
459.183;    9.600;  328.000;  313.000
459.304;  125.700;  315.000;  517.000
459.424;  -17.500; -246.000;  -89.000
459.544;  881.800;  388.000;  764.000
459.664; 1914.500;  499.000;  506.000
459.784;  685.200; 1004.000; 1175.000
459.904;  206.700;  867.000;  744.000
460.024;  205.700;  867.000;  684.000
460.144;   75.500;  449.000;  554.000
460.264;   65.000;  515.000;  327.000
460.385; -102.200; -145.000; -119.000
460.505;  183.000;  905.000;  858.000
460.625; -108.400;  -17.000;  -68.000
460.745;   20.700;  396.000;  541.000
460.864;  -30.400;  153.000;  469.000
460.984;  127.900;  499.000;  573.000
461.104;  374.300; 1656.000; 1775.000
461.224;  137.400;  657.000;  650.000
461.344;   24.400;  431.000;  360.000
461.464;   95.900;  258.000;  513.000
461.584;   -0.100;  283.000;  466.000
461.704;  -34.200;   58.000;  108.000
461.824;  -14.300;  238.000;  259.000
461.943;   22.100;  191.000;  130.000
462.063; -114.000;    2.000;  324.000
462.183;  162.000;  639.000;  717.000
462.303;  305.100; 1678.000; 1230.000
462.422;  158.900;  781.000;  840.000
462.542;   -7.600;  271.000;  391.000
462.662;  162.400;  353.000;  380.000
462.782;  612.000;  833.000;  572.000
462.901; 1128.500;  545.000;  717.000
463.021;  635.600; 1702.000; 1638.000
463.141;   77.300;  337.000;  770.000
463.260;   45.900;  614.000;  474.000
463.380;  155.100;  902.000;  884.000
463.499;    0.300;  342.000;  332.000
463.619;   29.700;  581.000;  559.000
463.738;  276.500; 1644.000;  903.000
463.858;  110.800;  657.000;  811.000
463.978;  -30.200;  542.000;  396.000
464.097;  197.800;  921.000; 1114.000
464.217;  329.800; 1196.000; 1143.000
464.336;  334.600; 1068.000; 1130.000
464.455;   27.100;  328.000;  659.000
464.575;  146.400;  597.000;  602.000
464.694;  376.700; 1204.000; 1179.000
464.814;  356.500; 1190.000; 1138.000
464.933;  218.100; 1095.000; 1027.000
465.052;  299.700; 1412.000; 1054.000
465.172;  226.100;  922.000;  799.000
465.291;  348.100; 1376.000; 1320.000
465.410;   81.000;  462.000;  735.000
465.530;  251.900; 1355.000; 1310.000
465.649;  214.500; 1209.000; 1273.000
465.768;  389.500; 1673.000; 1508.000
465.888;  175.900;  941.000; 1174.000
466.007;  295.300; 1335.000; 1440.000
466.126;   70.700;  721.000;  641.000
466.245;  173.800; 1176.000; 1187.000
466.364;  133.100;  950.000; 1060.000
466.484;  190.500; 1024.000; 1213.000
466.603;  156.600; 1101.000; 1222.000
466.722;  355.700; 1490.000; 1769.000
466.841;  249.300; 1151.000; 1401.000
466.960;  162.000; 1069.000;  972.000
467.079;  358.200; 1971.000; 1786.000
467.198;  201.400; 1238.000; 1181.000
467.317;  265.600; 1768.000; 1162.000
467.436;  254.000; 1709.000; 1261.000
467.555;  333.600; 1796.000; 1746.000
467.674;  251.400; 1227.000; 1329.000
467.793;  178.300; 1376.000; 1374.000
467.912;  261.000; 1658.000; 1539.000
468.031;  329.000; 2038.000; 1930.000
468.150;  343.600; 1842.000; 1837.000
468.269;  491.300; 2313.000; 2090.000
468.388;  465.100; 2168.000; 2339.000
468.507;  602.100; 2884.000; 2903.000
468.626;  658.000; 2555.000; 2541.000
468.744;  382.100; 2018.000; 2174.000
468.863;  493.500; 2312.000; 2523.000
468.982;  242.500; 1503.000; 1555.000
469.101;  549.200; 2788.000; 2692.000
469.220;  377.100; 2333.000; 2176.000
469.338;  625.600; 2935.000; 3051.000
469.457;  417.900; 2719.000; 2545.000
469.576;  798.400; 3953.000; 3784.000
469.695;  558.800; 2877.000; 3066.000
469.813; 1024.500; 4148.000; 4192.000
469.932;  942.900; 4255.000; 4485.000
470.051;  985.200; 4075.000; 4161.000
470.169; 1983.700; 4470.000; 4338.000
470.288; 3322.800; 4700.000; 4809.000
470.406; 1847.400; 5059.000; 5194.000
470.525; 1339.400; 6101.000; 5787.000
470.644; 1398.300; 6847.000; 6794.000
470.762; 1866.300; 8397.000; 7873.000
470.881; 1906.800; 8651.000; 8464.000
470.999; 2215.700; 9685.000; 9151.000
471.118; 2348.800;11174.000;10711.000

