
Integration time [ms]: 100.000
Averaging Nr. [scans]: 40
Smoothing Nr. [pixels]: 0
Data measured with spectrometer [name]: 2101012U2
Wave   ;Sample   ;Dark     ;Reference
[nm]   ;[counts] ;[counts] ;[counts] 

197.733;   57.625;  516.000;  404.000
197.879;  -88.050; -610.000; -634.000
198.025;  -51.775; -475.000; -420.000
198.171;  -67.925; -602.000; -612.000
198.317;  -39.900; -401.000; -316.000
198.463;  -67.675; -655.000; -404.000
198.609;   30.600;  181.000; -137.000
198.755;  -66.225; -644.000; -410.000
198.901;  -71.075; -505.000; -424.000
199.047;  -66.550; -615.000; -488.000
199.193;  -51.325; -230.000; -468.000
199.339;  -25.975; -222.000; -369.000
199.485;   35.025;  330.000;  271.000
199.631;   19.175;  227.000;  310.000
199.777;  -42.050; -466.000; -398.000
199.923;  -69.650; -610.000; -424.000
200.069;   -0.150; -141.000;  -58.000
200.215;   57.275;  128.000;  453.000
200.361;   39.500;  243.000;  477.000
200.507;  -56.225; -600.000; -373.000
200.653;  -33.350; -371.000; -194.000
200.798;  -29.375; -215.000; -125.000
200.944;   -4.525; -146.000;  -41.000
201.090;   42.450;   61.000;  222.000
201.236;   -5.925; -116.000; -158.000
201.382;  127.850;  874.000;  903.000
201.528;   -1.800;  -58.000;  -48.000
201.674;  -29.950; -386.000; -293.000
201.819;  -71.025; -540.000; -439.000
201.965;  -77.775; -699.000; -447.000
202.111;  -22.200; -273.000; -226.000
202.257;  -29.500; -250.000; -238.000
202.402;   -7.000;   13.000;  -36.000
202.548;  -39.000; -169.000; -116.000
202.694;   78.225;  410.000; -183.000
202.840;  -62.150; -603.000; -531.000
202.985;  -82.175; -681.000; -639.000
203.131;  -96.125; -832.000; -666.000
203.277;  -27.225; -199.000; -262.000
203.423;  -59.825; -434.000; -520.000
203.568;  -31.800; -462.000; -237.000
203.714;  -58.875; -535.000; -542.000
203.860;  -85.575; -682.000; -641.000
204.005;   18.525;  112.000;  167.000
204.151;   60.850;  561.000;  556.000
204.296;  -47.400; -354.000; -221.000
204.442;  -81.700; -600.000; -547.000
204.588;  -78.625; -592.000; -579.000
204.733;    9.100;  178.000;  168.000
204.879; -121.525;-1018.000; -822.000
205.025;    0.375;  -99.000;  126.000
205.170;    7.075;  -17.000;   94.000
205.316;   81.100;  438.000;  661.000
205.461;  -75.375; -698.000; -554.000
205.607;   72.225;  609.000;  665.000
205.752;  -71.350; -626.000; -551.000
205.898;  -61.175; -501.000; -391.000
206.043;  -61.800; -578.000; -506.000
206.189;  -50.775; -243.000; -285.000
206.334;   81.200;  554.000;  606.000
206.480;   83.525;  409.000;  239.000
206.625;  -86.000; -529.000; -552.000
206.771;  -42.525; -451.000; -373.000
206.916;  -38.250; -210.000; -537.000
207.062;  -85.150; -545.000; -591.000
207.207;  -62.425; -546.000; -443.000
207.353;   56.775;  185.000;  460.000
207.498;    6.675;  196.000;   85.000
207.643;  -56.975; -501.000; -370.000
207.789; -124.925;-1069.000; -910.000
207.934; -101.550; -665.000; -713.000
208.080;  -23.425; -154.000;   66.000
208.225;  -16.800;  -22.000;  -57.000
208.370;  -74.125; -727.000; -619.000
208.516;  -77.125; -741.000; -487.000
208.661;  -32.600; -127.000;  -69.000
208.806;   -9.400; -165.000; -171.000
208.952; -132.100;-1044.000; -731.000
209.097;   83.300;  378.000;  349.000
209.242;  -29.625; -307.000; -382.000
209.387;   57.975;  392.000;  350.000
209.533;  -41.825; -321.000; -350.000
209.678;   75.525;  472.000;  543.000
209.823;  -43.575; -408.000; -310.000
209.969; -106.175; -860.000; -757.000
210.114; -110.625; -907.000; -719.000
210.259; -126.500; -939.000; -889.000
210.404;   -9.600; -171.000;  103.000
210.549;    2.125;  108.000;    3.000
210.695;   -6.625;   -3.000;  -95.000
210.840;   33.400;   94.000;   67.000
210.985;  -63.900; -484.000; -303.000
211.130;   61.075;  268.000;  406.000
211.275;   11.600;  207.000;  199.000
211.420;  -50.475; -300.000; -289.000
211.566;  -65.875; -536.000; -489.000
211.711;   26.900;  218.000;  157.000
211.856;  -81.900; -545.000; -519.000
212.001;    9.775;  151.000;   44.000
212.146;   15.575;  153.000;   49.000
212.291;  -24.850; -210.000; -186.000
212.436;  -32.175; -280.000;   -6.000
212.581;  -85.425; -685.000; -653.000
212.726;  -66.075; -487.000; -538.000
212.871;  -53.900; -552.000; -217.000
213.016; -144.950;-1172.000;-1029.000
213.161;   50.850;  406.000;  291.000
213.306;  -77.750; -435.000; -577.000
213.451;  -99.825; -778.000; -689.000
213.596;  -52.125; -455.000; -347.000
213.741;  -73.300; -448.000; -538.000
213.886;  -65.225; -498.000; -517.000
214.031;  -30.150; -294.000; -124.000
214.176;  -55.525; -408.000; -341.000
214.321;  -21.400; -296.000; -157.000
214.466;  -10.100; -163.000;  -43.000
214.611;    3.375;  -61.000;  -10.000
214.756; -109.100; -948.000; -858.000
214.901;  -37.000; -388.000; -226.000
215.046; -119.825; -797.000; -825.000
215.191;   14.050;  128.000;   35.000
215.336;   -7.625; -157.000;  -19.000
215.480;  -69.000; -684.000; -505.000
215.625;  -18.150; -175.000;  -19.000
215.770;  -92.050; -757.000; -662.000
215.915;   -9.975;   -5.000;  -97.000
216.060;   -6.675; -113.000;  -21.000
216.205; -114.525; -731.000; -779.000
216.349;  -76.175; -470.000; -533.000
216.494; -142.650; -939.000; -867.000
216.639; -110.175; -823.000; -888.000
216.784;  -84.275; -577.000; -525.000
216.929;   53.050;  392.000;  281.000
217.073;  -16.650; -244.000;  -31.000
217.218;   12.625;   78.000;  -47.000
217.363;  -73.075; -656.000; -618.000
217.507;  -75.725; -623.000; -588.000
217.652; -115.950; -845.000; -874.000
217.797;  -91.600; -708.000; -659.000
217.942; -108.200; -856.000; -720.000
218.086;   82.900;  608.000;  539.000
218.231;  -18.050; -174.000;  -26.000
218.376;  -33.400; -337.000; -229.000
218.520;    7.325;  -41.000;   96.000
218.665;  -31.075; -338.000; -204.000
218.810;  -32.950; -275.000; -233.000
218.954;   21.875;  201.000;   35.000
219.099; -101.075; -713.000; -963.000
219.243;  -68.825; -589.000; -554.000
219.388;  -35.625; -264.000; -136.000
219.532;  -19.150; -116.000; -116.000
219.677;  -66.675; -564.000; -521.000
219.822;   -9.700;   33.000;   89.000
219.966;    2.050;   17.000;  -99.000
220.111;  -50.600; -328.000;  -40.000
220.255;  -89.675; -797.000; -750.000
220.400;  -25.650; -180.000; -146.000
220.544;  -65.925; -516.000; -450.000
220.689;  -61.675; -422.000; -451.000
220.833;  -18.925; -123.000;  -58.000
220.978;  -48.875; -393.000; -563.000
221.122;   21.225;  319.000;  307.000
221.267; -112.900; -906.000; -837.000
221.411;  -77.150; -478.000; -394.000
221.555;   -6.500; -104.000;  -23.000
221.700;  -50.675; -329.000; -222.000
221.844;   33.175;  255.000;  272.000
221.989;  -42.550; -328.000; -311.000
222.133;  -33.150; -289.000; -307.000
222.277;   -6.350;    5.000;   78.000
222.422;   20.725;  227.000;  113.000
222.566;  -42.150; -381.000; -214.000
222.711;  -56.125; -414.000; -479.000
222.855;  -66.450; -643.000; -586.000
222.999;  -84.875; -642.000; -717.000
223.144;  -22.250; -195.000; -194.000
223.288;   43.875;  423.000;  251.000
223.432;   39.975;  184.000;  230.000
223.576;   16.100;  152.000;  -21.000
223.721;   35.775;  364.000;  273.000
223.865;  -64.950; -472.000; -475.000
224.009;  239.025; 1673.000; 1631.000
224.153;  -77.700; -660.000; -671.000
224.298;  -61.500; -531.000; -489.000
224.442;  -27.875;  -74.000;  -33.000
224.586;  -11.525; -169.000; -106.000
224.730;  -77.525; -858.000; -670.000
224.875; -110.075; -739.000; -688.000
225.019;   -6.575;  102.000;  188.000
225.163;   53.500;  208.000;  341.000
225.307;    4.225;   97.000;  -91.000
225.451;   48.975;  360.000;  481.000
225.595;   24.325;  264.000;  176.000
225.739;  -12.450; -170.000;  -94.000
225.884;    0.275;   86.000;    5.000
226.028;  -94.625; -760.000; -626.000
226.172;  -31.025; -260.000; -273.000
226.316; -123.125; -941.000; -902.000
226.460;  -74.475; -645.000; -493.000
226.604;  -46.800; -406.000; -400.000
226.748; -101.150; -836.000; -733.000
226.892;  -26.850; -227.000; -181.000
227.036;  -44.925; -537.000; -447.000
227.180;  -48.775; -551.000; -375.000
227.324;  -66.925; -561.000; -580.000
227.468; -120.000; -819.000; -717.000
227.612;   12.550;  242.000;  -28.000
227.756;  -86.575; -845.000; -698.000
227.900;   49.125;  342.000;  441.000
228.044;  -58.500; -509.000; -290.000
228.188;   48.450;  448.000;  568.000
228.332;  -84.425; -546.000; -472.000
228.476;  -28.250; -223.000; -149.000
228.620;  -27.200; -210.000; -150.000
228.764;   47.825;  431.000;  349.000
228.908;  -23.875; -155.000;   30.000
229.052;  -66.300; -615.000; -528.000
229.195;   -9.300; -172.000;   13.000
229.339;  -27.375; -235.000; -305.000
229.483;   -8.250;    5.000; -162.000
229.627;  -18.500; -156.000;  139.000
229.771;  -50.025; -218.000; -294.000
229.915;   11.525;  230.000;   79.000
230.059;  -82.775; -648.000; -663.000
230.202;  -41.575; -370.000; -317.000
230.346;   -6.325; -107.000;  107.000
230.490;  -78.625; -489.000; -521.000
230.634; -107.925; -736.000; -553.000
230.777;   61.925;  478.000;  509.000
230.921;  -53.650; -450.000; -359.000
231.065;  -49.675; -246.000; -286.000
231.209;   29.200;  261.000;  265.000
231.352;   26.475;   54.000;   40.000
231.496;   12.900;  568.000;  188.000
231.640;  -90.800; -693.000; -621.000
231.783;   53.050;  546.000;  525.000
231.927;  -48.750; -294.000; -365.000
232.071; -106.125; -962.000; -736.000
232.214; -113.250; -980.000; -764.000
232.358;  -97.575; -683.000; -599.000
232.502;  -13.450;  -19.000;    7.000
232.645; -125.250;-1090.000; -927.000
232.789;  -31.900; -257.000; -218.000
232.933;  -36.700; -407.000; -224.000
233.076; -126.375;-1038.000; -897.000
233.220; -107.375; -752.000; -777.000
233.363;  -75.000; -669.000; -477.000
233.507;   52.150;  371.000;  129.000
233.650;  -93.350; -764.000; -834.000
233.794;   50.100;  438.000;  461.000
233.938;  -67.550; -530.000; -362.000
234.081;   -9.625;  -93.000;   31.000
234.225;  -68.950; -631.000; -539.000
234.368;  -98.925; -773.000; -723.000
234.512;  -23.825; -385.000; -299.000
234.655;  -85.575; -582.000; -555.000
234.798;  -70.000; -493.000; -466.000
234.942; -123.775; -884.000;-1002.000
235.085;  -69.600; -651.000; -443.000
235.229;  -76.925; -405.000; -410.000
235.372;  -42.700; -247.000; -191.000
235.516;  -53.575; -397.000; -321.000
235.659;    3.875;   92.000;  121.000
235.802;  -22.950;  -38.000;  -22.000
235.946;   17.425;  335.000;  215.000
236.089;   37.150;  126.000;  250.000
236.233;   58.825;  275.000;  298.000
236.376;  -49.675; -235.000; -378.000
236.519;  -38.950; -297.000; -319.000
236.663;  -11.275; -215.000; -117.000
236.806; -142.175;-1029.000; -999.000
236.949;   61.100;  543.000;  431.000
237.092;   51.900;  412.000;  391.000
237.236;  -78.475; -589.000; -502.000
237.379;   55.200;  352.000;  428.000
237.522; -116.125; -879.000; -768.000
237.666;  -20.300; -271.000;   18.000
237.809; -121.875; -851.000; -823.000
237.952;   27.575;  469.000;  271.000
238.095;  -67.700; -447.000; -442.000
238.238;   75.275;  688.000;  700.000
238.382;   -6.275;  166.000;  103.000
238.525;  -70.875; -598.000; -511.000
238.668; -132.525;-1060.000; -985.000
238.811;  -85.350; -638.000; -643.000
238.954;  -55.000; -483.000; -334.000
239.097;   93.350;  617.000;  664.000
239.241;   24.375;  394.000;  326.000
239.384;  -43.225; -254.000; -214.000
239.527;  -42.150; -424.000; -224.000
239.670; -143.200; -994.000;-1091.000
239.813; -105.950; -696.000; -658.000
239.956;   63.200;  579.000;  473.000
240.099; -104.450; -778.000; -725.000
240.242;   47.225;  428.000;  432.000
240.385;   52.100;  466.000;  450.000
240.528;  -73.150; -706.000; -473.000
240.671;    8.275;  189.000;  134.000
240.814;  -48.325; -441.000; -158.000
240.957; -103.775; -767.000; -578.000
241.100;  -87.650; -779.000; -755.000
241.243; -144.250;-1234.000; -893.000
241.386;  -60.450; -508.000; -379.000
241.529;  -83.250; -735.000; -547.000
241.672;  -56.425; -566.000; -495.000
241.815; -109.000; -832.000; -808.000
241.958;  -39.925; -125.000; -182.000
242.101;  -81.125; -545.000; -390.000
242.244;  -53.225; -270.000; -325.000
242.387;  -27.575; -304.000; -246.000
242.530;   50.725;  470.000;  134.000
242.673;  -31.850; -381.000; -309.000
242.815; -119.375; -925.000; -899.000
242.958;  -72.425; -482.000; -381.000
243.101;   11.700;  132.000;  187.000
243.244;  -89.350; -564.000; -521.000
243.387;  -43.875; -313.000; -316.000
243.530;  -85.050; -657.000; -674.000
243.672;    5.200;   43.000;  -92.000
243.815;  -51.850; -355.000; -283.000
243.958;    5.825;   98.000;  -26.000
244.101;    7.775;   59.000;  -16.000
244.243;  -15.825;  -47.000;  101.000
244.386; -108.925; -761.000; -630.000
244.529;  -31.575; -132.000; -139.000
244.672; -145.350;-1154.000; -951.000
244.814; -100.925; -621.000; -794.000
244.957;  -38.550; -380.000; -304.000
245.100;  -64.275; -489.000; -489.000
245.242;  -63.800; -387.000; -374.000
245.385;   -7.525;  -59.000;  -39.000
245.528; -113.600; -871.000; -705.000
245.670;   81.350;  612.000;  634.000
245.813;  -91.075; -599.000; -547.000
245.956;  -32.700; -324.000; -275.000
246.098;  -71.650; -508.000; -650.000
246.241;   -1.550;  194.000;   48.000
246.383;  -19.875; -119.000;  -73.000
246.526;  -74.800; -454.000; -525.000
246.669; -112.650; -889.000; -780.000
246.811;   14.750;  172.000;   -1.000
246.954;  -62.225; -512.000; -426.000
247.096;  -31.425;  -84.000;   -6.000
247.239;  -71.125; -482.000; -445.000
247.381;  -76.825; -647.000; -488.000
247.524;   79.050;  645.000;  679.000
247.666;  -24.950;   58.000;   11.000
247.809; -112.625; -887.000; -691.000
247.951;   -0.500;  -75.000;  138.000
248.094;   37.125;  432.000;  308.000
248.236; -168.775;-1262.000;-1238.000
248.378;   20.625; -356.000;  -81.000
248.521;  -20.175; -334.000; -337.000
248.663;  -35.775; -236.000; -267.000
248.806;  -13.700; -300.000; -266.000
248.948;  -92.850; -886.000; -763.000
249.090;  -47.650; -428.000; -398.000
249.233;  -49.850; -344.000; -381.000
249.375;  -67.825; -474.000; -451.000
249.518;  -17.925;  -83.000; -133.000
249.660;  -11.600; -103.000;    3.000
249.802; -163.500;-1303.000;-1189.000
249.945;  -80.775; -612.000; -540.000
250.087; -108.875; -834.000; -768.000
250.229;  -48.625; -362.000; -480.000
250.371;  -79.825; -494.000; -439.000
250.514;  -48.200; -310.000; -244.000
250.656;    1.525;   69.000;  102.000
250.798; -122.875; -849.000; -800.000
250.940;  -66.350; -322.000; -322.000
251.083;  -36.000; -335.000; -111.000
251.225;   57.525;  338.000;  310.000
251.367;  -45.600; -274.000; -373.000
251.509;  -32.975; -265.000; -210.000
251.651;  -98.800; -731.000; -671.000
251.794;   53.100;  538.000;  632.000
251.936;  -93.675; -821.000; -747.000
252.078;  -74.425; -540.000; -461.000
252.220;  -84.125; -645.000; -477.000
252.362;   76.850;  344.000;  462.000
252.504;  -72.475; -677.000; -584.000
252.646;  -99.675; -875.000; -722.000
252.788;  -12.300;   14.000; -128.000
252.931;  -35.075; -257.000; -253.000
253.073;  -50.550; -376.000; -317.000
253.215;  -11.325;  141.000;  122.000
253.357;   -5.075;   82.000; -153.000
253.499;  -48.450; -374.000; -234.000
253.641;  -88.675; -749.000; -594.000
253.783;  -81.450; -609.000; -527.000
253.925;  -92.550; -586.000; -591.000
254.067; -107.650; -744.000; -667.000
254.209;  -24.575; -391.000; -259.000
254.351; -127.950; -865.000; -883.000
254.493;  -56.500; -441.000; -417.000
254.635; -127.125; -936.000; -818.000
254.777;  -81.675; -752.000; -687.000
254.918;  -80.750; -512.000; -430.000
255.060;  -63.250; -551.000; -395.000
255.202;  -57.575; -473.000; -261.000
255.344;  -76.325; -658.000; -455.000
255.486;  -76.025; -471.000; -406.000
255.628; -111.100; -780.000; -781.000
255.770;  -89.750; -676.000; -536.000
255.912;  -72.650; -559.000; -468.000
256.053; -101.900; -730.000; -508.000
256.195;  144.775; 1008.000;  903.000
256.337;  -86.725; -861.000; -595.000
256.479;   61.450;  532.000;  416.000
256.621;  -47.850; -394.000; -212.000
256.762;  -94.000; -789.000; -742.000
256.904;   36.275;  485.000;  487.000
257.046;  -57.100; -381.000; -271.000
257.188;  -44.875; -351.000; -264.000
257.329;  -79.675; -525.000; -464.000
257.471; -107.650; -939.000; -807.000
257.613;  -66.450; -584.000; -498.000
257.755; -150.000;-1073.000; -982.000
257.896;   28.725;  286.000;  392.000
258.038;  -65.550; -403.000; -352.000
258.180;  -36.075; -354.000; -279.000
258.321;  -81.400; -581.000; -457.000
258.463;   -1.875;  -71.000;  133.000
258.605;  -82.575; -562.000; -570.000
258.746; -104.875; -886.000; -772.000
258.888; -159.875;-1026.000;-1020.000
259.029;    0.625;  121.000;   -8.000
259.171;  -87.700; -614.000; -550.000
259.313;   -6.925;  -49.000;  -47.000
259.454;  -76.225; -536.000; -414.000
259.596;  -57.700; -483.000; -390.000
259.737;  -83.825; -590.000; -474.000
259.879;   34.175;  217.000;  311.000
260.020;   91.475;  901.000;  636.000
260.162;  -41.400; -146.000; -253.000
260.303; -114.725; -768.000; -687.000
260.445;  -86.200; -609.000; -613.000
260.586;   30.900;  392.000;  157.000
260.728;  -51.125; -360.000; -248.000
260.869; -111.025; -350.000; -343.000
261.011;   75.675;  706.000;  537.000
261.152;  -61.200; -479.000; -319.000
261.293;  -92.425; -576.000; -595.000
261.435;  -36.625; -219.000; -184.000
261.576;  -44.125; -455.000; -325.000
261.718;   54.950;  420.000;  470.000
261.859; -133.875; -940.000; -949.000
262.000; -119.800; -951.000;-1016.000
262.142;  -27.050;  -52.000;  -60.000
262.283; -113.675; -808.000; -691.000
262.424;  -88.900; -666.000; -625.000
262.566; -167.650;-1161.000; -983.000
262.707; -120.900; -840.000; -830.000
262.848; -111.600; -769.000; -726.000
262.990;  -56.500; -362.000; -345.000
263.131;   93.025;  650.000;  681.000
263.272;  -22.325;  -61.000;  -41.000
263.413;  -85.800; -589.000; -561.000
263.555;  -77.475; -669.000; -143.000
263.696;  -88.450; -550.000; -641.000
263.837;  -63.300; -449.000; -551.000
263.978;  -10.275;   -5.000;  -77.000
264.119;  -66.225; -283.000; -264.000
264.261; -114.925; -847.000; -630.000
264.402;   -3.700;   33.000;   40.000
264.543;  -80.100; -509.000; -524.000
264.684;  -17.275;   61.000;  -50.000
264.825;  -73.675; -816.000; -538.000
264.966;  -13.050;  -84.000;  -67.000
265.107; -102.675; -646.000; -670.000
265.248; -135.900; -825.000; -812.000
265.390;  -12.600;  152.000;   -9.000
265.531;  -30.200; -238.000; -107.000
265.672;  -86.950; -557.000; -630.000
265.813;   46.675;  563.000;  439.000
265.954; -150.250; -959.000; -940.000
266.095;  -12.600; -372.000; -322.000
266.236; -103.125; -686.000; -548.000
266.377;  -53.375; -243.000; -297.000
266.518;  -62.700; -619.000; -547.000
266.659;   22.100;  170.000;  268.000
266.800;   -6.775;   83.000;   85.000
266.941;  -70.250; -487.000; -478.000
267.082;   10.000;  354.000;   99.000
267.223;  -56.625; -344.000; -273.000
267.364; -109.775; -892.000; -686.000
267.504;  -31.425;    3.000;  135.000
267.645;   -8.675;  160.000;   67.000
267.786;  -29.900; -147.000;  -86.000
267.927;  -69.325; -473.000; -379.000
268.068;  -17.700; -186.000;  -61.000
268.209;  -48.800; -175.000; -413.000
268.350;  -58.525; -388.000; -532.000
268.490;  -91.800; -648.000; -521.000
268.631;   12.625;  127.000;  225.000
268.772; -107.150; -874.000; -647.000
268.913;  -57.625; -328.000; -476.000
269.054;   -5.100; -117.000;   12.000
269.194;  -53.300; -418.000; -402.000
269.335; -156.900;-1137.000;-1074.000
269.476;  -27.775;   33.000;  -35.000
269.617;  -47.950; -347.000; -392.000
269.757;  -92.225; -713.000; -646.000
269.898;  -94.650; -856.000; -613.000
270.039;  -66.950; -415.000; -405.000
270.180; -130.750; -952.000; -816.000
270.320;  -37.100; -190.000; -250.000
270.461;  -52.275; -277.000; -249.000
270.602;  -14.925; -186.000; -156.000
270.742; -118.000; -868.000; -943.000
270.883;  -67.325; -442.000; -390.000
271.023;  -59.950; -358.000; -357.000
271.164;  -78.725; -607.000; -528.000
271.305;  -98.550; -666.000; -654.000
271.445;  -87.600; -722.000; -683.000
271.586;  -66.550; -462.000; -283.000
271.726;  -43.875; -397.000; -322.000
271.867;  -65.225; -594.000; -534.000
272.008;  182.375; -473.000; -285.000
272.148;  125.525;  462.000;  468.000
272.289;   22.900; -113.000; -181.000
272.429;   20.675;   19.000;  185.000
272.570; -100.625; -633.000; -737.000
272.710; -113.100; -825.000; -775.000
272.851;  -24.775;  113.000; -130.000
272.991; -153.675;-1173.000;-1077.000
273.131;  -76.600; -419.000; -459.000
273.272; -103.625; -683.000; -723.000
273.412;    4.750; -143.000;  -31.000
273.553;  -43.725; -488.000; -507.000
273.693;  128.275;  913.000;  858.000
273.834;  -93.100; -894.000; -692.000
273.974;  -79.000; -664.000; -615.000
274.114;  -98.375; -772.000; -560.000
274.255;   58.275;  414.000;  373.000
274.395;   27.525; -180.000; -125.000
274.535;   19.800;  199.000;  350.000
274.676;   18.125;  225.000;   94.000
274.816;    3.625;  110.000;   34.000
274.956;  -85.875; -624.000; -690.000
275.097;  -62.975;-1014.000; -922.000
275.237; -102.700; -913.000; -803.000
275.377;  -98.325; -778.000; -689.000
275.517; -146.400; -878.000; -937.000
275.658;  -75.850; -590.000; -555.000
275.798;  -59.700; -606.000; -413.000
275.938;   16.450;  215.000;  323.000
276.078; -112.850; -626.000; -395.000
276.218;    2.950;   99.000;  104.000
276.359; -118.550;-1026.000;-1024.000
276.499;  -72.075; -605.000; -446.000
276.639;  -33.825; -305.000; -151.000
276.779;  -46.750; -475.000; -357.000
276.919; -104.550; -783.000; -624.000
277.059;  -20.725; -261.000; -212.000
277.199;  -43.100; -357.000; -259.000
277.340;   35.125;  287.000;  175.000
277.480; -102.825; -840.000; -693.000
277.620;   34.925;  192.000;   16.000
277.760; -182.800;-1533.000;-1294.000
277.900;   10.950;  113.000;   33.000
278.040;    8.075;  137.000;  159.000
278.180;   45.250;  270.000;  170.000
278.320;  -15.225;   21.000;   56.000
278.460;  -68.250; -443.000; -469.000
278.600;  -82.475; -708.000; -598.000
278.740;   43.550;  448.000;  224.000
278.880;  -63.525; -768.000; -791.000
279.020;  -15.000; -194.000; -144.000
279.160;  -99.550; -672.000; -595.000
279.300; -120.300; -926.000; -873.000
279.440;  -78.600; -709.000; -622.000
279.579;  -10.675;-1014.000; -929.000
279.719;  -57.975; -410.000; -394.000
279.859;   70.850;   -4.000;   41.000
279.999;   30.675; -208.000;  101.000
280.139;  -24.600; -435.000; -387.000
280.279;  -71.150; -708.000; -745.000
280.419;  -16.825; -229.000; -147.000
280.559;  -30.850; -259.000; -180.000
280.698;  -92.575; -790.000; -639.000
280.838;  -89.675; -778.000; -800.000
280.978; -102.125; -846.000; -790.000
281.118; -110.550; -811.000; -704.000
281.257;    6.150;   24.000;    6.000
281.397; -111.925;-1094.000; -960.000
281.537;  -97.025; -599.000; -712.000
281.677;  -24.575; -150.000; -101.000
281.816;  -87.525; -700.000; -630.000
281.956;  -25.475; -193.000; -257.000
282.096;  -67.125; -539.000; -396.000
282.235; -100.650; -672.000; -638.000
282.375;  -27.325; -243.000;  -98.000
282.515; -107.150; -715.000; -707.000
282.654;   40.725;   29.000;  106.000
282.794;   21.675;  388.000;  244.000
282.934;  -63.950; -530.000; -491.000
283.073; -128.550;-1030.000; -857.000
283.213;  -53.775; -460.000; -467.000
283.353;  -31.950; -408.000; -349.000
283.492;  -35.150; -264.000; -296.000
283.632;  -45.000; -254.000; -168.000
283.771;  -88.125; -859.000; -730.000
283.911;  -44.800; -369.000; -260.000
284.050;  -98.475; -794.000; -748.000
284.190; -165.225;-1229.000;-1096.000
284.329; -148.025;-1055.000; -964.000
284.469;  -59.950; -516.000; -591.000
284.608;  -53.775; -559.000; -598.000
284.748;  -84.575; -614.000; -570.000
284.887;  -12.100;  -87.000;  -20.000
285.027; -121.950; -844.000; -892.000
285.166;  -29.150; -192.000; -249.000
285.306;    5.725; -116.000;  -33.000
285.445;  -41.700; -229.000; -343.000
285.584;  -95.125; -630.000; -494.000
285.724;  -45.525; -282.000; -322.000
285.863; -104.700; -857.000; -507.000
286.002;  -70.100; -366.000; -276.000
286.142; -104.175; -715.000; -622.000
286.281;  -77.050; -525.000; -493.000
286.420;  -74.050; -554.000; -417.000
286.560;   70.900;  653.000;  623.000
286.699; -144.325; -958.000; -912.000
286.838;  -81.975; -590.000; -591.000
286.978;  -92.750; -533.000; -537.000
287.117; -137.375;-1085.000; -950.000
287.256;  -34.250; -228.000; -211.000
287.395;  -61.375; -197.000; -378.000
287.535;  -45.375; -370.000; -298.000
287.674;  -88.450; -509.000; -484.000
287.813;   50.800;  661.000;  533.000
287.952; -146.050;-1010.000; -871.000
288.091; -148.675;-1049.000; -915.000
288.231;    1.275;   13.000;   15.000
288.370; -173.075;-1217.000;-1200.000
288.509;  -97.450; -728.000; -645.000
288.648;  -84.825; -770.000; -548.000
288.787;  -42.150; -243.000;  -87.000
288.926;  -61.550; -454.000; -475.000
289.065;  115.225;  859.000;  672.000
289.204;  -81.250; -377.000; -217.000
289.344; -103.900; -791.000; -690.000
289.483;   18.700;  416.000;  304.000
289.622;  -26.425; -291.000; -149.000
289.761;  -26.125; -309.000; -166.000
289.900; -123.625; -785.000; -626.000
290.039;  -15.650;  -12.000;  -95.000
290.178;  -44.650; -274.000; -180.000
290.317;  -71.225; -618.000; -479.000
290.456;  -70.175; -463.000; -451.000
290.595; -134.900; -961.000; -833.000
290.734; -132.100; -904.000; -891.000
290.873;  -63.275; -456.000; -420.000
291.011; -119.775; -833.000; -843.000
291.150; -112.775; -770.000; -682.000
291.289;  -12.025; -343.000; -110.000
291.428;  -90.175; -599.000; -480.000
291.567;  -55.325; -370.000; -442.000
291.706;  -10.300;  109.000;  154.000
291.845;  -80.575; -597.000; -505.000
291.984; -163.700;-1234.000;-1061.000
292.122;   60.850;  602.000;  582.000
292.261;   55.600;  620.000;  463.000
292.400;    8.200; -144.000;  211.000
292.539; -127.725; -959.000; -813.000
292.678;  -35.775; -325.000; -300.000
292.816; -144.625;-1136.000; -965.000
292.955;  -93.425; -844.000; -684.000
293.094;  -34.425; -173.000; -337.000
293.233;  -50.225; -556.000; -400.000
293.371;  -33.100; -225.000;  -84.000
293.510; -106.875; -866.000; -780.000
293.649; -116.600; -959.000; -924.000
293.787;  -62.625;-1083.000;-1012.000
293.926;   -0.250; -113.000;  -32.000
294.065;  -47.775; -379.000; -290.000
294.203;   40.825;  298.000;  406.000
294.342;   19.800;   74.000;  156.000
294.481; 6426.950;51180.000; -836.000
294.619;  -43.400; -425.000; -582.000
294.758; -141.625;-1230.000;-1137.000
294.896;   59.500; -125.000;    5.000
295.035; -126.325;-1040.000;-1006.000
295.174; -123.800;-1082.000; -954.000
295.312;  -30.975; -323.000; -203.000
295.451;   -8.950; -307.000; -428.000
295.589;  -42.875; -389.000; -518.000
295.728;   18.625; -292.000; -165.000
295.866;    2.825;  -36.000;  -51.000
296.005;  -67.300; -584.000; -341.000
296.143;  -77.000; -558.000; -596.000
296.282; -107.550; -957.000; -881.000
296.420;  -77.825; -657.000; -557.000
296.559;  -97.550; -892.000; -633.000
296.697;   31.825; -847.000; -665.000
296.835;   70.475;-1141.000;-1002.000
296.974;   56.075;  -23.000;   39.000
297.112;    9.625; -443.000; -504.000
297.251;  -84.100; -815.000; -755.000
297.389;   86.250; -576.000; -438.000
297.527;   33.175; -145.000;  -83.000
297.666;  -69.325; -486.000; -438.000
297.804;  -46.625; -404.000; -264.000
297.942;  -11.650; -136.000; -161.000
298.081;   -2.725; -183.000;   63.000
298.219;   73.775;  -17.000;  -19.000
298.357;   53.575; -144.000;  -71.000
298.495;   44.275; -810.000; -812.000
298.634;   56.225;  245.000;  219.000
298.772;   60.200; -220.000; -338.000
298.910;  -45.325; -309.000; -182.000
299.048;  -15.525; -130.000; -153.000
299.187;  -30.875; -350.000; -250.000
299.325;   26.675;   52.000;  122.000
299.463;   69.225; -389.000; -299.000
299.601;  108.650; -327.000; -271.000
299.739; -105.625; -908.000; -883.000
299.877;  -82.650; -791.000; -703.000
300.016;  -24.875;-1095.000; -935.000
300.154;  158.450;  -19.000; -161.000
300.292;   63.475; -428.000; -348.000
300.430;   21.025; -408.000; -291.000
300.568;  -96.750; -940.000; -874.000
300.706;  -47.525; -366.000; -469.000
300.844;  -71.225;-1108.000; -979.000
300.982;  106.275;  246.000;  282.000
301.120; -119.250; -965.000; -866.000
301.258;  -69.400; -812.000; -705.000
301.396;   42.325;  104.000;  -41.000
301.534;   86.500; -218.000; -293.000
301.672;   13.350; -664.000; -521.000
301.810;   28.425; -613.000; -545.000
301.948;  121.850;   53.000;  149.000
302.086;  675.350; -250.000;  -32.000
302.224;  991.725; -610.000; -585.000
302.362;   36.300; -558.000; -622.000
302.500;  -22.350; -923.000; -893.000
302.638;  115.575;  128.000;  245.000
302.776;   -4.600; -352.000; -408.000
302.913;   44.775;  447.000;  236.000
303.051;   -6.675;  -86.000;  -23.000
303.189;   35.725;   90.000;  118.000
303.327;  -34.025; -341.000; -256.000
303.465;  -72.400; -832.000; -588.000
303.603;  -89.450; -805.000; -604.000
303.740;  102.350;  417.000;  241.000
303.878;   26.950; -800.000; -759.000
304.016;  -94.375; -915.000; -790.000
304.154; -124.125;-1123.000;-1152.000
304.291;  -42.875; -505.000; -554.000
304.429;   14.350;  102.000;   74.000
304.567; -122.800; -908.000; -893.000
304.705;  -48.650; -408.000; -515.000
304.842;  101.650; -616.000; -540.000
304.980;   50.450;  215.000;   35.000
305.118;   40.100; -367.000; -365.000
305.255;  -72.150; -945.000; -927.000
305.393;   60.650;  178.000;  239.000
305.531; -105.600;-1173.000; -956.000
305.668;  -63.950; -663.000; -582.000
305.806;  112.450; -358.000; -439.000
305.943;  121.625; -629.000; -637.000
306.081;   66.650; -378.000; -267.000
306.219; -108.025; -863.000; -748.000
306.356;    5.650;  158.000;   27.000
306.494;   97.075;  981.000;  761.000
306.631;   -6.225;  -11.000;  -55.000
306.769;    2.425; -613.000; -485.000
306.906;  -18.950; -284.000; -258.000
307.044;  -72.425; -473.000; -488.000
307.181;  -69.775; -410.000; -332.000
307.319;    6.925;  112.000;   87.000
307.456; -154.725;-1191.000;-1153.000
307.594; -105.725; -980.000; -727.000
307.731;  -22.125; -371.000; -164.000
307.868;   -2.400;  -15.000;   20.000
308.006; -132.700; -961.000; -847.000
308.143;  -84.750; -618.000; -330.000
308.281;  176.450;  -37.000; -254.000
308.418;   -4.150; -748.000; -640.000
308.555;  -67.200; -400.000; -250.000
308.693;  -91.550; -577.000; -573.000
308.830; -109.800; -712.000; -657.000
308.967;  -16.575; -215.000;  -95.000
309.105;  -53.050; -507.000; -396.000
309.242;   35.525; -468.000; -367.000
309.379;  345.625; -577.000; -655.000
309.517;  -53.575; -936.000; -948.000
309.654; -114.200; -910.000; -734.000
309.791;  -84.325; -662.000; -580.000
309.928; -117.325; -977.000; -914.000
310.065;  194.800;  819.000;  697.000
310.203;    1.300; -825.000; -850.000
310.340;   -0.375; -465.000; -321.000
310.477;  -70.650; -412.000; -516.000
310.614;  -69.500; -383.000; -473.000
310.751;  -71.500; -427.000; -518.000
310.889;  -25.475;    1.000;   11.000
311.026; -154.625;-1161.000; -939.000
311.163;  -51.275; -386.000; -380.000
311.300;  -73.650; -512.000; -479.000
311.437;  -86.700; -658.000; -619.000
311.574; -155.500;-1226.000; -985.000
311.711;  -62.300; -595.000; -433.000
311.848;  -50.550; -380.000; -388.000
311.985;   12.025;  270.000;   93.000
312.122; -115.550; -932.000; -762.000
312.259; -125.125; -941.000; -994.000
312.396;  -95.950; -508.000; -551.000
312.533;  -96.975; -812.000; -790.000
312.670; -128.875;-1070.000; -898.000
312.807;  -37.800; -352.000; -367.000
312.944;  -82.500; -513.000; -611.000
313.081;  -50.250; -150.000; -415.000
313.218; -109.425;-1111.000; -867.000
313.355;    4.000; -531.000; -449.000
313.492;   -2.500; -455.000; -292.000
313.629;  117.050;  815.000;  735.000
313.766; -147.025;-1176.000;-1008.000
313.902;  -22.975; -186.000;   21.000
314.039;  -43.525; -372.000; -289.000
314.176;   20.875;  286.000;  192.000
314.313;  -90.525; -569.000; -473.000
314.450;  -67.775; -788.000; -684.000
314.587;  -61.025; -468.000; -480.000
314.723;    5.550;  -78.000;  130.000
314.860;   29.200;  318.000;  332.000
314.997;   30.675;  223.000;  142.000
315.134;  -34.600; -385.000; -368.000
315.270;  -41.125; -480.000; -496.000
315.407; -124.775;-1094.000; -967.000
315.544;  -43.475; -657.000; -538.000
315.681;  -72.350; -681.000; -565.000
315.817;   23.750; -133.000; -176.000
315.954;   19.525; -613.000; -392.000
316.091; -125.325;-1045.000;-1023.000
316.227;  -28.825;  -71.000; -179.000
316.364;   -4.300;   23.000;    6.000
316.500;  -32.900; -113.000; -300.000
316.637;  -54.925; -181.000; -302.000
316.774;  -87.775; -625.000; -358.000
316.910;  -97.125; -598.000; -629.000
317.047;  -71.725; -487.000; -351.000
317.183;  -55.950; -435.000; -566.000
317.320;  -15.100; -367.000; -321.000
317.456;  -81.400; -733.000; -805.000
317.593;  -92.300; -598.000; -641.000
317.729;   -1.125;  168.000;  -67.000
317.866; -202.675;-1434.000;-1285.000
318.002;  -98.600; -708.000; -948.000
318.139; -102.950; -883.000; -867.000
318.275; -100.175;-1003.000; -738.000
318.412;  -65.400; -517.000; -336.000
318.548;  -36.625; -751.000; -720.000
318.685;  -97.725; -985.000; -888.000
318.821; -100.625; -762.000; -735.000
318.957;  -17.450;   34.000;  -23.000
319.094;   35.775;  297.000;  154.000
319.230;  -51.525; -756.000; -742.000
319.367;  136.175; -471.000; -520.000
319.503;   47.975; -538.000; -436.000
319.639; -104.850; -877.000; -793.000
319.775;  -62.225; -750.000; -685.000
319.912;  -52.525; -424.000; -519.000
320.048;  -88.850;-1184.000;-1184.000
320.184;   57.925;   59.000;   70.000
320.321;  -53.525; -497.000; -467.000
320.457;   61.725;  475.000;  662.000
320.593;  -73.650; -375.000; -382.000
320.729; -114.025; -732.000; -734.000
320.866;  -61.575; -577.000; -635.000
321.002;  -74.900; -759.000; -809.000
321.138;  -17.775; -135.000; -211.000
321.274;   72.850; -148.000; -115.000
321.410;  -31.350; -585.000; -353.000
321.546;  -35.625;-1011.000; -911.000
321.683;   54.950;  400.000;  185.000
321.819;    2.775;  -48.000; -117.000
321.955;  -96.375; -743.000; -722.000
322.091;  -47.200; -585.000; -540.000
322.227;  -17.150; -382.000; -202.000
322.363;  -22.775; -320.000; -215.000
322.499;  -38.250; -343.000; -331.000
322.635;  143.975;  636.000;  443.000
322.771;   17.850; -139.000;   12.000
322.907;   90.250;  129.000;  327.000
323.043;  -27.950; -115.000; -206.000
323.179;  -41.450; -394.000; -363.000
323.315;   34.650; -401.000; -371.000
323.451;   92.075; -328.000; -236.000
323.587;   76.875;  -60.000;  -77.000
323.723;   13.750; -682.000; -601.000
323.859;  -12.050; -258.000;  -76.000
323.995;  -43.700; -467.000; -409.000
324.131; -111.350; -967.000; -892.000
324.267;  -52.225; -254.000; -276.000
324.402; -128.450; -960.000; -983.000
324.538;  -17.300; -279.000; -104.000
324.674;   23.350;  164.000;   77.000
324.810;  124.275;  226.000;  308.000
324.946;   10.050; -810.000; -658.000
325.082;  -74.600; -568.000; -475.000
325.217;  -12.075;  -62.000;   16.000
325.353; -105.400; -764.000; -659.000
325.489;  -87.950; -540.000; -506.000
325.625;  -81.825; -579.000; -525.000
325.760;   43.875;  517.000;  376.000
325.896;  -40.100; -515.000; -702.000
326.032;  -49.125; -403.000; -352.000
326.168;  -76.800; -462.000; -369.000
326.303;  -67.350; -352.000; -461.000
326.439;  -30.675; -336.000; -276.000
326.575;    2.325; -190.000;  -29.000
326.710;   -8.850; -156.000;  -30.000
326.846;   -8.175;  146.000;  103.000
326.982; -106.275; -530.000; -548.000
327.117;  -75.000; -481.000; -442.000
327.253;  -98.475; -745.000; -742.000
327.388; -110.600;-1137.000;-1153.000
327.524;  -54.000; -811.000; -578.000
327.659;  -35.975;  -58.000;  -22.000
327.795;  -25.675;   69.000;   45.000
327.931;  -94.700; -723.000; -499.000
328.066;  -31.250; -417.000; -276.000
328.202;   -6.400;   12.000; -129.000
328.337;   93.500;  957.000;  713.000
328.473;   31.050;  -12.000;  -74.000
328.608;  -22.700; -256.000; -267.000
328.743;  -78.025; -799.000; -664.000
328.879;   20.500;  214.000;  114.000
329.014;  -36.350; -102.000; -122.000
329.150;  -86.275; -358.000; -483.000
329.285;  -70.300; -465.000; -466.000
329.421;  -39.600; -548.000; -246.000
329.556;  -28.875;  -36.000;   85.000
329.691;  -98.200; -633.000; -615.000
329.827;  -79.150; -626.000; -480.000
329.962;  -42.750;  131.000; -301.000
330.097;  -98.500; -673.000; -585.000
330.233;  -57.750; -410.000; -223.000
330.368; -124.775; -839.000; -628.000
330.503;  -17.200;    3.000;   98.000
330.638;   10.750;  -93.000; -125.000
330.774;  -56.125; -609.000; -530.000
330.909;  -44.700; -434.000; -244.000
331.044;  -99.125; -714.000; -708.000
331.179; -177.325;-1217.000;-1109.000
331.315;    4.050;   77.000;   20.000
331.450;   12.900;  157.000;  285.000
331.585;  -81.200; -805.000; -706.000
331.720;  -83.925; -510.000; -460.000
331.855;   -3.000;  -35.000; -102.000
331.990;  260.750;   62.000;  138.000
332.126;  130.750; -110.000;   71.000
332.261;  -24.850; -379.000; -265.000
332.396;   -0.600; -135.000; -242.000
332.531;  -88.500;-1074.000;-1031.000
332.666;   15.400; -519.000; -363.000
332.801; -113.850; -726.000; -807.000
332.936;  -22.125; -192.000; -122.000
333.071; -151.000; -870.000; -817.000
333.206;    8.050;  307.000;  379.000
333.341;   21.925;  344.000;  418.000
333.476;  -89.600; -627.000; -623.000
333.611;  -45.400; -251.000; -173.000
333.746;  -47.950; -381.000; -464.000
333.881; -122.500; -973.000; -935.000
334.016; -133.225; -936.000; -917.000
334.151; -125.050; -746.000; -702.000
334.286;   16.800;  152.000;  186.000
334.421;  -28.225; -125.000; -178.000
334.556;  -77.125; -611.000; -567.000
334.690;  -91.625; -631.000; -577.000
334.825;   44.200;  381.000;   83.000
334.960;  -58.500; -285.000; -413.000
335.095;    7.325;  135.000;  -91.000
335.230; -112.950; -722.000; -738.000
335.365; -130.700;-1084.000; -990.000
335.499; -120.300;-1108.000;-1037.000
335.634;   24.350;    9.000;  534.000
335.769; -102.100; -755.000; -720.000
335.904;  -54.375; -603.000; -561.000
336.038;  -57.000; -735.000; -657.000
336.173; -119.150;-1206.000;-1194.000
336.308;    3.900; -116.000; -189.000
336.443;    4.700; -544.000; -634.000
336.577;  -65.700; -936.000; -787.000
336.712;   49.775;   -4.000;  -12.000
336.847;  -42.100; -724.000; -607.000
336.981;   83.025; -272.000; -208.000
337.116;  282.000;  615.000;  501.000
337.250;  162.850; -434.000; -421.000
337.385;  257.450; -297.000; -208.000
337.520;   80.225; -632.000; -603.000
337.654;  -45.075; -215.000; -126.000
337.789; -134.475; -989.000; -933.000
337.923;  -33.325; -104.000; -205.000
338.058;  -96.350; -673.000; -738.000
338.192;  -42.150; -611.000; -488.000
338.327;  -11.600;  -18.000; -155.000
338.461;  -64.425; -299.000; -469.000
338.596;  -92.450; -780.000; -638.000
338.730;  -87.000; -767.000; -803.000
338.865;   86.775;  -46.000; -140.000
338.999;  -55.250; -846.000; -702.000
339.134;  -29.650; -634.000; -536.000
339.268;   17.375; -741.000; -603.000
339.403;  368.900; -740.000; -775.000
339.537;  116.300; -894.000; -820.000
339.671; -104.525; -829.000; -813.000
339.806;  -64.750; -556.000; -512.000
339.940;   -1.175; -261.000; -235.000
340.074; -109.725; -685.000; -510.000
340.209;  -56.950; -351.000; -230.000
340.343;  -91.775; -517.000; -573.000
340.477;  138.775;  998.000; 1036.000
340.612;  -58.825;-1033.000; -900.000
340.746;  142.175; -199.000; -243.000
340.880;  -62.150; -924.000; -785.000
341.014;  -18.975;  -45.000; -154.000
341.149; -121.325; -756.000; -718.000
341.283; -122.025; -839.000; -754.000
341.417; -105.975;-1124.000; -938.000
341.551;  137.250; -768.000; -708.000
341.685;  -42.500; -633.000; -611.000
341.820;  -53.150; -562.000; -493.000
341.954;  -43.150; -218.000; -349.000
342.088; -161.550;-1102.000;-1019.000
342.222;   41.000;  565.000;  618.000
342.356;  -63.900; -395.000; -335.000
342.490;  -90.250; -880.000; -841.000
342.624;  -48.250; -339.000; -242.000
342.758;   -1.150; -364.000; -312.000
342.892;  -58.975; -710.000; -585.000
343.026;  -46.100;  -58.000; -116.000
343.160;  -74.350; -426.000; -376.000
343.294;  -77.450; -474.000; -337.000
343.428;  -29.050; -488.000; -448.000
343.562;  -21.575; -172.000;  -23.000
343.696;  -19.700; -385.000; -314.000
343.830;   -8.625; -362.000; -356.000
343.964;   14.400; -231.000; -168.000
344.098;  956.200;  199.000;   70.000
344.232;  810.675; -266.000; -127.000
344.366;   92.550; -567.000; -453.000
344.500;   54.475; -665.000; -744.000
344.634;   22.325; -324.000; -164.000
344.768;  -15.925; -531.000; -341.000
344.902;   27.800;  278.000;  256.000
345.035;  -75.900; -556.000; -496.000
345.169; -141.100; -933.000; -656.000
345.303;  -29.900; -308.000; -482.000
345.437;  -70.900; -826.000; -717.000
345.571;  -66.100; -675.000; -594.000
345.704;  -68.600; -309.000; -532.000
345.838;  -23.725; -331.000; -284.000
345.972;  -54.450; -543.000; -495.000
346.106;  159.600; -179.000; -190.000
346.239;  431.075; -312.000; -243.000
346.373;  -18.150; -343.000; -302.000
346.507; -136.975; -950.000; -962.000
346.640;  136.100;  -30.000;   13.000
346.774;  -40.575; -650.000; -797.000
346.908;  -31.475; -138.000;  -11.000
347.041;  -88.800; -646.000; -593.000
347.175;  -16.800;  259.000;   27.000
347.309;  -74.350; -698.000; -628.000
347.442;  -97.625; -883.000; -732.000
347.576;  291.500;  670.000;  668.000
347.709;  189.775; -123.000;  -52.000
347.843;  -84.175; -933.000; -825.000
347.976;   22.575;  235.000;  294.000
348.110; -180.375;-1268.000;-1186.000
348.243; -102.100; -679.000; -772.000
348.377;   17.050;  -26.000;   60.000
348.510;   48.650;  403.000;  540.000
348.644;  -22.400;  -37.000; -159.000
348.777;   -6.975;  180.000;  191.000
348.911;  -49.500; -142.000; -112.000
349.044;  177.600;  471.000;  448.000
349.178;  167.150;-1069.000;-1006.000
349.311;  100.050;  141.000;  255.000
349.444;   -7.325; -927.000; -813.000
349.578;  -14.675; -347.000; -200.000
349.711; -105.775; -959.000; -862.000
349.845;    9.500; -661.000; -591.000
349.978; -135.350;-1224.000;-1137.000
350.111;  -94.075; -546.000; -612.000
350.244;  -83.825; -596.000; -700.000
350.378;   10.075; -392.000; -393.000
350.511;  -72.950; -393.000; -426.000
350.644; -119.975; -808.000; -806.000
350.778;    6.300;  168.000;  104.000
350.911;   -1.225;  134.000;  140.000
351.044; -101.300; -685.000; -615.000
351.177;  -35.075; -321.000; -281.000
351.310;  -14.075;    3.000; -131.000
351.444;  -82.775; -888.000; -788.000
351.577;  109.400;  140.000;   90.000
351.710;  101.975;  593.000;  417.000
351.843;  -26.500; -165.000;  -77.000
351.976;  -10.500;  149.000;  -79.000
352.109;  -89.725; -621.000; -612.000
352.242;  -23.500; -464.000; -419.000
352.376;  -49.175; -580.000; -636.000
352.509;  177.625; -437.000; -356.000
352.642;   18.975; -654.000; -604.000
352.775;   58.775; -141.000;  -98.000
352.908; -110.675; -933.000; -904.000
353.041; -111.300; -814.000; -824.000
353.174;  -63.075; -551.000; -424.000
353.307; -101.475; -753.000; -764.000
353.440;   69.925;  541.000;  453.000
353.573; -104.950; -957.000;-1008.000
353.706;  -43.575; -384.000; -558.000
353.839;  -13.725; -264.000; -220.000
353.971;  -79.275; -657.000; -512.000
354.104;  -77.575; -896.000; -835.000
354.237;  -22.650; -627.000; -662.000
354.370;  -84.575; -846.000; -879.000
354.503; -173.525;-1231.000;-1308.000
354.636;  -55.150; -529.000; -348.000
354.769; -109.475; -937.000; -860.000
354.902;  -13.350; -230.000; -139.000
355.034;  -26.300; -164.000; -220.000
355.167;  -24.800; -262.000; -162.000
355.300;  -91.675;-1061.000; -880.000
355.433;  960.650;  -71.000;  -14.000
355.565; 1464.925; -402.000; -384.000
355.698;  371.250; -356.000; -296.000
355.831;   -8.000; -882.000; -801.000
355.964;   70.725; -285.000; -170.000
356.096;  -75.350; -856.000; -843.000
356.229;  -17.900; -523.000; -530.000
356.362;  310.775; -373.000; -266.000
356.494;  611.525; -229.000; -162.000
356.627;  504.000;  269.000;  377.000
356.760;  658.600;  120.000;   53.000
356.892;  964.975; -286.000; -601.000
357.025;  678.900;  403.000;  389.000
357.157;  645.025; -167.000; -179.000
357.290;  647.000; -856.000; -713.000
357.423;  202.200; -667.000; -556.000
357.555;  109.850; -217.000; -228.000
357.688;  123.400; -483.000; -364.000
357.820;  467.475; -870.000; -877.000
357.953; 3905.000; -563.000; -589.000
358.085;  862.725; -632.000; -612.000
358.218; 1201.425;-1131.000; -932.000
358.350;  202.900;  -58.000;  312.000
358.483; -118.975;-1300.000;-1187.000
358.615;  -14.025;-1182.000;-1078.000
358.747;  -55.450;-1187.000;-1058.000
358.880;   20.300; -810.000; -744.000
359.012;   -5.700; -376.000; -202.000
359.145;  -46.050; -480.000; -511.000
359.277;   85.800; -962.000; -913.000
359.409; 3182.375;  536.000;  231.000
359.542;  855.500; -738.000; -688.000
359.674;   68.575;   46.000;   13.000
359.806;  -58.000; -565.000; -438.000
359.939;  -49.850; -617.000; -516.000
360.071;   -9.275; -583.000; -579.000
360.203;  -20.125; -411.000; -364.000
360.335;   38.850;  164.000;  -16.000
360.468;  203.675; -249.000; -307.000
360.600; 2570.400; -547.000; -454.000
360.732; 2838.825; -546.000; -423.000
360.864;  426.950;-1216.000;-1044.000
360.996;  302.075; -516.000; -554.000
361.129;   44.200; -389.000; -598.000
361.261;   28.650;  110.000; -113.000
361.393;  -27.700; -252.000; -214.000
361.525;   29.400;   94.000;  244.000
361.657;  -33.950; -821.000; -703.000
361.789;    4.325; -139.000; -155.000
361.921;  226.025; -642.000; -593.000
362.053;  265.450;  524.000;  541.000
362.185;   54.450;  288.000;   72.000
362.318;  -80.725; -709.000; -705.000
362.450;  128.550;  294.000;  444.000
362.582;   92.475; -913.000; -870.000
362.714;  -36.675; -353.000; -332.000
362.846;  -95.550; -606.000; -490.000
362.978; -140.650; -941.000; -811.000
363.109;   48.725; -161.000; -260.000
363.241;  444.800; -739.000; -749.000
363.373;  441.300; -649.000; -564.000
363.505;  663.975; -186.000;  -91.000
363.637;  163.375; -787.000; -601.000
363.769; -123.375;-1067.000;-1080.000
363.901;  -75.625; -596.000; -654.000
364.033; -103.325;-1103.000;-1062.000
364.165;  -15.850; -283.000; -283.000
364.296;   71.125; -316.000; -177.000
364.428;   70.000;-1344.000;-1220.000
364.560;  -70.900; -679.000; -661.000
364.692;  -70.425; -738.000; -835.000
364.824;  278.725; -588.000; -456.000
364.955;  438.100; -402.000; -564.000
365.087;  930.875;-1097.000; -852.000
365.219;   25.000; -686.000; -816.000
365.351;  -59.800; -526.000; -572.000
365.482;   44.675;  300.000;  240.000
365.614;  -49.600; -402.000; -314.000
365.746; -104.500; -729.000; -752.000
365.877;  -90.375; -706.000; -672.000
366.009;  258.100;  -35.000;  -62.000
366.141;  -80.550;-1249.000;-1134.000
366.272; -123.350; -803.000; -719.000
366.404; -116.800;-1005.000; -874.000
366.535;  -34.575; -139.000;  -12.000
366.667; -109.375; -644.000; -649.000
366.799;   42.700;  353.000;  203.000
366.930; -122.700; -862.000; -996.000
367.062;  120.025; -639.000; -613.000
367.193;  155.850; -872.000; -842.000
367.325;  -59.125; -580.000; -684.000
367.456;   54.950; -246.000;   31.000
367.588;  167.050; -371.000; -318.000
367.719;   21.275;  -44.000;  -45.000
367.851;  -15.050; -222.000; -241.000
367.982;  -59.000; -875.000; -732.000
368.113;   85.275; -475.000; -358.000
368.245; -123.800; -960.000; -841.000
368.376;  -32.850; -254.000; -302.000
368.508;  -25.350; -188.000; -263.000
368.639; -134.750;-1166.000;-1034.000
368.770;  -10.100; -670.000; -589.000
368.902;  -64.950; -836.000; -926.000
369.033; -106.750; -906.000; -855.000
369.164;  -55.375; -720.000; -653.000
369.296; -106.050; -452.000; -601.000
369.427;  -12.475; -209.000; -144.000
369.558;  -49.525; -593.000; -377.000
369.689;  -93.700; -721.000; -569.000
369.821; -131.175; -951.000; -845.000
369.952;  -33.400;   42.000; -108.000
370.083;  -41.750; -229.000; -108.000
370.214;  -85.725; -735.000; -650.000
370.345;  -10.775;   65.000;   81.000
370.477;  -82.250; -810.000; -790.000
370.608;  249.850; -328.000; -264.000
370.739;  -53.200;-1233.000;-1292.000
370.870;  -37.750;-1102.000; -923.000
371.001;   98.000; -378.000; -467.000
371.132;  -68.100; -754.000; -735.000
371.263;  -22.600;  -42.000; -148.000
371.394; -129.375; -841.000; -748.000
371.525;   16.800;  345.000;  225.000
371.657;  -79.750; -808.000; -670.000
371.788;   64.650;  103.000;  199.000
371.919;  179.900; -384.000; -304.000
372.050; 3766.725;  -91.000; -156.000
372.181; 1138.800; -188.000; -294.000
372.311;  389.725;   42.000; -127.000
372.442;   38.950; -457.000; -451.000
372.573;  -15.800; -444.000; -340.000
372.704; -112.200;-1008.000; -980.000
372.835;   81.425; -228.000; -289.000
372.966;  -46.650; -646.000; -554.000
373.097;  -67.050; -575.000; -711.000
373.228;  -41.425; -717.000; -542.000
373.359;  145.550; -824.000; -536.000
373.490;  958.525; -881.000; -727.000
373.620; 1218.075;-1001.000; -803.000
373.751; 1867.250; -332.000; -396.000
373.882;  851.400; -663.000; -733.000
374.013;   69.800; -449.000; -262.000
374.143;  -49.650; -581.000; -659.000
374.274;  -96.025; -987.000; -908.000
374.405;  161.550; -388.000; -276.000
374.536;  470.050; -526.000; -387.000
374.666; 1191.775; -759.000; -807.000
374.797;  241.300; -817.000; -868.000
374.928;  909.875; -710.000; -560.000
375.058;  934.850; -535.000; -500.000
375.189;   78.725;  -59.000;  -93.000
375.320; -102.125; -928.000;-1034.000
375.450;  -46.550; -625.000; -616.000
375.581;  -38.375; -526.000; -436.000
375.712;  -51.225; -574.000; -250.000
375.842;  328.000; -438.000; -415.000
375.973;  242.900; -554.000; -513.000
376.103;  -44.800; -665.000; -648.000
376.234;  -89.450; -531.000; -552.000
376.364;  -32.575; -944.000; -867.000
376.495;  330.350;  925.000;  529.000
376.625;   -8.900; -472.000; -485.000
376.756;   74.025; -709.000; -678.000
376.886;  -81.575;-1178.000;-1026.000
377.017;   46.250;-1048.000;-1061.000
377.147;  345.775; -786.000; -782.000
377.278;   55.700;  174.000;  228.000
377.408; -127.750; -801.000; -815.000
377.538; -108.700; -707.000; -693.000
377.669;  -79.750; -537.000; -613.000
377.799;  -95.975; -645.000; -635.000
377.929;  -59.875; -610.000; -428.000
378.060; -136.275; -781.000; -847.000
378.190;  -57.650; -726.000; -531.000
378.320;  -59.000; -401.000; -406.000
378.451;  -16.200; -131.000;  -22.000
378.581;  -23.700;  -67.000; -110.000
378.711;  145.600; 1035.000;  866.000
378.841;  -20.775; -533.000; -675.000
378.972;  -59.525; -871.000; -751.000
379.102;  -11.600; -652.000; -579.000
379.232;  -16.775; -126.000;  -73.000
379.362; -106.050;-1001.000; -885.000
379.492;   14.600; -373.000; -424.000
379.623;   98.950;    0.000;  111.000
379.753;  -92.625;-1107.000; -974.000
379.883;  185.850;   59.000;  156.000
380.013;    2.250;-1081.000;-1017.000
380.143; -100.225;-1097.000;-1056.000
380.273;  -93.600; -985.000; -861.000
380.403;   -0.725; -344.000; -257.000
380.533;  -32.200; -651.000; -664.000
380.663;   70.275;  173.000;  128.000
380.793;  -94.925;-1027.000;-1074.000
380.923;  -21.175; -103.000;  -34.000
381.053;  -98.025; -613.000; -623.000
381.183;  -28.375; -106.000; -248.000
381.313;   26.225; -656.000; -470.000
381.443;   40.450; -692.000; -473.000
381.573;  200.400; -402.000; -409.000
381.703;  301.225;-1249.000;-1095.000
381.833; -125.625;-1454.000;-1336.000
381.963;  110.550; -134.000;  -87.000
382.093; 1456.650; -925.000; -909.000
382.223;  469.075; -713.000; -602.000
382.353;   -6.700; -801.000; -608.000
382.482;  397.875;-1091.000; -964.000
382.612;  822.875; -872.000; -644.000
382.742;  458.300; -695.000; -622.000
382.872;  267.850; -565.000; -551.000
383.002;   50.500;  347.000; -132.000
383.131;  -18.500; -226.000; -160.000
383.261;  -41.125; -706.000; -768.000
383.391;  283.925; -552.000; -377.000
383.521; 3201.675;  451.000;  263.000
383.650;  787.200; -947.000; -904.000
383.780;   -8.875; -783.000; -656.000
383.910;  111.750;  880.000;  802.000
384.039;   27.950; -794.000; -656.000
384.169;  232.850;-1205.000;-1017.000
384.299;  -24.225; -650.000; -662.000
384.428;  -85.725; -764.000; -680.000
384.558;  -54.300; -308.000; -275.000
384.687;  -45.675; -414.000; -334.000
384.817;    6.300;   75.000;   -2.000
384.947;   17.475; -234.000; -141.000
385.076;  285.850;  982.000;  912.000
385.206;   88.600;  369.000;  480.000
385.335;  -36.375; -549.000; -417.000
385.465;  -66.400; -655.000; -663.000
385.594;  119.800;  -53.000;  -44.000
385.724;  427.425; -868.000; -838.000
385.853;  122.425; -296.000; -270.000
385.982; 1409.050; -743.000; -787.000
386.112; 2278.625;-1052.000; -871.000
386.241;  146.375; -307.000; -312.000
386.371;   13.025; -174.000;  -87.000
386.500;  -15.675; -825.000; -789.000
386.629;   15.600; -874.000; -817.000
386.759;   58.775;  -43.000;   68.000
386.888;  -18.100; -170.000; -250.000
387.017;  -74.925; -648.000; -620.000
387.147;  -98.275; -771.000; -798.000
387.276;  -11.325; -410.000; -397.000
387.405;   12.200; -398.000; -342.000
387.535;  -43.250; -452.000; -361.000
387.664;  -68.875; -692.000; -620.000
387.793;   65.525; -198.000; -113.000
387.922;  513.225;  255.000;  200.000
388.052;   16.800; -576.000; -423.000
388.181;   -5.400; -342.000; -472.000
388.310;  -24.200; -889.000; -710.000
388.439;  -50.900; -749.000; -742.000
388.568;  184.250;  365.000;  244.000
388.697; 1099.075; -756.000; -653.000
388.826;  243.350; -768.000; -666.000
388.956;   55.400; -285.000; -307.000
389.085;  -35.050; -347.000; -287.000
389.214; -112.975; -842.000; -872.000
389.343;  -70.450; -645.000; -413.000
389.472;  384.725;  126.000;  149.000
389.601;  526.800;   91.000;    0.000
389.730;   16.275; -568.000; -687.000
389.859;   55.775;  226.000;   46.000
389.988;  188.500; -423.000; -408.000
390.117;  147.275; -168.000; -146.000
390.246;  -14.225; -331.000; -320.000
390.375;  107.225; -673.000; -626.000
390.504;  -59.700; -703.000; -621.000
390.633;  -91.525; -672.000; -726.000
390.761;  -65.025; -732.000; -645.000
390.890;   30.175;   -4.000; -130.000
391.019;  -19.475; -421.000; -441.000
391.148; -117.675; -826.000; -855.000
391.277;  -61.400; -576.000; -493.000
391.406;  -86.600; -821.000; -805.000
391.534;   29.325;  574.000; -301.000
391.663;  -56.650; -583.000; -645.000
391.792;  -95.450; -673.000; -701.000
391.921;   86.525;   -3.000;   15.000
392.050;  194.425; -287.000; -228.000
392.178;  -33.700;-1206.000;-1061.000
392.307;  127.275; -758.000; -712.000
392.436;   96.975; -427.000; -641.000
392.564;   11.125;  166.000;   -6.000
392.693;  -85.050; -860.000; -682.000
392.822;  204.200; -529.000; -534.000
392.950;   89.750; -880.000; -714.000
393.079;  326.800; -188.000; -328.000
393.208;   31.025; -488.000; -511.000
393.336;  -18.025; -170.000; -145.000
393.465;  -30.250; -317.000; -199.000
393.593;   -2.650;   62.000;   79.000
393.722; -150.125;-1121.000; -916.000
393.850;  -39.750; -188.000;  -61.000
393.979; -150.150; -926.000; -805.000
394.107;  -67.225; -517.000; -537.000
394.236;  -27.375; -570.000; -507.000
394.364;  220.050;  383.000;  206.000
394.493;  359.000; -911.000; -767.000
394.621;  -17.350; -955.000; -916.000
394.750;  702.500; -873.000; -923.000
394.878; 2906.075; -247.000; -149.000
395.007; 4072.850; -721.000; -807.000
395.135;  302.150; -790.000; -721.000
395.263;  -83.750;-1038.000;-1040.000
395.392;    5.825;  -25.000; -107.000
395.520; -141.025; -818.000; -679.000
395.648;  -82.675; -865.000; -915.000
395.777;   -8.025; -366.000; -405.000
395.905;  -43.750; -449.000; -564.000
396.033;    4.075;  217.000;  172.000
396.162;  581.025; -399.000; -453.000
396.290;  550.850;  -17.000;   -2.000
396.418;  116.475; -555.000; -514.000
396.546;  -60.550; -571.000; -466.000
396.674;  -93.600; -850.000; -878.000
396.803;   -8.000;  -72.000;  -23.000
396.931;   93.450; -179.000; -199.000
397.059;   61.625;-1026.000; -989.000
397.187; -111.950;-1026.000; -975.000
397.315; -135.575; -884.000; -649.000
397.443;  -89.925; -592.000; -443.000
397.572; -107.050; -578.000; -424.000
397.700;  -16.775; -607.000; -614.000
397.828;    1.750;  120.000;  -90.000
397.956;  -59.850; -508.000; -478.000
398.084;  -73.025; -767.000; -626.000
398.212;   18.125;  137.000;  124.000
398.340;    9.625;  -56.000;  159.000
398.468;   11.275; -390.000; -169.000
398.596; -122.200; -993.000; -953.000
398.724; -121.575; -762.000; -767.000
398.852; -157.050;-1024.000; -976.000
398.980;  -72.750; -560.000; -560.000
399.108;  -60.600; -982.000; -735.000
399.236;   23.950;   13.000;    8.000
399.363;    7.075;  222.000;  196.000
399.491;  -65.350; -404.000; -398.000
399.619; -130.125; -829.000; -800.000
399.747; -104.650; -859.000; -771.000
399.875;   71.575;  220.000;  234.000
400.003;  -67.500; -359.000; -284.000
400.130;  -97.275; -421.000; -341.000
400.258;  -42.000;  -83.000;   38.000
400.386;  -64.700; -352.000; -168.000
400.514;  -55.900; -526.000; -587.000
400.641;  -80.175; -928.000; -802.000
400.769; -140.250; -979.000; -888.000
400.897; -108.400; -838.000; -793.000
401.025;  -29.025; -166.000; -152.000
401.152;  -15.725;  220.000;   38.000
401.280;  -83.050; -430.000; -429.000
401.408; -123.425; -712.000; -576.000
401.535; -117.100; -735.000; -758.000
401.663; -193.925;-1134.000;-1054.000
401.790;  -82.050; -514.000; -525.000
401.918;   29.525;  436.000;  405.000
402.046;  -24.350;  134.000;  122.000
402.173;  -37.075;  -18.000;    7.000
402.301;  -71.950; -519.000; -397.000
402.428;   31.975;  528.000;  383.000
402.556; -159.125;-1188.000; -913.000
402.683;  -43.325;  -20.000;   -1.000
402.811;  -19.325;  -37.000; -206.000
402.938;  -16.025;   20.000;   27.000
403.066;  203.425; -574.000; -558.000
403.193;  367.200;  299.000;  239.000
403.321;  263.875; -396.000; -574.000
403.448;  332.725;   83.000;   27.000
403.575;  157.000;  -90.000;  -46.000
403.703;  -97.250; -732.000; -557.000
403.830;  -65.500; -531.000; -496.000
403.957; -140.175;-1117.000;-1023.000
404.085;   -9.700;  -61.000; -172.000
404.212;  102.750;  -50.000;   63.000
404.339;  247.475; -566.000; -306.000
404.467; 5695.525; -612.000; -524.000
404.594; 3930.475; -287.000; -227.000
404.721;  971.625; -869.000; -764.000
404.848;   77.925; -113.000; -202.000
404.976; -103.975; -856.000; -783.000
405.103;  -11.575;  -14.000;  -82.000
405.230;  -10.225;  190.000;  226.000
405.357;   23.850;  117.000;   44.000
405.484;  261.375;  -49.000;    5.000
405.612;   40.050; -548.000; -563.000
405.739;  -64.700; -488.000; -243.000
405.866;   75.200;  669.000;  385.000
405.993;  -52.975; -398.000; -102.000
406.120; -135.600; -801.000; -887.000
406.247;  -62.650; -323.000; -342.000
406.374;  426.200;  540.000;  629.000
406.501;  128.025; -632.000; -702.000
406.628;  -84.475; -621.000; -589.000
406.755;  -92.225; -803.000; -620.000
406.882;  -46.000; -228.000; -277.000
407.009; -105.900; -719.000; -628.000
407.136;   42.300; -480.000; -401.000
407.263;  133.725; -939.000; -829.000
407.390;  -78.725; -692.000; -614.000
407.517; -174.500;-1139.000;-1187.000
407.644;  -53.250; -332.000; -256.000
407.771;  -62.300; -249.000; -287.000
407.898;   -7.900;  168.000;  328.000
408.025;  -70.900; -421.000; -313.000
408.151;  -23.675;   82.000;  153.000
408.278;  -82.650; -267.000; -216.000
408.405; -116.525; -931.000; -899.000
408.532;  -65.150; -549.000; -542.000
408.659; -120.775; -677.000; -648.000
408.785; -195.725;-1298.000;-1170.000
408.912;  -81.550; -412.000; -296.000
409.039; -113.250; -610.000; -686.000
409.166; -111.325; -591.000; -555.000
409.292; -108.425; -571.000; -534.000
409.419; -120.425; -665.000; -649.000
409.546;  -94.025; -431.000; -192.000
409.672; -113.725; -713.000; -545.000
409.799;   -7.375;  -36.000;   34.000
409.926;  -52.925; -180.000; -179.000
410.052; -171.325;-1127.000;-1091.000
410.179;  -56.675; -368.000; -392.000
410.305;  -80.250; -375.000; -493.000
410.432;  -59.875; -220.000; -333.000
410.558;  -90.675; -305.000; -380.000
410.685; -117.350; -688.000; -431.000
410.812;  -92.350; -409.000; -588.000
410.938; -141.625; -964.000; -808.000
411.065;  -93.550; -671.000; -645.000
411.191;  -20.675; -189.000; -174.000
411.317; -105.675; -823.000; -742.000
411.444;  -73.975; -317.000; -246.000
411.570;  -75.000; -339.000; -294.000
411.697; -129.300; -758.000; -752.000
411.823; -171.625; -989.000; -999.000
411.949;  -39.300;  -56.000;   17.000
412.076; -116.875; -539.000; -519.000
412.202; -130.325; -758.000; -757.000
412.329; -129.650; -798.000; -752.000
412.455; -118.250; -821.000; -657.000
412.581;  -13.850;  -15.000;  172.000
412.707;  -68.850; -540.000; -457.000
412.834;   10.400;  156.000;  219.000
412.960;  -84.650; -785.000; -784.000
413.086; -110.925; -743.000; -701.000
413.212;  139.800;  604.000;  578.000
413.339;  -50.900; -685.000; -701.000
413.465;   -1.250; -364.000; -310.000
413.591;  -84.025; -757.000; -474.000
413.717;  -66.050; -358.000; -366.000
413.843; -141.300; -839.000; -861.000
413.969;  -61.725;  -47.000; -292.000
414.096; -107.900; -679.000; -679.000
414.222;   -9.125;  -33.000;   85.000
414.348;  -26.125; -652.000; -385.000
414.474;   94.025;   38.000;  -52.000
414.600;  -17.900; -126.000; -144.000
414.726;  -17.600;  -96.000;  -55.000
414.852;  -51.725; -365.000; -342.000
414.978;   26.850;  104.000;  -18.000
415.104;   26.150;   38.000;   80.000
415.230;   22.225; -329.000; -330.000
415.356;   19.425; -409.000; -514.000
415.482;  198.000;   13.000;  -35.000
415.608;  266.050; -247.000; -323.000
415.734;  962.300;   67.000;   38.000
415.860;19676.375; -875.000; -767.000
415.986;15082.700; -685.000; -607.000
416.111; 1309.700; -798.000; -652.000
416.237;  263.275; -424.000; -571.000
416.363; 1085.425; -765.000; -733.000
416.489; 4252.650; -324.000; -251.000
416.615;  472.450; -707.000; -742.000
416.741;  -25.950; -677.000; -784.000
416.866;  -96.550; -673.000; -736.000
416.992; -133.175; -801.000; -818.000
417.118;  -27.200;  -41.000;  -80.000
417.244;  -75.425; -798.000; -531.000
417.369;  -84.725; -801.000; -612.000
417.495;  -17.675; -325.000; -254.000
417.621;  -82.100;-1015.000; -803.000
417.746;   10.650; -579.000; -572.000
417.872;   52.700; -254.000; -144.000
417.998;   47.250; -515.000; -530.000
418.123;  998.075;-1073.000; -845.000
418.249; 5446.400; -512.000; -601.000
418.374;  823.025; -916.000; -824.000
418.500;  112.825; -383.000; -482.000
418.626;  107.275;   70.000;  -59.000
418.751;  122.600; -549.000; -448.000
418.877;  196.000; -637.000; -643.000
419.002; 1722.250; -688.000; -560.000
419.128;12635.675; -930.000; -721.000
419.253; 3242.900; -967.000; -837.000
419.379;  424.875; -391.000; -338.000
419.504;  381.925;  325.000;  415.000
419.629;  503.950; -393.000; -212.000
419.755; 3428.825; -317.000; -254.000
419.880;21165.550;  -98.000;   67.000
420.006;11475.275; -280.000; -221.000
420.131;29801.100; -662.000; -775.000
420.256; 4513.775; -315.000; -316.000
420.382;  627.775; -665.000; -687.000
420.507;   70.225; -649.000; -778.000
420.632;  131.175; -337.000; -339.000
420.758;  270.050; -251.000; -425.000
420.883;  -81.475; -876.000; -672.000
421.008;  -99.850; -775.000; -619.000
421.133;  -83.725; -509.000; -467.000
421.259;  -65.400; -325.000; -259.000
421.384; -121.875; -834.000; -693.000
421.509;  -51.475;-1052.000; -862.000
421.634; 1195.875; -936.000; -820.000
421.759;  541.575; -359.000; -327.000
421.885;  -64.975; -717.000; -656.000
422.010; -100.300; -673.000; -542.000
422.135; -153.575; -695.000; -727.000
422.260;   33.400;  340.000;  280.000
422.385;  -42.450;   12.000;  -98.000
422.510;    0.750;  151.000;  -26.000
422.635;    3.525;  -87.000;  -43.000
422.760;   97.225; -766.000; -791.000
422.885;   63.075;  -57.000;  -80.000
423.010;  -29.525; -112.000; -169.000
423.135; -106.150; -481.000; -561.000
423.260;  -20.475; -150.000; -245.000
423.385;   59.750;  476.000;  222.000
423.510;   29.525;   71.000;  -22.000
423.635;   80.850;  133.000;   45.000
423.760;   55.225;  383.000;  328.000
423.885;   38.625;  336.000;  391.000
424.010;   -1.875;  -68.000;  -13.000
424.135;  -32.325;    5.000;  -33.000
424.259;  -97.650; -654.000; -457.000
424.384;  -60.325; -279.000; -272.000
424.509;  -40.900; -260.000; -186.000
424.634; -102.000; -761.000; -623.000
424.759;  -22.875; -688.000; -544.000
424.883;  -13.450; -506.000; -527.000
425.008;  165.525; -502.000; -410.000
425.133; 2012.500; -679.000; -653.000
425.258;  969.075; -517.000; -381.000
425.382; 1048.325; -867.000; -774.000
425.507; 2807.125; -487.000; -543.000
425.632;  451.775; -802.000; -663.000
425.756;  447.200; -256.000; -146.000
425.881; 6342.775; -831.000; -857.000
426.006;17944.600; -604.000; -355.000
426.130; 2914.075; -696.000; -508.000
426.255;  367.525; -611.000; -491.000
426.379;  144.175; -189.000; -577.000
426.504;  364.475;  660.000;  544.000
426.629; 3987.550; -519.000; -466.000
426.753; 2893.775;   64.000;  -46.000
426.878;  324.300; -252.000; -288.000
427.002;  132.775; -651.000; -668.000
427.127; 1543.100;  -35.000; -158.000
427.251;11347.675;  372.000;  401.000
427.375; 3445.350; -191.000; -173.000
427.500; 2347.600; -616.000; -610.000
427.624;  847.700; -234.000; -400.000
427.749;   86.025; -216.000; -225.000
427.873;  -50.175; -499.000; -412.000
427.997;  -49.875; -222.000; -230.000
428.122;   66.300;  795.000;  703.000
428.246;   70.775;  433.000;  434.000
428.371; -131.400; -869.000; -773.000
428.495; -111.425; -624.000; -646.000
428.619;  -41.950; -186.000; -117.000
428.743;    4.775;   65.000;  132.000
428.868;   25.025; -732.000; -643.000
428.992; 1439.250; -219.000; -326.000
429.116;  586.575; -329.000; -357.000
429.240;  284.150;  419.000;  426.000
429.365;  -20.825; -454.000; -574.000
429.489;  -56.400; -638.000; -647.000
429.613;   11.025; -236.000; -177.000
429.737;   25.575; -563.000; -432.000
429.861;  260.475; -247.000; -133.000
429.985; 5427.975; -425.000; -305.000
430.109; 6299.875; -770.000; -908.000
430.234;  706.400;   76.000;  -50.000
430.358;   73.025; -250.000; -160.000
430.482;  -80.775; -672.000; -564.000
430.606;  -61.925; -655.000; -375.000
430.730;    5.175; -437.000; -388.000
430.854;  134.575; -909.000; -835.000
430.978;  -65.550; -795.000; -764.000
431.102;  -94.775; -499.000; -422.000
431.226; -124.125; -874.000; -815.000
431.350;   27.375;  345.000;  422.000
431.474;  -77.625; -661.000; -373.000
431.597; -143.550;-1060.000; -848.000
431.721;  -77.400; -276.000; -267.000
431.845; -129.300; -704.000; -472.000
431.969;  -85.775; -304.000; -349.000
432.093; -101.175; -395.000; -317.000
432.217;  -27.425;   32.000;   82.000
432.341; -102.225; -523.000; -518.000
432.464;  -10.100;   96.000;   40.000
432.588;  186.175; -401.000; -329.000
432.712;   91.200;  -52.000;  -52.000
432.836;   27.000;  213.000;  263.000
432.959;  -20.575; -372.000; -311.000
433.083;   87.450;   11.000;    2.000
433.207;  351.350;  285.000;  930.000
433.330; 4925.875; -391.000; -200.000
433.454; 6400.950; -654.000; -638.000
433.578; 3632.800;  583.000;  278.000
433.701;  705.075; -623.000; -675.000
433.825;  154.500; -292.000; -299.000
433.949;  162.350;   28.000;  -72.000
434.072;   58.475; -410.000; -323.000
434.196;  -20.900; -309.000; -117.000
434.319; 3658.475;25482.000;25124.000
434.443;  696.125; -656.000; -603.000
434.566; 2664.875;  281.000;   62.000
434.690;  467.575; -637.000; -383.000
434.813;   54.375; -251.000; -173.000
434.937;  -85.225; -569.000; -696.000
435.060;  -46.300; -423.000; -332.000
435.184;  284.475; -492.000; -217.000
435.307;  177.150;  159.000;  102.000
435.431;  -30.275;  -40.000;   24.000
435.554;  -82.350; -399.000; -240.000
435.677; -103.800; -350.000; -258.000
435.801;  -41.150;  -25.000;   49.000
435.924;  -27.600;    1.000;  -67.000
436.048; -114.900;-1019.000; -732.000
436.171;  -66.550; -240.000;  -66.000
436.294;  -20.450; -248.000; -229.000
436.417;   86.750; -963.000; -849.000
436.541;  -65.350; -814.000; -840.000
436.664;  -43.400; -242.000; -316.000
436.787;  -34.600;   13.000;  113.000
436.910; -123.900; -792.000; -422.000
437.034;   -4.875;  142.000;  143.000
437.157;   39.750;  -11.000;    0.000
437.280;  -49.275; -392.000; -292.000
437.403;  -94.850; -982.000; -869.000
437.526;  604.250; -903.000; -865.000
437.649; 2320.250; -505.000; -332.000
437.772;  365.225; -692.000; -540.000
437.896;  122.200;  700.000;  544.000
438.019; -111.675; -758.000; -503.000
438.142;  -88.375; -596.000; -506.000
438.265;  -19.225; -639.000; -670.000
438.388;  576.950; -520.000; -410.000
438.511;   99.125; -597.000; -394.000
438.634;  -49.900; -247.000; -125.000
438.757; -125.900; -693.000; -619.000
438.880;  -43.550;  -34.000;  -57.000
439.003;  -82.350; -417.000; -437.000
439.126;  -67.050; -287.000; -167.000
439.248;  -65.550;  -98.000; -139.000
439.371;  -51.250;    9.000;  -53.000
439.494;   16.200;  510.000;  439.000
439.617;  -56.350;   65.000;  -88.000
439.740; -174.475; -968.000; -816.000
439.863; -147.100; -755.000; -595.000
439.986; -124.725; -476.000; -431.000
440.108;  -53.475; -161.000; -112.000
440.231; -164.850; -950.000; -836.000
440.354;  -53.275;  -64.000; -150.000
440.477;   36.375; -566.000; -542.000
440.599;    5.900; -200.000; -225.000
440.722; -128.175; -709.000; -586.000
440.845;   60.600;  751.000;  928.000
440.968; -118.875; -415.000; -311.000
441.090;  -85.625; -199.000;  -33.000
441.213; -170.200;-1021.000; -825.000
441.336;  -61.675; -159.000;   -5.000
441.458;  -79.350; -549.000; -396.000
441.581;  -88.275; -628.000; -629.000
441.703;  -68.650; -152.000;   13.000
441.826; -118.050; -557.000; -400.000
441.948;  -49.550;   56.000;   51.000
442.071;   22.150;  555.000;  424.000
442.193; -118.100; -531.000; -485.000
442.316;   19.950;  152.000;   97.000
442.438;   27.775; -233.000;  -10.000
442.561;   59.950;  272.000;  262.000
442.683;  514.675; -809.000; -522.000
442.806; 1187.200;   -8.000;   74.000
442.928;   39.950; -859.000; -604.000
443.051;  -75.200; -577.000; -373.000
443.173; -102.650; -341.000; -339.000
443.295;  -78.000; -263.000; -371.000
443.418;  -61.100; -321.000;  -29.000
443.540;  -11.325; -106.000;   -4.000
443.662; -117.175; -563.000; -465.000
443.785;  -16.400;  335.000;  199.000
443.907; -102.750; -362.000; -208.000
444.029; -135.300; -767.000; -494.000
444.152; -143.975; -644.000; -554.000
444.274;  -37.275;  -18.000;  -24.000
444.396; -111.825; -461.000; -221.000
444.518; -146.050; -691.000; -454.000
444.640; -102.475; -268.000; -111.000
444.763;  -32.500;  388.000;  249.000
444.885; -124.150; -432.000; -392.000
445.007;  -43.950;   35.000;   86.000
445.129; -125.975; -610.000; -515.000
445.251; -113.400; -372.000; -439.000
445.373; -135.875; -537.000; -386.000
445.495;    0.075;  242.000;  350.000
445.617;   37.300;  853.000;  753.000
445.739;  -78.175; -215.000;  -97.000
445.861;  -53.450; -245.000; -112.000
445.984;  -43.550; -267.000; -101.000
446.105;  202.100; -418.000; -251.000
446.227;  641.125; -176.000;  -19.000
446.349;   34.075; -358.000; -249.000
446.471; -107.750; -615.000; -448.000
446.593;  -72.625; -316.000;   19.000
446.715;   -6.525;  -67.000;   41.000
446.837;   63.475;  697.000;  832.000
446.959; -108.425; -457.000; -478.000
447.081; -133.425; -628.000; -518.000
447.203;   36.375;  862.000;  834.000
447.325;  -89.850; -270.000;   42.000
447.446;   -8.125;  286.000;  530.000
447.568; -154.450; -921.000; -803.000
447.690;  -83.125; -236.000; -245.000
447.812; -156.025; -798.000; -519.000
447.933;  -28.300;  155.000;  127.000
448.055;  -69.225; -306.000; -261.000
448.177;  129.350;   31.000;   79.000
448.299;   90.300; -935.000; -727.000
448.420;   15.300;  -25.000;  159.000
448.542;  -49.325;   -3.000;   33.000
448.664;  -31.050;  109.000;  322.000
448.785;  -48.625;  265.000;   83.000
448.907;  -88.525; -614.000; -353.000
449.028;  -25.725; -771.000; -471.000
449.150;   67.050;  492.000;  589.000
449.272; -169.650;-1044.000; -913.000
449.393;   32.200;  612.000;  694.000
449.515; -141.325; -634.000; -581.000
449.636;  -66.800; -264.000; -155.000
449.758;   72.700;  763.000;  622.000
449.879;  -89.300; -498.000; -396.000
450.001;  -75.325; -149.000;  -49.000
450.122;  -49.300;  -95.000;  162.000
450.244;  -19.475;   37.000;  364.000
450.365;  -85.275; -495.000; -301.000
450.486;  -38.000;   80.000;  268.000
450.608;    4.350;  393.000;  326.000
450.729;   56.150;  578.000;  645.000
450.850;   -5.725; -574.000; -466.000
450.972;  708.100; -552.000; -389.000
451.093; 4886.825;  190.000;  588.000
451.214; 2258.425; -516.000; -337.000
451.336;  401.600;  773.000;  579.000
451.457;   56.825;  264.000;  393.000
451.578;  -45.050; -118.000;  -74.000
451.699; -121.375; -546.000; -540.000
451.821;  -76.075; -284.000;  -50.000
451.942;   -4.575;  278.000;  285.000
452.063;   22.225;  228.000;  419.000
452.184;  526.375;  -54.000;  -49.000
452.305; 1088.900;  103.000;  170.000
452.427;  150.400; -549.000; -301.000
452.548;  -22.725;   23.000;   79.000
452.669;  -53.875; -257.000;  -89.000
452.790;  -42.500;    3.000;  -18.000
452.911;   -2.475;  195.000;  259.000
453.032;  -80.150; -289.000;  -60.000
453.153;  -43.850;  -29.000;   81.000
453.274;   66.725;  737.000;  868.000
453.395;  -52.825;  -51.000;  175.000
453.516;  114.125; 1317.000; 1388.000
453.637;  -71.800; -205.000; -150.000
453.758;  -66.125;   15.000;   69.000
453.879; -128.250; -462.000; -250.000
454.000;   76.150; 1086.000;  948.000
454.121; -130.800; -554.000; -326.000
454.242; -116.325; -599.000; -383.000
454.362;  -70.775;  -99.000;  114.000
454.483;  -47.150; -309.000; -229.000
454.604;   43.025;  512.000;  580.000
454.725; -123.600; -627.000; -555.000
454.846; -119.300; -474.000; -406.000
454.967;  -34.575;  230.000;  539.000
455.087;  -36.375;  179.000;  153.000
455.208;   13.250;  554.000;  856.000
455.329;  -66.725;  -22.000;   82.000
455.450;   29.350;  473.000;  633.000
455.570;  -87.650; -234.000; -211.000
455.691;  -51.875;  201.000;  407.000
455.812; -116.500; -270.000;  -92.000
455.932;  -70.800;  107.000;  -97.000
456.053;  -71.175;   36.000;   24.000
456.173; -127.275; -433.000; -355.000
456.294; -131.275; -476.000; -303.000
456.415;  -62.100;  -73.000;   70.000
456.535;  -40.525;  297.000;  273.000
456.656;  -46.600;  132.000;  240.000
456.776;  -77.175;    3.000;  298.000
456.897;   -6.775;  308.000;  513.000
457.017;  -76.225; -153.000;   -3.000
457.138; -112.100; -402.000; -249.000
457.258;  -28.200;  263.000;  224.000
457.379;  -39.025;  509.000;  521.000
457.499;  -26.650;  443.000;  432.000
457.620; -124.800; -407.000; -231.000
457.740;  -97.275; -132.000;  -11.000
457.860;  -65.700;   87.000;   44.000
457.981;  -49.950;  132.000;  124.000
458.101;  -91.025;  -89.000;   40.000
458.221;  -12.550;  336.000;  402.000
458.342;  -62.350;   -4.000;  -37.000
458.462;   16.150;  617.000;  352.000
458.582;  -45.950; -302.000; -294.000
458.703;   -2.600;  303.000;  154.000
458.823;  -41.825;   22.000;  163.000
458.943;   25.025;  341.000;  467.000
459.063;  -14.575; 1124.000;  192.000
459.183;  -30.300;  328.000;  313.000
459.304;    5.575;  315.000;  517.000
459.424;  -64.675; -246.000;  -89.000
459.544;  315.600;  388.000;  764.000
459.664;  840.375;  499.000;  506.000
459.784;  338.225; 1004.000; 1175.000
459.904;   64.275;  867.000;  744.000
460.024;   55.150;  867.000;  684.000
460.144;    5.350;  449.000;  554.000
460.264;   -0.300;  515.000;  327.000
460.385;  -98.250; -145.000; -119.000
460.505;   34.100;  905.000;  858.000
460.625; -101.000;  -17.000;  -68.000
460.745;  -31.500;  396.000;  541.000
460.864;  -45.750;  153.000;  469.000
460.984;   -6.900;  499.000;  573.000
461.104;  142.025; 1656.000; 1775.000
461.224;   10.950;  657.000;  650.000
461.344;  -30.900;  431.000;  360.000
461.464;  -33.625;  258.000;  513.000
461.584;  -30.475;  283.000;  466.000
461.704;  -48.825;   58.000;  108.000
461.824;  -55.425;  238.000;  259.000
461.943;  -46.650;  191.000;  130.000
462.063;  -81.000;    2.000;  324.000
462.183;   27.350;  639.000;  717.000
462.303;  103.300; 1678.000; 1230.000
462.422;   22.950;  781.000;  840.000
462.542;  -43.575;  271.000;  391.000
462.662;   15.175;  353.000;  380.000
462.782;  244.525;  833.000;  572.000
462.901;  485.625;  545.000;  717.000
463.021;  302.100; 1702.000; 1638.000
463.141;    1.300;  337.000;  770.000
463.260;  -23.400;  614.000;  474.000
463.380;    2.050;  902.000;  884.000
463.499;  -31.450;  342.000;  332.000
463.619;  -47.650;  581.000;  559.000
463.738;  114.525; 1644.000;  903.000
463.858;   11.000;  657.000;  811.000
463.978;  -26.750;  542.000;  396.000
464.097;   36.900;  921.000; 1114.000
464.217;   94.925; 1196.000; 1143.000
464.336;  110.875; 1068.000; 1130.000
464.455;  -35.400;  328.000;  659.000
464.575;   32.425;  597.000;  602.000
464.694;  167.625; 1204.000; 1179.000
464.814;  130.975; 1190.000; 1138.000
464.933;   75.000; 1095.000; 1027.000
465.052;   74.800; 1412.000; 1054.000
465.172;   93.125;  922.000;  799.000
465.291;  134.025; 1376.000; 1320.000
465.410;   13.975;  462.000;  735.000
465.530;   69.850; 1355.000; 1310.000
465.649;   64.625; 1209.000; 1273.000
465.768;  131.725; 1673.000; 1508.000
465.888;   31.675;  941.000; 1174.000
466.007;   92.600; 1335.000; 1440.000
466.126;   -7.400;  721.000;  641.000
466.245;   45.800; 1176.000; 1187.000
466.364;   16.875;  950.000; 1060.000
466.484;   45.500; 1024.000; 1213.000
466.603;   36.350; 1101.000; 1222.000
466.722;  112.825; 1490.000; 1769.000
466.841;   69.625; 1151.000; 1401.000
466.960;   22.425; 1069.000;  972.000
467.079;  118.650; 1971.000; 1786.000
467.198;   31.900; 1238.000; 1181.000
467.317;   81.600; 1768.000; 1162.000
467.436;   68.925; 1709.000; 1261.000
467.555;  107.775; 1796.000; 1746.000
467.674;   60.225; 1227.000; 1329.000
467.793;   36.300; 1376.000; 1374.000
467.912;   72.775; 1658.000; 1539.000
468.031;  133.125; 2038.000; 1930.000
468.150;  141.475; 1842.000; 1837.000
468.269;  190.300; 2313.000; 2090.000
468.388;  191.250; 2168.000; 2339.000
468.507;  247.825; 2884.000; 2903.000
468.626;  250.125; 2555.000; 2541.000
468.744;  128.525; 2018.000; 2174.000
468.863;  208.725; 2312.000; 2523.000
468.982;   96.825; 1503.000; 1555.000
469.101;  217.700; 2788.000; 2692.000
469.220;  157.350; 2333.000; 2176.000
469.338;  255.950; 2935.000; 3051.000
469.457;  193.925; 2719.000; 2545.000
469.576;  333.625; 3953.000; 3784.000
469.695;  233.425; 2877.000; 3066.000
469.813;  416.625; 4148.000; 4192.000
469.932;  391.325; 4255.000; 4485.000
470.051;  415.425; 4075.000; 4161.000
470.169;  858.425; 4470.000; 4338.000
470.288; 1493.875; 4700.000; 4809.000
470.406;  895.875; 5059.000; 5194.000
470.525;  616.150; 6101.000; 5787.000
470.644;  647.250; 6847.000; 6794.000
470.762;  799.925; 8397.000; 7873.000
470.881;  903.675; 8651.000; 8464.000
470.999; 1019.175; 9685.000; 9151.000
471.118; 1108.350;11174.000;10711.000

