
Integration time [ms]: 100.000
Averaging Nr. [scans]: 40
Smoothing Nr. [pixels]: 0
Data measured with spectrometer [name]: 2101012U2
Wave   ;Sample   ;Dark     ;Reference
[nm]   ;[counts] ;[counts] ;[counts] 

197.733;   69.825;  516.000;  404.000
197.879;  -70.900; -610.000; -634.000
198.025;  -57.450; -475.000; -420.000
198.171;  -75.875; -602.000; -612.000
198.317;  -31.050; -401.000; -316.000
198.463;  -41.975; -655.000; -404.000
198.609;   25.125;  181.000; -137.000
198.755;  -56.900; -644.000; -410.000
198.901;  -66.350; -505.000; -424.000
199.047;  -54.475; -615.000; -488.000
199.193;  -37.150; -230.000; -468.000
199.339;  -25.900; -222.000; -369.000
199.485;   35.475;  330.000;  271.000
199.631;   18.700;  227.000;  310.000
199.777;  -44.525; -466.000; -398.000
199.923;  -57.000; -610.000; -424.000
200.069;   -3.975; -141.000;  -58.000
200.215;   63.275;  128.000;  453.000
200.361;   39.500;  243.000;  477.000
200.507;  -64.200; -600.000; -373.000
200.653;  -31.200; -371.000; -194.000
200.798;  -34.425; -215.000; -125.000
200.944;  -19.575; -146.000;  -41.000
201.090;   45.425;   61.000;  222.000
201.236;  -17.975; -116.000; -158.000
201.382;  123.425;  874.000;  903.000
201.528;    0.100;  -58.000;  -48.000
201.674;  -55.100; -386.000; -293.000
201.819;  -74.450; -540.000; -439.000
201.965;  -76.125; -699.000; -447.000
202.111;  -27.525; -273.000; -226.000
202.257;  -38.125; -250.000; -238.000
202.402;    7.650;   13.000;  -36.000
202.548;  -26.425; -169.000; -116.000
202.694;   79.900;  410.000; -183.000
202.840;  -71.975; -603.000; -531.000
202.985;  -64.725; -681.000; -639.000
203.131;  -99.850; -832.000; -666.000
203.277;  -27.975; -199.000; -262.000
203.423;  -42.875; -434.000; -520.000
203.568;  -49.500; -462.000; -237.000
203.714;  -55.650; -535.000; -542.000
203.860;  -79.475; -682.000; -641.000
204.005;    5.550;  112.000;  167.000
204.151;   68.725;  561.000;  556.000
204.296;  -48.150; -354.000; -221.000
204.442;  -70.950; -600.000; -547.000
204.588;  -68.075; -592.000; -579.000
204.733;   23.825;  178.000;  168.000
204.879; -124.250;-1018.000; -822.000
205.025;    8.825;  -99.000;  126.000
205.170;   -0.100;  -17.000;   94.000
205.316;   75.225;  438.000;  661.000
205.461;  -81.450; -698.000; -554.000
205.607;   91.925;  609.000;  665.000
205.752;  -75.625; -626.000; -551.000
205.898;  -60.375; -501.000; -391.000
206.043;  -44.450; -578.000; -506.000
206.189;  -51.800; -243.000; -285.000
206.334;   84.425;  554.000;  606.000
206.480;   84.800;  409.000;  239.000
206.625;  -73.525; -529.000; -552.000
206.771;  -58.300; -451.000; -373.000
206.916;  -26.750; -210.000; -537.000
207.062;  -63.450; -545.000; -591.000
207.207;  -64.425; -546.000; -443.000
207.353;   60.375;  185.000;  460.000
207.498;   10.600;  196.000;   85.000
207.643;  -51.500; -501.000; -370.000
207.789; -117.425;-1069.000; -910.000
207.934;  -96.825; -665.000; -713.000
208.080;  -22.775; -154.000;   66.000
208.225;  -10.650;  -22.000;  -57.000
208.370;  -83.800; -727.000; -619.000
208.516;  -82.625; -741.000; -487.000
208.661;  -23.800; -127.000;  -69.000
208.806;  -25.375; -165.000; -171.000
208.952; -119.125;-1044.000; -731.000
209.097;   72.325;  378.000;  349.000
209.242;  -37.000; -307.000; -382.000
209.387;   55.275;  392.000;  350.000
209.533;  -49.725; -321.000; -350.000
209.678;   68.100;  472.000;  543.000
209.823;  -63.400; -408.000; -310.000
209.969; -112.525; -860.000; -757.000
210.114; -112.025; -907.000; -719.000
210.259; -129.375; -939.000; -889.000
210.404;   -3.900; -171.000;  103.000
210.549;   -6.675;  108.000;    3.000
210.695;  -18.175;   -3.000;  -95.000
210.840;   32.825;   94.000;   67.000
210.985;  -63.525; -484.000; -303.000
211.130;   78.325;  268.000;  406.000
211.275;    9.050;  207.000;  199.000
211.420;  -59.425; -300.000; -289.000
211.566;  -59.900; -536.000; -489.000
211.711;   30.950;  218.000;  157.000
211.856;  -50.575; -545.000; -519.000
212.001;    6.675;  151.000;   44.000
212.146;   24.825;  153.000;   49.000
212.291;  -31.525; -210.000; -186.000
212.436;  -29.650; -280.000;   -6.000
212.581;  -99.550; -685.000; -653.000
212.726;  -68.025; -487.000; -538.000
212.871;  -47.350; -552.000; -217.000
213.016; -153.350;-1172.000;-1029.000
213.161;   46.400;  406.000;  291.000
213.306;  -80.000; -435.000; -577.000
213.451; -109.475; -778.000; -689.000
213.596;  -44.350; -455.000; -347.000
213.741;  -56.600; -448.000; -538.000
213.886;  -81.375; -498.000; -517.000
214.031;  -29.925; -294.000; -124.000
214.176;  -54.525; -408.000; -341.000
214.321;  -26.150; -296.000; -157.000
214.466;  -25.850; -163.000;  -43.000
214.611;   -3.500;  -61.000;  -10.000
214.756; -129.200; -948.000; -858.000
214.901;  -30.200; -388.000; -226.000
215.046; -116.775; -797.000; -825.000
215.191;   24.425;  128.000;   35.000
215.336;  -15.750; -157.000;  -19.000
215.480;  -75.800; -684.000; -505.000
215.625;  -17.550; -175.000;  -19.000
215.770;  -89.975; -757.000; -662.000
215.915;   -2.925;   -5.000;  -97.000
216.060;   -1.550; -113.000;  -21.000
216.205; -116.675; -731.000; -779.000
216.349;  -78.525; -470.000; -533.000
216.494; -131.075; -939.000; -867.000
216.639; -111.225; -823.000; -888.000
216.784;  -88.325; -577.000; -525.000
216.929;   38.000;  392.000;  281.000
217.073;  -18.325; -244.000;  -31.000
217.218;   -0.625;   78.000;  -47.000
217.363;  -81.550; -656.000; -618.000
217.507;  -84.525; -623.000; -588.000
217.652; -121.600; -845.000; -874.000
217.797;  -93.275; -708.000; -659.000
217.942;  -99.175; -856.000; -720.000
218.086;   68.300;  608.000;  539.000
218.231;   -9.150; -174.000;  -26.000
218.376;  -24.725; -337.000; -229.000
218.520;    6.075;  -41.000;   96.000
218.665;  -47.325; -338.000; -204.000
218.810;  -31.400; -275.000; -233.000
218.954;   -1.825;  201.000;   35.000
219.099; -111.500; -713.000; -963.000
219.243;  -72.450; -589.000; -554.000
219.388;  -23.275; -264.000; -136.000
219.532;  -21.500; -116.000; -116.000
219.677;  -65.750; -564.000; -521.000
219.822;   -1.000;   33.000;   89.000
219.966;    8.275;   17.000;  -99.000
220.111;  -31.125; -328.000;  -40.000
220.255; -105.525; -797.000; -750.000
220.400;  -10.300; -180.000; -146.000
220.544;  -58.675; -516.000; -450.000
220.689;  -56.950; -422.000; -451.000
220.833;  -11.800; -123.000;  -58.000
220.978;  -45.925; -393.000; -563.000
221.122;   31.275;  319.000;  307.000
221.267; -124.300; -906.000; -837.000
221.411;  -72.600; -478.000; -394.000
221.555;   -7.150; -104.000;  -23.000
221.700;  -43.400; -329.000; -222.000
221.844;   24.775;  255.000;  272.000
221.989;  -42.500; -328.000; -311.000
222.133;  -31.100; -289.000; -307.000
222.277;   -5.450;    5.000;   78.000
222.422;   11.700;  227.000;  113.000
222.566;  -39.275; -381.000; -214.000
222.711;  -61.350; -414.000; -479.000
222.855;  -68.975; -643.000; -586.000
222.999;  -84.375; -642.000; -717.000
223.144;  -32.850; -195.000; -194.000
223.288;   51.575;  423.000;  251.000
223.432;   40.000;  184.000;  230.000
223.576;    4.425;  152.000;  -21.000
223.721;   43.525;  364.000;  273.000
223.865;  -56.275; -472.000; -475.000
224.009;  243.625; 1673.000; 1631.000
224.153;  -80.150; -660.000; -671.000
224.298;  -67.300; -531.000; -489.000
224.442;  -16.850;  -74.000;  -33.000
224.586;   -0.800; -169.000; -106.000
224.730; -102.225; -858.000; -670.000
224.875;  -98.775; -739.000; -688.000
225.019;    8.825;  102.000;  188.000
225.163;   57.625;  208.000;  341.000
225.307;    6.700;   97.000;  -91.000
225.451;   53.800;  360.000;  481.000
225.595;   28.950;  264.000;  176.000
225.739;  -14.600; -170.000;  -94.000
225.884;    6.900;   86.000;    5.000
226.028;  -97.200; -760.000; -626.000
226.172;  -47.300; -260.000; -273.000
226.316; -120.475; -941.000; -902.000
226.460;  -68.000; -645.000; -493.000
226.604;  -48.700; -406.000; -400.000
226.748; -110.575; -836.000; -733.000
226.892;  -31.075; -227.000; -181.000
227.036;  -45.325; -537.000; -447.000
227.180;  -49.925; -551.000; -375.000
227.324;  -72.825; -561.000; -580.000
227.468; -112.200; -819.000; -717.000
227.612;   -3.525;  242.000;  -28.000
227.756;  -99.125; -845.000; -698.000
227.900;   45.325;  342.000;  441.000
228.044;  -57.250; -509.000; -290.000
228.188;   64.325;  448.000;  568.000
228.332;  -79.325; -546.000; -472.000
228.476;  -40.975; -223.000; -149.000
228.620;  -26.950; -210.000; -150.000
228.764;   57.825;  431.000;  349.000
228.908;   -4.425; -155.000;   30.000
229.052;  -89.150; -615.000; -528.000
229.195;  -18.125; -172.000;   13.000
229.339;  -39.200; -235.000; -305.000
229.483;  -30.650;    5.000; -162.000
229.627;  -13.650; -156.000;  139.000
229.771;  -45.625; -218.000; -294.000
229.915;    7.650;  230.000;   79.000
230.059;  -83.700; -648.000; -663.000
230.202;  -40.175; -370.000; -317.000
230.346;   -6.175; -107.000;  107.000
230.490;  -65.700; -489.000; -521.000
230.634;  -98.100; -736.000; -553.000
230.777;   69.050;  478.000;  509.000
230.921;  -58.675; -450.000; -359.000
231.065;  -53.075; -246.000; -286.000
231.209;   30.950;  261.000;  265.000
231.352;   27.750;   54.000;   40.000
231.496;   24.175;  568.000;  188.000
231.640;  -86.675; -693.000; -621.000
231.783;   66.700;  546.000;  525.000
231.927;  -58.250; -294.000; -365.000
232.071; -118.925; -962.000; -736.000
232.214; -109.250; -980.000; -764.000
232.358; -102.025; -683.000; -599.000
232.502;   -2.275;  -19.000;    7.000
232.645; -134.675;-1090.000; -927.000
232.789;  -30.225; -257.000; -218.000
232.933;  -38.150; -407.000; -224.000
233.076; -118.550;-1038.000; -897.000
233.220;  -96.225; -752.000; -777.000
233.363;  -82.350; -669.000; -477.000
233.507;   53.750;  371.000;  129.000
233.650; -104.250; -764.000; -834.000
233.794;   39.800;  438.000;  461.000
233.938;  -59.875; -530.000; -362.000
234.081;  -13.100;  -93.000;   31.000
234.225;  -62.875; -631.000; -539.000
234.368; -109.775; -773.000; -723.000
234.512;  -50.375; -385.000; -299.000
234.655; -101.275; -582.000; -555.000
234.798;  -59.575; -493.000; -466.000
234.942; -130.175; -884.000;-1002.000
235.085;  -81.575; -651.000; -443.000
235.229;  -59.875; -405.000; -410.000
235.372;  -46.550; -247.000; -191.000
235.516;  -70.950; -397.000; -321.000
235.659;    5.600;   92.000;  121.000
235.802;  -10.150;  -38.000;  -22.000
235.946;   13.150;  335.000;  215.000
236.089;   29.200;  126.000;  250.000
236.233;   41.975;  275.000;  298.000
236.376;  -38.325; -235.000; -378.000
236.519;  -50.150; -297.000; -319.000
236.663;  -18.225; -215.000; -117.000
236.806; -128.375;-1029.000; -999.000
236.949;   65.325;  543.000;  431.000
237.092;   46.425;  412.000;  391.000
237.236;  -79.225; -589.000; -502.000
237.379;   66.625;  352.000;  428.000
237.522; -127.225; -879.000; -768.000
237.666;  -17.125; -271.000;   18.000
237.809; -111.275; -851.000; -823.000
237.952;   41.200;  469.000;  271.000
238.095;  -52.975; -447.000; -442.000
238.238;   79.400;  688.000;  700.000
238.382;    6.575;  166.000;  103.000
238.525;  -81.075; -598.000; -511.000
238.668; -148.500;-1060.000; -985.000
238.811;  -90.325; -638.000; -643.000
238.954;  -59.275; -483.000; -334.000
239.097;   93.650;  617.000;  664.000
239.241;   29.275;  394.000;  326.000
239.384;  -34.575; -254.000; -214.000
239.527;  -56.050; -424.000; -224.000
239.670; -151.500; -994.000;-1091.000
239.813; -103.525; -696.000; -658.000
239.956;   82.900;  579.000;  473.000
240.099; -106.050; -778.000; -725.000
240.242;   61.750;  428.000;  432.000
240.385;   39.125;  466.000;  450.000
240.528;  -70.050; -706.000; -473.000
240.671;   12.475;  189.000;  134.000
240.814;  -38.500; -441.000; -158.000
240.957;  -88.675; -767.000; -578.000
241.100; -108.475; -779.000; -755.000
241.243; -127.425;-1234.000; -893.000
241.386;  -56.725; -508.000; -379.000
241.529; -100.100; -735.000; -547.000
241.672;  -82.200; -566.000; -495.000
241.815; -110.925; -832.000; -808.000
241.958;  -34.650; -125.000; -182.000
242.101;  -84.925; -545.000; -390.000
242.244;  -45.950; -270.000; -325.000
242.387;  -26.275; -304.000; -246.000
242.530;   70.000;  470.000;  134.000
242.673;  -64.375; -381.000; -309.000
242.815; -120.175; -925.000; -899.000
242.958;  -74.875; -482.000; -381.000
243.101;    9.800;  132.000;  187.000
243.244;  -81.725; -564.000; -521.000
243.387;  -40.025; -313.000; -316.000
243.530;  -92.200; -657.000; -674.000
243.672;  -13.700;   43.000;  -92.000
243.815;  -50.050; -355.000; -283.000
243.958;   -1.325;   98.000;  -26.000
244.101;    3.100;   59.000;  -16.000
244.243;  -10.650;  -47.000;  101.000
244.386; -115.950; -761.000; -630.000
244.529;  -41.400; -132.000; -139.000
244.672; -163.800;-1154.000; -951.000
244.814; -109.125; -621.000; -794.000
244.957;  -49.775; -380.000; -304.000
245.100;  -76.600; -489.000; -489.000
245.242;  -62.600; -387.000; -374.000
245.385;   -5.975;  -59.000;  -39.000
245.528; -130.500; -871.000; -705.000
245.670;   81.375;  612.000;  634.000
245.813;  -95.300; -599.000; -547.000
245.956;  -47.350; -324.000; -275.000
246.098;  -69.050; -508.000; -650.000
246.241;    7.475;  194.000;   48.000
246.383;  -12.725; -119.000;  -73.000
246.526;  -80.400; -454.000; -525.000
246.669; -111.925; -889.000; -780.000
246.811;   10.675;  172.000;   -1.000
246.954;  -57.000; -512.000; -426.000
247.096;  -21.825;  -84.000;   -6.000
247.239;  -64.425; -482.000; -445.000
247.381;  -64.700; -647.000; -488.000
247.524;   91.400;  645.000;  679.000
247.666;   -1.000;   58.000;   11.000
247.809; -115.975; -887.000; -691.000
247.951;  -14.825;  -75.000;  138.000
248.094;   43.600;  432.000;  308.000
248.236; -174.300;-1262.000;-1238.000
248.378;   20.100; -356.000;  -81.000
248.521;  -18.050; -334.000; -337.000
248.663;  -30.775; -236.000; -267.000
248.806;  -18.875; -300.000; -266.000
248.948;  -80.350; -886.000; -763.000
249.090;  -51.750; -428.000; -398.000
249.233;  -34.600; -344.000; -381.000
249.375;  -69.275; -474.000; -451.000
249.518;  -17.750;  -83.000; -133.000
249.660;  -14.050; -103.000;    3.000
249.802; -160.425;-1303.000;-1189.000
249.945;  -77.350; -612.000; -540.000
250.087; -112.375; -834.000; -768.000
250.229;  -49.700; -362.000; -480.000
250.371;  -63.325; -494.000; -439.000
250.514;  -53.050; -310.000; -244.000
250.656;  -73.850;   69.000;  102.000
250.798; -119.925; -849.000; -800.000
250.940;  -54.950; -322.000; -322.000
251.083;  -30.475; -335.000; -111.000
251.225;   54.275;  338.000;  310.000
251.367;  -38.275; -274.000; -373.000
251.509;  -32.850; -265.000; -210.000
251.651;  -92.650; -731.000; -671.000
251.794;   58.850;  538.000;  632.000
251.936; -111.575; -821.000; -747.000
252.078;  -76.625; -540.000; -461.000
252.220;  -78.375; -645.000; -477.000
252.362;   84.900;  344.000;  462.000
252.504;  -74.725; -677.000; -584.000
252.646; -121.275; -875.000; -722.000
252.788;   -5.350;   14.000; -128.000
252.931;  -20.825; -257.000; -253.000
253.073;  -44.750; -376.000; -317.000
253.215;   -1.050;  141.000;  122.000
253.357;  -14.925;   82.000; -153.000
253.499;  -40.950; -374.000; -234.000
253.641;  -87.125; -749.000; -594.000
253.783;  -91.475; -609.000; -527.000
253.925;  -91.650; -586.000; -591.000
254.067; -102.475; -744.000; -667.000
254.209;  -34.325; -391.000; -259.000
254.351; -130.875; -865.000; -883.000
254.493;  -64.275; -441.000; -417.000
254.635; -127.250; -936.000; -818.000
254.777;  -91.775; -752.000; -687.000
254.918;  -56.450; -512.000; -430.000
255.060;  -65.575; -551.000; -395.000
255.202;  -51.000; -473.000; -261.000
255.344;  -87.925; -658.000; -455.000
255.486;  -76.100; -471.000; -406.000
255.628; -106.500; -780.000; -781.000
255.770;  -94.825; -676.000; -536.000
255.912;  -76.050; -559.000; -468.000
256.053;  -86.275; -730.000; -508.000
256.195;  147.225; 1008.000;  903.000
256.337; -103.325; -861.000; -595.000
256.479;   44.500;  532.000;  416.000
256.621;  -61.425; -394.000; -212.000
256.762;  -91.275; -789.000; -742.000
256.904;   52.725;  485.000;  487.000
257.046;  -48.000; -381.000; -271.000
257.188;  -41.775; -351.000; -264.000
257.329;  -76.450; -525.000; -464.000
257.471; -122.400; -939.000; -807.000
257.613;  -69.550; -584.000; -498.000
257.755; -137.600;-1073.000; -982.000
257.896;   39.050;  286.000;  392.000
258.038;  -73.700; -403.000; -352.000
258.180;  -33.975; -354.000; -279.000
258.321;  -78.650; -581.000; -457.000
258.463;   -4.925;  -71.000;  133.000
258.605;  -92.000; -562.000; -570.000
258.746; -107.700; -886.000; -772.000
258.888; -147.925;-1026.000;-1020.000
259.029;    4.700;  121.000;   -8.000
259.171;  -85.000; -614.000; -550.000
259.313;   -1.600;  -49.000;  -47.000
259.454;  -68.800; -536.000; -414.000
259.596;  -81.475; -483.000; -390.000
259.737;  -68.925; -590.000; -474.000
259.879;   43.400;  217.000;  311.000
260.020;   97.750;  901.000;  636.000
260.162;  -30.975; -146.000; -253.000
260.303; -129.175; -768.000; -687.000
260.445;  -78.125; -609.000; -613.000
260.586;   16.325;  392.000;  157.000
260.728;  -45.725; -360.000; -248.000
260.869; -104.225; -350.000; -343.000
261.011;   63.200;  706.000;  537.000
261.152;  -52.025; -479.000; -319.000
261.293;  -87.975; -576.000; -595.000
261.435;  -21.725; -219.000; -184.000
261.576;  -49.525; -455.000; -325.000
261.718;   54.550;  420.000;  470.000
261.859; -121.150; -940.000; -949.000
262.000; -131.725; -951.000;-1016.000
262.142;  -26.750;  -52.000;  -60.000
262.283; -115.625; -808.000; -691.000
262.424; -103.075; -666.000; -625.000
262.566; -152.975;-1161.000; -983.000
262.707; -126.425; -840.000; -830.000
262.848; -111.700; -769.000; -726.000
262.990;  -60.350; -362.000; -345.000
263.131;   76.600;  650.000;  681.000
263.272;   -3.650;  -61.000;  -41.000
263.413;  -94.050; -589.000; -561.000
263.555;  -75.075; -669.000; -143.000
263.696;  -79.025; -550.000; -641.000
263.837;  -58.800; -449.000; -551.000
263.978;   16.675;   -5.000;  -77.000
264.119;  -62.575; -283.000; -264.000
264.261; -109.375; -847.000; -630.000
264.402;   -0.100;   33.000;   40.000
264.543;  -71.550; -509.000; -524.000
264.684;   -7.150;   61.000;  -50.000
264.825;  -69.100; -816.000; -538.000
264.966;  -14.775;  -84.000;  -67.000
265.107; -111.175; -646.000; -670.000
265.248; -117.850; -825.000; -812.000
265.390;    2.100;  152.000;   -9.000
265.531;  -26.950; -238.000; -107.000
265.672;  -85.100; -557.000; -630.000
265.813;   52.850;  563.000;  439.000
265.954; -142.250; -959.000; -940.000
266.095;   -7.275; -372.000; -322.000
266.236;  -86.650; -686.000; -548.000
266.377;  -44.000; -243.000; -297.000
266.518;  -59.625; -619.000; -547.000
266.659;   19.925;  170.000;  268.000
266.800;   13.200;   83.000;   85.000
266.941;  -75.100; -487.000; -478.000
267.082;    1.925;  354.000;   99.000
267.223;  -52.000; -344.000; -273.000
267.364; -122.900; -892.000; -686.000
267.504;  -20.825;    3.000;  135.000
267.645;   -3.300;  160.000;   67.000
267.786;  -35.025; -147.000;  -86.000
267.927;  -75.425; -473.000; -379.000
268.068;  -17.525; -186.000;  -61.000
268.209;  -55.050; -175.000; -413.000
268.350;  -65.650; -388.000; -532.000
268.490;  -99.650; -648.000; -521.000
268.631;   23.825;  127.000;  225.000
268.772; -108.275; -874.000; -647.000
268.913;  -49.150; -328.000; -476.000
269.054;   -9.325; -117.000;   12.000
269.194;  -46.725; -418.000; -402.000
269.335; -166.175;-1137.000;-1074.000
269.476;  -11.000;   33.000;  -35.000
269.617;  -34.975; -347.000; -392.000
269.757; -100.225; -713.000; -646.000
269.898;  -98.825; -856.000; -613.000
270.039;  -57.825; -415.000; -405.000
270.180; -125.025; -952.000; -816.000
270.320;  -29.300; -190.000; -250.000
270.461;  -29.925; -277.000; -249.000
270.602;  -28.550; -186.000; -156.000
270.742; -107.125; -868.000; -943.000
270.883;  -47.525; -442.000; -390.000
271.023;  -49.375; -358.000; -357.000
271.164;  -68.775; -607.000; -528.000
271.305;  -86.650; -666.000; -654.000
271.445;  -86.275; -722.000; -683.000
271.586;  -66.600; -462.000; -283.000
271.726;  -58.025; -397.000; -322.000
271.867;  -47.300; -594.000; -534.000
272.008;  196.650; -473.000; -285.000
272.148;  136.775;  462.000;  468.000
272.289;   11.200; -113.000; -181.000
272.429;   24.200;   19.000;  185.000
272.570;  -97.775; -633.000; -737.000
272.710; -101.925; -825.000; -775.000
272.851;  -33.550;  113.000; -130.000
272.991; -162.150;-1173.000;-1077.000
273.131;  -74.650; -419.000; -459.000
273.272; -103.975; -683.000; -723.000
273.412;   -0.425; -143.000;  -31.000
273.553;  -39.275; -488.000; -507.000
273.693;  140.125;  913.000;  858.000
273.834;  -78.150; -894.000; -692.000
273.974;  -70.200; -664.000; -615.000
274.114;  -89.150; -772.000; -560.000
274.255;   70.100;  414.000;  373.000
274.395;   21.000; -180.000; -125.000
274.535;   39.650;  199.000;  350.000
274.676;   17.750;  225.000;   94.000
274.816;   -3.275;  110.000;   34.000
274.956;  -77.500; -624.000; -690.000
275.097;  -65.700;-1014.000; -922.000
275.237; -115.825; -913.000; -803.000
275.377;  -88.000; -778.000; -689.000
275.517; -150.225; -878.000; -937.000
275.658;  -59.650; -590.000; -555.000
275.798;  -76.000; -606.000; -413.000
275.938;   26.850;  215.000;  323.000
276.078;  -97.850; -626.000; -395.000
276.218;   17.975;   99.000;  104.000
276.359; -124.450;-1026.000;-1024.000
276.499;  -80.775; -605.000; -446.000
276.639;  -35.500; -305.000; -151.000
276.779;  -62.250; -475.000; -357.000
276.919; -103.650; -783.000; -624.000
277.059;  -24.275; -261.000; -212.000
277.199;  -38.800; -357.000; -259.000
277.340;   49.350;  287.000;  175.000
277.480;  -98.825; -840.000; -693.000
277.620;   30.750;  192.000;   16.000
277.760; -189.175;-1533.000;-1294.000
277.900;   16.375;  113.000;   33.000
278.040;   38.925;  137.000;  159.000
278.180;   26.250;  270.000;  170.000
278.320;   -3.325;   21.000;   56.000
278.460;  -69.850; -443.000; -469.000
278.600;  -88.600; -708.000; -598.000
278.740;   49.375;  448.000;  224.000
278.880;  -47.775; -768.000; -791.000
279.020;  -27.425; -194.000; -144.000
279.160;  -81.525; -672.000; -595.000
279.300; -118.925; -926.000; -873.000
279.440;  -88.175; -709.000; -622.000
279.579;  -11.525;-1014.000; -929.000
279.719;  -40.050; -410.000; -394.000
279.859;   67.450;   -4.000;   41.000
279.999;   33.050; -208.000;  101.000
280.139;  -27.975; -435.000; -387.000
280.279;  -62.775; -708.000; -745.000
280.419;  -17.800; -229.000; -147.000
280.559;  -16.475; -259.000; -180.000
280.698;  -97.100; -790.000; -639.000
280.838;  -79.550; -778.000; -800.000
280.978;  -99.650; -846.000; -790.000
281.118; -115.000; -811.000; -704.000
281.257;    4.775;   24.000;    6.000
281.397; -105.025;-1094.000; -960.000
281.537;  -88.625; -599.000; -712.000
281.677;  -25.725; -150.000; -101.000
281.816;  -91.350; -700.000; -630.000
281.956;  -39.200; -193.000; -257.000
282.096;  -65.575; -539.000; -396.000
282.235;  -96.025; -672.000; -638.000
282.375;  -29.550; -243.000;  -98.000
282.515; -103.075; -715.000; -707.000
282.654;   37.150;   29.000;  106.000
282.794;   25.400;  388.000;  244.000
282.934;  -52.975; -530.000; -491.000
283.073; -136.750;-1030.000; -857.000
283.213;  -55.375; -460.000; -467.000
283.353;  -32.300; -408.000; -349.000
283.492;  -31.150; -264.000; -296.000
283.632;  -39.875; -254.000; -168.000
283.771; -108.675; -859.000; -730.000
283.911;  -51.025; -369.000; -260.000
284.050; -118.625; -794.000; -748.000
284.190; -156.325;-1229.000;-1096.000
284.329; -141.075;-1055.000; -964.000
284.469;  -60.000; -516.000; -591.000
284.608;  -54.975; -559.000; -598.000
284.748;  -79.275; -614.000; -570.000
284.887;  -18.625;  -87.000;  -20.000
285.027; -125.900; -844.000; -892.000
285.166;  -27.750; -192.000; -249.000
285.306;    8.050; -116.000;  -33.000
285.445;  -48.550; -229.000; -343.000
285.584;  -82.175; -630.000; -494.000
285.724;  -52.575; -282.000; -322.000
285.863; -107.375; -857.000; -507.000
286.002;  -49.850; -366.000; -276.000
286.142; -102.825; -715.000; -622.000
286.281;  -72.475; -525.000; -493.000
286.420;  -69.700; -554.000; -417.000
286.560;   95.200;  653.000;  623.000
286.699; -126.975; -958.000; -912.000
286.838;  -87.975; -590.000; -591.000
286.978;  -86.800; -533.000; -537.000
287.117; -133.700;-1085.000; -950.000
287.256;  -23.225; -228.000; -211.000
287.395;  -53.050; -197.000; -378.000
287.535;  -53.900; -370.000; -298.000
287.674;  -52.650; -509.000; -484.000
287.813;   60.575;  661.000;  533.000
287.952; -130.975;-1010.000; -871.000
288.091; -155.150;-1049.000; -915.000
288.231;    6.225;   13.000;   15.000
288.370; -163.050;-1217.000;-1200.000
288.509; -106.200; -728.000; -645.000
288.648;  -87.400; -770.000; -548.000
288.787;  -29.725; -243.000;  -87.000
288.926;  -68.150; -454.000; -475.000
289.065;  118.525;  859.000;  672.000
289.204;  -54.725; -377.000; -217.000
289.344; -101.000; -791.000; -690.000
289.483;   26.925;  416.000;  304.000
289.622;  -29.075; -291.000; -149.000
289.761;  -13.925; -309.000; -166.000
289.900; -104.525; -785.000; -626.000
290.039;  -11.975;  -12.000;  -95.000
290.178;  -54.275; -274.000; -180.000
290.317;  -78.375; -618.000; -479.000
290.456;  -67.600; -463.000; -451.000
290.595; -138.025; -961.000; -833.000
290.734; -138.275; -904.000; -891.000
290.873;  -67.600; -456.000; -420.000
291.011; -124.875; -833.000; -843.000
291.150;  -94.075; -770.000; -682.000
291.289;  -33.050; -343.000; -110.000
291.428;  -81.300; -599.000; -480.000
291.567;  -63.350; -370.000; -442.000
291.706;   -7.300;  109.000;  154.000
291.845; -104.325; -597.000; -505.000
291.984; -157.675;-1234.000;-1061.000
292.122;   58.575;  602.000;  582.000
292.261;   39.525;  620.000;  463.000
292.400;    4.350; -144.000;  211.000
292.539; -117.375; -959.000; -813.000
292.678;  -47.100; -325.000; -300.000
292.816; -146.350;-1136.000; -965.000
292.955;  -93.950; -844.000; -684.000
293.094;  -16.625; -173.000; -337.000
293.233;  -76.600; -556.000; -400.000
293.371;  -40.125; -225.000;  -84.000
293.510; -106.675; -866.000; -780.000
293.649; -122.675; -959.000; -924.000
293.787;  -48.850;-1083.000;-1012.000
293.926;   -0.575; -113.000;  -32.000
294.065;  -52.200; -379.000; -290.000
294.203;   51.925;  298.000;  406.000
294.342;   23.750;   74.000;  156.000
294.481; 5417.100;51180.000; -836.000
294.619;  -37.725; -425.000; -582.000
294.758; -142.475;-1230.000;-1137.000
294.896;   83.925; -125.000;    5.000
295.035; -120.300;-1040.000;-1006.000
295.174; -112.125;-1082.000; -954.000
295.312;  -45.625; -323.000; -203.000
295.451;   -4.225; -307.000; -428.000
295.589;  -48.475; -389.000; -518.000
295.728;    6.975; -292.000; -165.000
295.866;   24.775;  -36.000;  -51.000
296.005;  -57.275; -584.000; -341.000
296.143;  -74.800; -558.000; -596.000
296.282; -102.900; -957.000; -881.000
296.420;  -81.350; -657.000; -557.000
296.559;  -91.250; -892.000; -633.000
296.697;   41.450; -847.000; -665.000
296.835;   96.075;-1141.000;-1002.000
296.974;   49.875;  -23.000;   39.000
297.112;   17.775; -443.000; -504.000
297.251;  -65.200; -815.000; -755.000
297.389;  130.975; -576.000; -438.000
297.527;   68.275; -145.000;  -83.000
297.666;  -62.900; -486.000; -438.000
297.804;  -48.600; -404.000; -264.000
297.942;   -0.525; -136.000; -161.000
298.081;   12.200; -183.000;   63.000
298.219;   71.050;  -17.000;  -19.000
298.357;   70.675; -144.000;  -71.000
298.495;   56.625; -810.000; -812.000
298.634;  103.575;  245.000;  219.000
298.772;   65.400; -220.000; -338.000
298.910;  -21.625; -309.000; -182.000
299.048;  -17.700; -130.000; -153.000
299.187;  -29.150; -350.000; -250.000
299.325;   17.775;   52.000;  122.000
299.463;   81.100; -389.000; -299.000
299.601;  131.650; -327.000; -271.000
299.739;  -97.775; -908.000; -883.000
299.877;  -69.775; -791.000; -703.000
300.016;  -27.150;-1095.000; -935.000
300.154;  191.025;  -19.000; -161.000
300.292;   79.900; -428.000; -348.000
300.430;   41.950; -408.000; -291.000
300.568; -103.575; -940.000; -874.000
300.706;  -43.150; -366.000; -469.000
300.844;  -61.600;-1108.000; -979.000
300.982;  120.450;  246.000;  282.000
301.120; -106.375; -965.000; -866.000
301.258;  -57.650; -812.000; -705.000
301.396;   52.725;  104.000;  -41.000
301.534;  106.625; -218.000; -293.000
301.672;    3.250; -664.000; -521.000
301.810;   50.675; -613.000; -545.000
301.948;  150.375;   53.000;  149.000
302.086;  685.525; -250.000;  -32.000
302.224; 1107.175; -610.000; -585.000
302.362;   54.600; -558.000; -622.000
302.500;    7.875; -923.000; -893.000
302.638;  125.900;  128.000;  245.000
302.776;   -3.825; -352.000; -408.000
302.913;   51.375;  447.000;  236.000
303.051;   19.975;  -86.000;  -23.000
303.189;   66.350;   90.000;  118.000
303.327;  -26.950; -341.000; -256.000
303.465;  -82.250; -832.000; -588.000
303.603;  -95.075; -805.000; -604.000
303.740;  111.750;  417.000;  241.000
303.878;   47.925; -800.000; -759.000
304.016;  -82.075; -915.000; -790.000
304.154; -112.700;-1123.000;-1152.000
304.291;  -36.000; -505.000; -554.000
304.429;   17.100;  102.000;   74.000
304.567; -121.850; -908.000; -893.000
304.705;  -40.975; -408.000; -515.000
304.842;  110.550; -616.000; -540.000
304.980;   78.525;  215.000;   35.000
305.118;   56.625; -367.000; -365.000
305.255;  -61.825; -945.000; -927.000
305.393;   52.675;  178.000;  239.000
305.531; -102.425;-1173.000; -956.000
305.668;  -55.725; -663.000; -582.000
305.806;  129.150; -358.000; -439.000
305.943;  132.050; -629.000; -637.000
306.081;   70.650; -378.000; -267.000
306.219; -101.225; -863.000; -748.000
306.356;   -0.200;  158.000;   27.000
306.494;  108.875;  981.000;  761.000
306.631;    7.250;  -11.000;  -55.000
306.769;    8.350; -613.000; -485.000
306.906;  -11.100; -284.000; -258.000
307.044;  -64.850; -473.000; -488.000
307.181;  -60.875; -410.000; -332.000
307.319;   -2.725;  112.000;   87.000
307.456; -162.650;-1191.000;-1153.000
307.594; -105.100; -980.000; -727.000
307.731;  -12.550; -371.000; -164.000
307.868;    0.900;  -15.000;   20.000
308.006; -128.650; -961.000; -847.000
308.143;  -75.650; -618.000; -330.000
308.281;  176.200;  -37.000; -254.000
308.418;    2.300; -748.000; -640.000
308.555;  -70.725; -400.000; -250.000
308.693;  -81.900; -577.000; -573.000
308.830; -112.550; -712.000; -657.000
308.967;  -11.825; -215.000;  -95.000
309.105;  -51.450; -507.000; -396.000
309.242;   47.275; -468.000; -367.000
309.379;  347.675; -577.000; -655.000
309.517;  -68.775; -936.000; -948.000
309.654; -109.750; -910.000; -734.000
309.791;  -74.300; -662.000; -580.000
309.928; -113.450; -977.000; -914.000
310.065;  176.550;  819.000;  697.000
310.203;   -2.100; -825.000; -850.000
310.340;  -11.525; -465.000; -321.000
310.477;  -78.925; -412.000; -516.000
310.614;  -74.425; -383.000; -473.000
310.751;  -78.250; -427.000; -518.000
310.889;  -23.950;    1.000;   11.000
311.026; -154.275;-1161.000; -939.000
311.163;  -54.300; -386.000; -380.000
311.300;  -74.125; -512.000; -479.000
311.437;  -75.150; -658.000; -619.000
311.574; -159.300;-1226.000; -985.000
311.711;  -60.000; -595.000; -433.000
311.848;  -44.225; -380.000; -388.000
311.985;    7.200;  270.000;   93.000
312.122; -122.425; -932.000; -762.000
312.259; -125.475; -941.000; -994.000
312.396;  -80.875; -508.000; -551.000
312.533;  -87.875; -812.000; -790.000
312.670; -124.950;-1070.000; -898.000
312.807;  -31.025; -352.000; -367.000
312.944;  -82.600; -513.000; -611.000
313.081;  -37.350; -150.000; -415.000
313.218;  -99.175;-1111.000; -867.000
313.355;   20.525; -531.000; -449.000
313.492;   20.550; -455.000; -292.000
313.629;  123.425;  815.000;  735.000
313.766; -146.900;-1176.000;-1008.000
313.902;  -26.525; -186.000;   21.000
314.039;  -36.575; -372.000; -289.000
314.176;   20.950;  286.000;  192.000
314.313;  -75.400; -569.000; -473.000
314.450;  -68.125; -788.000; -684.000
314.587;  -43.375; -468.000; -480.000
314.723;   -5.075;  -78.000;  130.000
314.860;   42.000;  318.000;  332.000
314.997;   20.600;  223.000;  142.000
315.134;  -36.550; -385.000; -368.000
315.270;  -29.600; -480.000; -496.000
315.407; -115.350;-1094.000; -967.000
315.544;  -45.200; -657.000; -538.000
315.681;  -48.650; -681.000; -565.000
315.817;   36.400; -133.000; -176.000
315.954;   23.250; -613.000; -392.000
316.091; -120.850;-1045.000;-1023.000
316.227;  -17.675;  -71.000; -179.000
316.364;   -4.925;   23.000;    6.000
316.500;  -38.875; -113.000; -300.000
316.637;  -54.850; -181.000; -302.000
316.774;  -75.200; -625.000; -358.000
316.910;  -84.025; -598.000; -629.000
317.047;  -67.225; -487.000; -351.000
317.183;  -40.550; -435.000; -566.000
317.320;   -9.600; -367.000; -321.000
317.456;  -82.200; -733.000; -805.000
317.593;  -81.650; -598.000; -641.000
317.729;    9.575;  168.000;  -67.000
317.866; -185.100;-1434.000;-1285.000
318.002;  -83.825; -708.000; -948.000
318.139;  -83.700; -883.000; -867.000
318.275; -114.650;-1003.000; -738.000
318.412;  -56.625; -517.000; -336.000
318.548;  -15.550; -751.000; -720.000
318.685;  -78.725; -985.000; -888.000
318.821;  -98.200; -762.000; -735.000
318.957;    0.725;   34.000;  -23.000
319.094;   24.600;  297.000;  154.000
319.230;  -38.050; -756.000; -742.000
319.367;  154.475; -471.000; -520.000
319.503;   79.700; -538.000; -436.000
319.639; -107.025; -877.000; -793.000
319.775;  -52.550; -750.000; -685.000
319.912;  -59.100; -424.000; -519.000
320.048;  -68.150;-1184.000;-1184.000
320.184;   74.750;   59.000;   70.000
320.321;  -44.200; -497.000; -467.000
320.457;   58.875;  475.000;  662.000
320.593;  -57.825; -375.000; -382.000
320.729; -102.775; -732.000; -734.000
320.866;  -68.825; -577.000; -635.000
321.002;  -73.975; -759.000; -809.000
321.138;   -4.350; -135.000; -211.000
321.274;   82.750; -148.000; -115.000
321.410;  -13.225; -585.000; -353.000
321.546;    1.800;-1011.000; -911.000
321.683;   65.050;  400.000;  185.000
321.819;   11.275;  -48.000; -117.000
321.955; -102.250; -743.000; -722.000
322.091;  -38.725; -585.000; -540.000
322.227;   -0.575; -382.000; -202.000
322.363;  -11.950; -320.000; -215.000
322.499;  -23.325; -343.000; -331.000
322.635;  171.875;  636.000;  443.000
322.771;   28.800; -139.000;   12.000
322.907;  100.900;  129.000;  327.000
323.043;   -8.800; -115.000; -206.000
323.179;  -38.300; -394.000; -363.000
323.315;   36.175; -401.000; -371.000
323.451;  112.175; -328.000; -236.000
323.587;   77.150;  -60.000;  -77.000
323.723;   23.775; -682.000; -601.000
323.859;   -4.175; -258.000;  -76.000
323.995;  -41.800; -467.000; -409.000
324.131; -113.650; -967.000; -892.000
324.267;  -44.075; -254.000; -276.000
324.402; -117.375; -960.000; -983.000
324.538;   -7.650; -279.000; -104.000
324.674;   28.925;  164.000;   77.000
324.810;  143.050;  226.000;  308.000
324.946;    9.375; -810.000; -658.000
325.082;  -60.625; -568.000; -475.000
325.217;   -3.725;  -62.000;   16.000
325.353;  -92.850; -764.000; -659.000
325.489;  -74.825; -540.000; -506.000
325.625;  -83.700; -579.000; -525.000
325.760;   66.975;  517.000;  376.000
325.896;  -29.775; -515.000; -702.000
326.032;  -36.950; -403.000; -352.000
326.168;  -52.250; -462.000; -369.000
326.303;  -58.500; -352.000; -461.000
326.439;  -19.325; -336.000; -276.000
326.575;    1.425; -190.000;  -29.000
326.710;   -4.050; -156.000;  -30.000
326.846;  -17.625;  146.000;  103.000
326.982; -103.900; -530.000; -548.000
327.117;  -78.600; -481.000; -442.000
327.253;  -85.850; -745.000; -742.000
327.388; -123.950;-1137.000;-1153.000
327.524;  -48.000; -811.000; -578.000
327.659;  -23.475;  -58.000;  -22.000
327.795;  -18.425;   69.000;   45.000
327.931;  -89.550; -723.000; -499.000
328.066;  -39.150; -417.000; -276.000
328.202;  -13.950;   12.000; -129.000
328.337;  100.075;  957.000;  713.000
328.473;   57.675;  -12.000;  -74.000
328.608;  -30.375; -256.000; -267.000
328.743;  -77.500; -799.000; -664.000
328.879;   22.350;  214.000;  114.000
329.014;  -47.125; -102.000; -122.000
329.150;  -74.575; -358.000; -483.000
329.285;  -84.250; -465.000; -466.000
329.421;  -75.075; -548.000; -246.000
329.556;  -32.800;  -36.000;   85.000
329.691;  -91.750; -633.000; -615.000
329.827;  -78.125; -626.000; -480.000
329.962;  -40.275;  131.000; -301.000
330.097;  -87.375; -673.000; -585.000
330.233;  -39.625; -410.000; -223.000
330.368; -114.475; -839.000; -628.000
330.503;  -14.200;    3.000;   98.000
330.638;   11.100;  -93.000; -125.000
330.774;  -54.275; -609.000; -530.000
330.909;  -44.225; -434.000; -244.000
331.044;  -97.525; -714.000; -708.000
331.179; -173.050;-1217.000;-1109.000
331.315;    2.075;   77.000;   20.000
331.450;   17.900;  157.000;  285.000
331.585;  -94.975; -805.000; -706.000
331.720;  -76.500; -510.000; -460.000
331.855;  -17.175;  -35.000; -102.000
331.990;  229.475;   62.000;  138.000
332.126;  107.575; -110.000;   71.000
332.261;  -24.775; -379.000; -265.000
332.396;    3.650; -135.000; -242.000
332.531; -100.700;-1074.000;-1031.000
332.666;   34.700; -519.000; -363.000
332.801; -106.225; -726.000; -807.000
332.936;  -29.025; -192.000; -122.000
333.071; -143.200; -870.000; -817.000
333.206;   14.400;  307.000;  379.000
333.341;   10.575;  344.000;  418.000
333.476;  -85.575; -627.000; -623.000
333.611;  -18.150; -251.000; -173.000
333.746;  -55.400; -381.000; -464.000
333.881; -119.450; -973.000; -935.000
334.016; -119.525; -936.000; -917.000
334.151; -113.550; -746.000; -702.000
334.286;   12.300;  152.000;  186.000
334.421;  -21.800; -125.000; -178.000
334.556;  -74.125; -611.000; -567.000
334.690;  -81.100; -631.000; -577.000
334.825;   53.775;  381.000;   83.000
334.960;  -48.575; -285.000; -413.000
335.095;   11.375;  135.000;  -91.000
335.230;  -88.475; -722.000; -738.000
335.365; -141.825;-1084.000; -990.000
335.499; -124.750;-1108.000;-1037.000
335.634;   21.925;    9.000;  534.000
335.769; -107.450; -755.000; -720.000
335.904;  -51.625; -603.000; -561.000
336.038;  -45.725; -735.000; -657.000
336.173; -107.225;-1206.000;-1194.000
336.308;   31.525; -116.000; -189.000
336.443;   28.725; -544.000; -634.000
336.577;  -56.125; -936.000; -787.000
336.712;   65.725;   -4.000;  -12.000
336.847;  -27.550; -724.000; -607.000
336.981;   79.925; -272.000; -208.000
337.116;  305.725;  615.000;  501.000
337.250;  170.200; -434.000; -421.000
337.385;  239.900; -297.000; -208.000
337.520;   64.925; -632.000; -603.000
337.654;  -37.175; -215.000; -126.000
337.789; -130.725; -989.000; -933.000
337.923;  -28.325; -104.000; -205.000
338.058;  -90.875; -673.000; -738.000
338.192;  -34.075; -611.000; -488.000
338.327;   -9.900;  -18.000; -155.000
338.461;  -67.650; -299.000; -469.000
338.596;  -98.350; -780.000; -638.000
338.730; -100.800; -767.000; -803.000
338.865;   72.125;  -46.000; -140.000
338.999;  -55.075; -846.000; -702.000
339.134;  -39.625; -634.000; -536.000
339.268;   22.725; -741.000; -603.000
339.403;  338.800; -740.000; -775.000
339.537;  102.375; -894.000; -820.000
339.671; -123.500; -829.000; -813.000
339.806;  -65.250; -556.000; -512.000
339.940;    2.350; -261.000; -235.000
340.074; -102.075; -685.000; -510.000
340.209;  -50.350; -351.000; -230.000
340.343;  -76.550; -517.000; -573.000
340.477;  154.100;  998.000; 1036.000
340.612;  -47.300;-1033.000; -900.000
340.746;  119.375; -199.000; -243.000
340.880;  -55.175; -924.000; -785.000
341.014;  -31.550;  -45.000; -154.000
341.149; -106.425; -756.000; -718.000
341.283; -113.725; -839.000; -754.000
341.417;  -91.100;-1124.000; -938.000
341.551;  158.575; -768.000; -708.000
341.685;  -31.275; -633.000; -611.000
341.820;  -66.975; -562.000; -493.000
341.954;  -45.150; -218.000; -349.000
342.088; -157.325;-1102.000;-1019.000
342.222;   64.675;  565.000;  618.000
342.356;  -67.675; -395.000; -335.000
342.490;  -78.425; -880.000; -841.000
342.624;  -51.275; -339.000; -242.000
342.758;   10.075; -364.000; -312.000
342.892;  -58.575; -710.000; -585.000
343.026;  -28.250;  -58.000; -116.000
343.160;  -67.700; -426.000; -376.000
343.294;  -62.025; -474.000; -337.000
343.428;    4.375; -488.000; -448.000
343.562;   -1.225; -172.000;  -23.000
343.696;  -17.575; -385.000; -314.000
343.830;  -25.100; -362.000; -356.000
343.964;    9.600; -231.000; -168.000
344.098; 1059.525;  199.000;   70.000
344.232;  885.950; -266.000; -127.000
344.366;  106.025; -567.000; -453.000
344.500;   72.800; -665.000; -744.000
344.634;   58.875; -324.000; -164.000
344.768;    0.625; -531.000; -341.000
344.902;   20.050;  278.000;  256.000
345.035;  -88.300; -556.000; -496.000
345.169; -133.875; -933.000; -656.000
345.303;  -24.625; -308.000; -482.000
345.437;  -59.675; -826.000; -717.000
345.571;  -75.000; -675.000; -594.000
345.704;  -69.675; -309.000; -532.000
345.838;  -12.300; -331.000; -284.000
345.972;  -16.100; -543.000; -495.000
346.106;  147.725; -179.000; -190.000
346.239;  452.275; -312.000; -243.000
346.373;   10.575; -343.000; -302.000
346.507; -134.050; -950.000; -962.000
346.640;  164.450;  -30.000;   13.000
346.774;  -30.650; -650.000; -797.000
346.908;  -18.575; -138.000;  -11.000
347.041;  -79.175; -646.000; -593.000
347.175;    7.900;  259.000;   27.000
347.309;  -62.800; -698.000; -628.000
347.442;  -96.875; -883.000; -732.000
347.576;  319.050;  670.000;  668.000
347.709;  225.400; -123.000;  -52.000
347.843;  -71.775; -933.000; -825.000
347.976;   27.275;  235.000;  294.000
348.110; -182.625;-1268.000;-1186.000
348.243; -101.925; -679.000; -772.000
348.377;    6.100;  -26.000;   60.000
348.510;   51.025;  403.000;  540.000
348.644;  -24.925;  -37.000; -159.000
348.777;  -11.525;  180.000;  191.000
348.911;  -42.975; -142.000; -112.000
349.044;  202.050;  471.000;  448.000
349.178;  210.050;-1069.000;-1006.000
349.311;  108.975;  141.000;  255.000
349.444;   -4.600; -927.000; -813.000
349.578;   -1.275; -347.000; -200.000
349.711;  -88.200; -959.000; -862.000
349.845;   18.575; -661.000; -591.000
349.978; -138.450;-1224.000;-1137.000
350.111;  -98.850; -546.000; -612.000
350.244;  -70.450; -596.000; -700.000
350.378;   12.250; -392.000; -393.000
350.511;  -52.125; -393.000; -426.000
350.644; -105.150; -808.000; -806.000
350.778;   17.625;  168.000;  104.000
350.911;    5.225;  134.000;  140.000
351.044;  -80.350; -685.000; -615.000
351.177;  -23.850; -321.000; -281.000
351.310;  -11.100;    3.000; -131.000
351.444;  -83.250; -888.000; -788.000
351.577;  131.625;  140.000;   90.000
351.710;   88.675;  593.000;  417.000
351.843;  -37.975; -165.000;  -77.000
351.976;  -12.775;  149.000;  -79.000
352.109;  -87.650; -621.000; -612.000
352.242;  -19.150; -464.000; -419.000
352.376;  -45.575; -580.000; -636.000
352.509;  204.675; -437.000; -356.000
352.642;   61.350; -654.000; -604.000
352.775;   63.275; -141.000;  -98.000
352.908;  -99.450; -933.000; -904.000
353.041;  -99.650; -814.000; -824.000
353.174;  -49.600; -551.000; -424.000
353.307;  -83.400; -753.000; -764.000
353.440;   87.550;  541.000;  453.000
353.573;  -95.900; -957.000;-1008.000
353.706;  -46.700; -384.000; -558.000
353.839;  -19.700; -264.000; -220.000
353.971;  -86.875; -657.000; -512.000
354.104;  -82.375; -896.000; -835.000
354.237;  -17.150; -627.000; -662.000
354.370;  -88.800; -846.000; -879.000
354.503; -180.700;-1231.000;-1308.000
354.636;  -32.375; -529.000; -348.000
354.769; -119.650; -937.000; -860.000
354.902;  -15.450; -230.000; -139.000
355.034;   -5.750; -164.000; -220.000
355.167;  -24.825; -262.000; -162.000
355.300;  -88.975;-1061.000; -880.000
355.433;  930.975;  -71.000;  -14.000
355.565; 1466.475; -402.000; -384.000
355.698;  357.650; -356.000; -296.000
355.831;    6.300; -882.000; -801.000
355.964;   98.100; -285.000; -170.000
356.096;  -86.550; -856.000; -843.000
356.229;   -3.350; -523.000; -530.000
356.362;  307.075; -373.000; -266.000
356.494;  582.150; -229.000; -162.000
356.627;  536.625;  269.000;  377.000
356.760;  636.950;  120.000;   53.000
356.892;  906.250; -286.000; -601.000
357.025;  743.525;  403.000;  389.000
357.157;  709.225; -167.000; -179.000
357.290;  621.325; -856.000; -713.000
357.423;  189.350; -667.000; -556.000
357.555;  128.325; -217.000; -228.000
357.688;  143.675; -483.000; -364.000
357.820;  532.200; -870.000; -877.000
357.953; 4202.650; -563.000; -589.000
358.085;  936.975; -632.000; -612.000
358.218; 1381.300;-1131.000; -932.000
358.350;  248.375;  -58.000;  312.000
358.483; -107.075;-1300.000;-1187.000
358.615;    7.375;-1182.000;-1078.000
358.747;  -29.400;-1187.000;-1058.000
358.880;   46.975; -810.000; -744.000
359.012;  -10.475; -376.000; -202.000
359.145;  -31.350; -480.000; -511.000
359.277;   97.300; -962.000; -913.000
359.409; 3458.800;  536.000;  231.000
359.542;  936.800; -738.000; -688.000
359.674;   73.725;   46.000;   13.000
359.806;  -51.875; -565.000; -438.000
359.939;  -60.650; -617.000; -516.000
360.071;  -10.250; -583.000; -579.000
360.203;   -6.275; -411.000; -364.000
360.335;   44.650;  164.000;  -16.000
360.468;  217.900; -249.000; -307.000
360.600; 2745.625; -547.000; -454.000
360.732; 2758.300; -546.000; -423.000
360.864;  387.000;-1216.000;-1044.000
360.996;  330.200; -516.000; -554.000
361.129;   68.225; -389.000; -598.000
361.261;   29.475;  110.000; -113.000
361.393;  -27.625; -252.000; -214.000
361.525;   27.275;   94.000;  244.000
361.657;  -36.650; -821.000; -703.000
361.789;    3.450; -139.000; -155.000
361.921;  291.175; -642.000; -593.000
362.053;  283.700;  524.000;  541.000
362.185;   57.000;  288.000;   72.000
362.318;  -70.475; -709.000; -705.000
362.450;  142.075;  294.000;  444.000
362.582;  154.625; -913.000; -870.000
362.714;  -30.300; -353.000; -332.000
362.846;  -94.800; -606.000; -490.000
362.978; -125.900; -941.000; -811.000
363.109;   61.700; -161.000; -260.000
363.241;  504.625; -739.000; -749.000
363.373;  425.750; -649.000; -564.000
363.505;  630.825; -186.000;  -91.000
363.637;  150.900; -787.000; -601.000
363.769; -108.825;-1067.000;-1080.000
363.901;  -78.275; -596.000; -654.000
364.033; -106.850;-1103.000;-1062.000
364.165;    2.125; -283.000; -283.000
364.296;   79.100; -316.000; -177.000
364.428;   64.500;-1344.000;-1220.000
364.560;  -58.550; -679.000; -661.000
364.692;  -61.225; -738.000; -835.000
364.824;  310.175; -588.000; -456.000
364.955;  451.350; -402.000; -564.000
365.087;  859.175;-1097.000; -852.000
365.219;   26.050; -686.000; -816.000
365.351;  -74.550; -526.000; -572.000
365.482;   43.575;  300.000;  240.000
365.614;  -40.550; -402.000; -314.000
365.746; -100.975; -729.000; -752.000
365.877;  -93.750; -706.000; -672.000
366.009;  234.700;  -35.000;  -62.000
366.141;  -82.700;-1249.000;-1134.000
366.272; -112.600; -803.000; -719.000
366.404; -107.350;-1005.000; -874.000
366.535;   -9.175; -139.000;  -12.000
366.667;  -97.700; -644.000; -649.000
366.799;   31.300;  353.000;  203.000
366.930; -112.725; -862.000; -996.000
367.062;  125.850; -639.000; -613.000
367.193;  132.200; -872.000; -842.000
367.325;  -64.450; -580.000; -684.000
367.456;   76.900; -246.000;   31.000
367.588;  158.225; -371.000; -318.000
367.719;   31.600;  -44.000;  -45.000
367.851;  -19.800; -222.000; -241.000
367.982;  -35.375; -875.000; -732.000
368.113;  132.475; -475.000; -358.000
368.245; -111.375; -960.000; -841.000
368.376;  -18.950; -254.000; -302.000
368.508;  -15.225; -188.000; -263.000
368.639; -153.275;-1166.000;-1034.000
368.770;    7.400; -670.000; -589.000
368.902;  -61.200; -836.000; -926.000
369.033; -106.400; -906.000; -855.000
369.164;  -50.650; -720.000; -653.000
369.296; -111.775; -452.000; -601.000
369.427;   -2.825; -209.000; -144.000
369.558;  -44.275; -593.000; -377.000
369.689;  -92.700; -721.000; -569.000
369.821; -124.375; -951.000; -845.000
369.952;  -22.450;   42.000; -108.000
370.083;  -50.975; -229.000; -108.000
370.214;  -81.175; -735.000; -650.000
370.345;    2.875;   65.000;   81.000
370.477;  -77.375; -810.000; -790.000
370.608;  285.725; -328.000; -264.000
370.739;  -28.300;-1233.000;-1292.000
370.870;  -10.125;-1102.000; -923.000
371.001;  124.575; -378.000; -467.000
371.132;  -59.100; -754.000; -735.000
371.263;  -22.025;  -42.000; -148.000
371.394; -127.825; -841.000; -748.000
371.525;   26.800;  345.000;  225.000
371.657;  -86.025; -808.000; -670.000
371.788;   80.125;  103.000;  199.000
371.919;  211.750; -384.000; -304.000
372.050; 4192.100;  -91.000; -156.000
372.181; 1248.500; -188.000; -294.000
372.311;  429.675;   42.000; -127.000
372.442;   57.400; -457.000; -451.000
372.573;  -23.025; -444.000; -340.000
372.704; -109.475;-1008.000; -980.000
372.835;  113.625; -228.000; -289.000
372.966;  -57.100; -646.000; -554.000
373.097;  -64.650; -575.000; -711.000
373.228;  -21.400; -717.000; -542.000
373.359;  172.850; -824.000; -536.000
373.490; 1102.225; -881.000; -727.000
373.620; 1384.825;-1001.000; -803.000
373.751; 2081.475; -332.000; -396.000
373.882;  971.800; -663.000; -733.000
374.013;   93.175; -449.000; -262.000
374.143;  -25.400; -581.000; -659.000
374.274;  -83.025; -987.000; -908.000
374.405;  213.900; -388.000; -276.000
374.536;  522.625; -526.000; -387.000
374.666; 1326.950; -759.000; -807.000
374.797;  282.925; -817.000; -868.000
374.928; 1038.475; -710.000; -560.000
375.058; 1063.600; -535.000; -500.000
375.189;   82.225;  -59.000;  -93.000
375.320;  -94.775; -928.000;-1034.000
375.450;  -35.775; -625.000; -616.000
375.581;  -33.475; -526.000; -436.000
375.712;  -39.225; -574.000; -250.000
375.842;  364.900; -438.000; -415.000
375.973;  261.825; -554.000; -513.000
376.103;  -30.600; -665.000; -648.000
376.234;  -86.450; -531.000; -552.000
376.364;   -3.450; -944.000; -867.000
376.495;  361.775;  925.000;  529.000
376.625;   35.750; -472.000; -485.000
376.756;   79.075; -709.000; -678.000
376.886;  -50.275;-1178.000;-1026.000
377.017;   37.725;-1048.000;-1061.000
377.147;  328.600; -786.000; -782.000
377.278;   57.975;  174.000;  228.000
377.408; -119.300; -801.000; -815.000
377.538;  -93.725; -707.000; -693.000
377.669;  -77.350; -537.000; -613.000
377.799;  -89.350; -645.000; -635.000
377.929;  -48.825; -610.000; -428.000
378.060; -132.650; -781.000; -847.000
378.190;  -53.125; -726.000; -531.000
378.320;  -36.125; -401.000; -406.000
378.451;    0.025; -131.000;  -22.000
378.581;   -4.650;  -67.000; -110.000
378.711;  171.000; 1035.000;  866.000
378.841;  -10.200; -533.000; -675.000
378.972;  -55.000; -871.000; -751.000
379.102;   13.850; -652.000; -579.000
379.232;  -16.000; -126.000;  -73.000
379.362;  -96.775;-1001.000; -885.000
379.492;   25.975; -373.000; -424.000
379.623;  114.075;    0.000;  111.000
379.753;  -76.875;-1107.000; -974.000
379.883;  217.325;   59.000;  156.000
380.013;   35.650;-1081.000;-1017.000
380.143;  -89.100;-1097.000;-1056.000
380.273;  -98.450; -985.000; -861.000
380.403;    2.625; -344.000; -257.000
380.533;   -7.800; -651.000; -664.000
380.663;   73.750;  173.000;  128.000
380.793;  -78.975;-1027.000;-1074.000
380.923;  -33.550; -103.000;  -34.000
381.053;  -94.400; -613.000; -623.000
381.183;  -19.250; -106.000; -248.000
381.313;   68.500; -656.000; -470.000
381.443;   44.775; -692.000; -473.000
381.573;  249.150; -402.000; -409.000
381.703;  356.575;-1249.000;-1095.000
381.833; -110.625;-1454.000;-1336.000
381.963;  117.100; -134.000;  -87.000
382.093; 1610.925; -925.000; -909.000
382.223;  506.375; -713.000; -602.000
382.353;    7.000; -801.000; -608.000
382.482;  446.925;-1091.000; -964.000
382.612;  892.925; -872.000; -644.000
382.742;  521.150; -695.000; -622.000
382.872;  338.450; -565.000; -551.000
383.002;   73.425;  347.000; -132.000
383.131;  -25.050; -226.000; -160.000
383.261;  -46.675; -706.000; -768.000
383.391;  310.475; -552.000; -377.000
383.521; 3055.200;  451.000;  263.000
383.650;  699.175; -947.000; -904.000
383.780;  -35.450; -783.000; -656.000
383.910;  105.725;  880.000;  802.000
384.039;   44.575; -794.000; -656.000
384.169;  271.175;-1205.000;-1017.000
384.299;   -9.675; -650.000; -662.000
384.428;  -92.925; -764.000; -680.000
384.558;  -48.525; -308.000; -275.000
384.687;  -28.725; -414.000; -334.000
384.817;   14.850;   75.000;   -2.000
384.947;   23.325; -234.000; -141.000
385.076;  302.800;  982.000;  912.000
385.206;  129.825;  369.000;  480.000
385.335;  -21.800; -549.000; -417.000
385.465;  -73.625; -655.000; -663.000
385.594;  156.650;  -53.000;  -44.000
385.724;  519.150; -868.000; -838.000
385.853;  132.900; -296.000; -270.000
385.982; 1615.225; -743.000; -787.000
386.112; 2517.475;-1052.000; -871.000
386.241;  184.725; -307.000; -312.000
386.371;   26.000; -174.000;  -87.000
386.500;   10.275; -825.000; -789.000
386.629;   19.025; -874.000; -817.000
386.759;   64.950;  -43.000;   68.000
386.888;   -0.700; -170.000; -250.000
387.017;  -77.750; -648.000; -620.000
387.147;  -88.650; -771.000; -798.000
387.276;   18.925; -410.000; -397.000
387.405;   26.450; -398.000; -342.000
387.535;  -23.275; -452.000; -361.000
387.664;  -62.475; -692.000; -620.000
387.793;   71.075; -198.000; -113.000
387.922;  611.425;  255.000;  200.000
388.052;   44.300; -576.000; -423.000
388.181;    8.675; -342.000; -472.000
388.310;   18.150; -889.000; -710.000
388.439;  -39.075; -749.000; -742.000
388.568;  226.375;  365.000;  244.000
388.697; 1257.575; -756.000; -653.000
388.826;  264.950; -768.000; -666.000
388.956;   87.175; -285.000; -307.000
389.085;  -27.600; -347.000; -287.000
389.214; -124.775; -842.000; -872.000
389.343;  -64.575; -645.000; -413.000
389.472;  380.500;  126.000;  149.000
389.601;  529.175;   91.000;    0.000
389.730;   37.825; -568.000; -687.000
389.859;   71.050;  226.000;   46.000
389.988;  202.050; -423.000; -408.000
390.117;  174.750; -168.000; -146.000
390.246;  -13.550; -331.000; -320.000
390.375;  134.050; -673.000; -626.000
390.504;  -55.500; -703.000; -621.000
390.633;  -92.550; -672.000; -726.000
390.761;  -63.850; -732.000; -645.000
390.890;   21.300;   -4.000; -130.000
391.019;  -29.500; -421.000; -441.000
391.148; -121.200; -826.000; -855.000
391.277;  -64.375; -576.000; -493.000
391.406;  -67.275; -821.000; -805.000
391.534;   25.325;  574.000; -301.000
391.663;  -59.500; -583.000; -645.000
391.792;  -81.300; -673.000; -701.000
391.921;  129.100;   -3.000;   15.000
392.050;  223.925; -287.000; -228.000
392.178;  -17.025;-1206.000;-1061.000
392.307;  182.150; -758.000; -712.000
392.436;  100.775; -427.000; -641.000
392.564;   11.500;  166.000;   -6.000
392.693;  -86.925; -860.000; -682.000
392.822;  244.825; -529.000; -534.000
392.950;  135.600; -880.000; -714.000
393.079;  387.850; -188.000; -328.000
393.208;   38.825; -488.000; -511.000
393.336;  -22.850; -170.000; -145.000
393.465;  -54.175; -317.000; -199.000
393.593;    0.600;   62.000;   79.000
393.722; -148.625;-1121.000; -916.000
393.850;  -43.200; -188.000;  -61.000
393.979; -158.375; -926.000; -805.000
394.107;  -63.925; -517.000; -537.000
394.236;  -14.400; -570.000; -507.000
394.364;  236.025;  383.000;  206.000
394.493;  383.650; -911.000; -767.000
394.621;  -18.175; -955.000; -916.000
394.750;  686.750; -873.000; -923.000
394.878; 2821.475; -247.000; -149.000
395.007; 3863.200; -721.000; -807.000
395.135;  274.750; -790.000; -721.000
395.263;  -79.025;-1038.000;-1040.000
395.392;  -14.525;  -25.000; -107.000
395.520; -140.700; -818.000; -679.000
395.648;  -82.450; -865.000; -915.000
395.777;    4.075; -366.000; -405.000
395.905;  -56.425; -449.000; -564.000
396.033;   14.225;  217.000;  172.000
396.162;  618.100; -399.000; -453.000
396.290;  560.400;  -17.000;   -2.000
396.418;  137.925; -555.000; -514.000
396.546;  -49.300; -571.000; -466.000
396.674;  -89.675; -850.000; -878.000
396.803;   25.200;  -72.000;  -23.000
396.931;  102.050; -179.000; -199.000
397.059;  103.275;-1026.000; -989.000
397.187; -108.650;-1026.000; -975.000
397.315; -129.500; -884.000; -649.000
397.443; -107.425; -592.000; -443.000
397.572;  -92.200; -578.000; -424.000
397.700;    0.125; -607.000; -614.000
397.828;   18.950;  120.000;  -90.000
397.956;  -59.550; -508.000; -478.000
398.084;  -51.375; -767.000; -626.000
398.212;   37.725;  137.000;  124.000
398.340;   26.075;  -56.000;  159.000
398.468;   44.375; -390.000; -169.000
398.596; -125.875; -993.000; -953.000
398.724; -125.875; -762.000; -767.000
398.852; -156.950;-1024.000; -976.000
398.980;  -69.025; -560.000; -560.000
399.108;  -44.700; -982.000; -735.000
399.236;   43.500;   13.000;    8.000
399.363;   10.775;  222.000;  196.000
399.491;  -65.625; -404.000; -398.000
399.619; -138.400; -829.000; -800.000
399.747; -101.200; -859.000; -771.000
399.875;   88.025;  220.000;  234.000
400.003;  -56.550; -359.000; -284.000
400.130;  -74.525; -421.000; -341.000
400.258;  -42.050;  -83.000;   38.000
400.386;  -58.925; -352.000; -168.000
400.514;  -34.875; -526.000; -587.000
400.641;  -70.950; -928.000; -802.000
400.769; -135.850; -979.000; -888.000
400.897; -115.225; -838.000; -793.000
401.025;   -9.225; -166.000; -152.000
401.152;   -5.050;  220.000;   38.000
401.280;  -84.100; -430.000; -429.000
401.408; -110.875; -712.000; -576.000
401.535; -104.000; -735.000; -758.000
401.663; -193.000;-1134.000;-1054.000
401.790;  -86.050; -514.000; -525.000
401.918;   41.750;  436.000;  405.000
402.046;  -18.750;  134.000;  122.000
402.173;  -28.575;  -18.000;    7.000
402.301;  -72.625; -519.000; -397.000
402.428;   49.425;  528.000;  383.000
402.556; -144.225;-1188.000; -913.000
402.683;  -39.825;  -20.000;   -1.000
402.811;  -16.050;  -37.000; -206.000
402.938;  -21.900;   20.000;   27.000
403.066;  237.325; -574.000; -558.000
403.193;  395.800;  299.000;  239.000
403.321;  301.950; -396.000; -574.000
403.448;  371.425;   83.000;   27.000
403.575;  176.725;  -90.000;  -46.000
403.703; -100.325; -732.000; -557.000
403.830;  -63.475; -531.000; -496.000
403.957; -128.225;-1117.000;-1023.000
404.085;   11.225;  -61.000; -172.000
404.212;  114.925;  -50.000;   63.000
404.339;  256.600; -566.000; -306.000
404.467; 5551.025; -612.000; -524.000
404.594; 3857.425; -287.000; -227.000
404.721;  975.425; -869.000; -764.000
404.848;   75.300; -113.000; -202.000
404.976;  -98.700; -856.000; -783.000
405.103;  -21.775;  -14.000;  -82.000
405.230;   -3.700;  190.000;  226.000
405.357;   12.250;  117.000;   44.000
405.484;  264.775;  -49.000;    5.000
405.612;   43.675; -548.000; -563.000
405.739;  -51.750; -488.000; -243.000
405.866;   80.850;  669.000;  385.000
405.993;  -51.575; -398.000; -102.000
406.120; -131.350; -801.000; -887.000
406.247;  -61.525; -323.000; -342.000
406.374;  514.975;  540.000;  629.000
406.501;  133.450; -632.000; -702.000
406.628;  -71.850; -621.000; -589.000
406.755;  -90.525; -803.000; -620.000
406.882;  -50.900; -228.000; -277.000
407.009;  -98.425; -719.000; -628.000
407.136;   71.775; -480.000; -401.000
407.263;  179.825; -939.000; -829.000
407.390;  -88.600; -692.000; -614.000
407.517; -156.350;-1139.000;-1187.000
407.644;  -59.225; -332.000; -256.000
407.771; -142.550; -249.000; -287.000
407.898;   -0.150;  168.000;  328.000
408.025;  -62.125; -421.000; -313.000
408.151;  -14.650;   82.000;  153.000
408.278;  -59.125; -267.000; -216.000
408.405; -119.325; -931.000; -899.000
408.532;  -62.475; -549.000; -542.000
408.659; -124.675; -677.000; -648.000
408.785; -187.625;-1298.000;-1170.000
408.912;  -79.250; -412.000; -296.000
409.039; -115.700; -610.000; -686.000
409.166; -104.250; -591.000; -555.000
409.292; -105.025; -571.000; -534.000
409.419; -115.025; -665.000; -649.000
409.546;  -88.525; -431.000; -192.000
409.672; -108.700; -713.000; -545.000
409.799;  -28.600;  -36.000;   34.000
409.926;  -50.300; -180.000; -179.000
410.052; -166.700;-1127.000;-1091.000
410.179;  -55.075; -368.000; -392.000
410.305;  -82.900; -375.000; -493.000
410.432;  -48.600; -220.000; -333.000
410.558;  -89.475; -305.000; -380.000
410.685; -112.550; -688.000; -431.000
410.812;  -91.875; -409.000; -588.000
410.938; -145.350; -964.000; -808.000
411.065;  -85.500; -671.000; -645.000
411.191;  -17.400; -189.000; -174.000
411.317;  -94.250; -823.000; -742.000
411.444;  -73.800; -317.000; -246.000
411.570;  -85.225; -339.000; -294.000
411.697; -126.325; -758.000; -752.000
411.823; -173.200; -989.000; -999.000
411.949;  -30.825;  -56.000;   17.000
412.076; -108.200; -539.000; -519.000
412.202; -122.425; -758.000; -757.000
412.329; -125.800; -798.000; -752.000
412.455; -128.775; -821.000; -657.000
412.581;   -7.050;  -15.000;  172.000
412.707;  -68.275; -540.000; -457.000
412.834;    4.675;  156.000;  219.000
412.960;  -85.075; -785.000; -784.000
413.086; -104.275; -743.000; -701.000
413.212;  151.300;  604.000;  578.000
413.339;  -54.325; -685.000; -701.000
413.465;   20.950; -364.000; -310.000
413.591;  -72.800; -757.000; -474.000
413.717;  -45.575; -358.000; -366.000
413.843; -135.025; -839.000; -861.000
413.969;  -60.775;  -47.000; -292.000
414.096;  -94.475; -679.000; -679.000
414.222;   -7.450;  -33.000;   85.000
414.348;   -7.650; -652.000; -385.000
414.474;  107.075;   38.000;  -52.000
414.600;   -3.775; -126.000; -144.000
414.726;  -17.050;  -96.000;  -55.000
414.852;  -55.500; -365.000; -342.000
414.978;   30.875;  104.000;  -18.000
415.104;   38.100;   38.000;   80.000
415.230;   17.925; -329.000; -330.000
415.356;   44.900; -409.000; -514.000
415.482;  200.775;   13.000;  -35.000
415.608;  258.225; -247.000; -323.000
415.734;  916.675;   67.000;   38.000
415.860;19326.475; -875.000; -767.000
415.986;14304.925; -685.000; -607.000
416.111; 1242.225; -798.000; -652.000
416.237;  238.375; -424.000; -571.000
416.363; 1053.075; -765.000; -733.000
416.489; 3988.150; -324.000; -251.000
416.615;  427.950; -707.000; -742.000
416.741;  -36.925; -677.000; -784.000
416.866;  -81.675; -673.000; -736.000
416.992; -133.475; -801.000; -818.000
417.118;  -35.750;  -41.000;  -80.000
417.244;  -59.750; -798.000; -531.000
417.369;  -87.950; -801.000; -612.000
417.495;  -16.100; -325.000; -254.000
417.621;  -78.850;-1015.000; -803.000
417.746;   -0.600; -579.000; -572.000
417.872;   52.525; -254.000; -144.000
417.998;   58.775; -515.000; -530.000
418.123;  993.650;-1073.000; -845.000
418.249; 5210.375; -512.000; -601.000
418.374;  730.475; -916.000; -824.000
418.500;  114.575; -383.000; -482.000
418.626;  103.825;   70.000;  -59.000
418.751;  114.250; -549.000; -448.000
418.877;  207.575; -637.000; -643.000
419.002; 1721.650; -688.000; -560.000
419.128;12056.075; -930.000; -721.000
419.253; 2995.725; -967.000; -837.000
419.379;  399.350; -391.000; -338.000
419.504;  384.050;  325.000;  415.000
419.629;  500.700; -393.000; -212.000
419.755; 3347.425; -317.000; -254.000
419.880;20137.700;  -98.000;   67.000
420.006;10956.325; -280.000; -221.000
420.131;28515.050; -662.000; -775.000
420.256; 4186.050; -315.000; -316.000
420.382;  543.175; -665.000; -687.000
420.507;   62.700; -649.000; -778.000
420.632;  173.800; -337.000; -339.000
420.758;  302.075; -251.000; -425.000
420.883;  -84.425; -876.000; -672.000
421.008; -100.250; -775.000; -619.000
421.133;  -71.625; -509.000; -467.000
421.259;  -59.675; -325.000; -259.000
421.384; -106.125; -834.000; -693.000
421.509;  -40.525;-1052.000; -862.000
421.634; 1406.575; -936.000; -820.000
421.759;  608.075; -359.000; -327.000
421.885;  -42.250; -717.000; -656.000
422.010;  -86.500; -673.000; -542.000
422.135; -139.525; -695.000; -727.000
422.260;   21.725;  340.000;  280.000
422.385;  -41.650;   12.000;  -98.000
422.510;    8.125;  151.000;  -26.000
422.635;   22.325;  -87.000;  -43.000
422.760;  117.675; -766.000; -791.000
422.885;   60.900;  -57.000;  -80.000
423.010;  -31.800; -112.000; -169.000
423.135; -102.375; -481.000; -561.000
423.260;  -16.750; -150.000; -245.000
423.385;   79.325;  476.000;  222.000
423.510;   43.050;   71.000;  -22.000
423.635;   93.550;  133.000;   45.000
423.760;   60.150;  383.000;  328.000
423.885;   56.575;  336.000;  391.000
424.010;    8.700;  -68.000;  -13.000
424.135;  -18.500;    5.000;  -33.000
424.259;  -94.500; -654.000; -457.000
424.384;  -61.625; -279.000; -272.000
424.509;  -40.950; -260.000; -186.000
424.634;  -85.050; -761.000; -623.000
424.759;  -14.525; -688.000; -544.000
424.883;   -9.225; -506.000; -527.000
425.008;  156.575; -502.000; -410.000
425.133; 1933.925; -679.000; -653.000
425.258;  934.550; -517.000; -381.000
425.382; 1159.475; -867.000; -774.000
425.507; 3013.375; -487.000; -543.000
425.632;  493.100; -802.000; -663.000
425.756;  427.975; -256.000; -146.000
425.881; 6066.975; -831.000; -857.000
426.006;16754.050; -604.000; -355.000
426.130; 2721.600; -696.000; -508.000
426.255;  344.875; -611.000; -491.000
426.379;  150.725; -189.000; -577.000
426.504;  358.475;  660.000;  544.000
426.629; 3958.350; -519.000; -466.000
426.753; 2756.750;   64.000;  -46.000
426.878;  311.325; -252.000; -288.000
427.002;  124.075; -651.000; -668.000
427.127; 1543.050;  -35.000; -158.000
427.251;10939.250;  372.000;  401.000
427.375; 3220.825; -191.000; -173.000
427.500; 2605.950; -616.000; -610.000
427.624;  904.650; -234.000; -400.000
427.749;   95.025; -216.000; -225.000
427.873;  -46.625; -499.000; -412.000
427.997;  -59.925; -222.000; -230.000
428.122;   87.425;  795.000;  703.000
428.246;   65.950;  433.000;  434.000
428.371; -127.175; -869.000; -773.000
428.495; -105.400; -624.000; -646.000
428.619;  -40.175; -186.000; -117.000
428.743;   17.500;   65.000;  132.000
428.868;   35.400; -732.000; -643.000
428.992; 1644.200; -219.000; -326.000
429.116;  666.800; -329.000; -357.000
429.240;  297.725;  419.000;  426.000
429.365;  -17.200; -454.000; -574.000
429.489;  -46.475; -638.000; -647.000
429.613;   20.125; -236.000; -177.000
429.737;   34.025; -563.000; -432.000
429.861;  259.825; -247.000; -133.000
429.985; 5308.975; -425.000; -305.000
430.109; 5963.675; -770.000; -908.000
430.234;  679.050;   76.000;  -50.000
430.358;   36.325; -250.000; -160.000
430.482;  -80.050; -672.000; -564.000
430.606;  -56.900; -655.000; -375.000
430.730;   14.925; -437.000; -388.000
430.854;  163.525; -909.000; -835.000
430.978;  -68.075; -795.000; -764.000
431.102;  -70.025; -499.000; -422.000
431.226; -119.925; -874.000; -815.000
431.350;   31.050;  345.000;  422.000
431.474;  -81.675; -661.000; -373.000
431.597; -141.375;-1060.000; -848.000
431.721;  -88.675; -276.000; -267.000
431.845; -137.075; -704.000; -472.000
431.969;  -81.775; -304.000; -349.000
432.093;  -98.125; -395.000; -317.000
432.217;  -31.125;   32.000;   82.000
432.341;  -90.925; -523.000; -518.000
432.464;   -7.425;   96.000;   40.000
432.588;  245.775; -401.000; -329.000
432.712;  119.900;  -52.000;  -52.000
432.836;   47.275;  213.000;  263.000
432.959;  -21.725; -372.000; -311.000
433.083;   78.225;   11.000;    2.000
433.207;  344.325;  285.000;  930.000
433.330; 4793.925; -391.000; -200.000
433.454; 5996.750; -654.000; -638.000
433.578; 3452.150;  583.000;  278.000
433.701;  653.825; -623.000; -675.000
433.825;  165.625; -292.000; -299.000
433.949;  206.950;   28.000;  -72.000
434.072;   82.150; -410.000; -323.000
434.196;   -9.000; -309.000; -117.000
434.319; 3736.675;25482.000;25124.000
434.443;  729.725; -656.000; -603.000
434.566; 2573.325;  281.000;   62.000
434.690;  433.700; -637.000; -383.000
434.813;   51.825; -251.000; -173.000
434.937;  -81.250; -569.000; -696.000
435.060;  -34.075; -423.000; -332.000
435.184;  389.800; -492.000; -217.000
435.307;  209.575;  159.000;  102.000
435.431;  -19.725;  -40.000;   24.000
435.554;  -76.875; -399.000; -240.000
435.677; -105.450; -350.000; -258.000
435.801;  -34.350;  -25.000;   49.000
435.924;   -5.350;    1.000;  -67.000
436.048; -115.025;-1019.000; -732.000
436.171;  -72.575; -240.000;  -66.000
436.294;  -18.650; -248.000; -229.000
436.417;   91.850; -963.000; -849.000
436.541;  -86.450; -814.000; -840.000
436.664;  -64.500; -242.000; -316.000
436.787;  -23.800;   13.000;  113.000
436.910; -110.575; -792.000; -422.000
437.034;   27.600;  142.000;  143.000
437.157;   67.275;  -11.000;    0.000
437.280;  -32.700; -392.000; -292.000
437.403;  -73.125; -982.000; -869.000
437.526;  759.225; -903.000; -865.000
437.649; 2724.475; -505.000; -332.000
437.772;  448.900; -692.000; -540.000
437.896;  116.325;  700.000;  544.000
438.019;  -93.250; -758.000; -503.000
438.142; -103.400; -596.000; -506.000
438.265;  -11.750; -639.000; -670.000
438.388;  667.775; -520.000; -410.000
438.511;  140.550; -597.000; -394.000
438.634;  -44.975; -247.000; -125.000
438.757; -139.400; -693.000; -619.000
438.880;  -27.925;  -34.000;  -57.000
439.003;  -76.525; -417.000; -437.000
439.126;  -74.225; -287.000; -167.000
439.248;  -54.100;  -98.000; -139.000
439.371;  -50.450;    9.000;  -53.000
439.494;   18.325;  510.000;  439.000
439.617;  -59.025;   65.000;  -88.000
439.740; -180.075; -968.000; -816.000
439.863; -137.025; -755.000; -595.000
439.986; -115.850; -476.000; -431.000
440.108;  -46.575; -161.000; -112.000
440.231; -166.275; -950.000; -836.000
440.354;  -44.175;  -64.000; -150.000
440.477;   48.350; -566.000; -542.000
440.599;   21.400; -200.000; -225.000
440.722; -116.650; -709.000; -586.000
440.845;   61.200;  751.000;  928.000
440.968; -103.600; -415.000; -311.000
441.090;  -62.025; -199.000;  -33.000
441.213; -174.175;-1021.000; -825.000
441.336;  -58.375; -159.000;   -5.000
441.458;  -80.050; -549.000; -396.000
441.581;  -84.775; -628.000; -629.000
441.703;  -57.375; -152.000;   13.000
441.826; -113.975; -557.000; -400.000
441.948;  -52.500;   56.000;   51.000
442.071;    9.975;  555.000;  424.000
442.193; -116.475; -531.000; -485.000
442.316;   24.325;  152.000;   97.000
442.438;   42.000; -233.000;  -10.000
442.561;   64.200;  272.000;  262.000
442.683;  647.450; -809.000; -522.000
442.806; 1389.800;   -8.000;   74.000
442.928;   65.025; -859.000; -604.000
443.051;  -58.775; -577.000; -373.000
443.173;  -80.350; -341.000; -339.000
443.295;  -96.675; -263.000; -371.000
443.418;  -78.750; -321.000;  -29.000
443.540;   -5.300; -106.000;   -4.000
443.662; -105.575; -563.000; -465.000
443.785;  -19.875;  335.000;  199.000
443.907; -101.550; -362.000; -208.000
444.029; -141.825; -767.000; -494.000
444.152; -133.100; -644.000; -554.000
444.274;  -42.000;  -18.000;  -24.000
444.396; -110.975; -461.000; -221.000
444.518; -143.275; -691.000; -454.000
444.640; -112.800; -268.000; -111.000
444.763;  -27.500;  388.000;  249.000
444.885;  -99.925; -432.000; -392.000
445.007;  -41.275;   35.000;   86.000
445.129; -124.050; -610.000; -515.000
445.251; -109.625; -372.000; -439.000
445.373; -145.000; -537.000; -386.000
445.495;    9.000;  242.000;  350.000
445.617;   58.350;  853.000;  753.000
445.739;  -70.725; -215.000;  -97.000
445.861;  -36.875; -245.000; -112.000
445.984;  -37.000; -267.000; -101.000
446.105;  247.800; -418.000; -251.000
446.227;  719.050; -176.000;  -19.000
446.349;   27.025; -358.000; -249.000
446.471; -109.075; -615.000; -448.000
446.593;  -57.025; -316.000;   19.000
446.715;   -5.800;  -67.000;   41.000
446.837;   66.300;  697.000;  832.000
446.959; -105.500; -457.000; -478.000
447.081; -127.375; -628.000; -518.000
447.203;   44.825;  862.000;  834.000
447.325;  -94.575; -270.000;   42.000
447.446;   -6.825;  286.000;  530.000
447.568; -144.525; -921.000; -803.000
447.690;  -80.425; -236.000; -245.000
447.812; -147.125; -798.000; -519.000
447.933;  -31.450;  155.000;  127.000
448.055;  -60.450; -306.000; -261.000
448.177;  160.600;   31.000;   79.000
448.299;  120.300; -935.000; -727.000
448.420;   28.025;  -25.000;  159.000
448.542;  -52.900;   -3.000;   33.000
448.664;  -16.350;  109.000;  322.000
448.785;  -39.100;  265.000;   83.000
448.907;  -79.575; -614.000; -353.000
449.028;  -22.050; -771.000; -471.000
449.150;   50.425;  492.000;  589.000
449.272; -178.600;-1044.000; -913.000
449.393;   13.575;  612.000;  694.000
449.515; -144.600; -634.000; -581.000
449.636;  -59.475; -264.000; -155.000
449.758;   75.050;  763.000;  622.000
449.879;  -94.575; -498.000; -396.000
450.001;  -84.200; -149.000;  -49.000
450.122;  -28.100;  -95.000;  162.000
450.244;  -23.775;   37.000;  364.000
450.365; -106.500; -495.000; -301.000
450.486;  -45.725;   80.000;  268.000
450.608;    7.825;  393.000;  326.000
450.729;   61.250;  578.000;  645.000
450.850;  -23.675; -574.000; -466.000
450.972;  704.625; -552.000; -389.000
451.093; 4645.275;  190.000;  588.000
451.214; 2058.525; -516.000; -337.000
451.336;  388.750;  773.000;  579.000
451.457;   53.800;  264.000;  393.000
451.578;  -43.075; -118.000;  -74.000
451.699; -124.225; -546.000; -540.000
451.821;  -69.825; -284.000;  -50.000
451.942;   -6.150;  278.000;  285.000
452.063;    9.975;  228.000;  419.000
452.184;  521.100;  -54.000;  -49.000
452.305; 1057.625;  103.000;  170.000
452.427;  138.750; -549.000; -301.000
452.548;  -24.675;   23.000;   79.000
452.669;  -46.050; -257.000;  -89.000
452.790;  -60.050;    3.000;  -18.000
452.911;   -4.975;  195.000;  259.000
453.032;  -74.550; -289.000;  -60.000
453.153;  -37.250;  -29.000;   81.000
453.274;   55.950;  737.000;  868.000
453.395;  -44.725;  -51.000;  175.000
453.516;  134.600; 1317.000; 1388.000
453.637;  -50.025; -205.000; -150.000
453.758;  -62.225;   15.000;   69.000
453.879; -128.475; -462.000; -250.000
454.000;   79.575; 1086.000;  948.000
454.121; -112.700; -554.000; -326.000
454.242; -126.500; -599.000; -383.000
454.362;  -48.400;  -99.000;  114.000
454.483;  -50.775; -309.000; -229.000
454.604;   55.150;  512.000;  580.000
454.725; -135.850; -627.000; -555.000
454.846; -131.100; -474.000; -406.000
454.967;  -35.225;  230.000;  539.000
455.087;  -28.300;  179.000;  153.000
455.208;   10.075;  554.000;  856.000
455.329;  -66.950;  -22.000;   82.000
455.450;   42.150;  473.000;  633.000
455.570;  -90.075; -234.000; -211.000
455.691;  -48.400;  201.000;  407.000
455.812; -107.675; -270.000;  -92.000
455.932;  -66.375;  107.000;  -97.000
456.053;  -85.750;   36.000;   24.000
456.173; -118.000; -433.000; -355.000
456.294; -140.350; -476.000; -303.000
456.415;  -68.350;  -73.000;   70.000
456.535;  -30.150;  297.000;  273.000
456.656;  -54.650;  132.000;  240.000
456.776;  -61.850;    3.000;  298.000
456.897;  -22.375;  308.000;  513.000
457.017;  -76.950; -153.000;   -3.000
457.138; -116.775; -402.000; -249.000
457.258;  -31.975;  263.000;  224.000
457.379;  -16.950;  509.000;  521.000
457.499;  -28.150;  443.000;  432.000
457.620; -132.025; -407.000; -231.000
457.740;  -94.175; -132.000;  -11.000
457.860;  -59.275;   87.000;   44.000
457.981;  -60.350;  132.000;  124.000
458.101;  -89.850;  -89.000;   40.000
458.221;  -30.725;  336.000;  402.000
458.342;  -64.100;   -4.000;  -37.000
458.462;   26.800;  617.000;  352.000
458.582;  -48.100; -302.000; -294.000
458.703;    0.475;  303.000;  154.000
458.823;  -36.775;   22.000;  163.000
458.943;   11.300;  341.000;  467.000
459.063;  -24.800; 1124.000;  192.000
459.183;  -18.325;  328.000;  313.000
459.304;    1.800;  315.000;  517.000
459.424;  -65.525; -246.000;  -89.000
459.544;  287.725;  388.000;  764.000
459.664;  804.025;  499.000;  506.000
459.784;  292.325; 1004.000; 1175.000
459.904;   45.375;  867.000;  744.000
460.024;   64.150;  867.000;  684.000
460.144;   11.050;  449.000;  554.000
460.264;   -9.900;  515.000;  327.000
460.385; -100.900; -145.000; -119.000
460.505;   29.125;  905.000;  858.000
460.625;  -97.300;  -17.000;  -68.000
460.745;  -25.175;  396.000;  541.000
460.864;  -42.075;  153.000;  469.000
460.984;   17.500;  499.000;  573.000
461.104;  134.125; 1656.000; 1775.000
461.224;   13.975;  657.000;  650.000
461.344;  -41.150;  431.000;  360.000
461.464;  -33.875;  258.000;  513.000
461.584;  -16.125;  283.000;  466.000
461.704;  -56.025;   58.000;  108.000
461.824;  -47.475;  238.000;  259.000
461.943;  -54.500;  191.000;  130.000
462.063;  -77.700;    2.000;  324.000
462.183;   30.900;  639.000;  717.000
462.303;  123.200; 1678.000; 1230.000
462.422;   12.300;  781.000;  840.000
462.542;  -31.125;  271.000;  391.000
462.662;   35.325;  353.000;  380.000
462.782;  235.250;  833.000;  572.000
462.901;  473.875;  545.000;  717.000
463.021;  282.775; 1702.000; 1638.000
463.141;  -16.975;  337.000;  770.000
463.260;   -8.525;  614.000;  474.000
463.380;    1.275;  902.000;  884.000
463.499;  -39.825;  342.000;  332.000
463.619;  -37.950;  581.000;  559.000
463.738;  118.075; 1644.000;  903.000
463.858;    8.600;  657.000;  811.000
463.978;  -33.025;  542.000;  396.000
464.097;   48.750;  921.000; 1114.000
464.217;   99.525; 1196.000; 1143.000
464.336;  100.975; 1068.000; 1130.000
464.455;  -46.575;  328.000;  659.000
464.575;   37.075;  597.000;  602.000
464.694;  173.350; 1204.000; 1179.000
464.814;  121.775; 1190.000; 1138.000
464.933;   75.275; 1095.000; 1027.000
465.052;   84.450; 1412.000; 1054.000
465.172;   81.300;  922.000;  799.000
465.291;  148.425; 1376.000; 1320.000
465.410;   15.775;  462.000;  735.000
465.530;   89.950; 1355.000; 1310.000
465.649;   89.475; 1209.000; 1273.000
465.768;  125.775; 1673.000; 1508.000
465.888;   30.875;  941.000; 1174.000
466.007;   79.050; 1335.000; 1440.000
466.126;    1.275;  721.000;  641.000
466.245;   30.075; 1176.000; 1187.000
466.364;   32.475;  950.000; 1060.000
466.484;   53.675; 1024.000; 1213.000
466.603;   35.450; 1101.000; 1222.000
466.722;  102.075; 1490.000; 1769.000
466.841;   76.200; 1151.000; 1401.000
466.960;   34.000; 1069.000;  972.000
467.079;  130.500; 1971.000; 1786.000
467.198;   52.300; 1238.000; 1181.000
467.317;   81.250; 1768.000; 1162.000
467.436;   56.550; 1709.000; 1261.000
467.555;  129.825; 1796.000; 1746.000
467.674;   55.600; 1227.000; 1329.000
467.793;   33.200; 1376.000; 1374.000
467.912;   83.750; 1658.000; 1539.000
468.031;  133.100; 2038.000; 1930.000
468.150;  132.950; 1842.000; 1837.000
468.269;  200.325; 2313.000; 2090.000
468.388;  181.550; 2168.000; 2339.000
468.507;  243.800; 2884.000; 2903.000
468.626;  224.575; 2555.000; 2541.000
468.744;  144.475; 2018.000; 2174.000
468.863;  185.150; 2312.000; 2523.000
468.982;   85.550; 1503.000; 1555.000
469.101;  206.300; 2788.000; 2692.000
469.220;  155.700; 2333.000; 2176.000
469.338;  242.450; 2935.000; 3051.000
469.457;  186.100; 2719.000; 2545.000
469.576;  333.900; 3953.000; 3784.000
469.695;  236.600; 2877.000; 3066.000
469.813;  426.050; 4148.000; 4192.000
469.932;  405.275; 4255.000; 4485.000
470.051;  406.250; 4075.000; 4161.000
470.169;  828.550; 4470.000; 4338.000
470.288; 1425.450; 4700.000; 4809.000
470.406;  853.625; 5059.000; 5194.000
470.525;  624.025; 6101.000; 5787.000
470.644;  661.025; 6847.000; 6794.000
470.762;  803.150; 8397.000; 7873.000
470.881;  892.800; 8651.000; 8464.000
470.999; 1010.850; 9685.000; 9151.000
471.118; 1104.275;11174.000;10711.000

