
Integration time [ms]: 100.000
Averaging Nr. [scans]: 40
Smoothing Nr. [pixels]: 0
Data measured with spectrometer [name]: 2101012U2
Wave   ;Sample   ;Dark     ;Reference
[nm]   ;[counts] ;[counts] ;[counts] 

197.733;   57.750;  516.000;  404.000
197.879;  -87.050; -610.000; -634.000
198.025;  -45.000; -475.000; -420.000
198.171;  -59.850; -602.000; -612.000
198.317;  -37.800; -401.000; -316.000
198.463;  -49.850; -655.000; -404.000
198.609;    9.175;  181.000; -137.000
198.755;  -69.000; -644.000; -410.000
198.901;  -65.925; -505.000; -424.000
199.047;  -57.400; -615.000; -488.000
199.193;  -28.725; -230.000; -468.000
199.339;  -40.550; -222.000; -369.000
199.485;   25.800;  330.000;  271.000
199.631;   20.900;  227.000;  310.000
199.777;  -47.750; -466.000; -398.000
199.923;  -68.500; -610.000; -424.000
200.069;   -2.475; -141.000;  -58.000
200.215;   50.600;  128.000;  453.000
200.361;   32.300;  243.000;  477.000
200.507;  -51.625; -600.000; -373.000
200.653;  -12.525; -371.000; -194.000
200.798;  -30.975; -215.000; -125.000
200.944;   -2.025; -146.000;  -41.000
201.090;   36.300;   61.000;  222.000
201.236;   -0.400; -116.000; -158.000
201.382;  106.950;  874.000;  903.000
201.528;    1.325;  -58.000;  -48.000
201.674;  -45.350; -386.000; -293.000
201.819;  -47.250; -540.000; -439.000
201.965;  -78.050; -699.000; -447.000
202.111;  -29.400; -273.000; -226.000
202.257;  -32.025; -250.000; -238.000
202.402;    4.750;   13.000;  -36.000
202.548;  -28.125; -169.000; -116.000
202.694;   81.875;  410.000; -183.000
202.840;  -71.925; -603.000; -531.000
202.985;  -62.225; -681.000; -639.000
203.131;  -96.850; -832.000; -666.000
203.277;  -28.950; -199.000; -262.000
203.423;  -52.550; -434.000; -520.000
203.568;  -39.975; -462.000; -237.000
203.714;  -43.000; -535.000; -542.000
203.860;  -75.200; -682.000; -641.000
204.005;   28.325;  112.000;  167.000
204.151;   66.525;  561.000;  556.000
204.296;  -32.325; -354.000; -221.000
204.442;  -56.200; -600.000; -547.000
204.588;  -76.775; -592.000; -579.000
204.733;    4.550;  178.000;  168.000
204.879; -110.450;-1018.000; -822.000
205.025;    7.225;  -99.000;  126.000
205.170;   -1.875;  -17.000;   94.000
205.316;   66.675;  438.000;  661.000
205.461;  -85.225; -698.000; -554.000
205.607;   73.675;  609.000;  665.000
205.752;  -65.375; -626.000; -551.000
205.898;  -50.375; -501.000; -391.000
206.043;  -56.375; -578.000; -506.000
206.189;  -44.125; -243.000; -285.000
206.334;   85.775;  554.000;  606.000
206.480;   74.150;  409.000;  239.000
206.625;  -69.725; -529.000; -552.000
206.771;  -47.400; -451.000; -373.000
206.916;  -22.650; -210.000; -537.000
207.062;  -68.125; -545.000; -591.000
207.207;  -54.800; -546.000; -443.000
207.353;   48.550;  185.000;  460.000
207.498;    0.025;  196.000;   85.000
207.643;  -43.400; -501.000; -370.000
207.789; -119.050;-1069.000; -910.000
207.934;  -85.650; -665.000; -713.000
208.080;  -14.300; -154.000;   66.000
208.225;   -6.825;  -22.000;  -57.000
208.370;  -82.525; -727.000; -619.000
208.516;  -72.600; -741.000; -487.000
208.661;  -21.250; -127.000;  -69.000
208.806;  -31.075; -165.000; -171.000
208.952; -115.400;-1044.000; -731.000
209.097;   67.425;  378.000;  349.000
209.242;  -49.500; -307.000; -382.000
209.387;   59.075;  392.000;  350.000
209.533;  -44.850; -321.000; -350.000
209.678;   72.450;  472.000;  543.000
209.823;  -46.500; -408.000; -310.000
209.969;  -93.650; -860.000; -757.000
210.114;  -99.600; -907.000; -719.000
210.259;  -98.975; -939.000; -889.000
210.404;    1.800; -171.000;  103.000
210.549;   -6.825;  108.000;    3.000
210.695;  -16.750;   -3.000;  -95.000
210.840;   22.725;   94.000;   67.000
210.985;  -62.300; -484.000; -303.000
211.130;   64.800;  268.000;  406.000
211.275;   14.100;  207.000;  199.000
211.420;  -48.400; -300.000; -289.000
211.566;  -62.325; -536.000; -489.000
211.711;   15.875;  218.000;  157.000
211.856;  -56.225; -545.000; -519.000
212.001;    6.575;  151.000;   44.000
212.146;   14.100;  153.000;   49.000
212.291;  -38.000; -210.000; -186.000
212.436;  -19.825; -280.000;   -6.000
212.581;  -81.950; -685.000; -653.000
212.726;  -66.875; -487.000; -538.000
212.871;  -41.725; -552.000; -217.000
213.016; -129.975;-1172.000;-1029.000
213.161;   40.625;  406.000;  291.000
213.306;  -68.700; -435.000; -577.000
213.451;  -80.000; -778.000; -689.000
213.596;  -43.700; -455.000; -347.000
213.741;  -56.650; -448.000; -538.000
213.886;  -69.325; -498.000; -517.000
214.031;  -14.850; -294.000; -124.000
214.176;  -55.025; -408.000; -341.000
214.321;  -16.375; -296.000; -157.000
214.466;  -19.225; -163.000;  -43.000
214.611;   13.375;  -61.000;  -10.000
214.756; -115.575; -948.000; -858.000
214.901;  -22.100; -388.000; -226.000
215.046; -116.575; -797.000; -825.000
215.191;    7.275;  128.000;   35.000
215.336;  -17.275; -157.000;  -19.000
215.480;  -64.900; -684.000; -505.000
215.625;  -10.200; -175.000;  -19.000
215.770;  -78.075; -757.000; -662.000
215.915;   12.925;   -5.000;  -97.000
216.060;  -11.425; -113.000;  -21.000
216.205;  -95.325; -731.000; -779.000
216.349;  -74.975; -470.000; -533.000
216.494; -136.925; -939.000; -867.000
216.639; -117.650; -823.000; -888.000
216.784;  -81.025; -577.000; -525.000
216.929;   44.375;  392.000;  281.000
217.073;  -19.425; -244.000;  -31.000
217.218;    6.225;   78.000;  -47.000
217.363;  -73.725; -656.000; -618.000
217.507;  -89.725; -623.000; -588.000
217.652; -123.875; -845.000; -874.000
217.797;  -89.625; -708.000; -659.000
217.942; -110.750; -856.000; -720.000
218.086;   74.500;  608.000;  539.000
218.231;  -17.150; -174.000;  -26.000
218.376;  -24.375; -337.000; -229.000
218.520;   -1.325;  -41.000;   96.000
218.665;  -38.100; -338.000; -204.000
218.810;  -30.675; -275.000; -233.000
218.954;   21.725;  201.000;   35.000
219.099; -108.775; -713.000; -963.000
219.243;  -73.200; -589.000; -554.000
219.388;  -34.050; -264.000; -136.000
219.532;  -10.675; -116.000; -116.000
219.677;  -62.350; -564.000; -521.000
219.822;   -0.600;   33.000;   89.000
219.966;  -10.250;   17.000;  -99.000
220.111;  -13.675; -328.000;  -40.000
220.255;  -94.625; -797.000; -750.000
220.400;  -25.825; -180.000; -146.000
220.544;  -62.550; -516.000; -450.000
220.689;  -46.275; -422.000; -451.000
220.833;  -22.250; -123.000;  -58.000
220.978;  -45.425; -393.000; -563.000
221.122;   19.125;  319.000;  307.000
221.267; -106.350; -906.000; -837.000
221.411;  -67.125; -478.000; -394.000
221.555;  -16.650; -104.000;  -23.000
221.700;  -37.825; -329.000; -222.000
221.844;   28.575;  255.000;  272.000
221.989;  -44.000; -328.000; -311.000
222.133;  -49.625; -289.000; -307.000
222.277;  -10.525;    5.000;   78.000
222.422;    9.700;  227.000;  113.000
222.566;  -33.275; -381.000; -214.000
222.711;  -58.325; -414.000; -479.000
222.855;  -83.200; -643.000; -586.000
222.999;  -79.125; -642.000; -717.000
223.144;  -19.875; -195.000; -194.000
223.288;   53.700;  423.000;  251.000
223.432;   36.975;  184.000;  230.000
223.576;   20.650;  152.000;  -21.000
223.721;   39.975;  364.000;  273.000
223.865;  -57.625; -472.000; -475.000
224.009;  219.225; 1673.000; 1631.000
224.153;  -77.550; -660.000; -671.000
224.298;  -65.450; -531.000; -489.000
224.442;   -9.925;  -74.000;  -33.000
224.586;  -11.150; -169.000; -106.000
224.730;  -99.900; -858.000; -670.000
224.875;  -96.725; -739.000; -688.000
225.019;    6.075;  102.000;  188.000
225.163;   53.150;  208.000;  341.000
225.307;   20.625;   97.000;  -91.000
225.451;   34.000;  360.000;  481.000
225.595;   28.675;  264.000;  176.000
225.739;  -13.450; -170.000;  -94.000
225.884;    4.975;   86.000;    5.000
226.028;  -91.650; -760.000; -626.000
226.172;  -47.125; -260.000; -273.000
226.316; -104.900; -941.000; -902.000
226.460;  -54.225; -645.000; -493.000
226.604;  -38.950; -406.000; -400.000
226.748;  -85.450; -836.000; -733.000
226.892;  -21.575; -227.000; -181.000
227.036;  -53.025; -537.000; -447.000
227.180;  -56.925; -551.000; -375.000
227.324;  -59.850; -561.000; -580.000
227.468; -111.075; -819.000; -717.000
227.612;    3.325;  242.000;  -28.000
227.756;  -98.000; -845.000; -698.000
227.900;   30.025;  342.000;  441.000
228.044;  -57.900; -509.000; -290.000
228.188;   47.050;  448.000;  568.000
228.332;  -85.750; -546.000; -472.000
228.476;  -29.625; -223.000; -149.000
228.620;  -32.275; -210.000; -150.000
228.764;   58.250;  431.000;  349.000
228.908;  -22.325; -155.000;   30.000
229.052;  -67.700; -615.000; -528.000
229.195;  -21.575; -172.000;   13.000
229.339;  -22.550; -235.000; -305.000
229.483;  -17.125;    5.000; -162.000
229.627;  -17.500; -156.000;  139.000
229.771;  -50.175; -218.000; -294.000
229.915;    7.525;  230.000;   79.000
230.059;  -86.700; -648.000; -663.000
230.202;  -37.750; -370.000; -317.000
230.346;  -19.425; -107.000;  107.000
230.490;  -70.700; -489.000; -521.000
230.634; -100.450; -736.000; -553.000
230.777;   64.825;  478.000;  509.000
230.921;  -66.400; -450.000; -359.000
231.065;  -45.075; -246.000; -286.000
231.209;   24.275;  261.000;  265.000
231.352;   20.375;   54.000;   40.000
231.496;    9.825;  568.000;  188.000
231.640;  -87.700; -693.000; -621.000
231.783;   54.525;  546.000;  525.000
231.927;  -46.375; -294.000; -365.000
232.071; -112.700; -962.000; -736.000
232.214;  -95.650; -980.000; -764.000
232.358;  -99.025; -683.000; -599.000
232.502;   11.350;  -19.000;    7.000
232.645; -123.425;-1090.000; -927.000
232.789;  -27.750; -257.000; -218.000
232.933;  -40.675; -407.000; -224.000
233.076; -119.725;-1038.000; -897.000
233.220; -105.600; -752.000; -777.000
233.363;  -68.450; -669.000; -477.000
233.507;   45.400;  371.000;  129.000
233.650; -111.725; -764.000; -834.000
233.794;   40.950;  438.000;  461.000
233.938;  -58.425; -530.000; -362.000
234.081;  -17.350;  -93.000;   31.000
234.225;  -60.300; -631.000; -539.000
234.368; -101.650; -773.000; -723.000
234.512;  -35.450; -385.000; -299.000
234.655;  -79.850; -582.000; -555.000
234.798;  -63.450; -493.000; -466.000
234.942; -122.400; -884.000;-1002.000
235.085;  -61.175; -651.000; -443.000
235.229;  -67.350; -405.000; -410.000
235.372;  -48.350; -247.000; -191.000
235.516;  -59.550; -397.000; -321.000
235.659;   19.775;   92.000;  121.000
235.802;   -5.925;  -38.000;  -22.000
235.946;   14.950;  335.000;  215.000
236.089;   14.975;  126.000;  250.000
236.233;   37.925;  275.000;  298.000
236.376;  -42.300; -235.000; -378.000
236.519;  -50.850; -297.000; -319.000
236.663;  -24.225; -215.000; -117.000
236.806; -132.150;-1029.000; -999.000
236.949;   60.800;  543.000;  431.000
237.092;   51.850;  412.000;  391.000
237.236;  -81.575; -589.000; -502.000
237.379;   50.525;  352.000;  428.000
237.522; -117.825; -879.000; -768.000
237.666;  -28.025; -271.000;   18.000
237.809; -124.000; -851.000; -823.000
237.952;   21.175;  469.000;  271.000
238.095;  -64.750; -447.000; -442.000
238.238;   70.400;  688.000;  700.000
238.382;   -5.550;  166.000;  103.000
238.525;  -70.925; -598.000; -511.000
238.668; -137.575;-1060.000; -985.000
238.811;  -77.000; -638.000; -643.000
238.954;  -58.275; -483.000; -334.000
239.097;   77.025;  617.000;  664.000
239.241;   23.900;  394.000;  326.000
239.384;  -39.625; -254.000; -214.000
239.527;  -64.100; -424.000; -224.000
239.670; -137.250; -994.000;-1091.000
239.813;  -87.400; -696.000; -658.000
239.956;   60.175;  579.000;  473.000
240.099;  -91.000; -778.000; -725.000
240.242;   46.750;  428.000;  432.000
240.385;   42.075;  466.000;  450.000
240.528;  -71.250; -706.000; -473.000
240.671;   17.075;  189.000;  134.000
240.814;  -42.825; -441.000; -158.000
240.957;  -94.275; -767.000; -578.000
241.100;  -87.375; -779.000; -755.000
241.243; -134.525;-1234.000; -893.000
241.386;  -60.725; -508.000; -379.000
241.529;  -82.325; -735.000; -547.000
241.672;  -55.450; -566.000; -495.000
241.815; -109.875; -832.000; -808.000
241.958;  -29.775; -125.000; -182.000
242.101;  -77.000; -545.000; -390.000
242.244;  -38.825; -270.000; -325.000
242.387;  -38.350; -304.000; -246.000
242.530;   45.825;  470.000;  134.000
242.673;  -51.075; -381.000; -309.000
242.815; -102.875; -925.000; -899.000
242.958;  -65.825; -482.000; -381.000
243.101;   18.100;  132.000;  187.000
243.244;  -74.700; -564.000; -521.000
243.387;  -50.675; -313.000; -316.000
243.530;  -96.850; -657.000; -674.000
243.672;   -4.675;   43.000;  -92.000
243.815;  -50.625; -355.000; -283.000
243.958;   -5.475;   98.000;  -26.000
244.101;  -16.125;   59.000;  -16.000
244.243;  -19.375;  -47.000;  101.000
244.386;  -96.800; -761.000; -630.000
244.529;  -37.875; -132.000; -139.000
244.672; -145.250;-1154.000; -951.000
244.814; -100.900; -621.000; -794.000
244.957;  -35.700; -380.000; -304.000
245.100;  -82.225; -489.000; -489.000
245.242;  -56.150; -387.000; -374.000
245.385;  -11.575;  -59.000;  -39.000
245.528; -115.675; -871.000; -705.000
245.670;   71.250;  612.000;  634.000
245.813;  -71.500; -599.000; -547.000
245.956;  -41.900; -324.000; -275.000
246.098;  -66.250; -508.000; -650.000
246.241;    1.300;  194.000;   48.000
246.383;  -21.225; -119.000;  -73.000
246.526;  -83.675; -454.000; -525.000
246.669; -114.300; -889.000; -780.000
246.811;    1.850;  172.000;   -1.000
246.954;  -62.850; -512.000; -426.000
247.096;  -27.300;  -84.000;   -6.000
247.239;  -73.450; -482.000; -445.000
247.381;  -68.175; -647.000; -488.000
247.524;   68.875;  645.000;  679.000
247.666;   -1.525;   58.000;   11.000
247.809; -113.825; -887.000; -691.000
247.951;  -12.875;  -75.000;  138.000
248.094;   19.875;  432.000;  308.000
248.236; -151.650;-1262.000;-1238.000
248.378;  -46.900; -356.000;  -81.000
248.521;  -55.250; -334.000; -337.000
248.663;  -46.600; -236.000; -267.000
248.806;  -33.875; -300.000; -266.000
248.948; -128.075; -886.000; -763.000
249.090;  -62.750; -428.000; -398.000
249.233;  -76.750; -344.000; -381.000
249.375;  -60.575; -474.000; -451.000
249.518;  -30.425;  -83.000; -133.000
249.660;  -18.900; -103.000;    3.000
249.802; -172.050;-1303.000;-1189.000
249.945;  -87.500; -612.000; -540.000
250.087; -126.175; -834.000; -768.000
250.229;  -71.225; -362.000; -480.000
250.371;  -72.150; -494.000; -439.000
250.514;  -62.100; -310.000; -244.000
250.656;  -67.875;   69.000;  102.000
250.798; -129.100; -849.000; -800.000
250.940;  -71.500; -322.000; -322.000
251.083;  -23.725; -335.000; -111.000
251.225;   52.500;  338.000;  310.000
251.367;  -43.550; -274.000; -373.000
251.509;  -38.375; -265.000; -210.000
251.651;  -89.800; -731.000; -671.000
251.794;   50.900;  538.000;  632.000
251.936; -105.950; -821.000; -747.000
252.078;  -74.025; -540.000; -461.000
252.220;  -76.225; -645.000; -477.000
252.362;   36.225;  344.000;  462.000
252.504;  -87.825; -677.000; -584.000
252.646; -114.175; -875.000; -722.000
252.788;  -20.775;   14.000; -128.000
252.931;  -51.475; -257.000; -253.000
253.073;  -61.450; -376.000; -317.000
253.215;  -13.525;  141.000;  122.000
253.357;  -21.900;   82.000; -153.000
253.499;  -55.350; -374.000; -234.000
253.641;  -92.750; -749.000; -594.000
253.783;  -85.450; -609.000; -527.000
253.925;  -88.625; -586.000; -591.000
254.067; -113.400; -744.000; -667.000
254.209;  -47.575; -391.000; -259.000
254.351; -128.250; -865.000; -883.000
254.493;  -62.525; -441.000; -417.000
254.635; -128.000; -936.000; -818.000
254.777; -102.125; -752.000; -687.000
254.918;  -54.400; -512.000; -430.000
255.060;  -73.450; -551.000; -395.000
255.202;  -67.675; -473.000; -261.000
255.344;  -73.250; -658.000; -455.000
255.486;  -69.175; -471.000; -406.000
255.628; -110.375; -780.000; -781.000
255.770;  -93.600; -676.000; -536.000
255.912;  -58.625; -559.000; -468.000
256.053;  -86.300; -730.000; -508.000
256.195;  133.550; 1008.000;  903.000
256.337;  -94.500; -861.000; -595.000
256.479;   62.500;  532.000;  416.000
256.621;  -53.250; -394.000; -212.000
256.762;  -93.300; -789.000; -742.000
256.904;   50.250;  485.000;  487.000
257.046;  -48.650; -381.000; -271.000
257.188;  -53.500; -351.000; -264.000
257.329;  -66.750; -525.000; -464.000
257.471; -117.875; -939.000; -807.000
257.613;  -77.200; -584.000; -498.000
257.755; -143.025;-1073.000; -982.000
257.896;   18.050;  286.000;  392.000
258.038;  -74.175; -403.000; -352.000
258.180;  -40.625; -354.000; -279.000
258.321;  -94.350; -581.000; -457.000
258.463;  -25.325;  -71.000;  133.000
258.605;  -91.425; -562.000; -570.000
258.746; -107.275; -886.000; -772.000
258.888; -145.800;-1026.000;-1020.000
259.029;    7.425;  121.000;   -8.000
259.171;  -88.525; -614.000; -550.000
259.313;  -15.175;  -49.000;  -47.000
259.454;  -81.875; -536.000; -414.000
259.596;  -71.625; -483.000; -390.000
259.737;  -74.700; -590.000; -474.000
259.879;   27.925;  217.000;  311.000
260.020;   68.250;  901.000;  636.000
260.162;  -45.975; -146.000; -253.000
260.303; -115.800; -768.000; -687.000
260.445;  -79.375; -609.000; -613.000
260.586;    1.375;  392.000;  157.000
260.728;  -46.625; -360.000; -248.000
260.869;  -68.625; -350.000; -343.000
261.011;   68.600;  706.000;  537.000
261.152;  -54.325; -479.000; -319.000
261.293;  -75.475; -576.000; -595.000
261.435;  -41.650; -219.000; -184.000
261.576;  -62.575; -455.000; -325.000
261.718;   35.800;  420.000;  470.000
261.859; -126.950; -940.000; -949.000
262.000; -130.925; -951.000;-1016.000
262.142;  -22.075;  -52.000;  -60.000
262.283; -100.250; -808.000; -691.000
262.424;  -97.450; -666.000; -625.000
262.566; -151.450;-1161.000; -983.000
262.707; -117.325; -840.000; -830.000
262.848; -118.625; -769.000; -726.000
262.990;  -54.075; -362.000; -345.000
263.131;   59.775;  650.000;  681.000
263.272;  -17.800;  -61.000;  -41.000
263.413;  -92.575; -589.000; -561.000
263.555;  -58.350; -669.000; -143.000
263.696;  -62.300; -550.000; -641.000
263.837;  -53.450; -449.000; -551.000
263.978;    7.700;   -5.000;  -77.000
264.119;  -49.600; -283.000; -264.000
264.261; -113.150; -847.000; -630.000
264.402;   -2.475;   33.000;   40.000
264.543;  -73.000; -509.000; -524.000
264.684;  -10.775;   61.000;  -50.000
264.825;  -76.125; -816.000; -538.000
264.966;  -17.675;  -84.000;  -67.000
265.107; -110.650; -646.000; -670.000
265.248; -118.600; -825.000; -812.000
265.390;   -7.250;  152.000;   -9.000
265.531;  -34.350; -238.000; -107.000
265.672;  -89.625; -557.000; -630.000
265.813;   55.650;  563.000;  439.000
265.954; -136.325; -959.000; -940.000
266.095;  -18.200; -372.000; -322.000
266.236; -100.700; -686.000; -548.000
266.377;  -53.300; -243.000; -297.000
266.518;  -69.500; -619.000; -547.000
266.659;   11.450;  170.000;  268.000
266.800;  -10.450;   83.000;   85.000
266.941;  -73.250; -487.000; -478.000
267.082;   21.100;  354.000;   99.000
267.223;  -61.825; -344.000; -273.000
267.364; -116.500; -892.000; -686.000
267.504;  -31.200;    3.000;  135.000
267.645;   -3.000;  160.000;   67.000
267.786;  -57.050; -147.000;  -86.000
267.927;  -71.900; -473.000; -379.000
268.068;  -26.050; -186.000;  -61.000
268.209;  -56.025; -175.000; -413.000
268.350;  -65.100; -388.000; -532.000
268.490;  -98.175; -648.000; -521.000
268.631;   19.875;  127.000;  225.000
268.772; -107.125; -874.000; -647.000
268.913;  -68.675; -328.000; -476.000
269.054;  -20.575; -117.000;   12.000
269.194;  -47.500; -418.000; -402.000
269.335; -143.200;-1137.000;-1074.000
269.476;  -13.800;   33.000;  -35.000
269.617;  -57.600; -347.000; -392.000
269.757;  -91.725; -713.000; -646.000
269.898;  -99.300; -856.000; -613.000
270.039;  -76.525; -415.000; -405.000
270.180; -137.750; -952.000; -816.000
270.320;  -42.450; -190.000; -250.000
270.461;  -45.800; -277.000; -249.000
270.602;  -21.575; -186.000; -156.000
270.742; -129.575; -868.000; -943.000
270.883;  -61.275; -442.000; -390.000
271.023;  -55.450; -358.000; -357.000
271.164;  -83.475; -607.000; -528.000
271.305;  -99.325; -666.000; -654.000
271.445;  -93.275; -722.000; -683.000
271.586;  -80.525; -462.000; -283.000
271.726;  -58.975; -397.000; -322.000
271.867;  -88.925; -594.000; -534.000
272.008;  -34.925; -473.000; -285.000
272.148;   27.400;  462.000;  468.000
272.289;  -15.750; -113.000; -181.000
272.429;  -14.875;   19.000;  185.000
272.570; -116.050; -633.000; -737.000
272.710; -121.700; -825.000; -775.000
272.851;  -26.450;  113.000; -130.000
272.991; -159.150;-1173.000;-1077.000
273.131;  -74.350; -419.000; -459.000
273.272;  -98.475; -683.000; -723.000
273.412;  -27.625; -143.000;  -31.000
273.553;  -78.225; -488.000; -507.000
273.693;   76.050;  913.000;  858.000
273.834; -132.475; -894.000; -692.000
273.974;  -94.150; -664.000; -615.000
274.114; -104.825; -772.000; -560.000
274.255;   18.575;  414.000;  373.000
274.395;  -40.250; -180.000; -125.000
274.535;    3.450;  199.000;  350.000
274.676;    4.350;  225.000;   94.000
274.816;   -2.425;  110.000;   34.000
274.956; -102.700; -624.000; -690.000
275.097; -136.875;-1014.000; -922.000
275.237; -126.375; -913.000; -803.000
275.377; -106.600; -778.000; -689.000
275.517; -142.000; -878.000; -937.000
275.658;  -93.325; -590.000; -555.000
275.798;  -92.900; -606.000; -413.000
275.938;    6.000;  215.000;  323.000
276.078;  -76.700; -626.000; -395.000
276.218;   -7.325;   99.000;  104.000
276.359; -145.375;-1026.000;-1024.000
276.499;  -81.500; -605.000; -446.000
276.639;  -38.125; -305.000; -151.000
276.779;  -60.850; -475.000; -357.000
276.919; -104.950; -783.000; -624.000
277.059;  -48.750; -261.000; -212.000
277.199;  -55.625; -357.000; -259.000
277.340;   11.475;  287.000;  175.000
277.480; -111.500; -840.000; -693.000
277.620;    8.150;  192.000;   16.000
277.760; -173.975;-1533.000;-1294.000
277.900;  -15.150;  113.000;   33.000
278.040;   -4.500;  137.000;  159.000
278.180;   13.050;  270.000;  170.000
278.320;  -27.000;   21.000;   56.000
278.460;  -67.475; -443.000; -469.000
278.600;  -95.975; -708.000; -598.000
278.740;   45.525;  448.000;  224.000
278.880; -133.450; -768.000; -791.000
279.020;  -53.075; -194.000; -144.000
279.160;  -97.075; -672.000; -595.000
279.300; -121.400; -926.000; -873.000
279.440;  -97.175; -709.000; -622.000
279.579; -133.375;-1014.000; -929.000
279.719;  -82.350; -410.000; -394.000
279.859;   -9.000;   -4.000;   41.000
279.999;  -32.550; -208.000;  101.000
280.139;  -58.700; -435.000; -387.000
280.279; -108.525; -708.000; -745.000
280.419;  -36.000; -229.000; -147.000
280.559;  -53.600; -259.000; -180.000
280.698;  -99.750; -790.000; -639.000
280.838; -112.750; -778.000; -800.000
280.978; -108.625; -846.000; -790.000
281.118; -117.150; -811.000; -704.000
281.257;   -9.150;   24.000;    6.000
281.397; -151.200;-1094.000; -960.000
281.537; -108.950; -599.000; -712.000
281.677;  -34.475; -150.000; -101.000
281.816; -104.600; -700.000; -630.000
281.956;  -45.325; -193.000; -257.000
282.096;  -75.975; -539.000; -396.000
282.235;  -94.600; -672.000; -638.000
282.375;  -57.125; -243.000;  -98.000
282.515; -114.100; -715.000; -707.000
282.654;  -15.625;   29.000;  106.000
282.794;    3.700;  388.000;  244.000
282.934;  -61.550; -530.000; -491.000
283.073; -144.825;-1030.000; -857.000
283.213;  -62.625; -460.000; -467.000
283.353;  -76.225; -408.000; -349.000
283.492;  -46.275; -264.000; -296.000
283.632;  -42.650; -254.000; -168.000
283.771; -103.500; -859.000; -730.000
283.911;  -61.000; -369.000; -260.000
284.050; -112.450; -794.000; -748.000
284.190; -166.600;-1229.000;-1096.000
284.329; -160.975;-1055.000; -964.000
284.469;  -93.825; -516.000; -591.000
284.608;  -71.975; -559.000; -598.000
284.748;  -92.675; -614.000; -570.000
284.887;  -21.525;  -87.000;  -20.000
285.027; -126.625; -844.000; -892.000
285.166;  -43.325; -192.000; -249.000
285.306;  -37.600; -116.000;  -33.000
285.445;  -59.825; -229.000; -343.000
285.584; -101.125; -630.000; -494.000
285.724;  -59.250; -282.000; -322.000
285.863; -114.475; -857.000; -507.000
286.002;  -70.775; -366.000; -276.000
286.142; -105.350; -715.000; -622.000
286.281;  -68.850; -525.000; -493.000
286.420;  -91.175; -554.000; -417.000
286.560;   65.675;  653.000;  623.000
286.699; -138.325; -958.000; -912.000
286.838;  -88.700; -590.000; -591.000
286.978;  -95.425; -533.000; -537.000
287.117; -141.575;-1085.000; -950.000
287.256;  -51.800; -228.000; -211.000
287.395;  -71.950; -197.000; -378.000
287.535;  -63.825; -370.000; -298.000
287.674;  -88.800; -509.000; -484.000
287.813;   57.900;  661.000;  533.000
287.952; -128.925;-1010.000; -871.000
288.091; -150.900;-1049.000; -915.000
288.231;   -1.625;   13.000;   15.000
288.370; -170.325;-1217.000;-1200.000
288.509;  -90.925; -728.000; -645.000
288.648;  -91.850; -770.000; -548.000
288.787;  -43.575; -243.000;  -87.000
288.926;  -83.150; -454.000; -475.000
289.065;   79.575;  859.000;  672.000
289.204;  -56.350; -377.000; -217.000
289.344; -100.950; -791.000; -690.000
289.483;   -4.200;  416.000;  304.000
289.622;  -38.600; -291.000; -149.000
289.761;  -31.175; -309.000; -166.000
289.900; -114.150; -785.000; -626.000
290.039;  -24.850;  -12.000;  -95.000
290.178;  -46.575; -274.000; -180.000
290.317;  -87.650; -618.000; -479.000
290.456;  -75.600; -463.000; -451.000
290.595; -133.150; -961.000; -833.000
290.734; -133.425; -904.000; -891.000
290.873;  -69.150; -456.000; -420.000
291.011; -110.825; -833.000; -843.000
291.150; -114.450; -770.000; -682.000
291.289;  -49.750; -343.000; -110.000
291.428; -103.850; -599.000; -480.000
291.567;  -59.700; -370.000; -442.000
291.706;  -20.575;  109.000;  154.000
291.845;  -84.425; -597.000; -505.000
291.984; -166.075;-1234.000;-1061.000
292.122;   41.000;  602.000;  582.000
292.261;   22.425;  620.000;  463.000
292.400;  -17.475; -144.000;  211.000
292.539; -134.625; -959.000; -813.000
292.678;  -52.325; -325.000; -300.000
292.816; -150.625;-1136.000; -965.000
292.955; -124.525; -844.000; -684.000
293.094;  -35.050; -173.000; -337.000
293.233;  -70.575; -556.000; -400.000
293.371;  -46.600; -225.000;  -84.000
293.510; -115.475; -866.000; -780.000
293.649; -152.225; -959.000; -924.000
293.787; -149.350;-1083.000;-1012.000
293.926;  -45.900; -113.000;  -32.000
294.065;  -61.350; -379.000; -290.000
294.203;   20.725;  298.000;  406.000
294.342;  -14.075;   74.000;  156.000
294.481; 5121.125;51180.000; -836.000
294.619;  -60.375; -425.000; -582.000
294.758; -146.575;-1230.000;-1137.000
294.896;  -23.150; -125.000;    5.000
295.035; -145.325;-1040.000;-1006.000
295.174; -145.200;-1082.000; -954.000
295.312;  -53.700; -323.000; -203.000
295.451;  -65.325; -307.000; -428.000
295.589;  -90.125; -389.000; -518.000
295.728;   -8.575; -292.000; -165.000
295.866;  -24.050;  -36.000;  -51.000
296.005;  -88.975; -584.000; -341.000
296.143;  -96.525; -558.000; -596.000
296.282; -127.825; -957.000; -881.000
296.420; -102.675; -657.000; -557.000
296.559; -113.650; -892.000; -633.000
296.697; -122.400; -847.000; -665.000
296.835; -153.375;-1141.000;-1002.000
296.974;   -9.325;  -23.000;   39.000
297.112;  -78.100; -443.000; -504.000
297.251; -120.025; -815.000; -755.000
297.389;  -75.650; -576.000; -438.000
297.527;  -32.475; -145.000;  -83.000
297.666;  -90.525; -486.000; -438.000
297.804;  -69.650; -404.000; -264.000
297.942;  -24.600; -136.000; -161.000
298.081;  -34.400; -183.000;   63.000
298.219;  -40.250;  -17.000;  -19.000
298.357;  -61.300; -144.000;  -71.000
298.495; -133.075; -810.000; -812.000
298.634;   -6.075;  245.000;  219.000
298.772;  -54.900; -220.000; -338.000
298.910;  -71.675; -309.000; -182.000
299.048;  -45.625; -130.000; -153.000
299.187;  -47.300; -350.000; -250.000
299.325;  -19.950;   52.000;  122.000
299.463;  -76.050; -389.000; -299.000
299.601;  -59.300; -327.000; -271.000
299.739; -134.925; -908.000; -883.000
299.877; -105.275; -791.000; -703.000
300.016; -144.825;-1095.000; -935.000
300.154;  -20.625;  -19.000; -161.000
300.292;  -82.000; -428.000; -348.000
300.430;  -69.850; -408.000; -291.000
300.568; -146.375; -940.000; -874.000
300.706;  -81.825; -366.000; -469.000
300.844; -169.050;-1108.000; -979.000
300.982;   15.600;  246.000;  282.000
301.120; -143.475; -965.000; -866.000
301.258; -107.275; -812.000; -705.000
301.396;   -2.550;  104.000;  -41.000
301.534;  -69.950; -218.000; -293.000
301.672;  -90.475; -664.000; -521.000
301.810; -106.975; -613.000; -545.000
301.948;  -10.300;   53.000;  149.000
302.086;  -46.925; -250.000;  -32.000
302.224; -101.950; -610.000; -585.000
302.362;  -99.400; -558.000; -622.000
302.500; -129.475; -923.000; -893.000
302.638;  -10.625;  128.000;  245.000
302.776;  -59.675; -352.000; -408.000
302.913;   27.050;  447.000;  236.000
303.051;  -53.325;  -86.000;  -23.000
303.189;  -12.225;   90.000;  118.000
303.327;  -74.075; -341.000; -256.000
303.465;  -92.500; -832.000; -588.000
303.603; -121.100; -805.000; -604.000
303.740;   17.250;  417.000;  241.000
303.878; -118.500; -800.000; -759.000
304.016; -129.950; -915.000; -790.000
304.154; -166.600;-1123.000;-1152.000
304.291;  -83.050; -505.000; -554.000
304.429;  -10.150;  102.000;   74.000
304.567; -146.750; -908.000; -893.000
304.705;  -79.450; -408.000; -515.000
304.842; -104.950; -616.000; -540.000
304.980;  -20.350;  215.000;   35.000
305.118;  -62.025; -367.000; -365.000
305.255; -142.225; -945.000; -927.000
305.393;    6.025;  178.000;  239.000
305.531; -148.200;-1173.000; -956.000
305.668; -101.800; -663.000; -582.000
305.806;  -77.875; -358.000; -439.000
305.943; -100.450; -629.000; -637.000
306.081;  -63.050; -378.000; -267.000
306.219; -121.025; -863.000; -748.000
306.356;   -5.675;  158.000;   27.000
306.494;   50.800;  981.000;  761.000
306.631;  -31.925;  -11.000;  -55.000
306.769;  -49.550; -613.000; -485.000
306.906;  -63.150; -284.000; -258.000
307.044;  -83.375; -473.000; -488.000
307.181;  -75.450; -410.000; -332.000
307.319;   -3.325;  112.000;   87.000
307.456; -169.900;-1191.000;-1153.000
307.594; -132.275; -980.000; -727.000
307.731;  -37.550; -371.000; -164.000
307.868;  -20.625;  -15.000;   20.000
308.006; -150.700; -961.000; -847.000
308.143;  -98.350; -618.000; -330.000
308.281;  -42.775;  -37.000; -254.000
308.418; -101.400; -748.000; -640.000
308.555;  -86.675; -400.000; -250.000
308.693; -100.950; -577.000; -573.000
308.830; -118.500; -712.000; -657.000
308.967;  -32.125; -215.000;  -95.000
309.105;  -76.100; -507.000; -396.000
309.242;  -67.625; -468.000; -367.000
309.379; -103.825; -577.000; -655.000
309.517; -127.975; -936.000; -948.000
309.654; -128.950; -910.000; -734.000
309.791;  -97.100; -662.000; -580.000
309.928; -140.750; -977.000; -914.000
310.065;   46.425;  819.000;  697.000
310.203; -139.150; -825.000; -850.000
310.340;  -87.900; -465.000; -321.000
310.477;  -96.425; -412.000; -516.000
310.614;  -86.400; -383.000; -473.000
310.751;  -99.575; -427.000; -518.000
310.889;  -48.350;    1.000;   11.000
311.026; -157.425;-1161.000; -939.000
311.163;  -81.775; -386.000; -380.000
311.300; -104.800; -512.000; -479.000
311.437;  -88.275; -658.000; -619.000
311.574; -161.325;-1226.000; -985.000
311.711;  -88.450; -595.000; -433.000
311.848;  -62.400; -380.000; -388.000
311.985;   10.125;  270.000;   93.000
312.122; -137.600; -932.000; -762.000
312.259; -141.400; -941.000; -994.000
312.396; -101.800; -508.000; -551.000
312.533; -100.350; -812.000; -790.000
312.670; -162.375;-1070.000; -898.000
312.807;  -85.050; -352.000; -367.000
312.944; -108.125; -513.000; -611.000
313.081;  -61.250; -150.000; -415.000
313.218; -151.200;-1111.000; -867.000
313.355;  -86.675; -531.000; -449.000
313.492;  -80.750; -455.000; -292.000
313.629;   61.475;  815.000;  735.000
313.766; -170.275;-1176.000;-1008.000
313.902;  -26.950; -186.000;   21.000
314.039;  -65.625; -372.000; -289.000
314.176;   -0.275;  286.000;  192.000
314.313;  -95.750; -569.000; -473.000
314.450; -114.825; -788.000; -684.000
314.587;  -93.500; -468.000; -480.000
314.723;  -28.975;  -78.000;  130.000
314.860;  -10.375;  318.000;  332.000
314.997;   -9.525;  223.000;  142.000
315.134;  -87.600; -385.000; -368.000
315.270;  -87.025; -480.000; -496.000
315.407; -162.575;-1094.000; -967.000
315.544;  -93.625; -657.000; -538.000
315.681; -113.625; -681.000; -565.000
315.817;  -45.425; -133.000; -176.000
315.954;  -85.325; -613.000; -392.000
316.091; -146.050;-1045.000;-1023.000
316.227;  -42.900;  -71.000; -179.000
316.364;  -21.875;   23.000;    6.000
316.500;  -51.400; -113.000; -300.000
316.637;  -59.050; -181.000; -302.000
316.774; -101.700; -625.000; -358.000
316.910; -107.625; -598.000; -629.000
317.047;  -95.900; -487.000; -351.000
317.183;  -74.475; -435.000; -566.000
317.320;  -78.700; -367.000; -321.000
317.456; -121.475; -733.000; -805.000
317.593; -117.475; -598.000; -641.000
317.729;  -27.850;  168.000;  -67.000
317.866; -189.250;-1434.000;-1285.000
318.002; -111.350; -708.000; -948.000
318.139; -141.575; -883.000; -867.000
318.275; -137.625;-1003.000; -738.000
318.412;  -87.800; -517.000; -336.000
318.548; -114.800; -751.000; -720.000
318.685; -141.850; -985.000; -888.000
318.821; -127.475; -762.000; -735.000
318.957;  -48.750;   34.000;  -23.000
319.094;   15.800;  297.000;  154.000
319.230; -123.975; -756.000; -742.000
319.367;  -76.525; -471.000; -520.000
319.503;  -89.500; -538.000; -436.000
319.639; -135.975; -877.000; -793.000
319.775; -118.025; -750.000; -685.000
319.912;  -87.100; -424.000; -519.000
320.048; -179.150;-1184.000;-1184.000
320.184;  -12.250;   59.000;   70.000
320.321;  -78.525; -497.000; -467.000
320.457;   23.150;  475.000;  662.000
320.593;  -85.800; -375.000; -382.000
320.729; -123.325; -732.000; -734.000
320.866; -101.375; -577.000; -635.000
321.002; -128.150; -759.000; -809.000
321.138;  -69.375; -135.000; -211.000
321.274;  -35.850; -148.000; -115.000
321.410;  -93.150; -585.000; -353.000
321.546; -147.500;-1011.000; -911.000
321.683;    5.025;  400.000;  185.000
321.819;  -37.050;  -48.000; -117.000
321.955; -128.650; -743.000; -722.000
322.091;  -97.175; -585.000; -540.000
322.227;  -66.200; -382.000; -202.000
322.363;  -68.250; -320.000; -215.000
322.499;  -71.450; -343.000; -331.000
322.635;   37.575;  636.000;  443.000
322.771;  -49.150; -139.000;   12.000
322.907;   17.275;  129.000;  327.000
323.043;  -68.725; -115.000; -206.000
323.179;  -77.600; -394.000; -363.000
323.315;  -81.625; -401.000; -371.000
323.451;  -71.475; -328.000; -236.000
323.587;  -61.700;  -60.000;  -77.000
323.723; -105.125; -682.000; -601.000
323.859;  -47.675; -258.000;  -76.000
323.995;  -71.275; -467.000; -409.000
324.131; -140.450; -967.000; -892.000
324.267;  -59.750; -254.000; -276.000
324.402; -154.100; -960.000; -983.000
324.538;  -54.150; -279.000; -104.000
324.674;  -24.975;  164.000;   77.000
324.810;  -10.175;  226.000;  308.000
324.946;  -85.300; -810.000; -658.000
325.082;  -92.475; -568.000; -475.000
325.217;  -48.250;  -62.000;   16.000
325.353; -114.375; -764.000; -659.000
325.489; -111.025; -540.000; -506.000
325.625; -106.250; -579.000; -525.000
325.760;   -2.900;  517.000;  376.000
325.896;  -91.900; -515.000; -702.000
326.032;  -73.850; -403.000; -352.000
326.168;  -78.275; -462.000; -369.000
326.303;  -82.600; -352.000; -461.000
326.439;  -47.175; -336.000; -276.000
326.575;  -39.850; -190.000;  -29.000
326.710;  -53.175; -156.000;  -30.000
326.846;  -19.300;  146.000;  103.000
326.982; -117.300; -530.000; -548.000
327.117;  -85.975; -481.000; -442.000
327.253; -121.200; -745.000; -742.000
327.388; -152.175;-1137.000;-1153.000
327.524; -103.975; -811.000; -578.000
327.659;  -45.825;  -58.000;  -22.000
327.795;  -24.700;   69.000;   45.000
327.931; -113.350; -723.000; -499.000
328.066;  -67.525; -417.000; -276.000
328.202;  -35.225;   12.000; -129.000
328.337;   80.550;  957.000;  713.000
328.473;   11.750;  -12.000;  -74.000
328.608;  -42.725; -256.000; -267.000
328.743; -134.225; -799.000; -664.000
328.879;  -22.700;  214.000;  114.000
329.014;  -46.750; -102.000; -122.000
329.150;  -98.450; -358.000; -483.000
329.285;  -95.800; -465.000; -466.000
329.421;  -75.600; -548.000; -246.000
329.556;  -43.525;  -36.000;   85.000
329.691; -105.850; -633.000; -615.000
329.827;  -92.925; -626.000; -480.000
329.962;  -76.775;  131.000; -301.000
330.097;  -95.500; -673.000; -585.000
330.233;  -59.575; -410.000; -223.000
330.368; -134.275; -839.000; -628.000
330.503;  -36.225;    3.000;   98.000
330.638;  -31.625;  -93.000; -125.000
330.774;  -87.850; -609.000; -530.000
330.909;  -69.775; -434.000; -244.000
331.044; -116.225; -714.000; -708.000
331.179; -172.325;-1217.000;-1109.000
331.315;  -17.925;   77.000;   20.000
331.450;  -20.525;  157.000;  285.000
331.585; -122.125; -805.000; -706.000
331.720; -107.025; -510.000; -460.000
331.855;  -33.325;  -35.000; -102.000
331.990;  -32.975;   62.000;  138.000
332.126;  -35.000; -110.000;   71.000
332.261;  -74.100; -379.000; -265.000
332.396;  -64.475; -135.000; -242.000
332.531; -163.225;-1074.000;-1031.000
332.666;  -80.975; -519.000; -363.000
332.801; -114.925; -726.000; -807.000
332.936;  -42.575; -192.000; -122.000
333.071; -145.300; -870.000; -817.000
333.206;   -3.975;  307.000;  379.000
333.341;    4.500;  344.000;  418.000
333.476; -111.200; -627.000; -623.000
333.611;  -55.650; -251.000; -173.000
333.746;  -59.500; -381.000; -464.000
333.881; -145.250; -973.000; -935.000
334.016; -136.875; -936.000; -917.000
334.151; -147.425; -746.000; -702.000
334.286;   -6.875;  152.000;  186.000
334.421;  -45.300; -125.000; -178.000
334.556; -111.025; -611.000; -567.000
334.690; -109.500; -631.000; -577.000
334.825;   17.125;  381.000;   83.000
334.960;  -93.050; -285.000; -413.000
335.095;  -23.200;  135.000;  -91.000
335.230; -128.025; -722.000; -738.000
335.365; -157.575;-1084.000; -990.000
335.499; -167.775;-1108.000;-1037.000
335.634;  -28.600;    9.000;  534.000
335.769; -125.950; -755.000; -720.000
335.904; -108.375; -603.000; -561.000
336.038; -116.575; -735.000; -657.000
336.173; -184.125;-1206.000;-1194.000
336.308;  -71.325; -116.000; -189.000
336.443;  -81.875; -544.000; -634.000
336.577; -146.925; -936.000; -787.000
336.712;  -28.225;   -4.000;  -12.000
336.847; -119.250; -724.000; -607.000
336.981;  -75.600; -272.000; -208.000
337.116;   13.175;  615.000;  501.000
337.250;  -86.350; -434.000; -421.000
337.385;  -75.975; -297.000; -208.000
337.520; -117.475; -632.000; -603.000
337.654;  -65.825; -215.000; -126.000
337.789; -152.550; -989.000; -933.000
337.923;  -59.775; -104.000; -205.000
338.058; -125.675; -673.000; -738.000
338.192;  -97.650; -611.000; -488.000
338.327;  -52.300;  -18.000; -155.000
338.461; -117.525; -299.000; -469.000
338.596; -111.600; -780.000; -638.000
338.730; -137.725; -767.000; -803.000
338.865;  -47.475;  -46.000; -140.000
338.999; -152.025; -846.000; -702.000
339.134; -102.350; -634.000; -536.000
339.268; -123.700; -741.000; -603.000
339.403; -128.975; -740.000; -775.000
339.537; -140.550; -894.000; -820.000
339.671; -148.025; -829.000; -813.000
339.806; -100.075; -556.000; -512.000
339.940;  -54.500; -261.000; -235.000
340.074; -117.100; -685.000; -510.000
340.209;  -66.225; -351.000; -230.000
340.343; -109.725; -517.000; -573.000
340.477;   97.825;  998.000; 1036.000
340.612; -149.625;-1033.000; -900.000
340.746;  -79.550; -199.000; -243.000
340.880; -143.450; -924.000; -785.000
341.014;  -40.475;  -45.000; -154.000
341.149; -131.150; -756.000; -718.000
341.283; -128.200; -839.000; -754.000
341.417; -170.500;-1124.000; -938.000
341.551; -124.175; -768.000; -708.000
341.685; -115.225; -633.000; -611.000
341.820; -101.525; -562.000; -493.000
341.954;  -80.625; -218.000; -349.000
342.088; -150.450;-1102.000;-1019.000
342.222;   35.675;  565.000;  618.000
342.356;  -96.925; -395.000; -335.000
342.490; -135.300; -880.000; -841.000
342.624;  -76.250; -339.000; -242.000
342.758;  -77.850; -364.000; -312.000
342.892; -110.875; -710.000; -585.000
343.026;  -61.225;  -58.000; -116.000
343.160;  -69.625; -426.000; -376.000
343.294; -102.975; -474.000; -337.000
343.428; -105.350; -488.000; -448.000
343.562;  -46.500; -172.000;  -23.000
343.696;  -65.900; -385.000; -314.000
343.830;  -57.425; -362.000; -356.000
343.964;  -59.025; -231.000; -168.000
344.098;  -20.400;  199.000;   70.000
344.232;  -62.525; -266.000; -127.000
344.366; -113.975; -567.000; -453.000
344.500; -105.350; -665.000; -744.000
344.634;  -68.825; -324.000; -164.000
344.768;  -88.750; -531.000; -341.000
344.902;   -8.750;  278.000;  256.000
345.035;  -78.300; -556.000; -496.000
345.169; -157.250; -933.000; -656.000
345.303;  -86.875; -308.000; -482.000
345.437; -127.850; -826.000; -717.000
345.571; -103.450; -675.000; -594.000
345.704;  -85.575; -309.000; -532.000
345.838;  -65.950; -331.000; -284.000
345.972;  -99.675; -543.000; -495.000
346.106;  -35.400; -179.000; -190.000
346.239;  -67.800; -312.000; -243.000
346.373;  -75.300; -343.000; -302.000
346.507; -170.025; -950.000; -962.000
346.640;  -32.850;  -30.000;   13.000
346.774; -127.275; -650.000; -797.000
346.908;  -49.650; -138.000;  -11.000
347.041; -112.900; -646.000; -593.000
347.175;  -18.725;  259.000;   27.000
347.309; -128.600; -698.000; -628.000
347.442; -133.075; -883.000; -732.000
347.576;   40.950;  670.000;  668.000
347.709;  -59.000; -123.000;  -52.000
347.843; -142.000; -933.000; -825.000
347.976;    3.350;  235.000;  294.000
348.110; -190.900;-1268.000;-1186.000
348.243; -124.000; -679.000; -772.000
348.377;  -32.400;  -26.000;   60.000
348.510;   10.575;  403.000;  540.000
348.644;  -56.300;  -37.000; -159.000
348.777;  -34.375;  180.000;  191.000
348.911;  -81.925; -142.000; -112.000
349.044;   15.750;  471.000;  448.000
349.178; -178.950;-1069.000;-1006.000
349.311;  -12.300;  141.000;  255.000
349.444; -153.775; -927.000; -813.000
349.578;  -69.175; -347.000; -200.000
349.711; -146.775; -959.000; -862.000
349.845; -113.350; -661.000; -591.000
349.978; -176.750;-1224.000;-1137.000
350.111; -104.025; -546.000; -612.000
350.244; -124.850; -596.000; -700.000
350.378;  -77.550; -392.000; -393.000
350.511;  -82.875; -393.000; -426.000
350.644; -135.775; -808.000; -806.000
350.778;  -30.875;  168.000;  104.000
350.911;  -22.025;  134.000;  140.000
351.044; -117.600; -685.000; -615.000
351.177;  -63.725; -321.000; -281.000
351.310;  -36.100;    3.000; -131.000
351.444; -134.950; -888.000; -788.000
351.577;  -27.300;  140.000;   90.000
351.710;   43.050;  593.000;  417.000
351.843;  -56.800; -165.000;  -77.000
351.976;  -39.875;  149.000;  -79.000
352.109; -118.625; -621.000; -612.000
352.242;  -87.750; -464.000; -419.000
352.376; -112.675; -580.000; -636.000
352.509;  -78.850; -437.000; -356.000
352.642; -168.525; -654.000; -604.000
352.775;  -49.900; -141.000;  -98.000
352.908; -144.025; -933.000; -904.000
353.041; -125.775; -814.000; -824.000
353.174; -100.950; -551.000; -424.000
353.307; -137.425; -753.000; -764.000
353.440;    3.000;  541.000;  453.000
353.573; -158.200; -957.000;-1008.000
353.706; -135.375; -384.000; -558.000
353.839;  -77.475; -264.000; -220.000
353.971; -103.125; -657.000; -512.000
354.104; -139.525; -896.000; -835.000
354.237; -125.725; -627.000; -662.000
354.370; -122.875; -846.000; -879.000
354.503; -198.775;-1231.000;-1308.000
354.636;  -79.175; -529.000; -348.000
354.769; -149.000; -937.000; -860.000
354.902;  -70.650; -230.000; -139.000
355.034;  -55.825; -164.000; -220.000
355.167;  -63.925; -262.000; -162.000
355.300; -167.550;-1061.000; -880.000
355.433;  -38.250;  -71.000;  -14.000
355.565;  -87.775; -402.000; -384.000
355.698;  -90.400; -356.000; -296.000
355.831; -142.175; -882.000; -801.000
355.964;  -58.975; -285.000; -170.000
356.096; -148.800; -856.000; -843.000
356.229;  -96.875; -523.000; -530.000
356.362;  -79.425; -373.000; -266.000
356.494;  -55.025; -229.000; -162.000
356.627;   -6.900;  269.000;  377.000
356.760;  -15.350;  120.000;   53.000
356.892;  -78.225; -286.000; -601.000
357.025;    0.775;  403.000;  389.000
357.157;  -59.950; -167.000; -179.000
357.290; -137.525; -856.000; -713.000
357.423; -127.900; -667.000; -556.000
357.555;  -53.625; -217.000; -228.000
357.688;  -91.175; -483.000; -364.000
357.820; -141.250; -870.000; -877.000
357.953; -109.300; -563.000; -589.000
358.085; -124.850; -632.000; -612.000
358.218; -173.150;-1131.000; -932.000
358.350;  -42.000;  -58.000;  312.000
358.483; -196.500;-1300.000;-1187.000
358.615; -160.375;-1182.000;-1078.000
358.747; -198.825;-1187.000;-1058.000
358.880; -124.625; -810.000; -744.000
359.012;  -85.750; -376.000; -202.000
359.145;  -94.975; -480.000; -511.000
359.277; -171.200; -962.000; -913.000
359.409;    7.000;  536.000;  231.000
359.542; -141.125; -738.000; -688.000
359.674;  -35.800;   46.000;   13.000
359.806; -102.500; -565.000; -438.000
359.939;  -96.500; -617.000; -516.000
360.071; -117.350; -583.000; -579.000
360.203;  -92.575; -411.000; -364.000
360.335;  -20.775;  164.000;  -16.000
360.468;  -65.800; -249.000; -307.000
360.600;  -97.750; -547.000; -454.000
360.732; -112.875; -546.000; -423.000
360.864; -172.375;-1216.000;-1044.000
360.996;  -81.250; -516.000; -554.000
361.129; -106.750; -389.000; -598.000
361.261;  -44.825;  110.000; -113.000
361.393;  -66.050; -252.000; -214.000
361.525;  -20.700;   94.000;  244.000
361.657; -149.975; -821.000; -703.000
361.789;  -48.950; -139.000; -155.000
361.921; -125.025; -642.000; -593.000
362.053;   22.925;  524.000;  541.000
362.185;  -21.625;  288.000;   72.000
362.318; -136.275; -709.000; -705.000
362.450;    8.200;  294.000;  444.000
362.582; -163.525; -913.000; -870.000
362.714;  -84.900; -353.000; -332.000
362.846; -101.550; -606.000; -490.000
362.978; -149.650; -941.000; -811.000
363.109;  -71.200; -161.000; -260.000
363.241; -132.725; -739.000; -749.000
363.373; -111.525; -649.000; -564.000
363.505;  -47.525; -186.000;  -91.000
363.637; -118.825; -787.000; -601.000
363.769; -183.325;-1067.000;-1080.000
363.901; -106.225; -596.000; -654.000
364.033; -184.175;-1103.000;-1062.000
364.165;  -54.225; -283.000; -283.000
364.296;  -74.150; -316.000; -177.000
364.428; -191.775;-1344.000;-1220.000
364.560; -120.750; -679.000; -661.000
364.692; -121.725; -738.000; -835.000
364.824;  -99.875; -588.000; -456.000
364.955;  -80.775; -402.000; -564.000
365.087; -171.175;-1097.000; -852.000
365.219; -128.025; -686.000; -816.000
365.351; -121.525; -526.000; -572.000
365.482;  -17.925;  300.000;  240.000
365.614;  -85.475; -402.000; -314.000
365.746; -120.875; -729.000; -752.000
365.877; -136.625; -706.000; -672.000
366.009;  -49.575;  -35.000;  -62.000
366.141; -202.625;-1249.000;-1134.000
366.272; -130.500; -803.000; -719.000
366.404; -140.525;-1005.000; -874.000
366.535;  -50.475; -139.000;  -12.000
366.667; -122.600; -644.000; -649.000
366.799;    2.375;  353.000;  203.000
366.930; -167.150; -862.000; -996.000
367.062; -108.575; -639.000; -613.000
367.193; -152.725; -872.000; -842.000
367.325; -113.525; -580.000; -684.000
367.456;  -75.675; -246.000;   31.000
367.588;  -87.400; -371.000; -318.000
367.719;  -45.050;  -44.000;  -45.000
367.851;  -80.450; -222.000; -241.000
367.982; -152.200; -875.000; -732.000
368.113;  -84.825; -475.000; -358.000
368.245; -163.350; -960.000; -841.000
368.376;  -71.925; -254.000; -302.000
368.508;  -84.200; -188.000; -263.000
368.639; -167.325;-1166.000;-1034.000
368.770; -121.700; -670.000; -589.000
368.902; -143.125; -836.000; -926.000
369.033; -152.800; -906.000; -855.000
369.164; -127.950; -720.000; -653.000
369.296; -124.650; -452.000; -601.000
369.427;  -52.775; -209.000; -144.000
369.558;  -92.150; -593.000; -377.000
369.689; -123.425; -721.000; -569.000
369.821; -157.675; -951.000; -845.000
369.952;  -41.050;   42.000; -108.000
370.083;  -74.300; -229.000; -108.000
370.214; -118.400; -735.000; -650.000
370.345;  -36.750;   65.000;   81.000
370.477; -134.750; -810.000; -790.000
370.608;  -75.375; -328.000; -264.000
370.739; -199.250;-1233.000;-1292.000
370.870; -150.400;-1102.000; -923.000
371.001;  -86.200; -378.000; -467.000
371.132; -124.600; -754.000; -735.000
371.263;  -47.400;  -42.000; -148.000
371.394; -145.125; -841.000; -748.000
371.525;   -1.350;  345.000;  225.000
371.657; -142.625; -808.000; -670.000
371.788;   -7.650;  103.000;  199.000
371.919;  -81.575; -384.000; -304.000
372.050;  -47.775;  -91.000; -156.000
372.181;  -64.275; -188.000; -294.000
372.311;  -54.850;   42.000; -127.000
372.442;  -89.000; -457.000; -451.000
372.573;  -78.600; -444.000; -340.000
372.704; -159.200;-1008.000; -980.000
372.835;  -85.825; -228.000; -289.000
372.966; -133.225; -646.000; -554.000
373.097; -129.500; -575.000; -711.000
373.228; -117.450; -717.000; -542.000
373.359; -137.825; -824.000; -536.000
373.490; -147.075; -881.000; -727.000
373.620; -161.825;-1001.000; -803.000
373.751;  -98.650; -332.000; -396.000
373.882; -129.000; -663.000; -733.000
374.013;  -88.150; -449.000; -262.000
374.143; -123.025; -581.000; -659.000
374.274; -160.675; -987.000; -908.000
374.405;  -92.375; -388.000; -276.000
374.536; -100.575; -526.000; -387.000
374.666; -125.250; -759.000; -807.000
374.797; -142.475; -817.000; -868.000
374.928; -104.175; -710.000; -560.000
375.058; -116.775; -535.000; -500.000
375.189;  -46.050;  -59.000;  -93.000
375.320; -161.775; -928.000;-1034.000
375.450; -114.550; -625.000; -616.000
375.581; -109.450; -526.000; -436.000
375.712;  -80.900; -574.000; -250.000
375.842; -104.675; -438.000; -415.000
375.973; -117.475; -554.000; -513.000
376.103; -126.825; -665.000; -648.000
376.234; -112.775; -531.000; -552.000
376.364; -155.775; -944.000; -867.000
376.495;   56.900;  925.000;  529.000
376.625; -102.075; -472.000; -485.000
376.756; -124.850; -709.000; -678.000
376.886; -189.375;-1178.000;-1026.000
377.017; -169.100;-1048.000;-1061.000
377.147; -140.125; -786.000; -782.000
377.278;  -17.550;  174.000;  228.000
377.408; -142.600; -801.000; -815.000
377.538; -132.000; -707.000; -693.000
377.669; -117.900; -537.000; -613.000
377.799; -140.875; -645.000; -635.000
377.929; -107.525; -610.000; -428.000
378.060; -150.050; -781.000; -847.000
378.190; -141.850; -726.000; -531.000
378.320;  -96.550; -401.000; -406.000
378.451;  -43.000; -131.000;  -22.000
378.581;  -57.050;  -67.000; -110.000
378.711;   53.425; 1035.000;  866.000
378.841; -109.550; -533.000; -675.000
378.972; -157.675; -871.000; -751.000
379.102; -138.725; -652.000; -579.000
379.232;  -77.100; -126.000;  -73.000
379.362; -160.350;-1001.000; -885.000
379.492; -108.000; -373.000; -424.000
379.623;  -19.200;    0.000;  111.000
379.753; -175.475;-1107.000; -974.000
379.883;  -36.050;   59.000;  156.000
380.013; -176.725;-1081.000;-1017.000
380.143; -172.500;-1097.000;-1056.000
380.273; -167.650; -985.000; -861.000
380.403;  -74.350; -344.000; -257.000
380.533; -137.650; -651.000; -664.000
380.663;  -19.050;  173.000;  128.000
380.793; -174.925;-1027.000;-1074.000
380.923;  -70.725; -103.000;  -34.000
381.053; -131.675; -613.000; -623.000
381.183;  -75.850; -106.000; -248.000
381.313; -104.350; -656.000; -470.000
381.443; -119.375; -692.000; -473.000
381.573; -106.475; -402.000; -409.000
381.703; -189.575;-1249.000;-1095.000
381.833; -204.675;-1454.000;-1336.000
381.963;  -50.425; -134.000;  -87.000
382.093; -162.400; -925.000; -909.000
382.223; -128.100; -713.000; -602.000
382.353; -134.375; -801.000; -608.000
382.482; -179.075;-1091.000; -964.000
382.612; -128.275; -872.000; -644.000
382.742; -114.075; -695.000; -622.000
382.872; -113.575; -565.000; -551.000
383.002;  -42.050;  347.000; -132.000
383.131;  -86.850; -226.000; -160.000
383.261; -127.650; -706.000; -768.000
383.391; -113.650; -552.000; -377.000
383.521;    7.475;  451.000;  263.000
383.650; -170.125; -947.000; -904.000
383.780; -133.500; -783.000; -656.000
383.910;   46.625;  880.000;  802.000
384.039; -144.250; -794.000; -656.000
384.169; -193.225;-1205.000;-1017.000
384.299; -116.575; -650.000; -662.000
384.428; -136.125; -764.000; -680.000
384.558;  -83.800; -308.000; -275.000
384.687;  -90.100; -414.000; -334.000
384.817;  -28.525;   75.000;   -2.000
384.947;  -65.225; -234.000; -141.000
385.076;   70.600;  982.000;  912.000
385.206;    5.600;  369.000;  480.000
385.335; -105.700; -549.000; -417.000
385.465; -128.325; -655.000; -663.000
385.594;  -52.925;  -53.000;  -44.000
385.724; -157.900; -868.000; -838.000
385.853;  -80.550; -296.000; -270.000
385.982; -143.125; -743.000; -787.000
386.112; -160.750;-1052.000; -871.000
386.241;  -90.400; -307.000; -312.000
386.371;  -66.800; -174.000;  -87.000
386.500; -147.475; -825.000; -789.000
386.629; -141.425; -874.000; -817.000
386.759;  -53.500;  -43.000;   68.000
386.888;  -65.500; -170.000; -250.000
387.017; -129.025; -648.000; -620.000
387.147; -144.825; -771.000; -798.000
387.276; -110.225; -410.000; -397.000
387.405;  -89.300; -398.000; -342.000
387.535; -112.475; -452.000; -361.000
387.664; -123.175; -692.000; -620.000
387.793;  -75.425; -198.000; -113.000
387.922;  -15.775;  255.000;  200.000
388.052; -121.125; -576.000; -423.000
388.181; -103.100; -342.000; -472.000
388.310; -137.925; -889.000; -710.000
388.439; -146.300; -749.000; -742.000
388.568;  -25.500;  365.000;  244.000
388.697; -124.050; -756.000; -653.000
388.826; -136.150; -768.000; -666.000
388.956;  -90.575; -285.000; -307.000
389.085;  -88.600; -347.000; -287.000
389.214; -150.950; -842.000; -872.000
389.343; -120.025; -645.000; -413.000
389.472;  -18.950;  126.000;  149.000
389.601;  -47.700;   91.000;    0.000
389.730; -113.500; -568.000; -687.000
389.859;  -18.350;  226.000;   46.000
389.988;  -90.200; -423.000; -408.000
390.117;  -85.775; -168.000; -146.000
390.246;  -91.350; -331.000; -320.000
390.375; -125.650; -673.000; -626.000
390.504; -119.175; -703.000; -621.000
390.633; -149.225; -672.000; -726.000
390.761; -126.525; -732.000; -645.000
390.890;  -61.100;   -4.000; -130.000
391.019;  -97.100; -421.000; -441.000
391.148; -163.350; -826.000; -855.000
391.277; -122.100; -576.000; -493.000
391.406; -146.000; -821.000; -805.000
391.534;  -30.050;  574.000; -301.000
391.663; -117.900; -583.000; -645.000
391.792; -117.550; -673.000; -701.000
391.921;  -54.650;   -3.000;   15.000
392.050;  -88.725; -287.000; -228.000
392.178; -189.950;-1206.000;-1061.000
392.307; -140.125; -758.000; -712.000
392.436; -133.350; -427.000; -641.000
392.564;  -40.600;  166.000;   -6.000
392.693; -146.700; -860.000; -682.000
392.822; -113.325; -529.000; -534.000
392.950; -134.675; -880.000; -714.000
393.079;  -93.675; -188.000; -328.000
393.208; -120.900; -488.000; -511.000
393.336;  -71.225; -170.000; -145.000
393.465;  -75.125; -317.000; -199.000
393.593;  -31.500;   62.000;   79.000
393.722; -175.325;-1121.000; -916.000
393.850;  -65.950; -188.000;  -61.000
393.979; -167.575; -926.000; -805.000
394.107; -124.125; -517.000; -537.000
394.236; -117.100; -570.000; -507.000
394.364;   -7.325;  383.000;  206.000
394.493; -147.000; -911.000; -767.000
394.621; -168.725; -955.000; -916.000
394.750; -159.400; -873.000; -923.000
394.878;  -68.700; -247.000; -149.000
395.007; -158.500; -721.000; -807.000
395.135; -136.900; -790.000; -721.000
395.263; -183.975;-1038.000;-1040.000
395.392;  -50.075;  -25.000; -107.000
395.520; -158.875; -818.000; -679.000
395.648; -153.400; -865.000; -915.000
395.777; -104.025; -366.000; -405.000
395.905; -114.500; -449.000; -564.000
396.033;  -32.925;  217.000;  172.000
396.162;  -83.725; -399.000; -453.000
396.290;  -71.850;  -17.000;   -2.000
396.418;  -98.575; -555.000; -514.000
396.546; -116.650; -571.000; -466.000
396.674; -147.800; -850.000; -878.000
396.803;  -56.875;  -72.000;  -23.000
396.931;  -70.925; -179.000; -199.000
397.059; -183.250;-1026.000; -989.000
397.187; -154.575;-1026.000; -975.000
397.315; -144.325; -884.000; -649.000
397.443; -111.550; -592.000; -443.000
397.572; -102.275; -578.000; -424.000
397.700; -128.325; -607.000; -614.000
397.828;  -69.175;  120.000;  -90.000
397.956; -101.575; -508.000; -478.000
398.084; -137.875; -767.000; -626.000
398.212;  -29.000;  137.000;  124.000
398.340;  -48.925;  -56.000;  159.000
398.468;  -86.600; -390.000; -169.000
398.596; -162.150; -993.000; -953.000
398.724; -135.050; -762.000; -767.000
398.852; -178.825;-1024.000; -976.000
398.980; -126.425; -560.000; -560.000
399.108; -131.700; -982.000; -735.000
399.236;  -51.875;   13.000;    8.000
399.363;  -30.925;  222.000;  196.000
399.491; -105.575; -404.000; -398.000
399.619; -163.050; -829.000; -800.000
399.747; -156.550; -859.000; -771.000
399.875;  -19.750;  220.000;  234.000
400.003;  -92.425; -359.000; -284.000
400.130;  -99.150; -421.000; -341.000
400.258;  -47.575;  -83.000;   38.000
400.386;  -87.050; -352.000; -168.000
400.514; -121.425; -526.000; -587.000
400.641; -153.325; -928.000; -802.000
400.769; -168.925; -979.000; -888.000
400.897; -143.950; -838.000; -793.000
401.025;  -66.550; -166.000; -152.000
401.152;  -42.650;  220.000;   38.000
401.280;  -94.600; -430.000; -429.000
401.408; -136.800; -712.000; -576.000
401.535; -123.300; -735.000; -758.000
401.663; -206.025;-1134.000;-1054.000
401.790; -115.600; -514.000; -525.000
401.918;    6.250;  436.000;  405.000
402.046;  -47.475;  134.000;  122.000
402.173;  -67.750;  -18.000;    7.000
402.301; -117.400; -519.000; -397.000
402.428;    6.425;  528.000;  383.000
402.556; -178.450;-1188.000; -913.000
402.683;  -69.525;  -20.000;   -1.000
402.811;  -72.200;  -37.000; -206.000
402.938;  -43.550;   20.000;   27.000
403.066; -118.100; -574.000; -558.000
403.193;  -42.575;  299.000;  239.000
403.321; -110.150; -396.000; -574.000
403.448;  -47.550;   83.000;   27.000
403.575;  -60.250;  -90.000;  -46.000
403.703; -140.825; -732.000; -557.000
403.830; -108.000; -531.000; -496.000
403.957; -177.175;-1117.000;-1023.000
404.085;  -74.325;  -61.000; -172.000
404.212;  -48.600;  -50.000;   63.000
404.339;  -92.625; -566.000; -306.000
404.467; -103.625; -612.000; -524.000
404.594;  -93.525; -287.000; -227.000
404.721; -143.750; -869.000; -764.000
404.848;  -65.375; -113.000; -202.000
404.976; -168.550; -856.000; -783.000
405.103;  -51.775;  -14.000;  -82.000
405.230;  -38.300;  190.000;  226.000
405.357;  -51.425;  117.000;   44.000
405.484;  -67.525;  -49.000;    5.000
405.612; -116.700; -548.000; -563.000
405.739; -110.150; -488.000; -243.000
405.866;   24.750;  669.000;  385.000
405.993;  -89.175; -398.000; -102.000
406.120; -157.275; -801.000; -887.000
406.247; -111.450; -323.000; -342.000
406.374;   30.150;  540.000;  629.000
406.501; -129.575; -632.000; -702.000
406.628; -120.125; -621.000; -589.000
406.755; -149.625; -803.000; -620.000
406.882;  -94.375; -228.000; -277.000
407.009; -128.050; -719.000; -628.000
407.136; -102.725; -480.000; -401.000
407.263; -155.850; -939.000; -829.000
407.390; -150.450; -692.000; -614.000
407.517; -206.425;-1139.000;-1187.000
407.644;  -92.375; -332.000; -256.000
407.771; -153.425; -249.000; -287.000
407.898;  -36.350;  168.000;  328.000
408.025; -107.125; -421.000; -313.000
408.151;  -40.600;   82.000;  153.000
408.278;  -81.800; -267.000; -216.000
408.405; -159.325; -931.000; -899.000
408.532; -121.725; -549.000; -542.000
408.659; -144.900; -677.000; -648.000
408.785; -198.825;-1298.000;-1170.000
408.912;  -81.100; -412.000; -296.000
409.039; -119.300; -610.000; -686.000
409.166; -122.800; -591.000; -555.000
409.292; -138.750; -571.000; -534.000
409.419; -133.050; -665.000; -649.000
409.546; -106.025; -431.000; -192.000
409.672; -141.925; -713.000; -545.000
409.799;  -62.175;  -36.000;   34.000
409.926;  -75.475; -180.000; -179.000
410.052; -187.975;-1127.000;-1091.000
410.179; -111.525; -368.000; -392.000
410.305;  -99.700; -375.000; -493.000
410.432;  -93.150; -220.000; -333.000
410.558; -116.325; -305.000; -380.000
410.685; -135.350; -688.000; -431.000
410.812; -117.150; -409.000; -588.000
410.938; -161.500; -964.000; -808.000
411.065; -130.850; -671.000; -645.000
411.191;  -75.975; -189.000; -174.000
411.317; -152.325; -823.000; -742.000
411.444; -100.025; -317.000; -246.000
411.570;  -91.600; -339.000; -294.000
411.697; -135.850; -758.000; -752.000
411.823; -187.450; -989.000; -999.000
411.949;  -77.350;  -56.000;   17.000
412.076; -128.800; -539.000; -519.000
412.202; -154.425; -758.000; -757.000
412.329; -149.525; -798.000; -752.000
412.455; -149.350; -821.000; -657.000
412.581;  -41.475;  -15.000;  172.000
412.707; -116.625; -540.000; -457.000
412.834;  -31.200;  156.000;  219.000
412.960; -153.725; -785.000; -784.000
413.086; -148.975; -743.000; -701.000
413.212;    6.650;  604.000;  578.000
413.339; -149.300; -685.000; -701.000
413.465; -112.775; -364.000; -310.000
413.591; -147.350; -757.000; -474.000
413.717; -106.450; -358.000; -366.000
413.843; -165.400; -839.000; -861.000
413.969;  -95.800;  -47.000; -292.000
414.096; -139.375; -679.000; -679.000
414.222;  -61.550;  -33.000;   85.000
414.348; -131.825; -652.000; -385.000
414.474;  -58.200;   38.000;  -52.000
414.600;  -65.975; -126.000; -144.000
414.726;  -64.775;  -96.000;  -55.000
414.852; -120.050; -365.000; -342.000
414.978;  -47.800;  104.000;  -18.000
415.104;  -43.875;   38.000;   80.000
415.230; -106.175; -329.000; -330.000
415.356; -123.350; -409.000; -514.000
415.482;  -65.475;   13.000;  -35.000
415.608;  -83.750; -247.000; -323.000
415.734;  -50.075;   67.000;   38.000
415.860; -155.750; -875.000; -767.000
415.986; -143.525; -685.000; -607.000
416.111; -150.175; -798.000; -652.000
416.237; -113.175; -424.000; -571.000
416.363; -164.000; -765.000; -733.000
416.489; -102.075; -324.000; -251.000
416.615; -143.225; -707.000; -742.000
416.741; -133.175; -677.000; -784.000
416.866; -135.175; -673.000; -736.000
416.992; -164.375; -801.000; -818.000
417.118;  -81.625;  -41.000;  -80.000
417.244; -142.600; -798.000; -531.000
417.369; -147.225; -801.000; -612.000
417.495; -106.225; -325.000; -254.000
417.621; -178.000;-1015.000; -803.000
417.746; -118.150; -579.000; -572.000
417.872;  -68.900; -254.000; -144.000
417.998; -110.550; -515.000; -530.000
418.123; -192.050;-1073.000; -845.000
418.249; -111.075; -512.000; -601.000
418.374; -179.225; -916.000; -824.000
418.500; -118.350; -383.000; -482.000
418.626;  -42.475;   70.000;  -59.000
418.751; -118.850; -549.000; -448.000
418.877; -147.900; -637.000; -643.000
419.002; -131.050; -688.000; -560.000
419.128; -158.475; -930.000; -721.000
419.253; -158.475; -967.000; -837.000
419.379; -110.950; -391.000; -338.000
419.504;  -14.700;  325.000;  415.000
419.629;  -90.100; -393.000; -212.000
419.755;  -74.225; -317.000; -254.000
419.880;  -90.400;  -98.000;   67.000
420.006; -106.150; -280.000; -221.000
420.131; -147.300; -662.000; -775.000
420.256;  -91.525; -315.000; -316.000
420.382; -133.850; -665.000; -687.000
420.507; -135.900; -649.000; -778.000
420.632; -111.575; -337.000; -339.000
420.758;  -98.175; -251.000; -425.000
420.883; -147.750; -876.000; -672.000
421.008; -148.750; -775.000; -619.000
421.133; -116.425; -509.000; -467.000
421.259;  -76.575; -325.000; -259.000
421.384; -162.850; -834.000; -693.000
421.509; -161.900;-1052.000; -862.000
421.634; -169.300; -936.000; -820.000
421.759; -111.050; -359.000; -327.000
421.885; -139.525; -717.000; -656.000
422.010; -120.100; -673.000; -542.000
422.135; -180.450; -695.000; -727.000
422.260;  -23.500;  340.000;  280.000
422.385;  -80.625;   12.000;  -98.000
422.510;  -35.350;  151.000;  -26.000
422.635;  -66.100;  -87.000;  -43.000
422.760; -141.625; -766.000; -791.000
422.885;  -64.075;  -57.000;  -80.000
423.010;  -72.300; -112.000; -169.000
423.135; -125.950; -481.000; -561.000
423.260;  -76.725; -150.000; -245.000
423.385;  -36.500;  476.000;  222.000
423.510;  -39.750;   71.000;  -22.000
423.635;  -57.600;  133.000;   45.000
423.760;  -25.600;  383.000;  328.000
423.885;  -27.700;  336.000;  391.000
424.010;  -54.000;  -68.000;  -13.000
424.135;  -75.900;    5.000;  -33.000
424.259; -124.850; -654.000; -457.000
424.384; -113.525; -279.000; -272.000
424.509;  -77.625; -260.000; -186.000
424.634; -154.775; -761.000; -623.000
424.759; -135.425; -688.000; -544.000
424.883; -120.100; -506.000; -527.000
425.008; -136.200; -502.000; -410.000
425.133; -147.725; -679.000; -653.000
425.258; -136.325; -517.000; -381.000
425.382; -154.400; -867.000; -774.000
425.507; -135.175; -487.000; -543.000
425.632; -158.575; -802.000; -663.000
425.756; -102.025; -256.000; -146.000
425.881; -167.525; -831.000; -857.000
426.006; -123.025; -604.000; -355.000
426.130; -153.800; -696.000; -508.000
426.255; -116.975; -611.000; -491.000
426.379;  -86.725; -189.000; -577.000
426.504;   22.275;  660.000;  544.000
426.629; -137.450; -519.000; -466.000
426.753;  -64.675;   64.000;  -46.000
426.878;  -88.550; -252.000; -288.000
427.002; -130.775; -651.000; -668.000
427.127;  -85.025;  -35.000; -158.000
427.251;    3.100;  372.000;  401.000
427.375;  -98.275; -191.000; -173.000
427.500; -137.375; -616.000; -610.000
427.624; -110.075; -234.000; -400.000
427.749;  -91.650; -216.000; -225.000
427.873; -123.100; -499.000; -412.000
427.997;  -79.700; -222.000; -230.000
428.122;   26.300;  795.000;  703.000
428.246;  -10.825;  433.000;  434.000
428.371; -166.550; -869.000; -773.000
428.495; -146.400; -624.000; -646.000
428.619;  -81.450; -186.000; -117.000
428.743;  -45.675;   65.000;  132.000
428.868; -154.625; -732.000; -643.000
428.992;  -99.125; -219.000; -326.000
429.116; -110.850; -329.000; -357.000
429.240;  -25.050;  419.000;  426.000
429.365; -119.775; -454.000; -574.000
429.489; -131.425; -638.000; -647.000
429.613;  -91.725; -236.000; -177.000
429.737; -122.850; -563.000; -432.000
429.861; -105.850; -247.000; -133.000
429.985; -112.225; -425.000; -305.000
430.109; -163.350; -770.000; -908.000
430.234;  -50.275;   76.000;  -50.000
430.358;  -79.075; -250.000; -160.000
430.482; -159.150; -672.000; -564.000
430.606; -129.425; -655.000; -375.000
430.730; -120.700; -437.000; -388.000
430.854; -173.500; -909.000; -835.000
430.978; -157.400; -795.000; -764.000
431.102; -124.250; -499.000; -422.000
431.226; -164.125; -874.000; -815.000
431.350;  -16.975;  345.000;  422.000
431.474; -129.650; -661.000; -373.000
431.597; -180.875;-1060.000; -848.000
431.721;  -93.100; -276.000; -267.000
431.845; -139.975; -704.000; -472.000
431.969; -103.800; -304.000; -349.000
432.093; -118.850; -395.000; -317.000
432.217;  -51.150;   32.000;   82.000
432.341; -121.625; -523.000; -518.000
432.464;  -69.550;   96.000;   40.000
432.588; -125.075; -401.000; -329.000
432.712;  -70.325;  -52.000;  -52.000
432.836;  -41.050;  213.000;  263.000
432.959;  -98.150; -372.000; -311.000
433.083;  -63.500;   11.000;    2.000
433.207;   -7.875;  285.000;  930.000
433.330;  -97.700; -391.000; -200.000
433.454; -123.450; -654.000; -638.000
433.578;   -1.050;  583.000;  278.000
433.701; -145.750; -623.000; -675.000
433.825; -111.400; -292.000; -299.000
433.949;  -68.350;   28.000;  -72.000
434.072; -115.525; -410.000; -323.000
434.196;  -87.225; -309.000; -117.000
434.319; 3334.650;25482.000;25124.000
434.443; -145.100; -656.000; -603.000
434.566;  -53.375;  281.000;   62.000
434.690; -134.950; -637.000; -383.000
434.813; -102.100; -251.000; -173.000
434.937; -146.050; -569.000; -696.000
435.060; -112.475; -423.000; -332.000
435.184; -101.325; -492.000; -217.000
435.307;  -59.225;  159.000;  102.000
435.431;  -71.725;  -40.000;   24.000
435.554; -115.550; -399.000; -240.000
435.677; -108.000; -350.000; -258.000
435.801;  -60.275;  -25.000;   49.000
435.924;  -64.250;    1.000;  -67.000
436.048; -171.200;-1019.000; -732.000
436.171; -103.025; -240.000;  -66.000
436.294; -112.075; -248.000; -229.000
436.417; -177.575; -963.000; -849.000
436.541; -167.250; -814.000; -840.000
436.664;  -75.425; -242.000; -316.000
436.787;  -63.825;   13.000;  113.000
436.910; -140.550; -792.000; -422.000
437.034;  -51.250;  142.000;  143.000
437.157;  -52.750;  -11.000;    0.000
437.280; -113.350; -392.000; -292.000
437.403; -180.925; -982.000; -869.000
437.526; -167.850; -903.000; -865.000
437.649; -113.650; -505.000; -332.000
437.772; -139.025; -692.000; -540.000
437.896;   -8.450;  700.000;  544.000
438.019; -140.325; -758.000; -503.000
438.142; -123.425; -596.000; -506.000
438.265; -158.275; -639.000; -670.000
438.388;  -99.950; -520.000; -410.000
438.511; -134.150; -597.000; -394.000
438.634; -101.725; -247.000; -125.000
438.757; -159.850; -693.000; -619.000
438.880;  -66.625;  -34.000;  -57.000
439.003; -119.525; -417.000; -437.000
439.126;  -94.900; -287.000; -167.000
439.248;  -88.025;  -98.000; -139.000
439.371;  -60.525;    9.000;  -53.000
439.494;    2.950;  510.000;  439.000
439.617;  -65.875;   65.000;  -88.000
439.740; -169.925; -968.000; -816.000
439.863; -152.150; -755.000; -595.000
439.986; -130.300; -476.000; -431.000
440.108;  -97.900; -161.000; -112.000
440.231; -181.850; -950.000; -836.000
440.354;  -79.575;  -64.000; -150.000
440.477; -148.850; -566.000; -542.000
440.599; -112.375; -200.000; -225.000
440.722; -141.125; -709.000; -586.000
440.845;   42.725;  751.000;  928.000
440.968; -119.125; -415.000; -311.000
441.090;  -78.300; -199.000;  -33.000
441.213; -184.375;-1021.000; -825.000
441.336;  -77.575; -159.000;   -5.000
441.458; -118.600; -549.000; -396.000
441.581; -151.950; -628.000; -629.000
441.703;  -91.850; -152.000;   13.000
441.826; -120.725; -557.000; -400.000
441.948;  -63.800;   56.000;   51.000
442.071;   13.025;  555.000;  424.000
442.193; -141.250; -531.000; -485.000
442.316;  -53.775;  152.000;   97.000
442.438;  -99.200; -233.000;  -10.000
442.561;  -26.475;  272.000;  262.000
442.683; -148.775; -809.000; -522.000
442.806;  -67.050;   -8.000;   74.000
442.928; -165.300; -859.000; -604.000
443.051; -114.750; -577.000; -373.000
443.173; -117.200; -341.000; -339.000
443.295; -116.100; -263.000; -371.000
443.418; -107.150; -321.000;  -29.000
443.540;  -62.450; -106.000;   -4.000
443.662; -145.350; -563.000; -465.000
443.785;  -33.400;  335.000;  199.000
443.907; -102.150; -362.000; -208.000
444.029; -130.125; -767.000; -494.000
444.152; -153.550; -644.000; -554.000
444.274;  -64.100;  -18.000;  -24.000
444.396; -120.725; -461.000; -221.000
444.518; -152.350; -691.000; -454.000
444.640; -122.100; -268.000; -111.000
444.763;  -48.400;  388.000;  249.000
444.885; -130.475; -432.000; -392.000
445.007;  -49.500;   35.000;   86.000
445.129; -140.275; -610.000; -515.000
445.251; -123.850; -372.000; -439.000
445.373; -143.100; -537.000; -386.000
445.495;  -36.675;  242.000;  350.000
445.617;   18.225;  853.000;  753.000
445.739; -100.300; -215.000;  -97.000
445.861;  -86.300; -245.000; -112.000
445.984;  -94.125; -267.000; -101.000
446.105; -118.550; -418.000; -251.000
446.227;  -81.325; -176.000;  -19.000
446.349; -123.200; -358.000; -249.000
446.471; -150.825; -615.000; -448.000
446.593; -105.000; -316.000;   19.000
446.715;  -66.350;  -67.000;   41.000
446.837;   14.950;  697.000;  832.000
446.959; -117.975; -457.000; -478.000
447.081; -151.550; -628.000; -518.000
447.203;   25.225;  862.000;  834.000
447.325; -100.400; -270.000;   42.000
447.446;  -34.350;  286.000;  530.000
447.568; -176.825; -921.000; -803.000
447.690; -108.725; -236.000; -245.000
447.812; -161.025; -798.000; -519.000
447.933;  -54.250;  155.000;  127.000
448.055;  -94.800; -306.000; -261.000
448.177;  -53.675;   31.000;   79.000
448.299; -189.175; -935.000; -727.000
448.420;  -56.275;  -25.000;  159.000
448.542;  -75.575;   -3.000;   33.000
448.664;  -38.425;  109.000;  322.000
448.785;  -59.450;  265.000;   83.000
448.907; -131.150; -614.000; -353.000
449.028; -146.725; -771.000; -471.000
449.150;   13.750;  492.000;  589.000
449.272; -191.725;-1044.000; -913.000
449.393;    0.225;  612.000;  694.000
449.515; -146.775; -634.000; -581.000
449.636;  -84.650; -264.000; -155.000
449.758;   19.600;  763.000;  622.000
449.879; -133.700; -498.000; -396.000
450.001; -100.975; -149.000;  -49.000
450.122;  -79.375;  -95.000;  162.000
450.244;  -61.300;   37.000;  364.000
450.365; -124.100; -495.000; -301.000
450.486;  -78.175;   80.000;  268.000
450.608;  -38.250;  393.000;  326.000
450.729;   -1.925;  578.000;  645.000
450.850; -126.575; -574.000; -466.000
450.972; -161.675; -552.000; -389.000
451.093;  -27.850;  190.000;  588.000
451.214; -132.450; -516.000; -337.000
451.336;   30.125;  773.000;  579.000
451.457;  -35.375;  264.000;  393.000
451.578;  -80.450; -118.000;  -74.000
451.699; -141.200; -546.000; -540.000
451.821;  -91.025; -284.000;  -50.000
451.942;  -22.725;  278.000;  285.000
452.063;  -45.675;  228.000;  419.000
452.184;  -94.275;  -54.000;  -49.000
452.305;  -48.700;  103.000;  170.000
452.427; -116.275; -549.000; -301.000
452.548;  -71.700;   23.000;   79.000
452.669;  -90.275; -257.000;  -89.000
452.790;  -83.850;    3.000;  -18.000
452.911;  -53.800;  195.000;  259.000
453.032; -108.500; -289.000;  -60.000
453.153;  -74.450;  -29.000;   81.000
453.274;   21.175;  737.000;  868.000
453.395;  -78.425;  -51.000;  175.000
453.516;   73.175; 1317.000; 1388.000
453.637; -104.725; -205.000; -150.000
453.758;  -81.150;   15.000;   69.000
453.879; -122.425; -462.000; -250.000
454.000;   50.825; 1086.000;  948.000
454.121; -155.425; -554.000; -326.000
454.242; -136.225; -599.000; -383.000
454.362;  -67.075;  -99.000;  114.000
454.483;  -90.725; -309.000; -229.000
454.604;  -24.175;  512.000;  580.000
454.725; -147.700; -627.000; -555.000
454.846; -128.350; -474.000; -406.000
454.967;  -42.650;  230.000;  539.000
455.087;  -52.200;  179.000;  153.000
455.208;   -6.250;  554.000;  856.000
455.329;  -76.075;  -22.000;   82.000
455.450;  -13.850;  473.000;  633.000
455.570; -114.000; -234.000; -211.000
455.691;  -67.000;  201.000;  407.000
455.812; -119.450; -270.000;  -92.000
455.932;  -64.000;  107.000;  -97.000
456.053;  -74.025;   36.000;   24.000
456.173; -111.100; -433.000; -355.000
456.294; -138.100; -476.000; -303.000
456.415;  -79.100;  -73.000;   70.000
456.535;  -62.950;  297.000;  273.000
456.656;  -56.725;  132.000;  240.000
456.776;  -72.025;    3.000;  298.000
456.897;  -19.375;  308.000;  513.000
457.017; -102.900; -153.000;   -3.000
457.138; -123.025; -402.000; -249.000
457.258;  -52.950;  263.000;  224.000
457.379;  -31.350;  509.000;  521.000
457.499;  -42.475;  443.000;  432.000
457.620; -120.400; -407.000; -231.000
457.740; -107.400; -132.000;  -11.000
457.860;  -58.275;   87.000;   44.000
457.981;  -70.675;  132.000;  124.000
458.101;  -91.425;  -89.000;   40.000
458.221;  -31.300;  336.000;  402.000
458.342;  -68.100;   -4.000;  -37.000
458.462;  -29.100;  617.000;  352.000
458.582; -111.525; -302.000; -294.000
458.703;  -62.525;  303.000;  154.000
458.823;  -76.025;   22.000;  163.000
458.943;  -31.300;  341.000;  467.000
459.063;  -65.250; 1124.000;  192.000
459.183;  -70.250;  328.000;  313.000
459.304;  -15.450;  315.000;  517.000
459.424; -106.075; -246.000;  -89.000
459.544;  -15.100;  388.000;  764.000
459.664;  -19.075;  499.000;  506.000
459.784;   38.325; 1004.000; 1175.000
459.904;    9.475;  867.000;  744.000
460.024;   21.275;  867.000;  684.000
460.144;  -38.550;  449.000;  554.000
460.264;  -18.375;  515.000;  327.000
460.385;  -97.300; -145.000; -119.000
460.505;   18.975;  905.000;  858.000
460.625;  -98.375;  -17.000;  -68.000
460.745;  -39.150;  396.000;  541.000
460.864;  -69.775;  153.000;  469.000
460.984;  -12.750;  499.000;  573.000
461.104;   88.425; 1656.000; 1775.000
461.224;    7.500;  657.000;  650.000
461.344;  -53.425;  431.000;  360.000
461.464;  -59.550;  258.000;  513.000
461.584;  -45.825;  283.000;  466.000
461.704;  -69.300;   58.000;  108.000
461.824;  -64.125;  238.000;  259.000
461.943;  -58.775;  191.000;  130.000
462.063;  -80.225;    2.000;  324.000
462.183;    5.775;  639.000;  717.000
462.303;   64.625; 1678.000; 1230.000
462.422;   18.775;  781.000;  840.000
462.542;  -76.075;  271.000;  391.000
462.662;  -38.425;  353.000;  380.000
462.782;  -20.625;  833.000;  572.000
462.901;  -27.325;  545.000;  717.000
463.021;  115.975; 1702.000; 1638.000
463.141;  -30.750;  337.000;  770.000
463.260;  -32.400;  614.000;  474.000
463.380;    6.525;  902.000;  884.000
463.499;  -39.650;  342.000;  332.000
463.619;  -48.050;  581.000;  559.000
463.738;   81.375; 1644.000;  903.000
463.858;    1.650;  657.000;  811.000
463.978;  -40.175;  542.000;  396.000
464.097;   15.950;  921.000; 1114.000
464.217;   43.225; 1196.000; 1143.000
464.336;   46.100; 1068.000; 1130.000
464.455;  -45.875;  328.000;  659.000
464.575;  -12.725;  597.000;  602.000
464.694;   47.375; 1204.000; 1179.000
464.814;   23.475; 1190.000; 1138.000
464.933;   34.550; 1095.000; 1027.000
465.052;   70.375; 1412.000; 1054.000
465.172;   -1.450;  922.000;  799.000
465.291;   55.575; 1376.000; 1320.000
465.410;    1.200;  462.000;  735.000
465.530;   67.975; 1355.000; 1310.000
465.649;   46.000; 1209.000; 1273.000
465.768;   93.650; 1673.000; 1508.000
465.888;   25.275;  941.000; 1174.000
466.007;   75.725; 1335.000; 1440.000
466.126;  -10.350;  721.000;  641.000
466.245;   29.125; 1176.000; 1187.000
466.364;   14.150;  950.000; 1060.000
466.484;   17.075; 1024.000; 1213.000
466.603;   22.925; 1101.000; 1222.000
466.722;   89.550; 1490.000; 1769.000
466.841;   34.125; 1151.000; 1401.000
466.960;   22.900; 1069.000;  972.000
467.079;  132.525; 1971.000; 1786.000
467.198;   38.475; 1238.000; 1181.000
467.317;   75.375; 1768.000; 1162.000
467.436;   59.125; 1709.000; 1261.000
467.555;  115.175; 1796.000; 1746.000
467.674;   54.325; 1227.000; 1329.000
467.793;   46.725; 1376.000; 1374.000
467.912;   72.750; 1658.000; 1539.000
468.031;  113.625; 2038.000; 1930.000
468.150;  112.650; 1842.000; 1837.000
468.269;  157.775; 2313.000; 2090.000
468.388;  168.875; 2168.000; 2339.000
468.507;  253.050; 2884.000; 2903.000
468.626;  205.100; 2555.000; 2541.000
468.744;  134.800; 2018.000; 2174.000
468.863;  181.475; 2312.000; 2523.000
468.982;   88.675; 1503.000; 1555.000
469.101;  198.800; 2788.000; 2692.000
469.220;  150.150; 2333.000; 2176.000
469.338;  238.525; 2935.000; 3051.000
469.457;  189.750; 2719.000; 2545.000
469.576;  328.100; 3953.000; 3784.000
469.695;  220.125; 2877.000; 3066.000
469.813;  380.925; 4148.000; 4192.000
469.932;  362.175; 4255.000; 4485.000
470.051;  346.575; 4075.000; 4161.000
470.169;  381.800; 4470.000; 4338.000
470.288;  412.575; 4700.000; 4809.000
470.406;  454.700; 5059.000; 5194.000
470.525;  539.650; 6101.000; 5787.000
470.644;  607.450; 6847.000; 6794.000
470.762;  762.300; 8397.000; 7873.000
470.881;  809.875; 8651.000; 8464.000
470.999;  922.425; 9685.000; 9151.000
471.118; 1036.050;11174.000;10711.000

