
Integration time [ms]: 100.000
Averaging Nr. [scans]: 40
Smoothing Nr. [pixels]: 0
Data measured with spectrometer [name]: 2101012U2
Wave   ;Sample   ;Dark     ;Reference
[nm]   ;[counts] ;[counts] ;[counts] 

197.733;   59.900;  516.000;  404.000
197.879;  -87.300; -610.000; -634.000
198.025;  -43.725; -475.000; -420.000
198.171;  -73.475; -602.000; -612.000
198.317;  -28.775; -401.000; -316.000
198.463;  -68.025; -655.000; -404.000
198.609;   32.900;  181.000; -137.000
198.755;  -80.425; -644.000; -410.000
198.901;  -58.800; -505.000; -424.000
199.047;  -73.950; -615.000; -488.000
199.193;  -31.900; -230.000; -468.000
199.339;  -36.050; -222.000; -369.000
199.485;   42.150;  330.000;  271.000
199.631;    8.525;  227.000;  310.000
199.777;  -46.625; -466.000; -398.000
199.923;  -51.175; -610.000; -424.000
200.069;    7.350; -141.000;  -58.000
200.215;   45.900;  128.000;  453.000
200.361;   53.025;  243.000;  477.000
200.507;  -65.275; -600.000; -373.000
200.653;  -17.700; -371.000; -194.000
200.798;  -32.675; -215.000; -125.000
200.944;  -11.225; -146.000;  -41.000
201.090;   34.750;   61.000;  222.000
201.236;   -0.100; -116.000; -158.000
201.382;  126.200;  874.000;  903.000
201.528;   12.400;  -58.000;  -48.000
201.674;  -68.575; -386.000; -293.000
201.819;  -60.700; -540.000; -439.000
201.965;  -92.825; -699.000; -447.000
202.111;  -15.450; -273.000; -226.000
202.257;  -49.125; -250.000; -238.000
202.402;   29.050;   13.000;  -36.000
202.548;  -38.875; -169.000; -116.000
202.694;   87.275;  410.000; -183.000
202.840;  -82.950; -603.000; -531.000
202.985;  -76.200; -681.000; -639.000
203.131; -116.050; -832.000; -666.000
203.277;  -28.550; -199.000; -262.000
203.423;  -64.400; -434.000; -520.000
203.568;  -39.875; -462.000; -237.000
203.714;  -68.200; -535.000; -542.000
203.860;  -88.975; -682.000; -641.000
204.005;   20.875;  112.000;  167.000
204.151;   82.975;  561.000;  556.000
204.296;  -46.175; -354.000; -221.000
204.442;  -69.850; -600.000; -547.000
204.588;  -86.900; -592.000; -579.000
204.733;   21.825;  178.000;  168.000
204.879; -126.750;-1018.000; -822.000
205.025;   15.925;  -99.000;  126.000
205.170;   -4.650;  -17.000;   94.000
205.316;   88.100;  438.000;  661.000
205.461;  -92.250; -698.000; -554.000
205.607;   78.650;  609.000;  665.000
205.752;  -91.650; -626.000; -551.000
205.898;  -41.225; -501.000; -391.000
206.043;  -60.225; -578.000; -506.000
206.189;  -42.350; -243.000; -285.000
206.334;   68.600;  554.000;  606.000
206.480;   88.475;  409.000;  239.000
206.625;  -66.125; -529.000; -552.000
206.771;  -38.700; -451.000; -373.000
206.916;  -32.675; -210.000; -537.000
207.062;  -67.400; -545.000; -591.000
207.207;  -71.075; -546.000; -443.000
207.353;   55.200;  185.000;  460.000
207.498;   18.775;  196.000;   85.000
207.643;  -44.850; -501.000; -370.000
207.789; -134.400;-1069.000; -910.000
207.934;  -84.925; -665.000; -713.000
208.080;  -38.625; -154.000;   66.000
208.225;  -15.900;  -22.000;  -57.000
208.370;  -83.700; -727.000; -619.000
208.516;  -70.675; -741.000; -487.000
208.661;  -40.900; -127.000;  -69.000
208.806;  -30.225; -165.000; -171.000
208.952; -123.975;-1044.000; -731.000
209.097;   79.850;  378.000;  349.000
209.242;  -69.450; -307.000; -382.000
209.387;   89.475;  392.000;  350.000
209.533;  -59.800; -321.000; -350.000
209.678;   97.525;  472.000;  543.000
209.823;  -57.450; -408.000; -310.000
209.969;  -96.925; -860.000; -757.000
210.114; -111.075; -907.000; -719.000
210.259; -107.250; -939.000; -889.000
210.404;    1.800; -171.000;  103.000
210.549;    3.750;  108.000;    3.000
210.695;  -20.100;   -3.000;  -95.000
210.840;   29.750;   94.000;   67.000
210.985;  -60.475; -484.000; -303.000
211.130;   76.025;  268.000;  406.000
211.275;   10.400;  207.000;  199.000
211.420;  -45.725; -300.000; -289.000
211.566;  -80.200; -536.000; -489.000
211.711;   34.175;  218.000;  157.000
211.856;  -74.775; -545.000; -519.000
212.001;    6.750;  151.000;   44.000
212.146;   12.275;  153.000;   49.000
212.291;  -11.425; -210.000; -186.000
212.436;  -29.250; -280.000;   -6.000
212.581;  -83.625; -685.000; -653.000
212.726;  -69.075; -487.000; -538.000
212.871;  -35.350; -552.000; -217.000
213.016; -149.200;-1172.000;-1029.000
213.161;   53.800;  406.000;  291.000
213.306;  -73.225; -435.000; -577.000
213.451;  -93.325; -778.000; -689.000
213.596;  -43.500; -455.000; -347.000
213.741;  -49.050; -448.000; -538.000
213.886;  -83.675; -498.000; -517.000
214.031;  -25.475; -294.000; -124.000
214.176;  -63.900; -408.000; -341.000
214.321;   -9.650; -296.000; -157.000
214.466;  -32.725; -163.000;  -43.000
214.611;   -1.375;  -61.000;  -10.000
214.756; -127.550; -948.000; -858.000
214.901;  -14.250; -388.000; -226.000
215.046; -126.875; -797.000; -825.000
215.191;    8.575;  128.000;   35.000
215.336;   -9.825; -157.000;  -19.000
215.480;  -62.525; -684.000; -505.000
215.625;  -18.875; -175.000;  -19.000
215.770;  -71.675; -757.000; -662.000
215.915;  -20.825;   -5.000;  -97.000
216.060;    1.025; -113.000;  -21.000
216.205; -117.650; -731.000; -779.000
216.349;  -56.950; -470.000; -533.000
216.494; -130.050; -939.000; -867.000
216.639; -105.800; -823.000; -888.000
216.784; -106.175; -577.000; -525.000
216.929;   61.750;  392.000;  281.000
217.073;   -7.425; -244.000;  -31.000
217.218;    9.000;   78.000;  -47.000
217.363;  -86.675; -656.000; -618.000
217.507;  -72.600; -623.000; -588.000
217.652; -132.925; -845.000; -874.000
217.797;  -95.650; -708.000; -659.000
217.942; -116.475; -856.000; -720.000
218.086;   66.350;  608.000;  539.000
218.231;  -17.325; -174.000;  -26.000
218.376;  -26.750; -337.000; -229.000
218.520;   -4.450;  -41.000;   96.000
218.665;  -27.575; -338.000; -204.000
218.810;  -51.125; -275.000; -233.000
218.954;   14.075;  201.000;   35.000
219.099; -122.875; -713.000; -963.000
219.243;  -79.825; -589.000; -554.000
219.388;  -35.800; -264.000; -136.000
219.532;   -4.200; -116.000; -116.000
219.677;  -83.300; -564.000; -521.000
219.822;    7.175;   33.000;   89.000
219.966;    1.050;   17.000;  -99.000
220.111;  -13.175; -328.000;  -40.000
220.255;  -94.600; -797.000; -750.000
220.400;  -24.450; -180.000; -146.000
220.544;  -81.550; -516.000; -450.000
220.689;  -51.700; -422.000; -451.000
220.833;  -25.000; -123.000;  -58.000
220.978;  -42.150; -393.000; -563.000
221.122;   20.850;  319.000;  307.000
221.267; -113.750; -906.000; -837.000
221.411;  -60.150; -478.000; -394.000
221.555;    4.050; -104.000;  -23.000
221.700;  -37.725; -329.000; -222.000
221.844;   28.075;  255.000;  272.000
221.989;  -48.850; -328.000; -311.000
222.133;  -29.350; -289.000; -307.000
222.277;  -19.975;    5.000;   78.000
222.422;   19.375;  227.000;  113.000
222.566;  -46.350; -381.000; -214.000
222.711;  -56.800; -414.000; -479.000
222.855;  -86.100; -643.000; -586.000
222.999;  -68.100; -642.000; -717.000
223.144;  -33.975; -195.000; -194.000
223.288;   56.400;  423.000;  251.000
223.432;   28.600;  184.000;  230.000
223.576;   20.025;  152.000;  -21.000
223.721;   22.850;  364.000;  273.000
223.865;  -48.025; -472.000; -475.000
224.009;  241.925; 1673.000; 1631.000
224.153;  -76.775; -660.000; -671.000
224.298;  -70.275; -531.000; -489.000
224.442;  -11.675;  -74.000;  -33.000
224.586;   -4.525; -169.000; -106.000
224.730;  -94.375; -858.000; -670.000
224.875; -108.100; -739.000; -688.000
225.019;   19.300;  102.000;  188.000
225.163;   33.375;  208.000;  341.000
225.307;   11.850;   97.000;  -91.000
225.451;   47.325;  360.000;  481.000
225.595;   40.600;  264.000;  176.000
225.739;  -18.975; -170.000;  -94.000
225.884;   13.450;   86.000;    5.000
226.028; -105.600; -760.000; -626.000
226.172;  -37.075; -260.000; -273.000
226.316; -104.150; -941.000; -902.000
226.460;  -53.775; -645.000; -493.000
226.604;  -57.675; -406.000; -400.000
226.748;  -94.575; -836.000; -733.000
226.892;  -29.825; -227.000; -181.000
227.036;  -37.500; -537.000; -447.000
227.180;  -55.925; -551.000; -375.000
227.324;  -65.000; -561.000; -580.000
227.468; -118.925; -819.000; -717.000
227.612;   25.475;  242.000;  -28.000
227.756; -104.175; -845.000; -698.000
227.900;   58.725;  342.000;  441.000
228.044;  -72.500; -509.000; -290.000
228.188;   72.000;  448.000;  568.000
228.332;  -96.275; -546.000; -472.000
228.476;  -26.525; -223.000; -149.000
228.620;  -37.050; -210.000; -150.000
228.764;   71.850;  431.000;  349.000
228.908;  -28.050; -155.000;   30.000
229.052;  -59.050; -615.000; -528.000
229.195;  -27.275; -172.000;   13.000
229.339;  -32.225; -235.000; -305.000
229.483;  -33.625;    5.000; -162.000
229.627;   -9.200; -156.000;  139.000
229.771;  -56.825; -218.000; -294.000
229.915;   13.500;  230.000;   79.000
230.059;  -95.475; -648.000; -663.000
230.202;  -28.950; -370.000; -317.000
230.346;  -27.025; -107.000;  107.000
230.490;  -65.300; -489.000; -521.000
230.634; -108.350; -736.000; -553.000
230.777;   78.575;  478.000;  509.000
230.921;  -54.750; -450.000; -359.000
231.065;  -29.075; -246.000; -286.000
231.209;   29.100;  261.000;  265.000
231.352;   21.200;   54.000;   40.000
231.496;    8.025;  568.000;  188.000
231.640;  -73.100; -693.000; -621.000
231.783;   47.675;  546.000;  525.000
231.927;  -34.400; -294.000; -365.000
232.071; -122.750; -962.000; -736.000
232.214; -109.975; -980.000; -764.000
232.358;  -93.450; -683.000; -599.000
232.502;   23.500;  -19.000;    7.000
232.645; -145.350;-1090.000; -927.000
232.789;  -20.650; -257.000; -218.000
232.933;  -58.125; -407.000; -224.000
233.076; -114.750;-1038.000; -897.000
233.220; -110.100; -752.000; -777.000
233.363;  -79.700; -669.000; -477.000
233.507;   50.550;  371.000;  129.000
233.650;  -88.600; -764.000; -834.000
233.794;   48.875;  438.000;  461.000
233.938;  -52.425; -530.000; -362.000
234.081;  -21.475;  -93.000;   31.000
234.225;  -59.400; -631.000; -539.000
234.368; -124.050; -773.000; -723.000
234.512;  -31.025; -385.000; -299.000
234.655;  -88.975; -582.000; -555.000
234.798;  -58.025; -493.000; -466.000
234.942; -140.900; -884.000;-1002.000
235.085;  -68.800; -651.000; -443.000
235.229;  -76.525; -405.000; -410.000
235.372;  -42.575; -247.000; -191.000
235.516;  -68.025; -397.000; -321.000
235.659;   27.575;   92.000;  121.000
235.802;  -12.050;  -38.000;  -22.000
235.946;   24.775;  335.000;  215.000
236.089;   26.350;  126.000;  250.000
236.233;   62.475;  275.000;  298.000
236.376;  -62.675; -235.000; -378.000
236.519;  -39.200; -297.000; -319.000
236.663;  -23.075; -215.000; -117.000
236.806; -131.125;-1029.000; -999.000
236.949;   65.450;  543.000;  431.000
237.092;   58.150;  412.000;  391.000
237.236;  -98.200; -589.000; -502.000
237.379;   63.950;  352.000;  428.000
237.522; -122.900; -879.000; -768.000
237.666;   -9.925; -271.000;   18.000
237.809; -124.950; -851.000; -823.000
237.952;   43.000;  469.000;  271.000
238.095;  -84.300; -447.000; -442.000
238.238;   82.950;  688.000;  700.000
238.382;   -7.325;  166.000;  103.000
238.525;  -63.850; -598.000; -511.000
238.668; -141.800;-1060.000; -985.000
238.811;  -84.125; -638.000; -643.000
238.954;  -68.950; -483.000; -334.000
239.097;  100.075;  617.000;  664.000
239.241;   14.250;  394.000;  326.000
239.384;  -24.150; -254.000; -214.000
239.527;  -66.825; -424.000; -224.000
239.670; -136.025; -994.000;-1091.000
239.813; -124.175; -696.000; -658.000
239.956;   81.975;  579.000;  473.000
240.099; -119.275; -778.000; -725.000
240.242;   63.950;  428.000;  432.000
240.385;   37.200;  466.000;  450.000
240.528;  -62.575; -706.000; -473.000
240.671;    6.825;  189.000;  134.000
240.814;  -39.900; -441.000; -158.000
240.957; -108.075; -767.000; -578.000
241.100;  -85.625; -779.000; -755.000
241.243; -148.100;-1234.000; -893.000
241.386;  -61.275; -508.000; -379.000
241.529;  -91.800; -735.000; -547.000
241.672;  -61.125; -566.000; -495.000
241.815; -125.375; -832.000; -808.000
241.958;  -10.575; -125.000; -182.000
242.101;  -74.675; -545.000; -390.000
242.244;  -43.000; -270.000; -325.000
242.387;  -47.500; -304.000; -246.000
242.530;   50.925;  470.000;  134.000
242.673;  -36.075; -381.000; -309.000
242.815; -111.950; -925.000; -899.000
242.958;  -75.700; -482.000; -381.000
243.101;   15.525;  132.000;  187.000
243.244;  -70.775; -564.000; -521.000
243.387;  -33.700; -313.000; -316.000
243.530; -112.200; -657.000; -674.000
243.672;    2.975;   43.000;  -92.000
243.815;  -71.300; -355.000; -283.000
243.958;    2.925;   98.000;  -26.000
244.101;   -6.425;   59.000;  -16.000
244.243;   -9.025;  -47.000;  101.000
244.386; -115.825; -761.000; -630.000
244.529;   -9.525; -132.000; -139.000
244.672; -160.550;-1154.000; -951.000
244.814;  -96.800; -621.000; -794.000
244.957;  -49.925; -380.000; -304.000
245.100;  -70.300; -489.000; -489.000
245.242;  -61.375; -387.000; -374.000
245.385;   -3.100;  -59.000;  -39.000
245.528; -134.450; -871.000; -705.000
245.670;   89.525;  612.000;  634.000
245.813;  -87.100; -599.000; -547.000
245.956;  -23.825; -324.000; -275.000
246.098;  -71.800; -508.000; -650.000
246.241;   12.875;  194.000;   48.000
246.383;  -16.650; -119.000;  -73.000
246.526;  -76.125; -454.000; -525.000
246.669; -119.500; -889.000; -780.000
246.811;   15.075;  172.000;   -1.000
246.954;  -75.375; -512.000; -426.000
247.096;   -6.350;  -84.000;   -6.000
247.239;  -70.525; -482.000; -445.000
247.381;  -70.900; -647.000; -488.000
247.524;   74.075;  645.000;  679.000
247.666;   -4.775;   58.000;   11.000
247.809; -116.150; -887.000; -691.000
247.951;  -11.800;  -75.000;  138.000
248.094;   10.175;  432.000;  308.000
248.236; -153.075;-1262.000;-1238.000
248.378;    2.250; -356.000;  -81.000
248.521;  -12.650; -334.000; -337.000
248.663;  -53.475; -236.000; -267.000
248.806;  -16.025; -300.000; -266.000
248.948; -104.575; -886.000; -763.000
249.090;  -46.400; -428.000; -398.000
249.233;  -54.300; -344.000; -381.000
249.375;  -52.700; -474.000; -451.000
249.518;  -24.300;  -83.000; -133.000
249.660;   -7.250; -103.000;    3.000
249.802; -177.150;-1303.000;-1189.000
249.945;  -86.300; -612.000; -540.000
250.087; -120.175; -834.000; -768.000
250.229;  -41.225; -362.000; -480.000
250.371;  -75.825; -494.000; -439.000
250.514;  -50.950; -310.000; -244.000
250.656;  -34.200;   69.000;  102.000
250.798; -109.225; -849.000; -800.000
250.940;  -65.725; -322.000; -322.000
251.083;  -22.400; -335.000; -111.000
251.225;   34.475;  338.000;  310.000
251.367;  -40.800; -274.000; -373.000
251.509;  -47.375; -265.000; -210.000
251.651;  -89.800; -731.000; -671.000
251.794;   43.075;  538.000;  632.000
251.936; -117.150; -821.000; -747.000
252.078;  -88.450; -540.000; -461.000
252.220;  -61.550; -645.000; -477.000
252.362;   72.550;  344.000;  462.000
252.504;  -74.250; -677.000; -584.000
252.646; -116.775; -875.000; -722.000
252.788;   -7.075;   14.000; -128.000
252.931;  -44.775; -257.000; -253.000
253.073;  -39.075; -376.000; -317.000
253.215;  -16.050;  141.000;  122.000
253.357;  -19.350;   82.000; -153.000
253.499;  -48.350; -374.000; -234.000
253.641;  -82.350; -749.000; -594.000
253.783;  -97.350; -609.000; -527.000
253.925;  -84.375; -586.000; -591.000
254.067; -108.000; -744.000; -667.000
254.209;  -18.075; -391.000; -259.000
254.351; -141.075; -865.000; -883.000
254.493;  -60.850; -441.000; -417.000
254.635; -146.050; -936.000; -818.000
254.777;  -77.300; -752.000; -687.000
254.918;  -80.400; -512.000; -430.000
255.060;  -37.150; -551.000; -395.000
255.202;  -61.175; -473.000; -261.000
255.344;  -64.400; -658.000; -455.000
255.486;  -84.425; -471.000; -406.000
255.628; -109.625; -780.000; -781.000
255.770;  -92.300; -676.000; -536.000
255.912;  -55.850; -559.000; -468.000
256.053; -114.300; -730.000; -508.000
256.195;  162.925; 1008.000;  903.000
256.337; -102.100; -861.000; -595.000
256.479;   77.900;  532.000;  416.000
256.621;  -50.500; -394.000; -212.000
256.762;  -97.425; -789.000; -742.000
256.904;   37.675;  485.000;  487.000
257.046;  -38.100; -381.000; -271.000
257.188;  -58.825; -351.000; -264.000
257.329;  -69.150; -525.000; -464.000
257.471; -130.125; -939.000; -807.000
257.613;  -64.775; -584.000; -498.000
257.755; -144.650;-1073.000; -982.000
257.896;   48.300;  286.000;  392.000
258.038;  -67.775; -403.000; -352.000
258.180;  -41.175; -354.000; -279.000
258.321;  -86.050; -581.000; -457.000
258.463;   15.575;  -71.000;  133.000
258.605;  -91.700; -562.000; -570.000
258.746;  -95.375; -886.000; -772.000
258.888; -153.375;-1026.000;-1020.000
259.029;   21.800;  121.000;   -8.000
259.171;  -98.750; -614.000; -550.000
259.313;    5.250;  -49.000;  -47.000
259.454;  -74.925; -536.000; -414.000
259.596;  -56.125; -483.000; -390.000
259.737;  -74.250; -590.000; -474.000
259.879;   56.300;  217.000;  311.000
260.020;   81.000;  901.000;  636.000
260.162;  -37.025; -146.000; -253.000
260.303; -128.725; -768.000; -687.000
260.445;  -91.750; -609.000; -613.000
260.586;   18.850;  392.000;  157.000
260.728;  -51.775; -360.000; -248.000
260.869;  -77.225; -350.000; -343.000
261.011;   81.350;  706.000;  537.000
261.152;  -67.775; -479.000; -319.000
261.293;  -73.600; -576.000; -595.000
261.435;  -42.375; -219.000; -184.000
261.576;  -26.625; -455.000; -325.000
261.718;   50.050;  420.000;  470.000
261.859; -113.700; -940.000; -949.000
262.000; -142.825; -951.000;-1016.000
262.142;   -8.575;  -52.000;  -60.000
262.283; -134.400; -808.000; -691.000
262.424;  -89.400; -666.000; -625.000
262.566; -142.650;-1161.000; -983.000
262.707; -110.650; -840.000; -830.000
262.848; -136.075; -769.000; -726.000
262.990;  -43.850; -362.000; -345.000
263.131;   79.800;  650.000;  681.000
263.272;   -0.900;  -61.000;  -41.000
263.413;  -88.550; -589.000; -561.000
263.555;  -66.025; -669.000; -143.000
263.696;  -79.450; -550.000; -641.000
263.837;  -50.625; -449.000; -551.000
263.978;  -11.900;   -5.000;  -77.000
264.119;  -51.975; -283.000; -264.000
264.261; -126.975; -847.000; -630.000
264.402;   -3.000;   33.000;   40.000
264.543;  -84.650; -509.000; -524.000
264.684;   -6.375;   61.000;  -50.000
264.825;  -80.425; -816.000; -538.000
264.966;    3.750;  -84.000;  -67.000
265.107; -115.375; -646.000; -670.000
265.248; -108.150; -825.000; -812.000
265.390;  -20.275;  152.000;   -9.000
265.531;  -15.150; -238.000; -107.000
265.672;  -98.200; -557.000; -630.000
265.813;   69.125;  563.000;  439.000
265.954; -158.500; -959.000; -940.000
266.095;   -7.775; -372.000; -322.000
266.236; -102.475; -686.000; -548.000
266.377;  -47.150; -243.000; -297.000
266.518;  -77.275; -619.000; -547.000
266.659;   27.050;  170.000;  268.000
266.800;   10.525;   83.000;   85.000
266.941;  -78.050; -487.000; -478.000
267.082;   41.500;  354.000;   99.000
267.223;  -51.350; -344.000; -273.000
267.364; -127.425; -892.000; -686.000
267.504;    7.225;    3.000;  135.000
267.645;  -14.600;  160.000;   67.000
267.786;  -26.775; -147.000;  -86.000
267.927;  -89.350; -473.000; -379.000
268.068;  -11.275; -186.000;  -61.000
268.209;  -58.325; -175.000; -413.000
268.350;  -59.550; -388.000; -532.000
268.490;  -92.200; -648.000; -521.000
268.631;   35.250;  127.000;  225.000
268.772; -108.725; -874.000; -647.000
268.913;  -41.175; -328.000; -476.000
269.054;  -18.525; -117.000;   12.000
269.194;  -58.350; -418.000; -402.000
269.335; -155.475;-1137.000;-1074.000
269.476;  -19.575;   33.000;  -35.000
269.617;  -50.025; -347.000; -392.000
269.757;  -92.450; -713.000; -646.000
269.898; -117.800; -856.000; -613.000
270.039;  -54.850; -415.000; -405.000
270.180; -150.075; -952.000; -816.000
270.320;  -19.200; -190.000; -250.000
270.461;  -49.100; -277.000; -249.000
270.602;  -15.450; -186.000; -156.000
270.742; -130.125; -868.000; -943.000
270.883;  -50.825; -442.000; -390.000
271.023;  -70.650; -358.000; -357.000
271.164;  -77.450; -607.000; -528.000
271.305; -115.375; -666.000; -654.000
271.445;  -87.625; -722.000; -683.000
271.586;  -71.900; -462.000; -283.000
271.726;  -49.700; -397.000; -322.000
271.867;  -73.250; -594.000; -534.000
272.008;  152.950; -473.000; -285.000
272.148;  117.050;  462.000;  468.000
272.289;   13.000; -113.000; -181.000
272.429;    5.875;   19.000;  185.000
272.570;  -94.075; -633.000; -737.000
272.710; -118.350; -825.000; -775.000
272.851;  -19.850;  113.000; -130.000
272.991; -175.450;-1173.000;-1077.000
273.131;  -74.500; -419.000; -459.000
273.272; -106.500; -683.000; -723.000
273.412;    3.425; -143.000;  -31.000
273.553;  -64.425; -488.000; -507.000
273.693;  133.600;  913.000;  858.000
273.834; -108.150; -894.000; -692.000
273.974;  -76.700; -664.000; -615.000
274.114; -102.225; -772.000; -560.000
274.255;   72.150;  414.000;  373.000
274.395;  -12.275; -180.000; -125.000
274.535;   58.200;  199.000;  350.000
274.676;   22.475;  225.000;   94.000
274.816;    3.350;  110.000;   34.000
274.956;  -99.000; -624.000; -690.000
275.097;  -80.275;-1014.000; -922.000
275.237; -129.475; -913.000; -803.000
275.377;  -96.825; -778.000; -689.000
275.517; -158.700; -878.000; -937.000
275.658;  -65.150; -590.000; -555.000
275.798;  -80.975; -606.000; -413.000
275.938;   19.650;  215.000;  323.000
276.078; -100.550; -626.000; -395.000
276.218;    6.925;   99.000;  104.000
276.359; -135.725;-1026.000;-1024.000
276.499;  -78.050; -605.000; -446.000
276.639;  -33.150; -305.000; -151.000
276.779;  -45.125; -475.000; -357.000
276.919; -114.800; -783.000; -624.000
277.059;  -23.100; -261.000; -212.000
277.199;  -57.950; -357.000; -259.000
277.340;   51.675;  287.000;  175.000
277.480; -122.800; -840.000; -693.000
277.620;   20.650;  192.000;   16.000
277.760; -205.950;-1533.000;-1294.000
277.900;   16.200;  113.000;   33.000
278.040;    0.375;  137.000;  159.000
278.180;   29.525;  270.000;  170.000
278.320;   -5.150;   21.000;   56.000
278.460;  -68.650; -443.000; -469.000
278.600;  -96.300; -708.000; -598.000
278.740;   60.100;  448.000;  224.000
278.880;  -84.225; -768.000; -791.000
279.020;   -6.425; -194.000; -144.000
279.160;  -98.525; -672.000; -595.000
279.300; -116.575; -926.000; -873.000
279.440;  -95.300; -709.000; -622.000
279.579;  -21.875;-1014.000; -929.000
279.719;  -59.350; -410.000; -394.000
279.859;   63.275;   -4.000;   41.000
279.999;    5.075; -208.000;  101.000
280.139;  -20.975; -435.000; -387.000
280.279;  -85.500; -708.000; -745.000
280.419;  -15.100; -229.000; -147.000
280.559;  -36.675; -259.000; -180.000
280.698;  -80.175; -790.000; -639.000
280.838; -112.800; -778.000; -800.000
280.978; -108.975; -846.000; -790.000
281.118; -118.300; -811.000; -704.000
281.257;    7.950;   24.000;    6.000
281.397; -137.425;-1094.000; -960.000
281.537;  -80.550; -599.000; -712.000
281.677;  -24.250; -150.000; -101.000
281.816;  -78.125; -700.000; -630.000
281.956;  -32.350; -193.000; -257.000
282.096;  -57.900; -539.000; -396.000
282.235; -114.450; -672.000; -638.000
282.375;  -30.475; -243.000;  -98.000
282.515; -120.950; -715.000; -707.000
282.654;   30.225;   29.000;  106.000
282.794;   17.600;  388.000;  244.000
282.934;  -52.750; -530.000; -491.000
283.073; -140.475;-1030.000; -857.000
283.213;  -44.850; -460.000; -467.000
283.353;  -45.400; -408.000; -349.000
283.492;  -37.450; -264.000; -296.000
283.632;  -39.425; -254.000; -168.000
283.771;  -97.750; -859.000; -730.000
283.911;  -80.625; -369.000; -260.000
284.050;  -98.175; -794.000; -748.000
284.190; -167.000;-1229.000;-1096.000
284.329; -148.125;-1055.000; -964.000
284.469;  -78.325; -516.000; -591.000
284.608;  -65.575; -559.000; -598.000
284.748;  -77.025; -614.000; -570.000
284.887;  -16.675;  -87.000;  -20.000
285.027; -131.225; -844.000; -892.000
285.166;  -32.125; -192.000; -249.000
285.306;  -17.100; -116.000;  -33.000
285.445;  -45.800; -229.000; -343.000
285.584; -111.225; -630.000; -494.000
285.724;  -43.750; -282.000; -322.000
285.863; -125.000; -857.000; -507.000
286.002;  -40.825; -366.000; -276.000
286.142; -127.825; -715.000; -622.000
286.281;  -84.725; -525.000; -493.000
286.420;  -82.175; -554.000; -417.000
286.560;   99.550;  653.000;  623.000
286.699; -151.800; -958.000; -912.000
286.838;  -90.225; -590.000; -591.000
286.978; -102.700; -533.000; -537.000
287.117; -147.225;-1085.000; -950.000
287.256;  -32.375; -228.000; -211.000
287.395;  -39.575; -197.000; -378.000
287.535;  -63.875; -370.000; -298.000
287.674;  -72.250; -509.000; -484.000
287.813;   55.275;  661.000;  533.000
287.952; -123.525;-1010.000; -871.000
288.091; -160.375;-1049.000; -915.000
288.231;   12.525;   13.000;   15.000
288.370; -173.150;-1217.000;-1200.000
288.509;  -80.200; -728.000; -645.000
288.648; -106.475; -770.000; -548.000
288.787;  -26.275; -243.000;  -87.000
288.926;  -74.625; -454.000; -475.000
289.065;  130.125;  859.000;  672.000
289.204;  -61.400; -377.000; -217.000
289.344; -100.300; -791.000; -690.000
289.483;    6.025;  416.000;  304.000
289.622;  -26.800; -291.000; -149.000
289.761;  -28.250; -309.000; -166.000
289.900; -109.075; -785.000; -626.000
290.039;  -32.725;  -12.000;  -95.000
290.178;  -24.300; -274.000; -180.000
290.317;  -90.375; -618.000; -479.000
290.456;  -57.850; -463.000; -451.000
290.595; -143.525; -961.000; -833.000
290.734; -142.200; -904.000; -891.000
290.873;  -85.725; -456.000; -420.000
291.011; -110.875; -833.000; -843.000
291.150; -114.200; -770.000; -682.000
291.289;  -29.475; -343.000; -110.000
291.428;  -90.150; -599.000; -480.000
291.567;  -50.950; -370.000; -442.000
291.706;  -13.375;  109.000;  154.000
291.845;  -85.250; -597.000; -505.000
291.984; -167.500;-1234.000;-1061.000
292.122;   65.575;  602.000;  582.000
292.261;   34.800;  620.000;  463.000
292.400;   10.250; -144.000;  211.000
292.539; -141.325; -959.000; -813.000
292.678;  -28.625; -325.000; -300.000
292.816; -173.275;-1136.000; -965.000
292.955;  -89.475; -844.000; -684.000
293.094;  -28.400; -173.000; -337.000
293.233;  -47.375; -556.000; -400.000
293.371;  -38.175; -225.000;  -84.000
293.510; -111.500; -866.000; -780.000
293.649; -133.150; -959.000; -924.000
293.787;  -76.250;-1083.000;-1012.000
293.926;   -9.000; -113.000;  -32.000
294.065;  -43.075; -379.000; -290.000
294.203;   35.625;  298.000;  406.000
294.342;   25.325;   74.000;  156.000
294.481; 5850.950;51180.000; -836.000
294.619;  -34.825; -425.000; -582.000
294.758; -157.375;-1230.000;-1137.000
294.896;   65.525; -125.000;    5.000
295.035; -138.625;-1040.000;-1006.000
295.174; -114.875;-1082.000; -954.000
295.312;  -53.825; -323.000; -203.000
295.451;  -19.775; -307.000; -428.000
295.589;  -74.725; -389.000; -518.000
295.728;   30.250; -292.000; -165.000
295.866;  -12.400;  -36.000;  -51.000
296.005;  -54.875; -584.000; -341.000
296.143;  -78.550; -558.000; -596.000
296.282; -111.125; -957.000; -881.000
296.420;  -85.775; -657.000; -557.000
296.559;  -86.275; -892.000; -633.000
296.697;  -14.350; -847.000; -665.000
296.835;   20.050;-1141.000;-1002.000
296.974;   34.475;  -23.000;   39.000
297.112;   -7.500; -443.000; -504.000
297.251;  -86.650; -815.000; -755.000
297.389;   57.000; -576.000; -438.000
297.527;   23.950; -145.000;  -83.000
297.666;  -50.275; -486.000; -438.000
297.804;  -78.375; -404.000; -264.000
297.942;  -12.400; -136.000; -161.000
298.081;  -22.075; -183.000;   63.000
298.219;   39.825;  -17.000;  -19.000
298.357;   31.625; -144.000;  -71.000
298.495;   18.475; -810.000; -812.000
298.634;   54.375;  245.000;  219.000
298.772;   39.350; -220.000; -338.000
298.910;  -47.700; -309.000; -182.000
299.048;  -21.725; -130.000; -153.000
299.187;  -35.825; -350.000; -250.000
299.325;   18.550;   52.000;  122.000
299.463;   23.375; -389.000; -299.000
299.601;   85.550; -327.000; -271.000
299.739; -134.150; -908.000; -883.000
299.877;  -81.700; -791.000; -703.000
300.016;  -70.425;-1095.000; -935.000
300.154;  132.875;  -19.000; -161.000
300.292;   25.275; -428.000; -348.000
300.430;   21.400; -408.000; -291.000
300.568; -114.925; -940.000; -874.000
300.706;  -58.500; -366.000; -469.000
300.844; -108.350;-1108.000; -979.000
300.982;  100.375;  246.000;  282.000
301.120; -124.575; -965.000; -866.000
301.258;  -65.675; -812.000; -705.000
301.396;   22.350;  104.000;  -41.000
301.534;   49.075; -218.000; -293.000
301.672;  -33.125; -664.000; -521.000
301.810;   -0.400; -613.000; -545.000
301.948;   69.500;   53.000;  149.000
302.086;  532.925; -250.000;  -32.000
302.224;  760.850; -610.000; -585.000
302.362;   18.125; -558.000; -622.000
302.500;  -52.675; -923.000; -893.000
302.638;   94.950;  128.000;  245.000
302.776;  -16.725; -352.000; -408.000
302.913;   37.700;  447.000;  236.000
303.051;  -34.100;  -86.000;  -23.000
303.189;   50.350;   90.000;  118.000
303.327;  -40.850; -341.000; -256.000
303.465;  -84.700; -832.000; -588.000
303.603; -109.025; -805.000; -604.000
303.740;   94.100;  417.000;  241.000
303.878;  -16.625; -800.000; -759.000
304.016;  -91.325; -915.000; -790.000
304.154; -146.850;-1123.000;-1152.000
304.291;  -45.400; -505.000; -554.000
304.429;   -0.650;  102.000;   74.000
304.567; -121.525; -908.000; -893.000
304.705;  -60.425; -408.000; -515.000
304.842;   57.875; -616.000; -540.000
304.980;   41.250;  215.000;   35.000
305.118;   23.825; -367.000; -365.000
305.255;  -96.875; -945.000; -927.000
305.393;   60.450;  178.000;  239.000
305.531; -119.975;-1173.000; -956.000
305.668;  -53.725; -663.000; -582.000
305.806;   67.325; -358.000; -439.000
305.943;   79.750; -629.000; -637.000
306.081;   21.175; -378.000; -267.000
306.219; -109.900; -863.000; -748.000
306.356;    8.925;  158.000;   27.000
306.494;  111.575;  981.000;  761.000
306.631;   -7.050;  -11.000;  -55.000
306.769;  -13.025; -613.000; -485.000
306.906;  -28.700; -284.000; -258.000
307.044;  -67.275; -473.000; -488.000
307.181;  -69.825; -410.000; -332.000
307.319;   13.350;  112.000;   87.000
307.456; -180.300;-1191.000;-1153.000
307.594; -109.500; -980.000; -727.000
307.731;  -18.450; -371.000; -164.000
307.868;    6.950;  -15.000;   20.000
308.006; -155.200; -961.000; -847.000
308.143;  -78.925; -618.000; -330.000
308.281;  104.625;  -37.000; -254.000
308.418;  -39.925; -748.000; -640.000
308.555;  -75.175; -400.000; -250.000
308.693;  -69.575; -577.000; -573.000
308.830; -117.950; -712.000; -657.000
308.967;  -21.950; -215.000;  -95.000
309.105;  -49.575; -507.000; -396.000
309.242;    6.800; -468.000; -367.000
309.379;  180.450; -577.000; -655.000
309.517;  -84.675; -936.000; -948.000
309.654; -123.125; -910.000; -734.000
309.791;  -84.325; -662.000; -580.000
309.928; -125.500; -977.000; -914.000
310.065;  162.950;  819.000;  697.000
310.203;  -36.625; -825.000; -850.000
310.340;  -23.975; -465.000; -321.000
310.477;  -75.450; -412.000; -516.000
310.614;  -72.900; -383.000; -473.000
310.751;  -89.775; -427.000; -518.000
310.889;  -22.425;    1.000;   11.000
311.026; -156.575;-1161.000; -939.000
311.163;  -38.350; -386.000; -380.000
311.300;  -82.900; -512.000; -479.000
311.437;  -70.700; -658.000; -619.000
311.574; -164.725;-1226.000; -985.000
311.711;  -57.075; -595.000; -433.000
311.848;  -56.150; -380.000; -388.000
311.985;    9.950;  270.000;   93.000
312.122; -121.625; -932.000; -762.000
312.259; -116.725; -941.000; -994.000
312.396;  -94.425; -508.000; -551.000
312.533;  -83.675; -812.000; -790.000
312.670; -138.350;-1070.000; -898.000
312.807;  -45.650; -352.000; -367.000
312.944;  -90.150; -513.000; -611.000
313.081;  -31.550; -150.000; -415.000
313.218; -115.075;-1111.000; -867.000
313.355;    0.400; -531.000; -449.000
313.492;  -22.175; -455.000; -292.000
313.629;  131.650;  815.000;  735.000
313.766; -171.275;-1176.000;-1008.000
313.902;  -20.250; -186.000;   21.000
314.039;  -62.700; -372.000; -289.000
314.176;   20.350;  286.000;  192.000
314.313;  -71.550; -569.000; -473.000
314.450;  -77.650; -788.000; -684.000
314.587;  -71.150; -468.000; -480.000
314.723;   -2.850;  -78.000;  130.000
314.860;   20.725;  318.000;  332.000
314.997;   12.850;  223.000;  142.000
315.134;  -57.075; -385.000; -368.000
315.270;  -31.350; -480.000; -496.000
315.407; -142.350;-1094.000; -967.000
315.544;  -64.475; -657.000; -538.000
315.681;  -84.450; -681.000; -565.000
315.817;   25.150; -133.000; -176.000
315.954;  -10.450; -613.000; -392.000
316.091; -128.925;-1045.000;-1023.000
316.227;  -41.900;  -71.000; -179.000
316.364;   -5.425;   23.000;    6.000
316.500;  -35.800; -113.000; -300.000
316.637;  -36.950; -181.000; -302.000
316.774;  -91.650; -625.000; -358.000
316.910;  -87.350; -598.000; -629.000
317.047;  -79.675; -487.000; -351.000
317.183;  -60.450; -435.000; -566.000
317.320;   -3.775; -367.000; -321.000
317.456;  -61.825; -733.000; -805.000
317.593; -109.425; -598.000; -641.000
317.729;   -4.875;  168.000;  -67.000
317.866; -209.850;-1434.000;-1285.000
318.002;  -88.675; -708.000; -948.000
318.139; -100.550; -883.000; -867.000
318.275; -115.100;-1003.000; -738.000
318.412;  -71.975; -517.000; -336.000
318.548;  -43.475; -751.000; -720.000
318.685; -121.425; -985.000; -888.000
318.821; -105.175; -762.000; -735.000
318.957;  -23.850;   34.000;  -23.000
319.094;   43.250;  297.000;  154.000
319.230;  -85.975; -756.000; -742.000
319.367;   86.250; -471.000; -520.000
319.503;   26.350; -538.000; -436.000
319.639; -102.225; -877.000; -793.000
319.775;  -77.950; -750.000; -685.000
319.912;  -68.125; -424.000; -519.000
320.048; -110.800;-1184.000;-1184.000
320.184;   81.175;   59.000;   70.000
320.321;  -61.450; -497.000; -467.000
320.457;   72.125;  475.000;  662.000
320.593;  -77.800; -375.000; -382.000
320.729;  -93.025; -732.000; -734.000
320.866;  -83.550; -577.000; -635.000
321.002;  -82.325; -759.000; -809.000
321.138;  -25.000; -135.000; -211.000
321.274;   66.275; -148.000; -115.000
321.410;  -28.025; -585.000; -353.000
321.546;  -60.350;-1011.000; -911.000
321.683;   25.650;  400.000;  185.000
321.819;    6.825;  -48.000; -117.000
321.955; -111.200; -743.000; -722.000
322.091;  -50.850; -585.000; -540.000
322.227;  -25.475; -382.000; -202.000
322.363;  -28.275; -320.000; -215.000
322.499;  -51.025; -343.000; -331.000
322.635;  138.425;  636.000;  443.000
322.771;    7.875; -139.000;   12.000
322.907;   67.350;  129.000;  327.000
323.043;  -44.500; -115.000; -206.000
323.179;  -43.700; -394.000; -363.000
323.315;  -23.400; -401.000; -371.000
323.451;   74.050; -328.000; -236.000
323.587;   37.350;  -60.000;  -77.000
323.723;    1.050; -682.000; -601.000
323.859;  -30.600; -258.000;  -76.000
323.995;  -44.400; -467.000; -409.000
324.131; -138.700; -967.000; -892.000
324.267;  -35.750; -254.000; -276.000
324.402; -136.225; -960.000; -983.000
324.538;  -12.525; -279.000; -104.000
324.674;    6.000;  164.000;   77.000
324.810;   90.125;  226.000;  308.000
324.946;  -23.075; -810.000; -658.000
325.082;  -63.225; -568.000; -475.000
325.217;  -19.175;  -62.000;   16.000
325.353; -117.850; -764.000; -659.000
325.489;  -95.000; -540.000; -506.000
325.625;  -79.825; -579.000; -525.000
325.760;   70.375;  517.000;  376.000
325.896;  -26.850; -515.000; -702.000
326.032;  -59.800; -403.000; -352.000
326.168;  -53.200; -462.000; -369.000
326.303;  -85.925; -352.000; -461.000
326.439;  -32.675; -336.000; -276.000
326.575;  -14.825; -190.000;  -29.000
326.710;   -5.975; -156.000;  -30.000
326.846;  -17.875;  146.000;  103.000
326.982;  -82.525; -530.000; -548.000
327.117;  -90.325; -481.000; -442.000
327.253;  -97.925; -745.000; -742.000
327.388; -180.550;-1137.000;-1153.000
327.524;  -64.550; -811.000; -578.000
327.659;  -31.025;  -58.000;  -22.000
327.795;  -20.625;   69.000;   45.000
327.931;  -91.575; -723.000; -499.000
328.066;  -39.500; -417.000; -276.000
328.202;  -36.525;   12.000; -129.000
328.337;  107.300;  957.000;  713.000
328.473;   35.650;  -12.000;  -74.000
328.608;  -14.225; -256.000; -267.000
328.743; -100.050; -799.000; -664.000
328.879;   34.025;  214.000;  114.000
329.014;  -43.900; -102.000; -122.000
329.150;  -86.150; -358.000; -483.000
329.285;  -75.600; -465.000; -466.000
329.421;  -37.850; -548.000; -246.000
329.556;  -31.150;  -36.000;   85.000
329.691;  -86.075; -633.000; -615.000
329.827;  -80.025; -626.000; -480.000
329.962;  -44.775;  131.000; -301.000
330.097;  -92.025; -673.000; -585.000
330.233;  -41.075; -410.000; -223.000
330.368; -136.050; -839.000; -628.000
330.503;  -20.250;    3.000;   98.000
330.638;  -15.425;  -93.000; -125.000
330.774;  -68.400; -609.000; -530.000
330.909;  -51.750; -434.000; -244.000
331.044;  -98.450; -714.000; -708.000
331.179; -178.275;-1217.000;-1109.000
331.315;   11.900;   77.000;   20.000
331.450;    3.125;  157.000;  285.000
331.585;  -94.825; -805.000; -706.000
331.720;  -89.125; -510.000; -460.000
331.855;   -5.800;  -35.000; -102.000
331.990;  246.100;   62.000;  138.000
332.126;  129.375; -110.000;   71.000
332.261;  -20.600; -379.000; -265.000
332.396;   -8.425; -135.000; -242.000
332.531;  -92.575;-1074.000;-1031.000
332.666;   35.900; -519.000; -363.000
332.801; -105.850; -726.000; -807.000
332.936;  -27.850; -192.000; -122.000
333.071; -144.275; -870.000; -817.000
333.206;   22.775;  307.000;  379.000
333.341;   21.000;  344.000;  418.000
333.476;  -89.950; -627.000; -623.000
333.611;  -39.325; -251.000; -173.000
333.746;  -31.025; -381.000; -464.000
333.881; -135.675; -973.000; -935.000
334.016; -128.100; -936.000; -917.000
334.151; -123.200; -746.000; -702.000
334.286;   20.825;  152.000;  186.000
334.421;  -27.100; -125.000; -178.000
334.556;  -80.075; -611.000; -567.000
334.690; -106.000; -631.000; -577.000
334.825;   60.000;  381.000;   83.000
334.960;  -70.100; -285.000; -413.000
335.095;   -6.375;  135.000;  -91.000
335.230; -106.675; -722.000; -738.000
335.365; -148.700;-1084.000; -990.000
335.499; -140.075;-1108.000;-1037.000
335.634;   14.075;    9.000;  534.000
335.769; -113.700; -755.000; -720.000
335.904;  -75.850; -603.000; -561.000
336.038;  -77.750; -735.000; -657.000
336.173; -131.550;-1206.000;-1194.000
336.308;  -10.125; -116.000; -189.000
336.443;   21.700; -544.000; -634.000
336.577;  -97.725; -936.000; -787.000
336.712;   48.950;   -4.000;  -12.000
336.847;  -60.300; -724.000; -607.000
336.981;   40.000; -272.000; -208.000
337.116;  240.500;  615.000;  501.000
337.250;  121.325; -434.000; -421.000
337.385;  267.325; -297.000; -208.000
337.520;   95.800; -632.000; -603.000
337.654;  -54.450; -215.000; -126.000
337.789; -123.025; -989.000; -933.000
337.923;  -49.900; -104.000; -205.000
338.058;  -86.250; -673.000; -738.000
338.192;  -44.500; -611.000; -488.000
338.327;   -5.325;  -18.000; -155.000
338.461;  -79.525; -299.000; -469.000
338.596;  -86.925; -780.000; -638.000
338.730; -115.575; -767.000; -803.000
338.865;  100.700;  -46.000; -140.000
338.999;  -62.300; -846.000; -702.000
339.134;  -32.875; -634.000; -536.000
339.268;    9.450; -741.000; -603.000
339.403;  369.725; -740.000; -775.000
339.537;  127.000; -894.000; -820.000
339.671; -106.950; -829.000; -813.000
339.806;  -77.225; -556.000; -512.000
339.940;    9.650; -261.000; -235.000
340.074; -110.575; -685.000; -510.000
340.209;  -33.800; -351.000; -230.000
340.343;  -96.700; -517.000; -573.000
340.477;  147.225;  998.000; 1036.000
340.612;  -55.600;-1033.000; -900.000
340.746;  160.275; -199.000; -243.000
340.880;  -93.975; -924.000; -785.000
341.014;  -21.075;  -45.000; -154.000
341.149; -127.700; -756.000; -718.000
341.283; -111.150; -839.000; -754.000
341.417; -122.000;-1124.000; -938.000
341.551;   90.000; -768.000; -708.000
341.685;  -48.375; -633.000; -611.000
341.820;  -55.300; -562.000; -493.000
341.954;  -63.000; -218.000; -349.000
342.088; -149.625;-1102.000;-1019.000
342.222;   46.675;  565.000;  618.000
342.356;  -58.500; -395.000; -335.000
342.490; -110.750; -880.000; -841.000
342.624;  -47.025; -339.000; -242.000
342.758;  -36.225; -364.000; -312.000
342.892;  -72.325; -710.000; -585.000
343.026;  -53.200;  -58.000; -116.000
343.160;  -65.150; -426.000; -376.000
343.294;  -95.575; -474.000; -337.000
343.428;  -31.975; -488.000; -448.000
343.562;  -28.625; -172.000;  -23.000
343.696;  -35.200; -385.000; -314.000
343.830;  -50.025; -362.000; -356.000
343.964;   16.550; -231.000; -168.000
344.098;  739.850;  199.000;   70.000
344.232;  637.850; -266.000; -127.000
344.366;   56.200; -567.000; -453.000
344.500;   10.625; -665.000; -744.000
344.634;    9.600; -324.000; -164.000
344.768;  -30.575; -531.000; -341.000
344.902;   -4.825;  278.000;  256.000
345.035;  -82.075; -556.000; -496.000
345.169; -146.100; -933.000; -656.000
345.303;  -56.225; -308.000; -482.000
345.437;  -83.100; -826.000; -717.000
345.571;  -65.125; -675.000; -594.000
345.704;  -79.750; -309.000; -532.000
345.838;  -22.050; -331.000; -284.000
345.972;  -64.800; -543.000; -495.000
346.106;  178.450; -179.000; -190.000
346.239;  390.925; -312.000; -243.000
346.373;   -2.600; -343.000; -302.000
346.507; -154.100; -950.000; -962.000
346.640;  111.250;  -30.000;   13.000
346.774;  -79.975; -650.000; -797.000
346.908;  -14.850; -138.000;  -11.000
347.041;  -99.475; -646.000; -593.000
347.175;   11.800;  259.000;   27.000
347.309;  -90.575; -698.000; -628.000
347.442; -109.200; -883.000; -732.000
347.576;  214.675;  670.000;  668.000
347.709;  149.900; -123.000;  -52.000
347.843; -109.025; -933.000; -825.000
347.976;   31.050;  235.000;  294.000
348.110; -191.800;-1268.000;-1186.000
348.243; -105.925; -679.000; -772.000
348.377;  -13.000;  -26.000;   60.000
348.510;   57.350;  403.000;  540.000
348.644;  -40.900;  -37.000; -159.000
348.777;    0.475;  180.000;  191.000
348.911;  -65.750; -142.000; -112.000
349.044;  141.225;  471.000;  448.000
349.178;   86.100;-1069.000;-1006.000
349.311;  103.375;  141.000;  255.000
349.444;  -19.525; -927.000; -813.000
349.578;  -35.000; -347.000; -200.000
349.711; -115.600; -959.000; -862.000
349.845;  -18.675; -661.000; -591.000
349.978; -156.800;-1224.000;-1137.000
350.111;  -83.500; -546.000; -612.000
350.244;  -91.450; -596.000; -700.000
350.378;    1.050; -392.000; -393.000
350.511;  -81.350; -393.000; -426.000
350.644; -102.200; -808.000; -806.000
350.778;   16.050;  168.000;  104.000
350.911;   -5.850;  134.000;  140.000
351.044; -112.025; -685.000; -615.000
351.177;  -44.175; -321.000; -281.000
351.310;  -21.925;    3.000; -131.000
351.444; -103.725; -888.000; -788.000
351.577;   78.950;  140.000;   90.000
351.710;   95.950;  593.000;  417.000
351.843;  -44.925; -165.000;  -77.000
351.976;  -10.750;  149.000;  -79.000
352.109; -102.450; -621.000; -612.000
352.242;  -48.150; -464.000; -419.000
352.376;  -89.925; -580.000; -636.000
352.509;  103.325; -437.000; -356.000
352.642;  -37.100; -654.000; -604.000
352.775;   38.525; -141.000;  -98.000
352.908; -121.825; -933.000; -904.000
353.041; -106.175; -814.000; -824.000
353.174;  -72.700; -551.000; -424.000
353.307;  -97.175; -753.000; -764.000
353.440;   51.025;  541.000;  453.000
353.573; -114.875; -957.000;-1008.000
353.706;  -42.625; -384.000; -558.000
353.839;  -10.475; -264.000; -220.000
353.971;  -91.600; -657.000; -512.000
354.104; -102.200; -896.000; -835.000
354.237;  -61.950; -627.000; -662.000
354.370;  -99.125; -846.000; -879.000
354.503; -202.800;-1231.000;-1308.000
354.636;  -35.450; -529.000; -348.000
354.769; -132.625; -937.000; -860.000
354.902;  -15.975; -230.000; -139.000
355.034;  -28.525; -164.000; -220.000
355.167;  -13.050; -262.000; -162.000
355.300; -111.700;-1061.000; -880.000
355.433;  993.150;  -71.000;  -14.000
355.565; 1519.875; -402.000; -384.000
355.698;  394.675; -356.000; -296.000
355.831;   -7.775; -882.000; -801.000
355.964;   56.100; -285.000; -170.000
356.096; -107.000; -856.000; -843.000
356.229;   -7.025; -523.000; -530.000
356.362;  316.275; -373.000; -266.000
356.494;  623.650; -229.000; -162.000
356.627;  408.475;  269.000;  377.000
356.760;  651.175;  120.000;   53.000
356.892;  983.450; -286.000; -601.000
357.025;  546.550;  403.000;  389.000
357.157;  469.600; -167.000; -179.000
357.290;  707.500; -856.000; -713.000
357.423;  182.425; -667.000; -556.000
357.555;   92.375; -217.000; -228.000
357.688;  105.125; -483.000; -364.000
357.820;  382.650; -870.000; -877.000
357.953; 3212.550; -563.000; -589.000
358.085;  660.850; -632.000; -612.000
358.218;  803.650;-1131.000; -932.000
358.350;  159.300;  -58.000;  312.000
358.483; -142.850;-1300.000;-1187.000
358.615;  -54.800;-1182.000;-1078.000
358.747;  -96.800;-1187.000;-1058.000
358.880;    1.100; -810.000; -744.000
359.012;  -16.450; -376.000; -202.000
359.145;  -39.975; -480.000; -511.000
359.277;   29.050; -962.000; -913.000
359.409; 2635.425;  536.000;  231.000
359.542;  668.425; -738.000; -688.000
359.674;   63.175;   46.000;   13.000
359.806;  -71.725; -565.000; -438.000
359.939;  -55.000; -617.000; -516.000
360.071;  -18.300; -583.000; -579.000
360.203;  -23.675; -411.000; -364.000
360.335;   36.400;  164.000;  -16.000
360.468;  164.800; -249.000; -307.000
360.600; 2167.450; -547.000; -454.000
360.732; 2948.900; -546.000; -423.000
360.864;  365.000;-1216.000;-1044.000
360.996;  196.050; -516.000; -554.000
361.129;   13.375; -389.000; -598.000
361.261;   16.075;  110.000; -113.000
361.393;  -42.375; -252.000; -214.000
361.525;   26.025;   94.000;  244.000
361.657;  -70.775; -821.000; -703.000
361.789;  -12.525; -139.000; -155.000
361.921;  142.225; -642.000; -593.000
362.053;  204.450;  524.000;  541.000
362.185;   30.625;  288.000;   72.000
362.318;  -86.750; -709.000; -705.000
362.450;   84.375;  294.000;  444.000
362.582;   35.400; -913.000; -870.000
362.714;  -55.625; -353.000; -332.000
362.846;  -86.750; -606.000; -490.000
362.978; -154.600; -941.000; -811.000
363.109;   15.425; -161.000; -260.000
363.241;  311.075; -739.000; -749.000
363.373;  435.925; -649.000; -564.000
363.505;  695.150; -186.000;  -91.000
363.637;  145.125; -787.000; -601.000
363.769; -146.375;-1067.000;-1080.000
363.901;  -78.275; -596.000; -654.000
364.033; -140.800;-1103.000;-1062.000
364.165;   -5.850; -283.000; -283.000
364.296;   64.700; -316.000; -177.000
364.428;   83.175;-1344.000;-1220.000
364.560;  -85.125; -679.000; -661.000
364.692;  -56.675; -738.000; -835.000
364.824;  169.175; -588.000; -456.000
364.955;  421.900; -402.000; -564.000
365.087; 1014.525;-1097.000; -852.000
365.219;   44.650; -686.000; -816.000
365.351;  -91.800; -526.000; -572.000
365.482;   49.400;  300.000;  240.000
365.614;  -57.350; -402.000; -314.000
365.746; -104.050; -729.000; -752.000
365.877;  -99.975; -706.000; -672.000
366.009;  271.475;  -35.000;  -62.000
366.141;  -82.800;-1249.000;-1134.000
366.272; -102.400; -803.000; -719.000
366.404; -123.800;-1005.000; -874.000
366.535;  -19.575; -139.000;  -12.000
366.667; -115.475; -644.000; -649.000
366.799;   32.500;  353.000;  203.000
366.930; -131.200; -862.000; -996.000
367.062;  111.250; -639.000; -613.000
367.193;  153.600; -872.000; -842.000
367.325;  -56.200; -580.000; -684.000
367.456;    6.250; -246.000;   31.000
367.588;  165.250; -371.000; -318.000
367.719;   -5.475;  -44.000;  -45.000
367.851;  -27.050; -222.000; -241.000
367.982;  -84.375; -875.000; -732.000
368.113;   52.400; -475.000; -358.000
368.245; -146.975; -960.000; -841.000
368.376;  -21.950; -254.000; -302.000
368.508;  -46.725; -188.000; -263.000
368.639; -136.575;-1166.000;-1034.000
368.770;  -46.400; -670.000; -589.000
368.902;  -77.700; -836.000; -926.000
369.033; -124.625; -906.000; -855.000
369.164;  -54.500; -720.000; -653.000
369.296; -115.250; -452.000; -601.000
369.427;   -2.800; -209.000; -144.000
369.558;  -75.500; -593.000; -377.000
369.689;  -94.925; -721.000; -569.000
369.821; -141.950; -951.000; -845.000
369.952;  -20.350;   42.000; -108.000
370.083;  -59.675; -229.000; -108.000
370.214;  -86.225; -735.000; -650.000
370.345;  -18.875;   65.000;   81.000
370.477;  -89.175; -810.000; -790.000
370.608;  158.650; -328.000; -264.000
370.739;  -82.575;-1233.000;-1292.000
370.870;  -73.800;-1102.000; -923.000
371.001;   67.700; -378.000; -467.000
371.132;  -90.750; -754.000; -735.000
371.263;  -23.800;  -42.000; -148.000
371.394; -148.500; -841.000; -748.000
371.525;   25.325;  345.000;  225.000
371.657; -107.675; -808.000; -670.000
371.788;   70.000;  103.000;  199.000
371.919;  120.075; -384.000; -304.000
372.050; 3019.275;  -91.000; -156.000
372.181;  910.875; -188.000; -294.000
372.311;  298.500;   42.000; -127.000
372.442;    4.225; -457.000; -451.000
372.573;  -39.700; -444.000; -340.000
372.704; -143.825;-1008.000; -980.000
372.835;   54.575; -228.000; -289.000
372.966;  -79.625; -646.000; -554.000
373.097;  -80.450; -575.000; -711.000
373.228;  -73.000; -717.000; -542.000
373.359;   78.925; -824.000; -536.000
373.490;  711.450; -881.000; -727.000
373.620;  923.625;-1001.000; -803.000
373.751; 1429.500; -332.000; -396.000
373.882;  635.775; -663.000; -733.000
374.013;   17.100; -449.000; -262.000
374.143;  -47.225; -581.000; -659.000
374.274; -115.275; -987.000; -908.000
374.405;  142.000; -388.000; -276.000
374.536;  333.050; -526.000; -387.000
374.666;  871.275; -759.000; -807.000
374.797;  139.975; -817.000; -868.000
374.928;  657.675; -710.000; -560.000
375.058;  694.800; -535.000; -500.000
375.189;   64.600;  -59.000;  -93.000
375.320; -123.425; -928.000;-1034.000
375.450;  -58.100; -625.000; -616.000
375.581;  -64.050; -526.000; -436.000
375.712;  -37.725; -574.000; -250.000
375.842;  208.600; -438.000; -415.000
375.973;  147.350; -554.000; -513.000
376.103;  -72.600; -665.000; -648.000
376.234;  -78.125; -531.000; -552.000
376.364;  -73.775; -944.000; -867.000
376.495;  283.350;  925.000;  529.000
376.625;  -46.050; -472.000; -485.000
376.756;   14.200; -709.000; -678.000
376.886; -108.450;-1178.000;-1026.000
377.017;   50.550;-1048.000;-1061.000
377.147;  369.375; -786.000; -782.000
377.278;   47.375;  174.000;  228.000
377.408; -142.700; -801.000; -815.000
377.538; -106.425; -707.000; -693.000
377.669; -104.300; -537.000; -613.000
377.799;  -92.650; -645.000; -635.000
377.929;  -78.300; -610.000; -428.000
378.060; -127.450; -781.000; -847.000
378.190;  -63.875; -726.000; -531.000
378.320;  -63.675; -401.000; -406.000
378.451;  -30.525; -131.000;  -22.000
378.581;  -21.125;  -67.000; -110.000
378.711;  128.325; 1035.000;  866.000
378.841;  -36.175; -533.000; -675.000
378.972; -107.600; -871.000; -751.000
379.102;  -32.800; -652.000; -579.000
379.232;  -29.700; -126.000;  -73.000
379.362; -115.025;-1001.000; -885.000
379.492;  -22.300; -373.000; -424.000
379.623;   71.750;    0.000;  111.000
379.753; -124.925;-1107.000; -974.000
379.883;  147.725;   59.000;  156.000
380.013;  -41.400;-1081.000;-1017.000
380.143; -113.400;-1097.000;-1056.000
380.273; -114.375; -985.000; -861.000
380.403;   -9.125; -344.000; -257.000
380.533;  -47.150; -651.000; -664.000
380.663;   47.525;  173.000;  128.000
380.793; -120.450;-1027.000;-1074.000
380.923;  -30.025; -103.000;  -34.000
381.053; -104.900; -613.000; -623.000
381.183;  -37.350; -106.000; -248.000
381.313;   -7.100; -656.000; -470.000
381.443;    8.475; -692.000; -473.000
381.573;  124.625; -402.000; -409.000
381.703;  160.625;-1249.000;-1095.000
381.833; -161.600;-1454.000;-1336.000
381.963;   95.600; -134.000;  -87.000
382.093; 1167.850; -925.000; -909.000
382.223;  348.300; -713.000; -602.000
382.353;  -50.425; -801.000; -608.000
382.482;  251.775;-1091.000; -964.000
382.612;  618.975; -872.000; -644.000
382.742;  356.450; -695.000; -622.000
382.872;  162.425; -565.000; -551.000
383.002;   44.500;  347.000; -132.000
383.131;  -36.125; -226.000; -160.000
383.261;  -54.100; -706.000; -768.000
383.391;  260.175; -552.000; -377.000
383.521; 3382.375;  451.000;  263.000
383.650;  814.550; -947.000; -904.000
383.780;  -12.200; -783.000; -656.000
383.910;   87.800;  880.000;  802.000
384.039;  -14.275; -794.000; -656.000
384.169;  120.750;-1205.000;-1017.000
384.299;  -43.050; -650.000; -662.000
384.428; -112.900; -764.000; -680.000
384.558;  -60.950; -308.000; -275.000
384.687;  -69.300; -414.000; -334.000
384.817;    7.150;   75.000;   -2.000
384.947;  -16.950; -234.000; -141.000
385.076;  255.025;  982.000;  912.000
385.206;   79.950;  369.000;  480.000
385.335;  -55.150; -549.000; -417.000
385.465;  -96.400; -655.000; -663.000
385.594;   98.750;  -53.000;  -44.000
385.724;  273.625; -868.000; -838.000
385.853;   81.150; -296.000; -270.000
385.982; 1078.450; -743.000; -787.000
386.112; 1749.300;-1052.000; -871.000
386.241;   95.950; -307.000; -312.000
386.371;   12.225; -174.000;  -87.000
386.500;  -40.025; -825.000; -789.000
386.629;    3.750; -874.000; -817.000
386.759;   51.950;  -43.000;   68.000
386.888;  -27.200; -170.000; -250.000
387.017;  -98.375; -648.000; -620.000
387.147; -108.375; -771.000; -798.000
387.276;  -29.000; -410.000; -397.000
387.405;  -13.475; -398.000; -342.000
387.535;  -76.425; -452.000; -361.000
387.664;  -68.325; -692.000; -620.000
387.793;   33.325; -198.000; -113.000
387.922;  402.250;  255.000;  200.000
388.052;  -28.675; -576.000; -423.000
388.181;  -36.025; -342.000; -472.000
388.310;  -55.100; -889.000; -710.000
388.439;  -68.125; -749.000; -742.000
388.568;  147.650;  365.000;  244.000
388.697;  828.025; -756.000; -653.000
388.826;  134.425; -768.000; -666.000
388.956;   36.800; -285.000; -307.000
389.085;  -46.325; -347.000; -287.000
389.214; -113.500; -842.000; -872.000
389.343;  -77.300; -645.000; -413.000
389.472;  407.875;  126.000;  149.000
389.601;  483.900;   91.000;    0.000
389.730;   -9.800; -568.000; -687.000
389.859;   52.800;  226.000;   46.000
389.988;  131.300; -423.000; -408.000
390.117;   98.875; -168.000; -146.000
390.246;  -28.825; -331.000; -320.000
390.375;   48.475; -673.000; -626.000
390.504;  -76.900; -703.000; -621.000
390.633; -120.525; -672.000; -726.000
390.761;  -91.100; -732.000; -645.000
390.890;   -9.325;   -4.000; -130.000
391.019;  -49.425; -421.000; -441.000
391.148; -140.325; -826.000; -855.000
391.277;  -82.275; -576.000; -493.000
391.406; -103.050; -821.000; -805.000
391.534;   16.200;  574.000; -301.000
391.663;  -93.625; -583.000; -645.000
391.792;  -86.575; -673.000; -701.000
391.921;   60.525;   -3.000;   15.000
392.050;  123.950; -287.000; -228.000
392.178;  -87.175;-1206.000;-1061.000
392.307;   86.625; -758.000; -712.000
392.436;   20.275; -427.000; -641.000
392.564;   14.725;  166.000;   -6.000
392.693; -108.950; -860.000; -682.000
392.822;  141.325; -529.000; -534.000
392.950;   22.300; -880.000; -714.000
393.079;  246.150; -188.000; -328.000
393.208;  -14.900; -488.000; -511.000
393.336;  -20.100; -170.000; -145.000
393.465;  -64.775; -317.000; -199.000
393.593;   -6.100;   62.000;   79.000
393.722; -174.950;-1121.000; -916.000
393.850;  -34.275; -188.000;  -61.000
393.979; -162.800; -926.000; -805.000
394.107;  -62.425; -517.000; -537.000
394.236;  -58.650; -570.000; -507.000
394.364;  170.950;  383.000;  206.000
394.493;  201.625; -911.000; -767.000
394.621;  -24.650; -955.000; -916.000
394.750;  734.850; -873.000; -923.000
394.878; 3027.250; -247.000; -149.000
395.007; 4130.075; -721.000; -807.000
395.135;  296.675; -790.000; -721.000
395.263; -120.150;-1038.000;-1040.000
395.392;    5.975;  -25.000; -107.000
395.520; -155.700; -818.000; -679.000
395.648; -100.475; -865.000; -915.000
395.777;  -45.250; -366.000; -405.000
395.905;  -67.425; -449.000; -564.000
396.033;  -14.900;  217.000;  172.000
396.162;  405.125; -399.000; -453.000
396.290;  342.700;  -17.000;   -2.000
396.418;   52.425; -555.000; -514.000
396.546;  -93.175; -571.000; -466.000
396.674; -107.125; -850.000; -878.000
396.803;  -15.525;  -72.000;  -23.000
396.931;   52.350; -179.000; -199.000
397.059;  -18.150;-1026.000; -989.000
397.187; -111.575;-1026.000; -975.000
397.315; -149.675; -884.000; -649.000
397.443; -104.875; -592.000; -443.000
397.572; -117.975; -578.000; -424.000
397.700;  -17.450; -607.000; -614.000
397.828;   -6.000;  120.000;  -90.000
397.956;  -46.600; -508.000; -478.000
398.084;  -74.575; -767.000; -626.000
398.212;   19.625;  137.000;  124.000
398.340;  -11.900;  -56.000;  159.000
398.468;   -5.800; -390.000; -169.000
398.596; -153.450; -993.000; -953.000
398.724; -126.100; -762.000; -767.000
398.852; -173.100;-1024.000; -976.000
398.980;  -76.050; -560.000; -560.000
399.108;  -91.050; -982.000; -735.000
399.236;   18.550;   13.000;    8.000
399.363;   -6.025;  222.000;  196.000
399.491;  -77.900; -404.000; -398.000
399.619; -136.475; -829.000; -800.000
399.747; -110.650; -859.000; -771.000
399.875;   59.050;  220.000;  234.000
400.003;  -63.925; -359.000; -284.000
400.130; -107.800; -421.000; -341.000
400.258;  -23.750;  -83.000;   38.000
400.386;  -74.675; -352.000; -168.000
400.514;  -54.950; -526.000; -587.000
400.641; -126.200; -928.000; -802.000
400.769; -140.600; -979.000; -888.000
400.897; -141.350; -838.000; -793.000
401.025;  -29.050; -166.000; -152.000
401.152;  -15.025;  220.000;   38.000
401.280;  -81.500; -430.000; -429.000
401.408; -125.000; -712.000; -576.000
401.535; -116.025; -735.000; -758.000
401.663; -196.175;-1134.000;-1054.000
401.790;  -94.475; -514.000; -525.000
401.918;   21.225;  436.000;  405.000
402.046;  -27.275;  134.000;  122.000
402.173;  -45.400;  -18.000;    7.000
402.301;  -67.275; -519.000; -397.000
402.428;   20.900;  528.000;  383.000
402.556; -147.450;-1188.000; -913.000
402.683;  -54.075;  -20.000;   -1.000
402.811;  -14.925;  -37.000; -206.000
402.938;  -37.525;   20.000;   27.000
403.066;  137.475; -574.000; -558.000
403.193;  269.725;  299.000;  239.000
403.321;  190.825; -396.000; -574.000
403.448;  248.025;   83.000;   27.000
403.575;  104.300;  -90.000;  -46.000
403.703;  -97.775; -732.000; -557.000
403.830;  -83.175; -531.000; -496.000
403.957; -158.750;-1117.000;-1023.000
404.085;    9.325;  -61.000; -172.000
404.212;   87.025;  -50.000;   63.000
404.339;  275.375; -566.000; -306.000
404.467; 5999.600; -612.000; -524.000
404.594; 3775.400; -287.000; -227.000
404.721;  796.625; -869.000; -764.000
404.848;   68.475; -113.000; -202.000
404.976; -119.900; -856.000; -783.000
405.103;  -17.425;  -14.000;  -82.000
405.230;   -5.450;  190.000;  226.000
405.357;   20.225;  117.000;   44.000
405.484;  290.175;  -49.000;    5.000
405.612;   51.050; -548.000; -563.000
405.739;  -74.700; -488.000; -243.000
405.866;   77.725;  669.000;  385.000
405.993;  -57.975; -398.000; -102.000
406.120; -150.525; -801.000; -887.000
406.247;  -69.375; -323.000; -342.000
406.374;  329.800;  540.000;  629.000
406.501;   16.675; -632.000; -702.000
406.628;  -87.275; -621.000; -589.000
406.755; -120.375; -803.000; -620.000
406.882;  -47.725; -228.000; -277.000
407.009; -127.925; -719.000; -628.000
407.136;   25.900; -480.000; -401.000
407.263;   54.250; -939.000; -829.000
407.390;  -91.900; -692.000; -614.000
407.517; -188.225;-1139.000;-1187.000
407.644;  -59.000; -332.000; -256.000
407.771;  -88.125; -249.000; -287.000
407.898;    3.475;  168.000;  328.000
408.025;  -83.250; -421.000; -313.000
408.151;  -19.200;   82.000;  153.000
408.278;  -79.975; -267.000; -216.000
408.405; -126.575; -931.000; -899.000
408.532;  -88.800; -549.000; -542.000
408.659; -121.125; -677.000; -648.000
408.785; -215.100;-1298.000;-1170.000
408.912;  -66.500; -412.000; -296.000
409.039; -120.075; -610.000; -686.000
409.166;  -98.500; -591.000; -555.000
409.292; -118.825; -571.000; -534.000
409.419; -125.625; -665.000; -649.000
409.546; -100.250; -431.000; -192.000
409.672; -111.325; -713.000; -545.000
409.799;  -42.075;  -36.000;   34.000
409.926;  -45.950; -180.000; -179.000
410.052; -190.500;-1127.000;-1091.000
410.179;  -68.400; -368.000; -392.000
410.305;  -98.400; -375.000; -493.000
410.432;  -48.925; -220.000; -333.000
410.558; -100.200; -305.000; -380.000
410.685; -111.875; -688.000; -431.000
410.812; -117.625; -409.000; -588.000
410.938; -150.050; -964.000; -808.000
411.065; -103.825; -671.000; -645.000
411.191;  -28.300; -189.000; -174.000
411.317; -148.975; -823.000; -742.000
411.444;  -74.275; -317.000; -246.000
411.570;  -86.550; -339.000; -294.000
411.697; -125.925; -758.000; -752.000
411.823; -178.975; -989.000; -999.000
411.949;  -47.125;  -56.000;   17.000
412.076; -120.100; -539.000; -519.000
412.202; -126.425; -758.000; -757.000
412.329; -140.275; -798.000; -752.000
412.455; -129.275; -821.000; -657.000
412.581;  -38.325;  -15.000;  172.000
412.707;  -77.575; -540.000; -457.000
412.834;  -17.650;  156.000;  219.000
412.960;  -97.900; -785.000; -784.000
413.086; -117.125; -743.000; -701.000
413.212;  130.850;  604.000;  578.000
413.339;  -82.725; -685.000; -701.000
413.465;  -40.750; -364.000; -310.000
413.591; -111.025; -757.000; -474.000
413.717;  -54.875; -358.000; -366.000
413.843; -147.775; -839.000; -861.000
413.969;  -59.100;  -47.000; -292.000
414.096; -114.250; -679.000; -679.000
414.222;   -4.825;  -33.000;   85.000
414.348;  -55.925; -652.000; -385.000
414.474;   61.375;   38.000;  -52.000
414.600;  -34.875; -126.000; -144.000
414.726;  -22.250;  -96.000;  -55.000
414.852;  -68.900; -365.000; -342.000
414.978;   26.475;  104.000;  -18.000
415.104;   34.125;   38.000;   80.000
415.230;   18.600; -329.000; -330.000
415.356;   25.825; -409.000; -514.000
415.482;  175.825;   13.000;  -35.000
415.608;  259.600; -247.000; -323.000
415.734;  967.650;   67.000;   38.000
415.860;20328.575; -875.000; -767.000
415.986;14741.675; -685.000; -607.000
416.111; 1240.300; -798.000; -652.000
416.237;  261.100; -424.000; -571.000
416.363; 1169.350; -765.000; -733.000
416.489; 4335.975; -324.000; -251.000
416.615;  464.300; -707.000; -742.000
416.741;  -28.800; -677.000; -784.000
416.866;  -97.500; -673.000; -736.000
416.992; -119.575; -801.000; -818.000
417.118;  -42.650;  -41.000;  -80.000
417.244;  -71.250; -798.000; -531.000
417.369; -108.225; -801.000; -612.000
417.495;  -23.950; -325.000; -254.000
417.621; -115.750;-1015.000; -803.000
417.746;  -12.425; -579.000; -572.000
417.872;   34.750; -254.000; -144.000
417.998;   41.325; -515.000; -530.000
418.123; 1071.075;-1073.000; -845.000
418.249; 5609.125; -512.000; -601.000
418.374;  783.225; -916.000; -824.000
418.500;  127.100; -383.000; -482.000
418.626;  104.725;   70.000;  -59.000
418.751;  122.350; -549.000; -448.000
418.877;  191.875; -637.000; -643.000
419.002; 1869.150; -688.000; -560.000
419.128;13126.200; -930.000; -721.000
419.253; 3203.100; -967.000; -837.000
419.379;  430.625; -391.000; -338.000
419.504;  397.825;  325.000;  415.000
419.629;  541.000; -393.000; -212.000
419.755; 3813.400; -317.000; -254.000
419.880;22460.425;  -98.000;   67.000
420.006;11909.125; -280.000; -221.000
420.131;30487.825; -662.000; -775.000
420.256; 4314.025; -315.000; -316.000
420.382;  560.125; -665.000; -687.000
420.507;   82.125; -649.000; -778.000
420.632;   79.775; -337.000; -339.000
420.758;  166.150; -251.000; -425.000
420.883; -101.475; -876.000; -672.000
421.008; -109.300; -775.000; -619.000
421.133;  -91.825; -509.000; -467.000
421.259;  -52.800; -325.000; -259.000
421.384; -150.425; -834.000; -693.000
421.509;  -63.950;-1052.000; -862.000
421.634;  824.850; -936.000; -820.000
421.759;  352.550; -359.000; -327.000
421.885;  -83.025; -717.000; -656.000
422.010;  -95.500; -673.000; -542.000
422.135; -149.950; -695.000; -727.000
422.260;   28.550;  340.000;  280.000
422.385;  -65.525;   12.000;  -98.000
422.510;  -13.600;  151.000;  -26.000
422.635;   -7.075;  -87.000;  -43.000
422.760;   61.800; -766.000; -791.000
422.885;   31.350;  -57.000;  -80.000
423.010;  -27.925; -112.000; -169.000
423.135; -109.975; -481.000; -561.000
423.260;  -29.025; -150.000; -245.000
423.385;   21.475;  476.000;  222.000
423.510;   21.750;   71.000;  -22.000
423.635;   52.075;  133.000;   45.000
423.760;   46.150;  383.000;  328.000
423.885;   37.450;  336.000;  391.000
424.010;   11.200;  -68.000;  -13.000
424.135;  -25.100;    5.000;  -33.000
424.259;  -87.600; -654.000; -457.000
424.384;  -85.225; -279.000; -272.000
424.509;  -23.100; -260.000; -186.000
424.634;  -93.950; -761.000; -623.000
424.759;  -18.675; -688.000; -544.000
424.883;  -18.575; -506.000; -527.000
425.008;  148.300; -502.000; -410.000
425.133; 2032.050; -679.000; -653.000
425.258;  939.175; -517.000; -381.000
425.382;  880.150; -867.000; -774.000
425.507; 2187.750; -487.000; -543.000
425.632;  380.775; -802.000; -663.000
425.756;  460.525; -256.000; -146.000
425.881; 7075.650; -831.000; -857.000
426.006;19135.700; -604.000; -355.000
426.130; 2912.175; -696.000; -508.000
426.255;  396.700; -611.000; -491.000
426.379;  133.375; -189.000; -577.000
426.504;  369.650;  660.000;  544.000
426.629; 4093.275; -519.000; -466.000
426.753; 2809.550;   64.000;  -46.000
426.878;  311.325; -252.000; -288.000
427.002;  157.725; -651.000; -668.000
427.127; 1622.850;  -35.000; -158.000
427.251;11871.625;  372.000;  401.000
427.375; 3325.325; -191.000; -173.000
427.500; 1974.325; -616.000; -610.000
427.624;  645.000; -234.000; -400.000
427.749;   62.325; -216.000; -225.000
427.873;  -55.600; -499.000; -412.000
427.997;  -40.775; -222.000; -230.000
428.122;   42.225;  795.000;  703.000
428.246;   62.575;  433.000;  434.000
428.371; -139.375; -869.000; -773.000
428.495; -113.700; -624.000; -646.000
428.619;  -49.675; -186.000; -117.000
428.743;    3.300;   65.000;  132.000
428.868;  -15.525; -732.000; -643.000
428.992; 1160.225; -219.000; -326.000
429.116;  434.950; -329.000; -357.000
429.240;  216.950;  419.000;  426.000
429.365;  -36.900; -454.000; -574.000
429.489;  -58.100; -638.000; -647.000
429.613;   10.050; -236.000; -177.000
429.737;   25.375; -563.000; -432.000
429.861;  250.125; -247.000; -133.000
429.985; 5759.675; -425.000; -305.000
430.109; 6312.075; -770.000; -908.000
430.234;  705.150;   76.000;  -50.000
430.358;   68.050; -250.000; -160.000
430.482;  -75.625; -672.000; -564.000
430.606;  -78.200; -655.000; -375.000
430.730;  -16.800; -437.000; -388.000
430.854;   39.575; -909.000; -835.000
430.978;  -85.700; -795.000; -764.000
431.102; -106.825; -499.000; -422.000
431.226; -130.750; -874.000; -815.000
431.350;    5.175;  345.000;  422.000
431.474;  -77.450; -661.000; -373.000
431.597; -172.850;-1060.000; -848.000
431.721;  -66.175; -276.000; -267.000
431.845; -129.225; -704.000; -472.000
431.969;  -84.750; -304.000; -349.000
432.093; -101.200; -395.000; -317.000
432.217;  -30.125;   32.000;   82.000
432.341; -102.975; -523.000; -518.000
432.464;   -4.550;   96.000;   40.000
432.588;  108.350; -401.000; -329.000
432.712;   67.600;  -52.000;  -52.000
432.836;   31.325;  213.000;  263.000
432.959;  -26.950; -372.000; -311.000
433.083;   73.400;   11.000;    2.000
433.207;  385.275;  285.000;  930.000
433.330; 5282.325; -391.000; -200.000
433.454; 6490.125; -654.000; -638.000
433.578; 3733.825;  583.000;  278.000
433.701;  662.425; -623.000; -675.000
433.825;  101.050; -292.000; -299.000
433.949;  116.850;   28.000;  -72.000
434.072;    7.250; -410.000; -323.000
434.196;  -23.750; -309.000; -117.000
434.319; 3738.225;25482.000;25124.000
434.443;  696.075; -656.000; -603.000
434.566; 2758.050;  281.000;   62.000
434.690;  457.225; -637.000; -383.000
434.813;   42.250; -251.000; -173.000
434.937;  -72.575; -569.000; -696.000
435.060;  -73.650; -423.000; -332.000
435.184;  167.375; -492.000; -217.000
435.307;   89.150;  159.000;  102.000
435.431;  -31.950;  -40.000;   24.000
435.554;  -80.600; -399.000; -240.000
435.677;  -85.525; -350.000; -258.000
435.801;  -50.325;  -25.000;   49.000
435.924;  -26.725;    1.000;  -67.000
436.048; -139.950;-1019.000; -732.000
436.171;  -83.800; -240.000;  -66.000
436.294;  -25.375; -248.000; -229.000
436.417;  107.875; -963.000; -849.000
436.541; -100.500; -814.000; -840.000
436.664;  -52.150; -242.000; -316.000
436.787;  -50.350;   13.000;  113.000
436.910; -126.625; -792.000; -422.000
437.034;  -12.150;  142.000;  143.000
437.157;   19.400;  -11.000;    0.000
437.280;  -84.425; -392.000; -292.000
437.403; -110.975; -982.000; -869.000
437.526;  379.650; -903.000; -865.000
437.649; 1620.400; -505.000; -332.000
437.772;  174.150; -692.000; -540.000
437.896;  104.200;  700.000;  544.000
438.019; -123.700; -758.000; -503.000
438.142; -108.625; -596.000; -506.000
438.265;  -61.400; -639.000; -670.000
438.388;  389.150; -520.000; -410.000
438.511;   19.100; -597.000; -394.000
438.634;  -63.050; -247.000; -125.000
438.757; -148.300; -693.000; -619.000
438.880;  -28.800;  -34.000;  -57.000
439.003;  -95.925; -417.000; -437.000
439.126;  -80.650; -287.000; -167.000
439.248;  -86.825;  -98.000; -139.000
439.371;  -37.500;    9.000;  -53.000
439.494;   19.250;  510.000;  439.000
439.617;  -48.600;   65.000;  -88.000
439.740; -185.325; -968.000; -816.000
439.863; -142.875; -755.000; -595.000
439.986; -138.075; -476.000; -431.000
440.108;  -56.900; -161.000; -112.000
440.231; -185.025; -950.000; -836.000
440.354;  -37.650;  -64.000; -150.000
440.477;  -26.750; -566.000; -542.000
440.599;  -34.725; -200.000; -225.000
440.722; -147.275; -709.000; -586.000
440.845;   56.050;  751.000;  928.000
440.968; -134.925; -415.000; -311.000
441.090;  -80.075; -199.000;  -33.000
441.213; -174.500;-1021.000; -825.000
441.336;  -58.025; -159.000;   -5.000
441.458; -100.775; -549.000; -396.000
441.581; -112.925; -628.000; -629.000
441.703;  -87.800; -152.000;   13.000
441.826; -119.975; -557.000; -400.000
441.948;  -70.750;   56.000;   51.000
442.071;   16.300;  555.000;  424.000
442.193; -137.425; -531.000; -485.000
442.316;   17.100;  152.000;   97.000
442.438;   19.150; -233.000;  -10.000
442.561;   70.250;  272.000;  262.000
442.683;  358.850; -809.000; -522.000
442.806;  831.600;   -8.000;   74.000
442.928;  -27.225; -859.000; -604.000
443.051;  -83.100; -577.000; -373.000
443.173; -100.725; -341.000; -339.000
443.295;  -97.975; -263.000; -371.000
443.418;  -79.800; -321.000;  -29.000
443.540;  -18.875; -106.000;   -4.000
443.662; -136.525; -563.000; -465.000
443.785;  -23.225;  335.000;  199.000
443.907; -120.425; -362.000; -208.000
444.029; -124.125; -767.000; -494.000
444.152; -157.325; -644.000; -554.000
444.274;  -44.700;  -18.000;  -24.000
444.396; -128.050; -461.000; -221.000
444.518; -126.625; -691.000; -454.000
444.640; -118.400; -268.000; -111.000
444.763;  -17.025;  388.000;  249.000
444.885; -142.025; -432.000; -392.000
445.007;  -33.675;   35.000;   86.000
445.129; -141.025; -610.000; -515.000
445.251;  -99.150; -372.000; -439.000
445.373; -146.625; -537.000; -386.000
445.495;   11.725;  242.000;  350.000
445.617;   31.300;  853.000;  753.000
445.739;  -72.075; -215.000;  -97.000
445.861;  -53.500; -245.000; -112.000
445.984;  -51.775; -267.000; -101.000
446.105;  102.725; -418.000; -251.000
446.227;  439.625; -176.000;  -19.000
446.349;  -25.025; -358.000; -249.000
446.471; -111.600; -615.000; -448.000
446.593;  -87.325; -316.000;   19.000
446.715;  -15.075;  -67.000;   41.000
446.837;   49.425;  697.000;  832.000
446.959; -103.400; -457.000; -478.000
447.081; -145.150; -628.000; -518.000
447.203;   41.575;  862.000;  834.000
447.325;  -94.375; -270.000;   42.000
447.446;   -4.150;  286.000;  530.000
447.568; -164.325; -921.000; -803.000
447.690;  -74.600; -236.000; -245.000
447.812; -156.775; -798.000; -519.000
447.933;  -30.600;  155.000;  127.000
448.055;  -68.675; -306.000; -261.000
448.177;  108.825;   31.000;   79.000
448.299;   18.325; -935.000; -727.000
448.420;   -1.075;  -25.000;  159.000
448.542;  -71.350;   -3.000;   33.000
448.664;  -28.800;  109.000;  322.000
448.785;  -41.525;  265.000;   83.000
448.907; -109.250; -614.000; -353.000
449.028;  -79.225; -771.000; -471.000
449.150;   48.550;  492.000;  589.000
449.272; -191.025;-1044.000; -913.000
449.393;   22.775;  612.000;  694.000
449.515; -153.750; -634.000; -581.000
449.636;  -68.650; -264.000; -155.000
449.758;   39.700;  763.000;  622.000
449.879; -101.375; -498.000; -396.000
450.001;  -77.150; -149.000;  -49.000
450.122;  -32.175;  -95.000;  162.000
450.244;  -34.775;   37.000;  364.000
450.365;  -83.500; -495.000; -301.000
450.486;  -48.450;   80.000;  268.000
450.608;   15.600;  393.000;  326.000
450.729;   64.000;  578.000;  645.000
450.850;   13.075; -574.000; -466.000
450.972;  803.900; -552.000; -389.000
451.093; 5227.775;  190.000;  588.000
451.214; 2240.350; -516.000; -337.000
451.336;  408.350;  773.000;  579.000
451.457;   58.075;  264.000;  393.000
451.578;  -44.625; -118.000;  -74.000
451.699; -131.400; -546.000; -540.000
451.821;  -63.150; -284.000;  -50.000
451.942;  -18.050;  278.000;  285.000
452.063;   20.075;  228.000;  419.000
452.184;  567.075;  -54.000;  -49.000
452.305; 1125.450;  103.000;  170.000
452.427;  124.800; -549.000; -301.000
452.548;  -17.750;   23.000;   79.000
452.669;  -69.875; -257.000;  -89.000
452.790;  -49.850;    3.000;  -18.000
452.911;  -31.325;  195.000;  259.000
453.032;  -70.075; -289.000;  -60.000
453.153;  -58.050;  -29.000;   81.000
453.274;   64.200;  737.000;  868.000
453.395;  -62.525;  -51.000;  175.000
453.516;  120.650; 1317.000; 1388.000
453.637;  -91.125; -205.000; -150.000
453.758;  -66.500;   15.000;   69.000
453.879; -135.750; -462.000; -250.000
454.000;   60.275; 1086.000;  948.000
454.121; -122.675; -554.000; -326.000
454.242; -124.550; -599.000; -383.000
454.362;  -63.225;  -99.000;  114.000
454.483;  -48.950; -309.000; -229.000
454.604;   31.150;  512.000;  580.000
454.725; -137.250; -627.000; -555.000
454.846; -151.250; -474.000; -406.000
454.967;  -25.075;  230.000;  539.000
455.087;  -48.550;  179.000;  153.000
455.208;   16.000;  554.000;  856.000
455.329;  -75.400;  -22.000;   82.000
455.450;   35.475;  473.000;  633.000
455.570;  -99.650; -234.000; -211.000
455.691;  -37.775;  201.000;  407.000
455.812; -117.175; -270.000;  -92.000
455.932;  -71.600;  107.000;  -97.000
456.053;  -86.925;   36.000;   24.000
456.173; -106.225; -433.000; -355.000
456.294; -138.250; -476.000; -303.000
456.415;  -72.300;  -73.000;   70.000
456.535;  -65.775;  297.000;  273.000
456.656;  -49.475;  132.000;  240.000
456.776;  -82.350;    3.000;  298.000
456.897;    0.475;  308.000;  513.000
457.017;  -96.175; -153.000;   -3.000
457.138; -107.750; -402.000; -249.000
457.258;  -55.375;  263.000;  224.000
457.379;   -8.300;  509.000;  521.000
457.499;  -39.025;  443.000;  432.000
457.620; -127.850; -407.000; -231.000
457.740; -103.875; -132.000;  -11.000
457.860;  -62.125;   87.000;   44.000
457.981;  -64.150;  132.000;  124.000
458.101;  -77.300;  -89.000;   40.000
458.221;  -25.375;  336.000;  402.000
458.342;  -62.350;   -4.000;  -37.000
458.462;   16.925;  617.000;  352.000
458.582;  -29.075; -302.000; -294.000
458.703;   13.025;  303.000;  154.000
458.823;  -20.325;   22.000;  163.000
458.943;   18.725;  341.000;  467.000
459.063;  -17.850; 1124.000;  192.000
459.183;  -35.225;  328.000;  313.000
459.304;    3.100;  315.000;  517.000
459.424;  -67.825; -246.000;  -89.000
459.544;  349.325;  388.000;  764.000
459.664;  848.375;  499.000;  506.000
459.784;  324.225; 1004.000; 1175.000
459.904;   34.825;  867.000;  744.000
460.024;   61.700;  867.000;  684.000
460.144;  -11.550;  449.000;  554.000
460.264;  -13.650;  515.000;  327.000
460.385; -107.100; -145.000; -119.000
460.505;   20.175;  905.000;  858.000
460.625; -113.225;  -17.000;  -68.000
460.745;  -34.500;  396.000;  541.000
460.864;  -61.825;  153.000;  469.000
460.984;    3.075;  499.000;  573.000
461.104;  127.300; 1656.000; 1775.000
461.224;    8.825;  657.000;  650.000
461.344;  -41.950;  431.000;  360.000
461.464;  -26.475;  258.000;  513.000
461.584;  -36.525;  283.000;  466.000
461.704;  -51.550;   58.000;  108.000
461.824;  -70.625;  238.000;  259.000
461.943;  -47.600;  191.000;  130.000
462.063;  -89.750;    2.000;  324.000
462.183;   35.625;  639.000;  717.000
462.303;   80.050; 1678.000; 1230.000
462.422;   36.975;  781.000;  840.000
462.542;  -62.075;  271.000;  391.000
462.662;   36.800;  353.000;  380.000
462.782;  245.000;  833.000;  572.000
462.901;  487.450;  545.000;  717.000
463.021;  277.525; 1702.000; 1638.000
463.141;    7.100;  337.000;  770.000
463.260;  -27.050;  614.000;  474.000
463.380;   21.775;  902.000;  884.000
463.499;  -51.075;  342.000;  332.000
463.619;  -38.725;  581.000;  559.000
463.738;   90.875; 1644.000;  903.000
463.858;   14.875;  657.000;  811.000
463.978;  -31.000;  542.000;  396.000
464.097;   47.100;  921.000; 1114.000
464.217;  113.275; 1196.000; 1143.000
464.336;  110.075; 1068.000; 1130.000
464.455;  -52.325;  328.000;  659.000
464.575;   31.850;  597.000;  602.000
464.694;  140.525; 1204.000; 1179.000
464.814;  125.375; 1190.000; 1138.000
464.933;   77.425; 1095.000; 1027.000
465.052;   80.400; 1412.000; 1054.000
465.172;   67.725;  922.000;  799.000
465.291;  140.125; 1376.000; 1320.000
465.410;   -2.900;  462.000;  735.000
465.530;   76.350; 1355.000; 1310.000
465.649;   58.400; 1209.000; 1273.000
465.768;  143.375; 1673.000; 1508.000
465.888;   31.325;  941.000; 1174.000
466.007;   79.525; 1335.000; 1440.000
466.126;  -10.450;  721.000;  641.000
466.245;   64.450; 1176.000; 1187.000
466.364;   12.025;  950.000; 1060.000
466.484;   49.625; 1024.000; 1213.000
466.603;   43.000; 1101.000; 1222.000
466.722;  117.350; 1490.000; 1769.000
466.841;   51.775; 1151.000; 1401.000
466.960;   44.900; 1069.000;  972.000
467.079;  112.900; 1971.000; 1786.000
467.198;   46.250; 1238.000; 1181.000
467.317;   72.425; 1768.000; 1162.000
467.436;   77.825; 1709.000; 1261.000
467.555;  109.750; 1796.000; 1746.000
467.674;   63.350; 1227.000; 1329.000
467.793;   33.625; 1376.000; 1374.000
467.912;   92.275; 1658.000; 1539.000
468.031;  114.625; 2038.000; 1930.000
468.150;  141.300; 1842.000; 1837.000
468.269;  194.650; 2313.000; 2090.000
468.388;  179.650; 2168.000; 2339.000
468.507;  231.450; 2884.000; 2903.000
468.626;  240.450; 2555.000; 2541.000
468.744;  131.400; 2018.000; 2174.000
468.863;  197.450; 2312.000; 2523.000
468.982;   85.025; 1503.000; 1555.000
469.101;  227.900; 2788.000; 2692.000
469.220;  145.025; 2333.000; 2176.000
469.338;  242.600; 2935.000; 3051.000
469.457;  178.775; 2719.000; 2545.000
469.576;  358.975; 3953.000; 3784.000
469.695;  225.025; 2877.000; 3066.000
469.813;  437.150; 4148.000; 4192.000
469.932;  402.500; 4255.000; 4485.000
470.051;  428.350; 4075.000; 4161.000
470.169;  895.725; 4470.000; 4338.000
470.288; 1524.200; 4700.000; 4809.000
470.406;  882.075; 5059.000; 5194.000
470.525;  630.350; 6101.000; 5787.000
470.644;  627.250; 6847.000; 6794.000
470.762;  808.050; 8397.000; 7873.000
470.881;  902.250; 8651.000; 8464.000
470.999; 1053.950; 9685.000; 9151.000
471.118; 1094.275;11174.000;10711.000

