
Integration time [ms]: 200.000
Averaging Nr. [scans]: 10
Smoothing Nr. [pixels]: 0
Data measured with spectrometer [name]: 2101012U2
Wave   ;Sample   ;Dark     ;Reference
[nm]   ;[counts] ;[counts] ;[counts] 

197.733;   99.900;  516.000;  404.000
197.879; -194.900; -610.000; -634.000
198.025; -131.600; -475.000; -420.000
198.171; -213.300; -602.000; -612.000
198.317;  -75.400; -401.000; -316.000
198.463; -129.700; -655.000; -404.000
198.609;   60.700;  181.000; -137.000
198.755; -187.100; -644.000; -410.000
198.901; -131.800; -505.000; -424.000
199.047; -158.300; -615.000; -488.000
199.193;  -95.400; -230.000; -468.000
199.339;  -92.800; -222.000; -369.000
199.485;   92.000;  330.000;  271.000
199.631;  -29.300;  227.000;  310.000
199.777; -107.200; -466.000; -398.000
199.923; -150.100; -610.000; -424.000
200.069;   17.700; -141.000;  -58.000
200.215;   84.600;  128.000;  453.000
200.361;  103.100;  243.000;  477.000
200.507; -157.500; -600.000; -373.000
200.653;  -64.500; -371.000; -194.000
200.798; -113.800; -215.000; -125.000
200.944;  -14.600; -146.000;  -41.000
201.090;   31.200;   61.000;  222.000
201.236;  -30.600; -116.000; -158.000
201.382;  281.900;  874.000;  903.000
201.528;   28.500;  -58.000;  -48.000
201.674; -124.600; -386.000; -293.000
201.819; -128.400; -540.000; -439.000
201.965; -177.000; -699.000; -447.000
202.111;  -19.500; -273.000; -226.000
202.257; -126.300; -250.000; -238.000
202.402;    9.300;   13.000;  -36.000
202.548;  -76.100; -169.000; -116.000
202.694;  192.900;  410.000; -183.000
202.840; -165.000; -603.000; -531.000
202.985; -164.400; -681.000; -639.000
203.131; -256.400; -832.000; -666.000
203.277;  -35.200; -199.000; -262.000
203.423; -129.500; -434.000; -520.000
203.568;  -91.800; -462.000; -237.000
203.714; -142.500; -535.000; -542.000
203.860; -166.100; -682.000; -641.000
204.005;    4.800;  112.000;  167.000
204.151;  163.900;  561.000;  556.000
204.296;  -95.600; -354.000; -221.000
204.442; -173.200; -600.000; -547.000
204.588; -183.800; -592.000; -579.000
204.733;   39.700;  178.000;  168.000
204.879; -303.500;-1018.000; -822.000
205.025;   -1.700;  -99.000;  126.000
205.170;   17.000;  -17.000;   94.000
205.316;  172.300;  438.000;  661.000
205.461; -181.600; -698.000; -554.000
205.607;  175.500;  609.000;  665.000
205.752; -175.700; -626.000; -551.000
205.898; -110.200; -501.000; -391.000
206.043; -119.400; -578.000; -506.000
206.189;  -83.500; -243.000; -285.000
206.334;  133.000;  554.000;  606.000
206.480;  198.800;  409.000;  239.000
206.625; -189.600; -529.000; -552.000
206.771; -103.000; -451.000; -373.000
206.916; -102.600; -210.000; -537.000
207.062; -172.800; -545.000; -591.000
207.207; -167.100; -546.000; -443.000
207.353;  106.400;  185.000;  460.000
207.498;   -6.800;  196.000;   85.000
207.643; -133.400; -501.000; -370.000
207.789; -271.200;-1069.000; -910.000
207.934; -174.900; -665.000; -713.000
208.080;  -57.400; -154.000;   66.000
208.225;   -5.900;  -22.000;  -57.000
208.370; -200.400; -727.000; -619.000
208.516; -147.000; -741.000; -487.000
208.661;  -63.800; -127.000;  -69.000
208.806;  -12.500; -165.000; -171.000
208.952; -281.500;-1044.000; -731.000
209.097;  146.400;  378.000;  349.000
209.242; -121.000; -307.000; -382.000
209.387;  120.800;  392.000;  350.000
209.533; -127.100; -321.000; -350.000
209.678;  167.800;  472.000;  543.000
209.823; -145.800; -408.000; -310.000
209.969; -199.800; -860.000; -757.000
210.114; -228.500; -907.000; -719.000
210.259; -233.800; -939.000; -889.000
210.404;  -33.000; -171.000;  103.000
210.549;   26.400;  108.000;    3.000
210.695;  -58.500;   -3.000;  -95.000
210.840;   58.500;   94.000;   67.000
210.985; -146.300; -484.000; -303.000
211.130;  184.700;  268.000;  406.000
211.275;    1.100;  207.000;  199.000
211.420; -118.900; -300.000; -289.000
211.566; -163.400; -536.000; -489.000
211.711;   59.000;  218.000;  157.000
211.856; -130.400; -545.000; -519.000
212.001;   26.900;  151.000;   44.000
212.146;  -29.800;  153.000;   49.000
212.291;  -41.200; -210.000; -186.000
212.436;  -63.600; -280.000;   -6.000
212.581; -161.900; -685.000; -653.000
212.726; -179.200; -487.000; -538.000
212.871; -109.800; -552.000; -217.000
213.016; -329.100;-1172.000;-1029.000
213.161;  158.300;  406.000;  291.000
213.306; -177.200; -435.000; -577.000
213.451; -183.600; -778.000; -689.000
213.596; -121.300; -455.000; -347.000
213.741; -121.700; -448.000; -538.000
213.886; -173.200; -498.000; -517.000
214.031;  -46.700; -294.000; -124.000
214.176; -134.600; -408.000; -341.000
214.321;  -72.400; -296.000; -157.000
214.466;  -59.900; -163.000;  -43.000
214.611;  -25.000;  -61.000;  -10.000
214.756; -271.000; -948.000; -858.000
214.901;  -30.700; -388.000; -226.000
215.046; -268.200; -797.000; -825.000
215.191;   11.100;  128.000;   35.000
215.336;  -31.700; -157.000;  -19.000
215.480; -159.200; -684.000; -505.000
215.625;  -36.000; -175.000;  -19.000
215.770; -172.100; -757.000; -662.000
215.915;  -67.700;   -5.000;  -97.000
216.060;    4.200; -113.000;  -21.000
216.205; -278.700; -731.000; -779.000
216.349; -131.900; -470.000; -533.000
216.494; -300.100; -939.000; -867.000
216.639; -236.700; -823.000; -888.000
216.784; -200.100; -577.000; -525.000
216.929;  114.700;  392.000;  281.000
217.073;  -34.100; -244.000;  -31.000
217.218;   -1.600;   78.000;  -47.000
217.363; -197.800; -656.000; -618.000
217.507; -166.200; -623.000; -588.000
217.652; -266.900; -845.000; -874.000
217.797; -155.000; -708.000; -659.000
217.942; -244.900; -856.000; -720.000
218.086;  149.200;  608.000;  539.000
218.231;  -56.100; -174.000;  -26.000
218.376;  -74.100; -337.000; -229.000
218.520;  -12.900;  -41.000;   96.000
218.665;  -93.200; -338.000; -204.000
218.810;  -88.600; -275.000; -233.000
218.954;   31.200;  201.000;   35.000
219.099; -266.000; -713.000; -963.000
219.243; -140.800; -589.000; -554.000
219.388;  -80.700; -264.000; -136.000
219.532;   -6.600; -116.000; -116.000
219.677; -159.600; -564.000; -521.000
219.822;   35.000;   33.000;   89.000
219.966;    2.500;   17.000;  -99.000
220.111;  -78.200; -328.000;  -40.000
220.255; -231.300; -797.000; -750.000
220.400;  -43.900; -180.000; -146.000
220.544; -152.400; -516.000; -450.000
220.689; -106.700; -422.000; -451.000
220.833;  -28.400; -123.000;  -58.000
220.978;  -79.000; -393.000; -563.000
221.122;   38.600;  319.000;  307.000
221.267; -251.100; -906.000; -837.000
221.411; -182.200; -478.000; -394.000
221.555;  -22.000; -104.000;  -23.000
221.700; -133.000; -329.000; -222.000
221.844;   71.300;  255.000;  272.000
221.989; -115.400; -328.000; -311.000
222.133;  -60.500; -289.000; -307.000
222.277;  -29.300;    5.000;   78.000
222.422;   36.600;  227.000;  113.000
222.566;  -87.600; -381.000; -214.000
222.711; -110.200; -414.000; -479.000
222.855; -195.100; -643.000; -586.000
222.999; -155.300; -642.000; -717.000
223.144;  -43.400; -195.000; -194.000
223.288;  127.600;  423.000;  251.000
223.432;   16.400;  184.000;  230.000
223.576;   56.400;  152.000;  -21.000
223.721;   76.100;  364.000;  273.000
223.865; -100.000; -472.000; -475.000
224.009;  535.600; 1673.000; 1631.000
224.153; -172.000; -660.000; -671.000
224.298; -146.800; -531.000; -489.000
224.442;    3.900;  -74.000;  -33.000
224.586;  -38.100; -169.000; -106.000
224.730; -202.600; -858.000; -670.000
224.875; -235.000; -739.000; -688.000
225.019;   29.300;  102.000;  188.000
225.163;  164.700;  208.000;  341.000
225.307;   46.300;   97.000;  -91.000
225.451;  119.300;  360.000;  481.000
225.595;   94.600;  264.000;  176.000
225.739;  -16.200; -170.000;  -94.000
225.884;   61.300;   86.000;    5.000
226.028; -208.600; -760.000; -626.000
226.172;  -59.500; -260.000; -273.000
226.316; -282.700; -941.000; -902.000
226.460; -166.100; -645.000; -493.000
226.604; -111.800; -406.000; -400.000
226.748; -205.400; -836.000; -733.000
226.892;  -89.200; -227.000; -181.000
227.036;  -93.400; -537.000; -447.000
227.180; -131.100; -551.000; -375.000
227.324; -134.900; -561.000; -580.000
227.468; -245.500; -819.000; -717.000
227.612;   36.900;  242.000;  -28.000
227.756; -223.800; -845.000; -698.000
227.900;  124.200;  342.000;  441.000
228.044; -149.600; -509.000; -290.000
228.188;  132.600;  448.000;  568.000
228.332; -221.800; -546.000; -472.000
228.476;  -65.300; -223.000; -149.000
228.620;  -84.500; -210.000; -150.000
228.764;  191.700;  431.000;  349.000
228.908;  -30.400; -155.000;   30.000
229.052; -121.000; -615.000; -528.000
229.195;  -55.900; -172.000;   13.000
229.339;  -37.300; -235.000; -305.000
229.483;  -51.900;    5.000; -162.000
229.627;   24.700; -156.000;  139.000
229.771; -113.400; -218.000; -294.000
229.915;   14.900;  230.000;   79.000
230.059; -209.600; -648.000; -663.000
230.202;  -69.600; -370.000; -317.000
230.346;  -37.000; -107.000;  107.000
230.490; -110.500; -489.000; -521.000
230.634; -231.200; -736.000; -553.000
230.777;  162.600;  478.000;  509.000
230.921; -104.000; -450.000; -359.000
231.065;  -94.900; -246.000; -286.000
231.209;   70.400;  261.000;  265.000
231.352;   42.800;   54.000;   40.000
231.496;   29.300;  568.000;  188.000
231.640; -182.100; -693.000; -621.000
231.783;  126.000;  546.000;  525.000
231.927;  -73.900; -294.000; -365.000
232.071; -274.800; -962.000; -736.000
232.214; -221.100; -980.000; -764.000
232.358; -186.900; -683.000; -599.000
232.502;   12.500;  -19.000;    7.000
232.645; -293.800;-1090.000; -927.000
232.789;  -48.200; -257.000; -218.000
232.933;  -94.000; -407.000; -224.000
233.076; -242.800;-1038.000; -897.000
233.220; -238.200; -752.000; -777.000
233.363; -137.400; -669.000; -477.000
233.507;  127.000;  371.000;  129.000
233.650; -208.100; -764.000; -834.000
233.794;   60.100;  438.000;  461.000
233.938; -119.600; -530.000; -362.000
234.081;  -20.400;  -93.000;   31.000
234.225; -132.300; -631.000; -539.000
234.368; -239.100; -773.000; -723.000
234.512;  -57.800; -385.000; -299.000
234.655; -211.100; -582.000; -555.000
234.798; -120.900; -493.000; -466.000
234.942; -264.700; -884.000;-1002.000
235.085; -153.200; -651.000; -443.000
235.229; -177.200; -405.000; -410.000
235.372;  -97.900; -247.000; -191.000
235.516; -155.500; -397.000; -321.000
235.659;   56.900;   92.000;  121.000
235.802;  -44.400;  -38.000;  -22.000
235.946;   70.300;  335.000;  215.000
236.089;   58.000;  126.000;  250.000
236.233;  108.600;  275.000;  298.000
236.376; -116.100; -235.000; -378.000
236.519;  -95.800; -297.000; -319.000
236.663;  -77.300; -215.000; -117.000
236.806; -297.300;-1029.000; -999.000
236.949;  102.600;  543.000;  431.000
237.092;  139.200;  412.000;  391.000
237.236; -174.000; -589.000; -502.000
237.379;  164.200;  352.000;  428.000
237.522; -269.000; -879.000; -768.000
237.666;  -16.200; -271.000;   18.000
237.809; -271.300; -851.000; -823.000
237.952;   88.600;  469.000;  271.000
238.095; -137.800; -447.000; -442.000
238.238;  224.100;  688.000;  700.000
238.382;   -7.000;  166.000;  103.000
238.525; -151.800; -598.000; -511.000
238.668; -310.800;-1060.000; -985.000
238.811; -179.900; -638.000; -643.000
238.954; -125.400; -483.000; -334.000
239.097;  226.000;  617.000;  664.000
239.241;   60.600;  394.000;  326.000
239.384;  -62.800; -254.000; -214.000
239.527; -157.900; -424.000; -224.000
239.670; -294.000; -994.000;-1091.000
239.813; -237.200; -696.000; -658.000
239.956;  187.000;  579.000;  473.000
240.099; -240.700; -778.000; -725.000
240.242;  157.700;  428.000;  432.000
240.385;   92.400;  466.000;  450.000
240.528; -124.800; -706.000; -473.000
240.671;   14.900;  189.000;  134.000
240.814;  -86.400; -441.000; -158.000
240.957; -202.000; -767.000; -578.000
241.100; -193.800; -779.000; -755.000
241.243; -330.100;-1234.000; -893.000
241.386; -116.800; -508.000; -379.000
241.529; -184.300; -735.000; -547.000
241.672; -100.400; -566.000; -495.000
241.815; -245.400; -832.000; -808.000
241.958;  -47.100; -125.000; -182.000
242.101; -187.700; -545.000; -390.000
242.244;  -56.000; -270.000; -325.000
242.387;  -84.000; -304.000; -246.000
242.530;  144.400;  470.000;  134.000
242.673;  -72.400; -381.000; -309.000
242.815; -251.000; -925.000; -899.000
242.958; -158.100; -482.000; -381.000
243.101;   38.100;  132.000;  187.000
243.244; -171.200; -564.000; -521.000
243.387;  -71.300; -313.000; -316.000
243.530; -200.300; -657.000; -674.000
243.672;   15.300;   43.000;  -92.000
243.815; -115.700; -355.000; -283.000
243.958;  -21.200;   98.000;  -26.000
244.101;  -11.900;   59.000;  -16.000
244.243;  -26.100;  -47.000;  101.000
244.386; -247.000; -761.000; -630.000
244.529;  -32.600; -132.000; -139.000
244.672; -322.600;-1154.000; -951.000
244.814; -198.500; -621.000; -794.000
244.957;  -95.300; -380.000; -304.000
245.100; -145.800; -489.000; -489.000
245.242; -134.000; -387.000; -374.000
245.385;    2.000;  -59.000;  -39.000
245.528; -266.600; -871.000; -705.000
245.670;  211.900;  612.000;  634.000
245.813; -205.500; -599.000; -547.000
245.956;  -54.600; -324.000; -275.000
246.098; -156.400; -508.000; -650.000
246.241;   13.300;  194.000;   48.000
246.383;  -19.500; -119.000;  -73.000
246.526; -137.800; -454.000; -525.000
246.669; -256.100; -889.000; -780.000
246.811;   62.900;  172.000;   -1.000
246.954; -147.700; -512.000; -426.000
247.096;  -37.700;  -84.000;   -6.000
247.239; -148.700; -482.000; -445.000
247.381; -143.800; -647.000; -488.000
247.524;  177.900;  645.000;  679.000
247.666;  -22.700;   58.000;   11.000
247.809; -245.400; -887.000; -691.000
247.951;  -13.300;  -75.000;  138.000
248.094;   39.200;  432.000;  308.000
248.236; -331.000;-1262.000;-1238.000
248.378;  -81.000; -356.000;  -81.000
248.521;  -88.300; -334.000; -337.000
248.663;  -65.900; -236.000; -267.000
248.806;  -71.100; -300.000; -266.000
248.948; -251.600; -886.000; -763.000
249.090; -150.800; -428.000; -398.000
249.233; -145.000; -344.000; -381.000
249.375; -125.800; -474.000; -451.000
249.518;  -33.000;  -83.000; -133.000
249.660;    8.800; -103.000;    3.000
249.802; -386.700;-1303.000;-1189.000
249.945; -177.400; -612.000; -540.000
250.087; -231.800; -834.000; -768.000
250.229; -113.800; -362.000; -480.000
250.371; -173.700; -494.000; -439.000
250.514;  -96.300; -310.000; -244.000
250.656;  -22.700;   69.000;  102.000
250.798; -253.400; -849.000; -800.000
250.940; -145.900; -322.000; -322.000
251.083;  -27.800; -335.000; -111.000
251.225;  104.800;  338.000;  310.000
251.367;  -85.800; -274.000; -373.000
251.509;  -83.000; -265.000; -210.000
251.651; -235.700; -731.000; -671.000
251.794;  117.800;  538.000;  632.000
251.936; -264.500; -821.000; -747.000
252.078; -184.600; -540.000; -461.000
252.220; -154.700; -645.000; -477.000
252.362;   72.200;  344.000;  462.000
252.504; -183.600; -677.000; -584.000
252.646; -243.900; -875.000; -722.000
252.788;  -33.200;   14.000; -128.000
252.931; -100.800; -257.000; -253.000
253.073;  -99.200; -376.000; -317.000
253.215;  -27.300;  141.000;  122.000
253.357;   -3.300;   82.000; -153.000
253.499; -117.000; -374.000; -234.000
253.641; -175.100; -749.000; -594.000
253.783; -221.400; -609.000; -527.000
253.925; -189.500; -586.000; -591.000
254.067; -261.900; -744.000; -667.000
254.209;  -71.500; -391.000; -259.000
254.351; -293.100; -865.000; -883.000
254.493; -132.500; -441.000; -417.000
254.635; -245.900; -936.000; -818.000
254.777; -200.100; -752.000; -687.000
254.918; -183.300; -512.000; -430.000
255.060; -138.500; -551.000; -395.000
255.202; -139.000; -473.000; -261.000
255.344; -173.300; -658.000; -455.000
255.486; -164.400; -471.000; -406.000
255.628; -217.600; -780.000; -781.000
255.770; -227.100; -676.000; -536.000
255.912; -112.000; -559.000; -468.000
256.053; -200.900; -730.000; -508.000
256.195;  339.900; 1008.000;  903.000
256.337; -236.400; -861.000; -595.000
256.479;  137.500;  532.000;  416.000
256.621; -114.500; -394.000; -212.000
256.762; -184.800; -789.000; -742.000
256.904;  111.400;  485.000;  487.000
257.046; -101.900; -381.000; -271.000
257.188; -128.300; -351.000; -264.000
257.329; -130.700; -525.000; -464.000
257.471; -264.300; -939.000; -807.000
257.613; -141.200; -584.000; -498.000
257.755; -329.100;-1073.000; -982.000
257.896;   94.200;  286.000;  392.000
258.038; -178.700; -403.000; -352.000
258.180;  -74.200; -354.000; -279.000
258.321; -204.400; -581.000; -457.000
258.463;    9.800;  -71.000;  133.000
258.605; -211.600; -562.000; -570.000
258.746; -200.000; -886.000; -772.000
258.888; -308.900;-1026.000;-1020.000
259.029;   61.600;  121.000;   -8.000
259.171; -199.800; -614.000; -550.000
259.313;  -28.400;  -49.000;  -47.000
259.454; -185.300; -536.000; -414.000
259.596; -113.000; -483.000; -390.000
259.737; -183.500; -590.000; -474.000
259.879;   84.800;  217.000;  311.000
260.020;  157.000;  901.000;  636.000
260.162;  -72.400; -146.000; -253.000
260.303; -260.000; -768.000; -687.000
260.445; -161.700; -609.000; -613.000
260.586;   62.900;  392.000;  157.000
260.728;  -70.500; -360.000; -248.000
260.869; -136.700; -350.000; -343.000
261.011;  200.300;  706.000;  537.000
261.152; -113.800; -479.000; -319.000
261.293; -168.700; -576.000; -595.000
261.435; -100.900; -219.000; -184.000
261.576; -115.100; -455.000; -325.000
261.718;   94.700;  420.000;  470.000
261.859; -266.800; -940.000; -949.000
262.000; -289.400; -951.000;-1016.000
262.142;  -32.400;  -52.000;  -60.000
262.283; -267.500; -808.000; -691.000
262.424; -181.900; -666.000; -625.000
262.566; -331.000;-1161.000; -983.000
262.707; -247.800; -840.000; -830.000
262.848; -259.600; -769.000; -726.000
262.990;  -91.900; -362.000; -345.000
263.131;  184.300;  650.000;  681.000
263.272;   -1.900;  -61.000;  -41.000
263.413; -203.500; -589.000; -561.000
263.555; -116.300; -669.000; -143.000
263.696; -153.000; -550.000; -641.000
263.837; -131.300; -449.000; -551.000
263.978;  -17.500;   -5.000;  -77.000
264.119;  -95.600; -283.000; -264.000
264.261; -236.600; -847.000; -630.000
264.402;   17.000;   33.000;   40.000
264.543; -157.700; -509.000; -524.000
264.684;   -6.300;   61.000;  -50.000
264.825; -146.100; -816.000; -538.000
264.966;   40.300;  -84.000;  -67.000
265.107; -268.400; -646.000; -670.000
265.248; -241.300; -825.000; -812.000
265.390;  -19.800;  152.000;   -9.000
265.531;  -51.100; -238.000; -107.000
265.672; -215.100; -557.000; -630.000
265.813;  176.100;  563.000;  439.000
265.954; -324.000; -959.000; -940.000
266.095;  -57.900; -372.000; -322.000
266.236; -245.400; -686.000; -548.000
266.377;  -60.100; -243.000; -297.000
266.518; -145.700; -619.000; -547.000
266.659;   67.000;  170.000;  268.000
266.800;  -10.600;   83.000;   85.000
266.941; -169.000; -487.000; -478.000
267.082;   13.900;  354.000;   99.000
267.223;  -96.200; -344.000; -273.000
267.364; -240.400; -892.000; -686.000
267.504;   -8.700;    3.000;  135.000
267.645;   13.000;  160.000;   67.000
267.786;  -46.700; -147.000;  -86.000
267.927; -181.200; -473.000; -379.000
268.068;  -30.400; -186.000;  -61.000
268.209; -144.600; -175.000; -413.000
268.350; -115.600; -388.000; -532.000
268.490; -190.600; -648.000; -521.000
268.631;   54.300;  127.000;  225.000
268.772; -254.900; -874.000; -647.000
268.913;  -74.900; -328.000; -476.000
269.054;  -35.600; -117.000;   12.000
269.194; -126.600; -418.000; -402.000
269.335; -306.600;-1137.000;-1074.000
269.476;   24.700;   33.000;  -35.000
269.617; -112.900; -347.000; -392.000
269.757; -197.000; -713.000; -646.000
269.898; -229.000; -856.000; -613.000
270.039; -104.900; -415.000; -405.000
270.180; -278.000; -952.000; -816.000
270.320;  -46.000; -190.000; -250.000
270.461; -106.500; -277.000; -249.000
270.602;  -35.400; -186.000; -156.000
270.742; -267.100; -868.000; -943.000
270.883; -125.300; -442.000; -390.000
271.023; -110.000; -358.000; -357.000
271.164; -166.200; -607.000; -528.000
271.305; -248.400; -666.000; -654.000
271.445; -178.000; -722.000; -683.000
271.586; -137.300; -462.000; -283.000
271.726;  -72.500; -397.000; -322.000
271.867; -219.000; -594.000; -534.000
272.008;  -54.100; -473.000; -285.000
272.148;   80.000;  462.000;  468.000
272.289;  -37.500; -113.000; -181.000
272.429;    4.400;   19.000;  185.000
272.570; -226.500; -633.000; -737.000
272.710; -238.400; -825.000; -775.000
272.851;  -24.400;  113.000; -130.000
272.991; -356.200;-1173.000;-1077.000
273.131; -141.600; -419.000; -459.000
273.272; -197.500; -683.000; -723.000
273.412;  -25.200; -143.000;  -31.000
273.553; -161.300; -488.000; -507.000
273.693;  248.600;  913.000;  858.000
273.834; -276.400; -894.000; -692.000
273.974; -188.800; -664.000; -615.000
274.114; -218.300; -772.000; -560.000
274.255;  109.300;  414.000;  373.000
274.395; -106.400; -180.000; -125.000
274.535;   71.200;  199.000;  350.000
274.676;   57.200;  225.000;   94.000
274.816;    6.100;  110.000;   34.000
274.956; -228.500; -624.000; -690.000
275.097; -265.800;-1014.000; -922.000
275.237; -279.200; -913.000; -803.000
275.377; -214.900; -778.000; -689.000
275.517; -342.200; -878.000; -937.000
275.658; -165.700; -590.000; -555.000
275.798; -212.400; -606.000; -413.000
275.938;   53.800;  215.000;  323.000
276.078; -165.400; -626.000; -395.000
276.218;   -0.200;   99.000;  104.000
276.359; -327.200;-1026.000;-1024.000
276.499; -181.000; -605.000; -446.000
276.639;  -80.800; -305.000; -151.000
276.779; -119.500; -475.000; -357.000
276.919; -250.700; -783.000; -624.000
277.059;  -44.100; -261.000; -212.000
277.199;  -86.400; -357.000; -259.000
277.340;  106.300;  287.000;  175.000
277.480; -276.900; -840.000; -693.000
277.620;   67.700;  192.000;   16.000
277.760; -445.200;-1533.000;-1294.000
277.900;   21.900;  113.000;   33.000
278.040;  -14.000;  137.000;  159.000
278.180;   61.200;  270.000;  170.000
278.320;  -10.400;   21.000;   56.000
278.460; -134.200; -443.000; -469.000
278.600; -166.700; -708.000; -598.000
278.740;  112.100;  448.000;  224.000
278.880; -291.400; -768.000; -791.000
279.020;  -34.000; -194.000; -144.000
279.160; -216.000; -672.000; -595.000
279.300; -272.400; -926.000; -873.000
279.440; -221.100; -709.000; -622.000
279.579; -278.800;-1014.000; -929.000
279.719; -157.100; -410.000; -394.000
279.859;   49.500;   -4.000;   41.000
279.999; -106.600; -208.000;  101.000
280.139; -114.700; -435.000; -387.000
280.279; -234.400; -708.000; -745.000
280.419;  -20.600; -229.000; -147.000
280.559; -108.100; -259.000; -180.000
280.698; -205.100; -790.000; -639.000
280.838; -278.000; -778.000; -800.000
280.978; -227.800; -846.000; -790.000
281.118; -245.000; -811.000; -704.000
281.257;   35.200;   24.000;    6.000
281.397; -353.800;-1094.000; -960.000
281.537; -190.200; -599.000; -712.000
281.677;  -77.800; -150.000; -101.000
281.816; -160.100; -700.000; -630.000
281.956;  -65.300; -193.000; -257.000
282.096; -124.900; -539.000; -396.000
282.235; -230.800; -672.000; -638.000
282.375;  -67.000; -243.000;  -98.000
282.515; -266.600; -715.000; -707.000
282.654;   26.800;   29.000;  106.000
282.794;   61.000;  388.000;  244.000
282.934; -133.200; -530.000; -491.000
283.073; -318.700;-1030.000; -857.000
283.213; -111.400; -460.000; -467.000
283.353; -136.600; -408.000; -349.000
283.492;  -76.600; -264.000; -296.000
283.632;  -97.100; -254.000; -168.000
283.771; -214.500; -859.000; -730.000
283.911; -122.900; -369.000; -260.000
284.050; -202.300; -794.000; -748.000
284.190; -354.400;-1229.000;-1096.000
284.329; -312.400;-1055.000; -964.000
284.469; -216.700; -516.000; -591.000
284.608; -136.000; -559.000; -598.000
284.748; -177.700; -614.000; -570.000
284.887;  -22.700;  -87.000;  -20.000
285.027; -264.000; -844.000; -892.000
285.166;  -69.700; -192.000; -249.000
285.306;  -53.200; -116.000;  -33.000
285.445;  -85.900; -229.000; -343.000
285.584; -230.800; -630.000; -494.000
285.724; -100.400; -282.000; -322.000
285.863; -237.300; -857.000; -507.000
286.002;  -99.400; -366.000; -276.000
286.142; -205.600; -715.000; -622.000
286.281; -154.400; -525.000; -493.000
286.420; -211.500; -554.000; -417.000
286.560;  208.500;  653.000;  623.000
286.699; -316.200; -958.000; -912.000
286.838; -186.500; -590.000; -591.000
286.978; -208.600; -533.000; -537.000
287.117; -306.000;-1085.000; -950.000
287.256;  -71.400; -228.000; -211.000
287.395; -105.100; -197.000; -378.000
287.535; -122.500; -370.000; -298.000
287.674; -152.600; -509.000; -484.000
287.813;  101.200;  661.000;  533.000
287.952; -284.000;-1010.000; -871.000
288.091; -316.300;-1049.000; -915.000
288.231;   16.200;   13.000;   15.000
288.370; -381.000;-1217.000;-1200.000
288.509; -202.700; -728.000; -645.000
288.648; -193.000; -770.000; -548.000
288.787;  -42.800; -243.000;  -87.000
288.926; -141.500; -454.000; -475.000
289.065;  251.600;  859.000;  672.000
289.204; -135.900; -377.000; -217.000
289.344; -195.700; -791.000; -690.000
289.483;   16.000;  416.000;  304.000
289.622;  -53.100; -291.000; -149.000
289.761;  -30.900; -309.000; -166.000
289.900; -235.000; -785.000; -626.000
290.039;  -42.000;  -12.000;  -95.000
290.178;  -75.600; -274.000; -180.000
290.317; -216.200; -618.000; -479.000
290.456; -120.100; -463.000; -451.000
290.595; -314.800; -961.000; -833.000
290.734; -294.400; -904.000; -891.000
290.873; -175.400; -456.000; -420.000
291.011; -253.500; -833.000; -843.000
291.150; -250.000; -770.000; -682.000
291.289;  -49.000; -343.000; -110.000
291.428; -211.300; -599.000; -480.000
291.567; -103.200; -370.000; -442.000
291.706;  -35.100;  109.000;  154.000
291.845; -186.800; -597.000; -505.000
291.984; -377.300;-1234.000;-1061.000
292.122;  156.400;  602.000;  582.000
292.261;   73.200;  620.000;  463.000
292.400;  -16.600; -144.000;  211.000
292.539; -288.300; -959.000; -813.000
292.678;  -59.600; -325.000; -300.000
292.816; -350.300;-1136.000; -965.000
292.955; -248.000; -844.000; -684.000
293.094;  -90.000; -173.000; -337.000
293.233; -111.700; -556.000; -400.000
293.371;  -88.300; -225.000;  -84.000
293.510; -205.500; -866.000; -780.000
293.649; -286.300; -959.000; -924.000
293.787; -306.200;-1083.000;-1012.000
293.926;  -33.400; -113.000;  -32.000
294.065; -115.100; -379.000; -290.000
294.203;   67.100;  298.000;  406.000
294.342;    3.800;   74.000;  156.000
294.481;12335.700;51180.000; -836.000
294.619;  -80.200; -425.000; -582.000
294.758; -330.800;-1230.000;-1137.000
294.896;   -2.500; -125.000;    5.000
295.035; -338.400;-1040.000;-1006.000
295.174; -299.700;-1082.000; -954.000
295.312; -118.500; -323.000; -203.000
295.451; -127.900; -307.000; -428.000
295.589; -186.800; -389.000; -518.000
295.728;   29.800; -292.000; -165.000
295.866;  -39.000;  -36.000;  -51.000
296.005; -186.100; -584.000; -341.000
296.143; -204.900; -558.000; -596.000
296.282; -230.200; -957.000; -881.000
296.420; -219.800; -657.000; -557.000
296.559; -188.900; -892.000; -633.000
296.697; -247.900; -847.000; -665.000
296.835; -316.500;-1141.000;-1002.000
296.974;   11.000;  -23.000;   39.000
297.112; -138.800; -443.000; -504.000
297.251; -242.800; -815.000; -755.000
297.389; -132.800; -576.000; -438.000
297.527;  -67.700; -145.000;  -83.000
297.666; -169.100; -486.000; -438.000
297.804; -131.700; -404.000; -264.000
297.942;  -28.400; -136.000; -161.000
298.081;  -55.300; -183.000;   63.000
298.219;   -6.700;  -17.000;  -19.000
298.357;  -64.300; -144.000;  -71.000
298.495; -239.500; -810.000; -812.000
298.634;   10.200;  245.000;  219.000
298.772;  -82.100; -220.000; -338.000
298.910; -168.200; -309.000; -182.000
299.048;  -23.700; -130.000; -153.000
299.187;  -87.800; -350.000; -250.000
299.325;  -12.600;   52.000;  122.000
299.463; -137.600; -389.000; -299.000
299.601;  -93.600; -327.000; -271.000
299.739; -289.600; -908.000; -883.000
299.877; -181.900; -791.000; -703.000
300.016; -342.800;-1095.000; -935.000
300.154;  -25.900;  -19.000; -161.000
300.292; -142.400; -428.000; -348.000
300.430; -101.000; -408.000; -291.000
300.568; -272.600; -940.000; -874.000
300.706; -141.500; -366.000; -469.000
300.844; -348.200;-1108.000; -979.000
300.982;  135.900;  246.000;  282.000
301.120; -322.100; -965.000; -866.000
301.258; -203.600; -812.000; -705.000
301.396;   11.800;  104.000;  -41.000
301.534; -112.600; -218.000; -293.000
301.672; -218.200; -664.000; -521.000
301.810; -148.200; -613.000; -545.000
301.948;   18.600;   53.000;  149.000
302.086;  -65.100; -250.000;  -32.000
302.224; -218.800; -610.000; -585.000
302.362; -186.800; -558.000; -622.000
302.500; -308.400; -923.000; -893.000
302.638;   24.800;  128.000;  245.000
302.776;  -95.700; -352.000; -408.000
302.913;   80.700;  447.000;  236.000
303.051;  -73.300;  -86.000;  -23.000
303.189;   33.300;   90.000;  118.000
303.327; -129.600; -341.000; -256.000
303.465; -203.600; -832.000; -588.000
303.603; -241.200; -805.000; -604.000
303.740;   78.100;  417.000;  241.000
303.878; -267.300; -800.000; -759.000
304.016; -220.500; -915.000; -790.000
304.154; -367.100;-1123.000;-1152.000
304.291; -127.600; -505.000; -554.000
304.429;  -15.000;  102.000;   74.000
304.567; -297.900; -908.000; -893.000
304.705; -168.900; -408.000; -515.000
304.842; -193.000; -616.000; -540.000
304.980;   45.900;  215.000;   35.000
305.118; -101.900; -367.000; -365.000
305.255; -301.300; -945.000; -927.000
305.393;   82.200;  178.000;  239.000
305.531; -322.200;-1173.000; -956.000
305.668; -195.400; -663.000; -582.000
305.806; -143.400; -358.000; -439.000
305.943; -156.300; -629.000; -637.000
306.081;  -80.400; -378.000; -267.000
306.219; -246.000; -863.000; -748.000
306.356;  -39.400;  158.000;   27.000
306.494;  206.100;  981.000;  761.000
306.631;  -23.400;  -11.000;  -55.000
306.769; -145.900; -613.000; -485.000
306.906; -166.000; -284.000; -258.000
307.044; -138.300; -473.000; -488.000
307.181; -153.500; -410.000; -332.000
307.319;   67.300;  112.000;   87.000
307.456; -383.000;-1191.000;-1153.000
307.594; -255.200; -980.000; -727.000
307.731;  -91.200; -371.000; -164.000
307.868;  -14.600;  -15.000;   20.000
308.006; -317.900; -961.000; -847.000
308.143; -189.600; -618.000; -330.000
308.281;  -65.000;  -37.000; -254.000
308.418; -218.100; -748.000; -640.000
308.555; -195.600; -400.000; -250.000
308.693; -172.700; -577.000; -573.000
308.830; -261.900; -712.000; -657.000
308.967;  -49.100; -215.000;  -95.000
309.105; -143.900; -507.000; -396.000
309.242; -128.400; -468.000; -367.000
309.379; -203.600; -577.000; -655.000
309.517; -246.300; -936.000; -948.000
309.654; -288.300; -910.000; -734.000
309.791; -163.500; -662.000; -580.000
309.928; -306.600; -977.000; -914.000
310.065;  163.300;  819.000;  697.000
310.203; -285.300; -825.000; -850.000
310.340; -157.100; -465.000; -321.000
310.477; -189.000; -412.000; -516.000
310.614; -147.500; -383.000; -473.000
310.751; -210.600; -427.000; -518.000
310.889;  -56.200;    1.000;   11.000
311.026; -375.600;-1161.000; -939.000
311.163; -124.600; -386.000; -380.000
311.300; -206.100; -512.000; -479.000
311.437; -166.800; -658.000; -619.000
311.574; -376.900;-1226.000; -985.000
311.711; -150.100; -595.000; -433.000
311.848; -130.500; -380.000; -388.000
311.985;   33.500;  270.000;   93.000
312.122; -284.700; -932.000; -762.000
312.259; -269.900; -941.000; -994.000
312.396; -219.800; -508.000; -551.000
312.533; -196.200; -812.000; -790.000
312.670; -334.400;-1070.000; -898.000
312.807; -133.500; -352.000; -367.000
312.944; -194.600; -513.000; -611.000
313.081; -101.200; -150.000; -415.000
313.218; -319.500;-1111.000; -867.000
313.355; -137.100; -531.000; -449.000
313.492; -110.600; -455.000; -292.000
313.629;  196.800;  815.000;  735.000
313.766; -391.800;-1176.000;-1008.000
313.902;    2.600; -186.000;   21.000
314.039; -143.200; -372.000; -289.000
314.176;   43.600;  286.000;  192.000
314.313; -205.600; -569.000; -473.000
314.450; -224.600; -788.000; -684.000
314.587; -193.400; -468.000; -480.000
314.723;    0.000;  -78.000;  130.000
314.860;   14.600;  318.000;  332.000
314.997;   13.000;  223.000;  142.000
315.134; -182.900; -385.000; -368.000
315.270; -173.600; -480.000; -496.000
315.407; -367.600;-1094.000; -967.000
315.544; -194.300; -657.000; -538.000
315.681; -225.600; -681.000; -565.000
315.817;  -44.700; -133.000; -176.000
315.954; -167.500; -613.000; -392.000
316.091; -326.600;-1045.000;-1023.000
316.227;  -85.700;  -71.000; -179.000
316.364;  -33.700;   23.000;    6.000
316.500; -134.100; -113.000; -300.000
316.637; -105.500; -181.000; -302.000
316.774; -211.200; -625.000; -358.000
316.910; -211.600; -598.000; -629.000
317.047; -199.100; -487.000; -351.000
317.183; -166.000; -435.000; -566.000
317.320; -140.900; -367.000; -321.000
317.456; -257.600; -733.000; -805.000
317.593; -219.300; -598.000; -641.000
317.729;   31.400;  168.000;  -67.000
317.866; -422.900;-1434.000;-1285.000
318.002; -196.400; -708.000; -948.000
318.139; -299.000; -883.000; -867.000
318.275; -255.000;-1003.000; -738.000
318.412; -178.500; -517.000; -336.000
318.548; -204.400; -751.000; -720.000
318.685; -304.300; -985.000; -888.000
318.821; -225.700; -762.000; -735.000
318.957;  -99.300;   34.000;  -23.000
319.094;   99.200;  297.000;  154.000
319.230; -284.900; -756.000; -742.000
319.367; -119.200; -471.000; -520.000
319.503; -160.600; -538.000; -436.000
319.639; -237.600; -877.000; -793.000
319.775; -231.400; -750.000; -685.000
319.912; -131.500; -424.000; -519.000
320.048; -377.100;-1184.000;-1184.000
320.184;   38.400;   59.000;   70.000
320.321; -142.800; -497.000; -467.000
320.457;  133.900;  475.000;  662.000
320.593; -155.600; -375.000; -382.000
320.729; -225.300; -732.000; -734.000
320.866; -210.200; -577.000; -635.000
321.002; -239.900; -759.000; -809.000
321.138; -100.100; -135.000; -211.000
321.274;  -91.900; -148.000; -115.000
321.410; -219.800; -585.000; -353.000
321.546; -291.600;-1011.000; -911.000
321.683;   38.800;  400.000;  185.000
321.819;  -40.800;  -48.000; -117.000
321.955; -291.200; -743.000; -722.000
322.091; -144.500; -585.000; -540.000
322.227;  -75.900; -382.000; -202.000
322.363; -100.900; -320.000; -215.000
322.499; -152.300; -343.000; -331.000
322.635;  161.500;  636.000;  443.000
322.771;  -91.300; -139.000;   12.000
322.907;   73.700;  129.000;  327.000
323.043;  -79.000; -115.000; -206.000
323.179; -126.000; -394.000; -363.000
323.315; -149.800; -401.000; -371.000
323.451;  -99.000; -328.000; -236.000
323.587;  -63.900;  -60.000;  -77.000
323.723; -208.300; -682.000; -601.000
323.859;  -97.800; -258.000;  -76.000
323.995; -126.100; -467.000; -409.000
324.131; -311.300; -967.000; -892.000
324.267;  -56.900; -254.000; -276.000
324.402; -327.400; -960.000; -983.000
324.538;  -75.900; -279.000; -104.000
324.674;  -10.600;  164.000;   77.000
324.810;   12.200;  226.000;  308.000
324.946; -144.700; -810.000; -658.000
325.082; -178.900; -568.000; -475.000
325.217;  -48.800;  -62.000;   16.000
325.353; -208.300; -764.000; -659.000
325.489; -189.300; -540.000; -506.000
325.625; -143.200; -579.000; -525.000
325.760;   47.900;  517.000;  376.000
325.896; -189.800; -515.000; -702.000
326.032; -114.400; -403.000; -352.000
326.168; -136.900; -462.000; -369.000
326.303; -136.600; -352.000; -461.000
326.439;  -98.600; -336.000; -276.000
326.575;  -81.400; -190.000;  -29.000
326.710;  -12.100; -156.000;  -30.000
326.846;  -11.500;  146.000;  103.000
326.982; -187.000; -530.000; -548.000
327.117; -176.300; -481.000; -442.000
327.253; -234.100; -745.000; -742.000
327.388; -397.400;-1137.000;-1153.000
327.524; -223.400; -811.000; -578.000
327.659;  -74.000;  -58.000;  -22.000
327.795;    6.800;   69.000;   45.000
327.931; -208.900; -723.000; -499.000
328.066; -105.500; -417.000; -276.000
328.202;  -90.300;   12.000; -129.000
328.337;  227.600;  957.000;  713.000
328.473;  -60.900;  -12.000;  -74.000
328.608;  -88.600; -256.000; -267.000
328.743; -233.900; -799.000; -664.000
328.879;   21.100;  214.000;  114.000
329.014; -125.700; -102.000; -122.000
329.150; -161.800; -358.000; -483.000
329.285; -168.900; -465.000; -466.000
329.421; -118.200; -548.000; -246.000
329.556;  -11.600;  -36.000;   85.000
329.691; -193.700; -633.000; -615.000
329.827; -181.200; -626.000; -480.000
329.962;  -92.000;  131.000; -301.000
330.097; -230.300; -673.000; -585.000
330.233;  -85.200; -410.000; -223.000
330.368; -281.500; -839.000; -628.000
330.503;  -15.500;    3.000;   98.000
330.638;  -46.200;  -93.000; -125.000
330.774; -189.000; -609.000; -530.000
330.909;  -74.200; -434.000; -244.000
331.044; -184.700; -714.000; -708.000
331.179; -382.200;-1217.000;-1109.000
331.315;   25.300;   77.000;   20.000
331.450;    4.100;  157.000;  285.000
331.585; -218.300; -805.000; -706.000
331.720; -194.800; -510.000; -460.000
331.855;  -41.600;  -35.000; -102.000
331.990;  -48.800;   62.000;  138.000
332.126;  -12.100; -110.000;   71.000
332.261; -134.900; -379.000; -265.000
332.396;  -98.300; -135.000; -242.000
332.531; -346.700;-1074.000;-1031.000
332.666; -144.600; -519.000; -363.000
332.801; -249.700; -726.000; -807.000
332.936;  -33.000; -192.000; -122.000
333.071; -308.500; -870.000; -817.000
333.206;   45.400;  307.000;  379.000
333.341;   43.200;  344.000;  418.000
333.476; -166.400; -627.000; -623.000
333.611;  -83.900; -251.000; -173.000
333.746;  -91.300; -381.000; -464.000
333.881; -282.400; -973.000; -935.000
334.016; -253.100; -936.000; -917.000
334.151; -280.900; -746.000; -702.000
334.286;    8.700;  152.000;  186.000
334.421;  -60.100; -125.000; -178.000
334.556; -197.700; -611.000; -567.000
334.690; -209.000; -631.000; -577.000
334.825;   99.100;  381.000;   83.000
334.960; -171.600; -285.000; -413.000
335.095;  -32.300;  135.000;  -91.000
335.230; -264.800; -722.000; -738.000
335.365; -284.100;-1084.000; -990.000
335.499; -361.100;-1108.000;-1037.000
335.634;  -18.900;    9.000;  534.000
335.769; -261.100; -755.000; -720.000
335.904; -178.500; -603.000; -561.000
336.038; -273.000; -735.000; -657.000
336.173; -356.300;-1206.000;-1194.000
336.308;  -93.900; -116.000; -189.000
336.443; -111.100; -544.000; -634.000
336.577; -294.400; -936.000; -787.000
336.712;  -16.300;   -4.000;  -12.000
336.847; -265.500; -724.000; -607.000
336.981; -141.800; -272.000; -208.000
337.116;  119.900;  615.000;  501.000
337.250; -153.700; -434.000; -421.000
337.385; -120.900; -297.000; -208.000
337.520; -206.000; -632.000; -603.000
337.654; -137.800; -215.000; -126.000
337.789; -285.600; -989.000; -933.000
337.923;  -71.200; -104.000; -205.000
338.058; -228.900; -673.000; -738.000
338.192; -209.600; -611.000; -488.000
338.327;  -47.900;  -18.000; -155.000
338.461; -192.100; -299.000; -469.000
338.596; -212.500; -780.000; -638.000
338.730; -288.700; -767.000; -803.000
338.865;  -57.400;  -46.000; -140.000
338.999; -283.400; -846.000; -702.000
339.134; -181.200; -634.000; -536.000
339.268; -205.100; -741.000; -603.000
339.403; -213.500; -740.000; -775.000
339.537; -285.200; -894.000; -820.000
339.671; -233.600; -829.000; -813.000
339.806; -197.100; -556.000; -512.000
339.940;  -79.800; -261.000; -235.000
340.074; -236.100; -685.000; -510.000
340.209;  -71.200; -351.000; -230.000
340.343; -221.000; -517.000; -573.000
340.477;  308.300;  998.000; 1036.000
340.612; -292.000;-1033.000; -900.000
340.746;  -96.300; -199.000; -243.000
340.880; -281.100; -924.000; -785.000
341.014;  -33.900;  -45.000; -154.000
341.149; -267.300; -756.000; -718.000
341.283; -243.900; -839.000; -754.000
341.417; -310.700;-1124.000; -938.000
341.551; -207.100; -768.000; -708.000
341.685; -214.100; -633.000; -611.000
341.820; -190.100; -562.000; -493.000
341.954; -160.200; -218.000; -349.000
342.088; -303.100;-1102.000;-1019.000
342.222;   49.800;  565.000;  618.000
342.356; -157.300; -395.000; -335.000
342.490; -271.300; -880.000; -841.000
342.624;  -95.900; -339.000; -242.000
342.758; -154.700; -364.000; -312.000
342.892; -194.400; -710.000; -585.000
343.026;  -84.000;  -58.000; -116.000
343.160; -134.500; -426.000; -376.000
343.294; -190.700; -474.000; -337.000
343.428; -171.200; -488.000; -448.000
343.562;  -46.100; -172.000;  -23.000
343.696; -112.100; -385.000; -314.000
343.830; -133.500; -362.000; -356.000
343.964;  -94.900; -231.000; -168.000
344.098;  -23.900;  199.000;   70.000
344.232;  -84.600; -266.000; -127.000
344.366; -212.700; -567.000; -453.000
344.500; -201.400; -665.000; -744.000
344.634; -129.300; -324.000; -164.000
344.768; -157.400; -531.000; -341.000
344.902;   22.600;  278.000;  256.000
345.035; -157.200; -556.000; -496.000
345.169; -324.000; -933.000; -656.000
345.303; -130.100; -308.000; -482.000
345.437; -272.500; -826.000; -717.000
345.571; -202.700; -675.000; -594.000
345.704; -166.900; -309.000; -532.000
345.838;  -85.900; -331.000; -284.000
345.972; -215.400; -543.000; -495.000
346.106;  -26.800; -179.000; -190.000
346.239; -115.400; -312.000; -243.000
346.373; -122.200; -343.000; -302.000
346.507; -324.700; -950.000; -962.000
346.640;  -39.000;  -30.000;   13.000
346.774; -229.400; -650.000; -797.000
346.908;  -36.400; -138.000;  -11.000
347.041; -225.900; -646.000; -593.000
347.175;    9.100;  259.000;   27.000
347.309; -259.100; -698.000; -628.000
347.442; -270.100; -883.000; -732.000
347.576;  157.800;  670.000;  668.000
347.709;  -69.300; -123.000;  -52.000
347.843; -312.300; -933.000; -825.000
347.976;   63.100;  235.000;  294.000
348.110; -391.700;-1268.000;-1186.000
348.243; -205.300; -679.000; -772.000
348.377;  -42.000;  -26.000;   60.000
348.510;   80.500;  403.000;  540.000
348.644;  -91.100;  -37.000; -159.000
348.777;  -17.800;  180.000;  191.000
348.911;  -90.400; -142.000; -112.000
349.044;  122.100;  471.000;  448.000
349.178; -351.200;-1069.000;-1006.000
349.311;   33.600;  141.000;  255.000
349.444; -328.200; -927.000; -813.000
349.578;  -81.400; -347.000; -200.000
349.711; -288.900; -959.000; -862.000
349.845; -191.100; -661.000; -591.000
349.978; -378.800;-1224.000;-1137.000
350.111; -188.700; -546.000; -612.000
350.244; -247.000; -596.000; -700.000
350.378; -135.200; -392.000; -393.000
350.511; -167.000; -393.000; -426.000
350.644; -250.800; -808.000; -806.000
350.778;  -12.700;  168.000;  104.000
350.911;   -8.700;  134.000;  140.000
351.044; -236.500; -685.000; -615.000
351.177;  -64.200; -321.000; -281.000
351.310;  -47.600;    3.000; -131.000
351.444; -260.800; -888.000; -788.000
351.577;   -0.100;  140.000;   90.000
351.710;  165.800;  593.000;  417.000
351.843;  -98.400; -165.000;  -77.000
351.976;  -10.200;  149.000;  -79.000
352.109; -235.100; -621.000; -612.000
352.242; -120.400; -464.000; -419.000
352.376; -236.200; -580.000; -636.000
352.509; -139.800; -437.000; -356.000
352.642; -342.600; -654.000; -604.000
352.775;  -67.500; -141.000;  -98.000
352.908; -333.700; -933.000; -904.000
353.041; -260.400; -814.000; -824.000
353.174; -164.800; -551.000; -424.000
353.307; -229.400; -753.000; -764.000
353.440;   95.400;  541.000;  453.000
353.573; -274.400; -957.000;-1008.000
353.706; -248.000; -384.000; -558.000
353.839; -122.900; -264.000; -220.000
353.971; -220.800; -657.000; -512.000
354.104; -263.300; -896.000; -835.000
354.237; -224.000; -627.000; -662.000
354.370; -219.500; -846.000; -879.000
354.503; -422.400;-1231.000;-1308.000
354.636; -125.400; -529.000; -348.000
354.769; -325.100; -937.000; -860.000
354.902;  -81.100; -230.000; -139.000
355.034;  -69.400; -164.000; -220.000
355.167;  -80.400; -262.000; -162.000
355.300; -339.500;-1061.000; -880.000
355.433;    0.500;  -71.000;  -14.000
355.565; -169.700; -402.000; -384.000
355.698; -110.700; -356.000; -296.000
355.831; -287.400; -882.000; -801.000
355.964;  -88.000; -285.000; -170.000
356.096; -320.200; -856.000; -843.000
356.229; -166.700; -523.000; -530.000
356.362; -138.100; -373.000; -266.000
356.494;  -67.400; -229.000; -162.000
356.627;   59.900;  269.000;  377.000
356.760;    4.300;  120.000;   53.000
356.892; -220.100; -286.000; -601.000
357.025;  104.300;  403.000;  389.000
357.157;  -87.000; -167.000; -179.000
357.290; -268.300; -856.000; -713.000
357.423; -234.400; -667.000; -556.000
357.555;  -74.000; -217.000; -228.000
357.688; -185.300; -483.000; -364.000
357.820; -280.900; -870.000; -877.000
357.953; -230.900; -563.000; -589.000
358.085; -213.100; -632.000; -612.000
358.218; -353.100;-1131.000; -932.000
358.350;   -7.500;  -58.000;  312.000
358.483; -373.400;-1300.000;-1187.000
358.615; -334.400;-1182.000;-1078.000
358.747; -391.400;-1187.000;-1058.000
358.880; -237.700; -810.000; -744.000
359.012; -162.400; -376.000; -202.000
359.145; -162.300; -480.000; -511.000
359.277; -323.000; -962.000; -913.000
359.409;   87.200;  536.000;  231.000
359.542; -265.900; -738.000; -688.000
359.674;  -25.400;   46.000;   13.000
359.806; -204.400; -565.000; -438.000
359.939; -156.200; -617.000; -516.000
360.071; -252.200; -583.000; -579.000
360.203; -113.400; -411.000; -364.000
360.335;  -34.400;  164.000;  -16.000
360.468;  -91.200; -249.000; -307.000
360.600; -225.700; -547.000; -454.000
360.732; -186.300; -546.000; -423.000
360.864; -404.400;-1216.000;-1044.000
360.996; -153.800; -516.000; -554.000
361.129; -176.900; -389.000; -598.000
361.261;  -32.000;  110.000; -113.000
361.393; -122.600; -252.000; -214.000
361.525;    8.500;   94.000;  244.000
361.657; -239.000; -821.000; -703.000
361.789;  -29.500; -139.000; -155.000
361.921; -213.100; -642.000; -593.000
362.053;  118.500;  524.000;  541.000
362.185;  -21.200;  288.000;   72.000
362.318; -242.800; -709.000; -705.000
362.450;   66.300;  294.000;  444.000
362.582; -282.800; -913.000; -870.000
362.714; -139.500; -353.000; -332.000
362.846; -175.300; -606.000; -490.000
362.978; -327.300; -941.000; -811.000
363.109; -121.600; -161.000; -260.000
363.241; -277.700; -739.000; -749.000
363.373; -180.400; -649.000; -564.000
363.505;  -94.000; -186.000;  -91.000
363.637; -206.300; -787.000; -601.000
363.769; -373.100;-1067.000;-1080.000
363.901; -170.100; -596.000; -654.000
364.033; -370.100;-1103.000;-1062.000
364.165;  -77.000; -283.000; -283.000
364.296; -149.700; -316.000; -177.000
364.428; -389.600;-1344.000;-1220.000
364.560; -230.700; -679.000; -661.000
364.692; -189.300; -738.000; -835.000
364.824; -212.300; -588.000; -456.000
364.955; -134.500; -402.000; -564.000
365.087; -332.000;-1097.000; -852.000
365.219; -220.100; -686.000; -816.000
365.351; -217.100; -526.000; -572.000
365.482;   31.800;  300.000;  240.000
365.614; -135.200; -402.000; -314.000
365.746; -228.800; -729.000; -752.000
365.877; -248.200; -706.000; -672.000
366.009;  -62.900;  -35.000;  -62.000
366.141; -392.900;-1249.000;-1134.000
366.272; -243.700; -803.000; -719.000
366.404; -303.300;-1005.000; -874.000
366.535;  -23.200; -139.000;  -12.000
366.667; -250.600; -644.000; -649.000
366.799;   62.100;  353.000;  203.000
366.930; -334.700; -862.000; -996.000
367.062; -199.700; -639.000; -613.000
367.193; -330.300; -872.000; -842.000
367.325; -180.100; -580.000; -684.000
367.456; -153.800; -246.000;   31.000
367.588; -123.200; -371.000; -318.000
367.719;  -82.000;  -44.000;  -45.000
367.851;  -54.600; -222.000; -241.000
367.982; -309.800; -875.000; -732.000
368.113; -140.600; -475.000; -358.000
368.245; -340.100; -960.000; -841.000
368.376;  -91.800; -254.000; -302.000
368.508; -127.000; -188.000; -263.000
368.639; -327.700;-1166.000;-1034.000
368.770; -261.300; -670.000; -589.000
368.902; -248.100; -836.000; -926.000
369.033; -282.000; -906.000; -855.000
369.164; -207.300; -720.000; -653.000
369.296; -252.500; -452.000; -601.000
369.427;  -63.100; -209.000; -144.000
369.558; -156.000; -593.000; -377.000
369.689; -198.000; -721.000; -569.000
369.821; -323.400; -951.000; -845.000
369.952;  -33.700;   42.000; -108.000
370.083; -115.300; -229.000; -108.000
370.214; -211.000; -735.000; -650.000
370.345;  -60.000;   65.000;   81.000
370.477; -262.500; -810.000; -790.000
370.608;  -91.400; -328.000; -264.000
370.739; -381.400;-1233.000;-1292.000
370.870; -321.300;-1102.000; -923.000
371.001; -157.200; -378.000; -467.000
371.132; -248.400; -754.000; -735.000
371.263;  -64.600;  -42.000; -148.000
371.394; -278.500; -841.000; -748.000
371.525;   58.800;  345.000;  225.000
371.657; -301.200; -808.000; -670.000
371.788;   27.700;  103.000;  199.000
371.919; -191.000; -384.000; -304.000
372.050;  -36.200;  -91.000; -156.000
372.181;  -73.100; -188.000; -294.000
372.311;   -2.300;   42.000; -127.000
372.442; -171.000; -457.000; -451.000
372.573;  -78.900; -444.000; -340.000
372.704; -325.000;-1008.000; -980.000
372.835; -111.100; -228.000; -289.000
372.966; -221.400; -646.000; -554.000
373.097; -267.000; -575.000; -711.000
373.228; -221.000; -717.000; -542.000
373.359; -245.200; -824.000; -536.000
373.490; -268.900; -881.000; -727.000
373.620; -282.600;-1001.000; -803.000
373.751; -204.100; -332.000; -396.000
373.882; -184.000; -663.000; -733.000
374.013; -145.100; -449.000; -262.000
374.143; -211.300; -581.000; -659.000
374.274; -333.800; -987.000; -908.000
374.405; -106.000; -388.000; -276.000
374.536; -198.100; -526.000; -387.000
374.666; -242.600; -759.000; -807.000
374.797; -287.300; -817.000; -868.000
374.928; -230.000; -710.000; -560.000
375.058; -195.100; -535.000; -500.000
375.189;  -31.900;  -59.000;  -93.000
375.320; -343.500; -928.000;-1034.000
375.450; -170.800; -625.000; -616.000
375.581; -202.600; -526.000; -436.000
375.712; -103.300; -574.000; -250.000
375.842; -194.200; -438.000; -415.000
375.973; -207.400; -554.000; -513.000
376.103; -229.400; -665.000; -648.000
376.234; -192.200; -531.000; -552.000
376.364; -329.000; -944.000; -867.000
376.495;  208.000;  925.000;  529.000
376.625; -196.400; -472.000; -485.000
376.756; -248.900; -709.000; -678.000
376.886; -375.800;-1178.000;-1026.000
377.017; -337.600;-1048.000;-1061.000
377.147; -294.900; -786.000; -782.000
377.278;   42.300;  174.000;  228.000
377.408; -264.700; -801.000; -815.000
377.538; -236.000; -707.000; -693.000
377.669; -216.200; -537.000; -613.000
377.799; -234.100; -645.000; -635.000
377.929; -222.600; -610.000; -428.000
378.060; -297.600; -781.000; -847.000
378.190; -246.800; -726.000; -531.000
378.320; -126.100; -401.000; -406.000
378.451;  -64.200; -131.000;  -22.000
378.581;  -46.400;  -67.000; -110.000
378.711;  159.100; 1035.000;  866.000
378.841; -176.200; -533.000; -675.000
378.972; -305.600; -871.000; -751.000
379.102; -186.600; -652.000; -579.000
379.232; -114.900; -126.000;  -73.000
379.362; -298.400;-1001.000; -885.000
379.492; -190.500; -373.000; -424.000
379.623;    7.500;    0.000;  111.000
379.753; -328.700;-1107.000; -974.000
379.883;   24.600;   59.000;  156.000
380.013; -376.500;-1081.000;-1017.000
380.143; -357.100;-1097.000;-1056.000
380.273; -312.200; -985.000; -861.000
380.403; -103.700; -344.000; -257.000
380.533; -291.200; -651.000; -664.000
380.663;   31.000;  173.000;  128.000
380.793; -347.500;-1027.000;-1074.000
380.923;  -69.800; -103.000;  -34.000
381.053; -246.400; -613.000; -623.000
381.183;  -76.300; -106.000; -248.000
381.313; -208.300; -656.000; -470.000
381.443; -166.600; -692.000; -473.000
381.573; -174.300; -402.000; -409.000
381.703; -348.600;-1249.000;-1095.000
381.833; -449.700;-1454.000;-1336.000
381.963;   12.300; -134.000;  -87.000
382.093; -346.600; -925.000; -909.000
382.223; -206.000; -713.000; -602.000
382.353; -253.600; -801.000; -608.000
382.482; -346.400;-1091.000; -964.000
382.612; -274.600; -872.000; -644.000
382.742; -210.700; -695.000; -622.000
382.872; -195.900; -565.000; -551.000
383.002;  -20.000;  347.000; -132.000
383.131; -129.900; -226.000; -160.000
383.261; -234.800; -706.000; -768.000
383.391; -227.400; -552.000; -377.000
383.521;   94.600;  451.000;  263.000
383.650; -342.500; -947.000; -904.000
383.780; -201.000; -783.000; -656.000
383.910;  135.700;  880.000;  802.000
384.039; -295.200; -794.000; -656.000
384.169; -406.600;-1205.000;-1017.000
384.299; -206.600; -650.000; -662.000
384.428; -252.500; -764.000; -680.000
384.558; -108.700; -308.000; -275.000
384.687; -175.400; -414.000; -334.000
384.817;  -16.600;   75.000;   -2.000
384.947;  -99.500; -234.000; -141.000
385.076;  214.500;  982.000;  912.000
385.206;   98.000;  369.000;  480.000
385.335; -152.000; -549.000; -417.000
385.465; -263.900; -655.000; -663.000
385.594;  -12.300;  -53.000;  -44.000
385.724; -313.800; -868.000; -838.000
385.853; -124.400; -296.000; -270.000
385.982; -297.100; -743.000; -787.000
386.112; -288.900;-1052.000; -871.000
386.241; -150.700; -307.000; -312.000
386.371;  -86.900; -174.000;  -87.000
386.500; -293.000; -825.000; -789.000
386.629; -249.000; -874.000; -817.000
386.759;  -39.200;  -43.000;   68.000
386.888;  -96.300; -170.000; -250.000
387.017; -215.500; -648.000; -620.000
387.147; -244.100; -771.000; -798.000
387.276; -200.600; -410.000; -397.000
387.405; -133.300; -398.000; -342.000
387.535; -184.100; -452.000; -361.000
387.664; -208.300; -692.000; -620.000
387.793;  -85.900; -198.000; -113.000
387.922;   10.500;  255.000;  200.000
388.052; -215.100; -576.000; -423.000
388.181; -134.500; -342.000; -472.000
388.310; -299.500; -889.000; -710.000
388.439; -261.300; -749.000; -742.000
388.568;   -5.900;  365.000;  244.000
388.697; -235.700; -756.000; -653.000
388.826; -245.300; -768.000; -666.000
388.956; -121.900; -285.000; -307.000
389.085; -139.400; -347.000; -287.000
389.214; -296.600; -842.000; -872.000
389.343; -203.000; -645.000; -413.000
389.472;   28.100;  126.000;  149.000
389.601;  -46.000;   91.000;    0.000
389.730; -184.900; -568.000; -687.000
389.859;    6.200;  226.000;   46.000
389.988; -119.100; -423.000; -408.000
390.117; -123.200; -168.000; -146.000
390.246; -155.200; -331.000; -320.000
390.375; -249.700; -673.000; -626.000
390.504; -188.500; -703.000; -621.000
390.633; -290.300; -672.000; -726.000
390.761; -238.000; -732.000; -645.000
390.890;  -78.100;   -4.000; -130.000
391.019; -168.600; -421.000; -441.000
391.148; -295.300; -826.000; -855.000
391.277; -178.800; -576.000; -493.000
391.406; -273.900; -821.000; -805.000
391.534;   33.400;  574.000; -301.000
391.663; -211.900; -583.000; -645.000
391.792; -249.600; -673.000; -701.000
391.921;  -42.400;   -3.000;   15.000
392.050; -117.900; -287.000; -228.000
392.178; -384.800;-1206.000;-1061.000
392.307; -263.900; -758.000; -712.000
392.436; -263.500; -427.000; -641.000
392.564;  -39.300;  166.000;   -6.000
392.693; -291.200; -860.000; -682.000
392.822; -204.700; -529.000; -534.000
392.950; -275.200; -880.000; -714.000
393.079; -111.200; -188.000; -328.000
393.208; -214.100; -488.000; -511.000
393.336;  -53.900; -170.000; -145.000
393.465; -131.600; -317.000; -199.000
393.593;  -10.300;   62.000;   79.000
393.722; -344.100;-1121.000; -916.000
393.850;  -57.900; -188.000;  -61.000
393.979; -342.000; -926.000; -805.000
394.107; -183.700; -517.000; -537.000
394.236; -215.800; -570.000; -507.000
394.364;   64.100;  383.000;  206.000
394.493; -289.600; -911.000; -767.000
394.621; -270.500; -955.000; -916.000
394.750; -305.900; -873.000; -923.000
394.878; -113.000; -247.000; -149.000
395.007; -285.100; -721.000; -807.000
395.135; -240.900; -790.000; -721.000
395.263; -351.100;-1038.000;-1040.000
395.392;  -47.100;  -25.000; -107.000
395.520; -304.600; -818.000; -679.000
395.648; -302.800; -865.000; -915.000
395.777; -186.600; -366.000; -405.000
395.905; -174.200; -449.000; -564.000
396.033;  -52.300;  217.000;  172.000
396.162; -154.900; -399.000; -453.000
396.290;  -70.500;  -17.000;   -2.000
396.418; -172.600; -555.000; -514.000
396.546; -287.900; -571.000; -466.000
396.674; -271.500; -850.000; -878.000
396.803;  -65.000;  -72.000;  -23.000
396.931; -102.800; -179.000; -199.000
397.059; -368.600;-1026.000; -989.000
397.187; -271.900;-1026.000; -975.000
397.315; -316.400; -884.000; -649.000
397.443; -207.900; -592.000; -443.000
397.572; -215.500; -578.000; -424.000
397.700; -213.400; -607.000; -614.000
397.828;  -61.900;  120.000;  -90.000
397.956; -189.400; -508.000; -478.000
398.084; -235.800; -767.000; -626.000
398.212;    2.200;  137.000;  124.000
398.340;  -69.600;  -56.000;  159.000
398.468; -139.500; -390.000; -169.000
398.596; -309.600; -993.000; -953.000
398.724; -270.800; -762.000; -767.000
398.852; -329.200;-1024.000; -976.000
398.980; -178.700; -560.000; -560.000
399.108; -233.000; -982.000; -735.000
399.236;  -39.700;   13.000;    8.000
399.363;  -16.700;  222.000;  196.000
399.491; -166.200; -404.000; -398.000
399.619; -304.500; -829.000; -800.000
399.747; -267.100; -859.000; -771.000
399.875;   45.800;  220.000;  234.000
400.003; -168.700; -359.000; -284.000
400.130; -185.300; -421.000; -341.000
400.258;   -1.700;  -83.000;   38.000
400.386; -111.700; -352.000; -168.000
400.514; -191.800; -526.000; -587.000
400.641; -336.900; -928.000; -802.000
400.769; -299.900; -979.000; -888.000
400.897; -280.300; -838.000; -793.000
401.025;  -72.500; -166.000; -152.000
401.152;    3.100;  220.000;   38.000
401.280; -146.700; -430.000; -429.000
401.408; -250.300; -712.000; -576.000
401.535; -204.000; -735.000; -758.000
401.663; -418.800;-1134.000;-1054.000
401.790; -182.700; -514.000; -525.000
401.918;   72.100;  436.000;  405.000
402.046;    3.300;  134.000;  122.000
402.173;  -86.100;  -18.000;    7.000
402.301; -165.400; -519.000; -397.000
402.428;   45.700;  528.000;  383.000
402.556; -337.200;-1188.000; -913.000
402.683;  -97.700;  -20.000;   -1.000
402.811;  -54.400;  -37.000; -206.000
402.938;  -63.100;   20.000;   27.000
403.066; -189.300; -574.000; -558.000
403.193;  -51.300;  299.000;  239.000
403.321; -181.300; -396.000; -574.000
403.448;   -1.100;   83.000;   27.000
403.575;  -42.400;  -90.000;  -46.000
403.703; -279.200; -732.000; -557.000
403.830; -159.000; -531.000; -496.000
403.957; -374.300;-1117.000;-1023.000
404.085;  -99.400;  -61.000; -172.000
404.212;  -66.300;  -50.000;   63.000
404.339; -147.900; -566.000; -306.000
404.467; -187.400; -612.000; -524.000
404.594; -124.000; -287.000; -227.000
404.721; -236.400; -869.000; -764.000
404.848;  -69.700; -113.000; -202.000
404.976; -280.300; -856.000; -783.000
405.103;  -41.900;  -14.000;  -82.000
405.230;  -51.700;  190.000;  226.000
405.357;  -10.500;  117.000;   44.000
405.484;  -70.000;  -49.000;    5.000
405.612; -200.900; -548.000; -563.000
405.739; -143.200; -488.000; -243.000
405.866;  124.400;  669.000;  385.000
405.993; -140.000; -398.000; -102.000
406.120; -286.600; -801.000; -887.000
406.247; -175.500; -323.000; -342.000
406.374;  153.100;  540.000;  629.000
406.501; -252.600; -632.000; -702.000
406.628; -196.100; -621.000; -589.000
406.755; -268.800; -803.000; -620.000
406.882; -151.400; -228.000; -277.000
407.009; -229.800; -719.000; -628.000
407.136; -127.400; -480.000; -401.000
407.263; -330.500; -939.000; -829.000
407.390; -231.900; -692.000; -614.000
407.517; -436.200;-1139.000;-1187.000
407.644; -164.700; -332.000; -256.000
407.771; -188.200; -249.000; -287.000
407.898;    9.700;  168.000;  328.000
408.025; -179.700; -421.000; -313.000
408.151;   12.600;   82.000;  153.000
408.278; -136.600; -267.000; -216.000
408.405; -292.400; -931.000; -899.000
408.532; -199.200; -549.000; -542.000
408.659; -254.600; -677.000; -648.000
408.785; -407.200;-1298.000;-1170.000
408.912;  -96.600; -412.000; -296.000
409.039; -226.600; -610.000; -686.000
409.166; -209.100; -591.000; -555.000
409.292; -233.900; -571.000; -534.000
409.419; -219.400; -665.000; -649.000
409.546; -138.200; -431.000; -192.000
409.672; -230.600; -713.000; -545.000
409.799;  -53.600;  -36.000;   34.000
409.926;  -96.400; -180.000; -179.000
410.052; -386.200;-1127.000;-1091.000
410.179; -136.700; -368.000; -392.000
410.305; -183.700; -375.000; -493.000
410.432; -117.800; -220.000; -333.000
410.558; -187.400; -305.000; -380.000
410.685; -202.100; -688.000; -431.000
410.812; -199.500; -409.000; -588.000
410.938; -277.200; -964.000; -808.000
411.065; -230.000; -671.000; -645.000
411.191;  -97.700; -189.000; -174.000
411.317; -300.100; -823.000; -742.000
411.444; -120.400; -317.000; -246.000
411.570; -121.100; -339.000; -294.000
411.697; -243.400; -758.000; -752.000
411.823; -345.100; -989.000; -999.000
411.949;  -95.100;  -56.000;   17.000
412.076; -244.600; -539.000; -519.000
412.202; -270.200; -758.000; -757.000
412.329; -289.600; -798.000; -752.000
412.455; -236.100; -821.000; -657.000
412.581;  -66.300;  -15.000;  172.000
412.707; -165.800; -540.000; -457.000
412.834;   -1.900;  156.000;  219.000
412.960; -274.900; -785.000; -784.000
413.086; -303.200; -743.000; -701.000
413.212;  116.600;  604.000;  578.000
413.339; -274.000; -685.000; -701.000
413.465; -142.800; -364.000; -310.000
413.591; -285.800; -757.000; -474.000
413.717; -118.000; -358.000; -366.000
413.843; -328.200; -839.000; -861.000
413.969; -128.400;  -47.000; -292.000
414.096; -283.000; -679.000; -679.000
414.222;  -37.000;  -33.000;   85.000
414.348; -219.900; -652.000; -385.000
414.474;  -54.700;   38.000;  -52.000
414.600;  -79.800; -126.000; -144.000
414.726;  -50.000;  -96.000;  -55.000
414.852; -209.500; -365.000; -342.000
414.978;   -1.100;  104.000;  -18.000
415.104;  -53.800;   38.000;   80.000
415.230; -140.100; -329.000; -330.000
415.356; -202.600; -409.000; -514.000
415.482;  -60.800;   13.000;  -35.000
415.608; -138.500; -247.000; -323.000
415.734;  -13.200;   67.000;   38.000
415.860; -312.300; -875.000; -767.000
415.986; -242.700; -685.000; -607.000
416.111; -278.000; -798.000; -652.000
416.237; -185.200; -424.000; -571.000
416.363; -287.100; -765.000; -733.000
416.489; -142.800; -324.000; -251.000
416.615; -285.500; -707.000; -742.000
416.741; -243.400; -677.000; -784.000
416.866; -262.900; -673.000; -736.000
416.992; -287.600; -801.000; -818.000
417.118; -117.800;  -41.000;  -80.000
417.244; -250.900; -798.000; -531.000
417.369; -305.100; -801.000; -612.000
417.495; -128.300; -325.000; -254.000
417.621; -327.300;-1015.000; -803.000
417.746; -161.500; -579.000; -572.000
417.872;  -98.500; -254.000; -144.000
417.998; -154.000; -515.000; -530.000
418.123; -346.400;-1073.000; -845.000
418.249; -194.400; -512.000; -601.000
418.374; -320.900; -916.000; -824.000
418.500; -149.000; -383.000; -482.000
418.626;  -31.200;   70.000;  -59.000
418.751; -151.800; -549.000; -448.000
418.877; -272.700; -637.000; -643.000
419.002; -179.300; -688.000; -560.000
419.128; -284.900; -930.000; -721.000
419.253; -304.800; -967.000; -837.000
419.379; -220.400; -391.000; -338.000
419.504;   47.300;  325.000;  415.000
419.629; -124.400; -393.000; -212.000
419.755;  -77.500; -317.000; -254.000
419.880; -121.300;  -98.000;   67.000
420.006;  -85.600; -280.000; -221.000
420.131; -253.200; -662.000; -775.000
420.256; -134.700; -315.000; -316.000
420.382; -252.300; -665.000; -687.000
420.507; -231.600; -649.000; -778.000
420.632; -174.500; -337.000; -339.000
420.758; -107.500; -251.000; -425.000
420.883; -249.200; -876.000; -672.000
421.008; -274.500; -775.000; -619.000
421.133; -234.200; -509.000; -467.000
421.259;  -93.400; -325.000; -259.000
421.384; -300.900; -834.000; -693.000
421.509; -281.500;-1052.000; -862.000
421.634; -346.200; -936.000; -820.000
421.759; -154.500; -359.000; -327.000
421.885; -264.800; -717.000; -656.000
422.010; -179.900; -673.000; -542.000
422.135; -300.800; -695.000; -727.000
422.260;   44.400;  340.000;  280.000
422.385;  -84.700;   12.000;  -98.000
422.510;   -9.300;  151.000;  -26.000
422.635; -106.500;  -87.000;  -43.000
422.760; -245.400; -766.000; -791.000
422.885;  -63.600;  -57.000;  -80.000
423.010;  -32.000; -112.000; -169.000
423.135; -182.600; -481.000; -561.000
423.260;  -97.000; -150.000; -245.000
423.385;   23.900;  476.000;  222.000
423.510;  -25.200;   71.000;  -22.000
423.635;  -83.900;  133.000;   45.000
423.760;   74.400;  383.000;  328.000
423.885;   24.200;  336.000;  391.000
424.010;  -80.800;  -68.000;  -13.000
424.135;  -97.500;    5.000;  -33.000
424.259; -223.100; -654.000; -457.000
424.384; -190.900; -279.000; -272.000
424.509;  -97.000; -260.000; -186.000
424.634; -281.000; -761.000; -623.000
424.759; -219.300; -688.000; -544.000
424.883; -185.600; -506.000; -527.000
425.008; -186.600; -502.000; -410.000
425.133; -229.500; -679.000; -653.000
425.258; -188.300; -517.000; -381.000
425.382; -254.800; -867.000; -774.000
425.507; -202.900; -487.000; -543.000
425.632; -283.600; -802.000; -663.000
425.756; -119.300; -256.000; -146.000
425.881; -279.700; -831.000; -857.000
426.006; -193.200; -604.000; -355.000
426.130; -284.800; -696.000; -508.000
426.255; -186.800; -611.000; -491.000
426.379;  -73.600; -189.000; -577.000
426.504;  163.300;  660.000;  544.000
426.629; -256.500; -519.000; -466.000
426.753;  -39.100;   64.000;  -46.000
426.878; -125.200; -252.000; -288.000
427.002; -288.500; -651.000; -668.000
427.127; -133.400;  -35.000; -158.000
427.251;   95.900;  372.000;  401.000
427.375; -135.800; -191.000; -173.000
427.500; -227.200; -616.000; -610.000
427.624; -168.500; -234.000; -400.000
427.749;  -75.000; -216.000; -225.000
427.873; -199.900; -499.000; -412.000
427.997; -124.100; -222.000; -230.000
428.122;  139.100;  795.000;  703.000
428.246;  110.200;  433.000;  434.000
428.371; -319.400; -869.000; -773.000
428.495; -229.700; -624.000; -646.000
428.619; -105.500; -186.000; -117.000
428.743;   14.400;   65.000;  132.000
428.868; -301.000; -732.000; -643.000
428.992; -128.300; -219.000; -326.000
429.116; -196.900; -329.000; -357.000
429.240;   20.300;  419.000;  426.000
429.365; -213.200; -454.000; -574.000
429.489; -234.500; -638.000; -647.000
429.613; -122.200; -236.000; -177.000
429.737; -190.800; -563.000; -432.000
429.861; -165.800; -247.000; -133.000
429.985; -182.900; -425.000; -305.000
430.109; -351.800; -770.000; -908.000
430.234;    6.000;   76.000;  -50.000
430.358; -153.900; -250.000; -160.000
430.482; -246.800; -672.000; -564.000
430.606; -252.600; -655.000; -375.000
430.730; -190.200; -437.000; -388.000
430.854; -294.800; -909.000; -835.000
430.978; -278.900; -795.000; -764.000
431.102; -206.000; -499.000; -422.000
431.226; -279.600; -874.000; -815.000
431.350;   47.200;  345.000;  422.000
431.474; -196.800; -661.000; -373.000
431.597; -349.800;-1060.000; -848.000
431.721; -134.200; -276.000; -267.000
431.845; -272.000; -704.000; -472.000
431.969; -136.100; -304.000; -349.000
432.093; -210.800; -395.000; -317.000
432.217;   -8.800;   32.000;   82.000
432.341; -205.200; -523.000; -518.000
432.464;  -74.800;   96.000;   40.000
432.588; -216.200; -401.000; -329.000
432.712;  -96.700;  -52.000;  -52.000
432.836;   -5.900;  213.000;  263.000
432.959; -114.400; -372.000; -311.000
433.083;  -92.300;   11.000;    2.000
433.207;   85.600;  285.000;  930.000
433.330; -137.900; -391.000; -200.000
433.454; -220.500; -654.000; -638.000
433.578;   68.300;  583.000;  278.000
433.701; -243.300; -623.000; -675.000
433.825; -162.700; -292.000; -299.000
433.949;  -81.400;   28.000;  -72.000
434.072; -177.800; -410.000; -323.000
434.196;  -91.000; -309.000; -117.000
434.319; 7722.900;25482.000;25124.000
434.443; -219.400; -656.000; -603.000
434.566;  -47.700;  281.000;   62.000
434.690; -203.900; -637.000; -383.000
434.813; -191.500; -251.000; -173.000
434.937; -213.600; -569.000; -696.000
435.060; -180.600; -423.000; -332.000
435.184; -160.400; -492.000; -217.000
435.307;  -55.100;  159.000;  102.000
435.431;  -79.100;  -40.000;   24.000
435.554; -149.200; -399.000; -240.000
435.677; -141.200; -350.000; -258.000
435.801;  -67.500;  -25.000;   49.000
435.924;  -47.300;    1.000;  -67.000
436.048; -329.800;-1019.000; -732.000
436.171; -116.400; -240.000;  -66.000
436.294; -163.400; -248.000; -229.000
436.417; -317.800; -963.000; -849.000
436.541; -318.700; -814.000; -840.000
436.664;  -88.300; -242.000; -316.000
436.787;  -54.400;   13.000;  113.000
436.910; -250.700; -792.000; -422.000
437.034;  -18.200;  142.000;  143.000
437.157;  -11.800;  -11.000;    0.000
437.280; -217.600; -392.000; -292.000
437.403; -304.800; -982.000; -869.000
437.526; -346.600; -903.000; -865.000
437.649; -162.700; -505.000; -332.000
437.772; -290.400; -692.000; -540.000
437.896;  126.700;  700.000;  544.000
438.019; -251.000; -758.000; -503.000
438.142; -178.900; -596.000; -506.000
438.265; -282.300; -639.000; -670.000
438.388; -141.300; -520.000; -410.000
438.511; -245.900; -597.000; -394.000
438.634; -153.100; -247.000; -125.000
438.757; -287.500; -693.000; -619.000
438.880;  -88.700;  -34.000;  -57.000
439.003; -195.800; -417.000; -437.000
439.126; -107.800; -287.000; -167.000
439.248; -124.800;  -98.000; -139.000
439.371;  -34.700;    9.000;  -53.000
439.494;   71.500;  510.000;  439.000
439.617;  -88.400;   65.000;  -88.000
439.740; -364.000; -968.000; -816.000
439.863; -275.000; -755.000; -595.000
439.986; -226.600; -476.000; -431.000
440.108; -125.000; -161.000; -112.000
440.231; -373.100; -950.000; -836.000
440.354; -111.500;  -64.000; -150.000
440.477; -249.900; -566.000; -542.000
440.599; -190.700; -200.000; -225.000
440.722; -237.000; -709.000; -586.000
440.845;  212.900;  751.000;  928.000
440.968; -208.700; -415.000; -311.000
441.090;  -76.900; -199.000;  -33.000
441.213; -320.500;-1021.000; -825.000
441.336;  -58.000; -159.000;   -5.000
441.458; -207.700; -549.000; -396.000
441.581; -234.600; -628.000; -629.000
441.703; -141.200; -152.000;   13.000
441.826; -169.100; -557.000; -400.000
441.948;  -52.600;   56.000;   51.000
442.071;  138.900;  555.000;  424.000
442.193; -242.200; -531.000; -485.000
442.316;   -9.400;  152.000;   97.000
442.438; -165.400; -233.000;  -10.000
442.561;   44.900;  272.000;  262.000
442.683; -284.700; -809.000; -522.000
442.806;  -49.200;   -8.000;   74.000
442.928; -320.200; -859.000; -604.000
443.051; -220.500; -577.000; -373.000
443.173; -197.000; -341.000; -339.000
443.295; -154.200; -263.000; -371.000
443.418; -177.400; -321.000;  -29.000
443.540;  -76.400; -106.000;   -4.000
443.662; -244.900; -563.000; -465.000
443.785;   20.300;  335.000;  199.000
443.907; -198.100; -362.000; -208.000
444.029; -248.900; -767.000; -494.000
444.152; -296.100; -644.000; -554.000
444.274;  -27.700;  -18.000;  -24.000
444.396; -221.500; -461.000; -221.000
444.518; -249.000; -691.000; -454.000
444.640; -206.900; -268.000; -111.000
444.763;    4.100;  388.000;  249.000
444.885; -229.000; -432.000; -392.000
445.007;  -18.400;   35.000;   86.000
445.129; -230.200; -610.000; -515.000
445.251; -198.900; -372.000; -439.000
445.373; -301.600; -537.000; -386.000
445.495;   -8.000;  242.000;  350.000
445.617;  111.000;  853.000;  753.000
445.739; -117.800; -215.000;  -97.000
445.861; -124.500; -245.000; -112.000
445.984; -114.600; -267.000; -101.000
446.105; -187.000; -418.000; -251.000
446.227; -120.000; -176.000;  -19.000
446.349; -206.200; -358.000; -249.000
446.471; -238.500; -615.000; -448.000
446.593; -168.200; -316.000;   19.000
446.715;  -76.600;  -67.000;   41.000
446.837;  135.900;  697.000;  832.000
446.959; -193.400; -457.000; -478.000
447.081; -284.700; -628.000; -518.000
447.203;  153.900;  862.000;  834.000
447.325; -152.700; -270.000;   42.000
447.446;   11.600;  286.000;  530.000
447.568; -348.700; -921.000; -803.000
447.690; -157.500; -236.000; -245.000
447.812; -288.800; -798.000; -519.000
447.933;  -33.500;  155.000;  127.000
448.055; -112.300; -306.000; -261.000
448.177;  -40.000;   31.000;   79.000
448.299; -370.400; -935.000; -727.000
448.420;    7.200;  -25.000;  159.000
448.542;  -82.000;   -3.000;   33.000
448.664;   26.800;  109.000;  322.000
448.785;  -86.100;  265.000;   83.000
448.907; -200.700; -614.000; -353.000
449.028; -262.500; -771.000; -471.000
449.150;   97.100;  492.000;  589.000
449.272; -348.300;-1044.000; -913.000
449.393;   86.400;  612.000;  694.000
449.515; -295.500; -634.000; -581.000
449.636; -145.000; -264.000; -155.000
449.758;  115.600;  763.000;  622.000
449.879; -208.200; -498.000; -396.000
450.001; -176.000; -149.000;  -49.000
450.122;  -50.900;  -95.000;  162.000
450.244;  -74.300;   37.000;  364.000
450.365; -191.000; -495.000; -301.000
450.486;  -90.500;   80.000;  268.000
450.608;    4.000;  393.000;  326.000
450.729;   20.500;  578.000;  645.000
450.850; -246.600; -574.000; -466.000
450.972; -249.800; -552.000; -389.000
451.093;   15.300;  190.000;  588.000
451.214; -233.100; -516.000; -337.000
451.336;  156.600;  773.000;  579.000
451.457;   11.400;  264.000;  393.000
451.578;  -98.700; -118.000;  -74.000
451.699; -262.200; -546.000; -540.000
451.821; -101.400; -284.000;  -50.000
451.942;    5.300;  278.000;  285.000
452.063;   17.100;  228.000;  419.000
452.184; -110.100;  -54.000;  -49.000
452.305;  -28.700;  103.000;  170.000
452.427; -213.100; -549.000; -301.000
452.548;  -73.500;   23.000;   79.000
452.669; -147.100; -257.000;  -89.000
452.790; -117.500;    3.000;  -18.000
452.911;  -58.800;  195.000;  259.000
453.032; -141.400; -289.000;  -60.000
453.153; -117.900;  -29.000;   81.000
453.274;  153.300;  737.000;  868.000
453.395; -101.000;  -51.000;  175.000
453.516;  266.100; 1317.000; 1388.000
453.637; -184.300; -205.000; -150.000
453.758;  -87.200;   15.000;   69.000
453.879; -205.000; -462.000; -250.000
454.000;  217.200; 1086.000;  948.000
454.121; -271.800; -554.000; -326.000
454.242; -247.800; -599.000; -383.000
454.362; -102.500;  -99.000;  114.000
454.483; -138.000; -309.000; -229.000
454.604;   -6.300;  512.000;  580.000
454.725; -261.500; -627.000; -555.000
454.846; -262.400; -474.000; -406.000
454.967;   13.200;  230.000;  539.000
455.087;  -68.500;  179.000;  153.000
455.208;   76.200;  554.000;  856.000
455.329; -111.100;  -22.000;   82.000
455.450;   78.800;  473.000;  633.000
455.570; -167.200; -234.000; -211.000
455.691;  -49.900;  201.000;  407.000
455.812; -177.300; -270.000;  -92.000
455.932;  -91.500;  107.000;  -97.000
456.053; -124.900;   36.000;   24.000
456.173; -171.200; -433.000; -355.000
456.294; -246.700; -476.000; -303.000
456.415;  -70.400;  -73.000;   70.000
456.535;  -33.200;  297.000;  273.000
456.656;  -46.100;  132.000;  240.000
456.776;  -90.300;    3.000;  298.000
456.897;   -8.600;  308.000;  513.000
457.017; -155.400; -153.000;   -3.000
457.138; -209.000; -402.000; -249.000
457.258;  -40.600;  263.000;  224.000
457.379;   12.400;  509.000;  521.000
457.499;  -20.300;  443.000;  432.000
457.620; -225.700; -407.000; -231.000
457.740; -164.900; -132.000;  -11.000
457.860;  -79.400;   87.000;   44.000
457.981; -111.000;  132.000;  124.000
458.101; -151.500;  -89.000;   40.000
458.221;  -17.100;  336.000;  402.000
458.342; -103.200;   -4.000;  -37.000
458.462;    9.800;  617.000;  352.000
458.582; -191.700; -302.000; -294.000
458.703;  -81.500;  303.000;  154.000
458.823;  -81.500;   22.000;  163.000
458.943;  -50.100;  341.000;  467.000
459.063;  -82.700; 1124.000;  192.000
459.183;  -72.300;  328.000;  313.000
459.304;   58.400;  315.000;  517.000
459.424; -126.800; -246.000;  -89.000
459.544;   66.800;  388.000;  764.000
459.664;    9.600;  499.000;  506.000
459.784;  205.500; 1004.000; 1175.000
459.904;   43.100;  867.000;  744.000
460.024;  131.000;  867.000;  684.000
460.144;   18.000;  449.000;  554.000
460.264;   22.100;  515.000;  327.000
460.385; -177.000; -145.000; -119.000
460.505;  150.700;  905.000;  858.000
460.625; -159.200;  -17.000;  -68.000
460.745;   17.200;  396.000;  541.000
460.864;  -86.400;  153.000;  469.000
460.984;   29.200;  499.000;  573.000
461.104;  287.800; 1656.000; 1775.000
461.224;   81.000;  657.000;  650.000
461.344;  -54.800;  431.000;  360.000
461.464;  -17.500;  258.000;  513.000
461.584;  -46.500;  283.000;  466.000
461.704;  -93.000;   58.000;  108.000
461.824; -111.700;  238.000;  259.000
461.943;  -71.100;  191.000;  130.000
462.063; -133.200;    2.000;  324.000
462.183;   94.100;  639.000;  717.000
462.303;  219.900; 1678.000; 1230.000
462.422;   86.700;  781.000;  840.000
462.542; -122.400;  271.000;  391.000
462.662;   10.800;  353.000;  380.000
462.782;   53.800;  833.000;  572.000
462.901;   22.400;  545.000;  717.000
463.021;  338.300; 1702.000; 1638.000
463.141;    6.900;  337.000;  770.000
463.260;  -14.000;  614.000;  474.000
463.380;   53.400;  902.000;  884.000
463.499;  -43.200;  342.000;  332.000
463.619;   -2.800;  581.000;  559.000
463.738;  257.900; 1644.000;  903.000
463.858;   60.000;  657.000;  811.000
463.978;  -63.700;  542.000;  396.000
464.097;  136.900;  921.000; 1114.000
464.217;  168.000; 1196.000; 1143.000
464.336;  204.600; 1068.000; 1130.000
464.455;  -58.500;  328.000;  659.000
464.575;   47.400;  597.000;  602.000
464.694;  165.500; 1204.000; 1179.000
464.814;   99.800; 1190.000; 1138.000
464.933;  107.300; 1095.000; 1027.000
465.052;  185.500; 1412.000; 1054.000
465.172;   57.200;  922.000;  799.000
465.291;  247.700; 1376.000; 1320.000
465.410;   26.800;  462.000;  735.000
465.530;  234.200; 1355.000; 1310.000
465.649;  129.800; 1209.000; 1273.000
465.768;  293.100; 1673.000; 1508.000
465.888;   96.500;  941.000; 1174.000
466.007;  238.700; 1335.000; 1440.000
466.126;   71.400;  721.000;  641.000
466.245;  156.200; 1176.000; 1187.000
466.364;   75.200;  950.000; 1060.000
466.484;  158.600; 1024.000; 1213.000
466.603;   70.800; 1101.000; 1222.000
466.722;  249.400; 1490.000; 1769.000
466.841;  136.500; 1151.000; 1401.000
466.960;  136.900; 1069.000;  972.000
467.079;  324.300; 1971.000; 1786.000
467.198;  136.600; 1238.000; 1181.000
467.317;  171.800; 1768.000; 1162.000
467.436;  215.900; 1709.000; 1261.000
467.555;  302.800; 1796.000; 1746.000
467.674;  158.400; 1227.000; 1329.000
467.793;  172.900; 1376.000; 1374.000
467.912;  243.000; 1658.000; 1539.000
468.031;  313.000; 2038.000; 1930.000
468.150;  307.600; 1842.000; 1837.000
468.269;  419.000; 2313.000; 2090.000
468.388;  458.500; 2168.000; 2339.000
468.507;  584.200; 2884.000; 2903.000
468.626;  640.300; 2555.000; 2541.000
468.744;  329.800; 2018.000; 2174.000
468.863;  447.700; 2312.000; 2523.000
468.982;  247.600; 1503.000; 1555.000
469.101;  510.800; 2788.000; 2692.000
469.220;  365.100; 2333.000; 2176.000
469.338;  583.200; 2935.000; 3051.000
469.457;  454.800; 2719.000; 2545.000
469.576;  787.500; 3953.000; 3784.000
469.695;  492.800; 2877.000; 3066.000
469.813;  878.500; 4148.000; 4192.000
469.932;  812.600; 4255.000; 4485.000
470.051;  810.200; 4075.000; 4161.000
470.169;  851.700; 4470.000; 4338.000
470.288;  916.600; 4700.000; 4809.000
470.406; 1047.300; 5059.000; 5194.000
470.525; 1223.400; 6101.000; 5787.000
470.644; 1359.300; 6847.000; 6794.000
470.762; 1712.700; 8397.000; 7873.000
470.881; 1774.300; 8651.000; 8464.000
470.999; 2066.500; 9685.000; 9151.000
471.118; 2317.300;11174.000;10711.000

