
Integration time [ms]: 100.000
Averaging Nr. [scans]: 40
Smoothing Nr. [pixels]: 0
Data measured with spectrometer [name]: 2101012U2
Wave   ;Sample   ;Dark     ;Reference
[nm]   ;[counts] ;[counts] ;[counts] 

197.733;   47.450;  516.000;  404.000
197.879;  -80.325; -610.000; -634.000
198.025;  -46.600; -475.000; -420.000
198.171;  -72.475; -602.000; -612.000
198.317;  -27.950; -401.000; -316.000
198.463;  -64.375; -655.000; -404.000
198.609;   25.400;  181.000; -137.000
198.755;  -84.375; -644.000; -410.000
198.901;  -63.375; -505.000; -424.000
199.047;  -69.050; -615.000; -488.000
199.193;  -39.425; -230.000; -468.000
199.339;  -45.125; -222.000; -369.000
199.485;   38.800;  330.000;  271.000
199.631;    4.600;  227.000;  310.000
199.777;  -47.550; -466.000; -398.000
199.923;  -66.700; -610.000; -424.000
200.069;   -3.775; -141.000;  -58.000
200.215;   45.225;  128.000;  453.000
200.361;   40.850;  243.000;  477.000
200.507;  -61.600; -600.000; -373.000
200.653;  -17.325; -371.000; -194.000
200.798;  -39.250; -215.000; -125.000
200.944;    4.525; -146.000;  -41.000
201.090;   39.300;   61.000;  222.000
201.236;   -2.300; -116.000; -158.000
201.382;  121.300;  874.000;  903.000
201.528;    4.425;  -58.000;  -48.000
201.674;  -50.000; -386.000; -293.000
201.819;  -51.225; -540.000; -439.000
201.965;  -83.500; -699.000; -447.000
202.111;  -13.950; -273.000; -226.000
202.257;  -45.225; -250.000; -238.000
202.402;    1.350;   13.000;  -36.000
202.548;  -27.125; -169.000; -116.000
202.694;   79.800;  410.000; -183.000
202.840;  -92.550; -603.000; -531.000
202.985;  -70.275; -681.000; -639.000
203.131; -107.625; -832.000; -666.000
203.277;  -24.575; -199.000; -262.000
203.423;  -46.900; -434.000; -520.000
203.568;  -41.900; -462.000; -237.000
203.714;  -66.850; -535.000; -542.000
203.860;  -69.000; -682.000; -641.000
204.005;    1.225;  112.000;  167.000
204.151;   78.375;  561.000;  556.000
204.296;  -65.700; -354.000; -221.000
204.442;  -75.150; -600.000; -547.000
204.588;  -81.550; -592.000; -579.000
204.733;   16.125;  178.000;  168.000
204.879; -118.625;-1018.000; -822.000
205.025;   -1.725;  -99.000;  126.000
205.170;  -15.200;  -17.000;   94.000
205.316;   79.750;  438.000;  661.000
205.461;  -82.225; -698.000; -554.000
205.607;   81.450;  609.000;  665.000
205.752;  -80.650; -626.000; -551.000
205.898;  -56.925; -501.000; -391.000
206.043;  -51.625; -578.000; -506.000
206.189;  -47.300; -243.000; -285.000
206.334;   68.400;  554.000;  606.000
206.480;   79.175;  409.000;  239.000
206.625;  -88.900; -529.000; -552.000
206.771;  -55.875; -451.000; -373.000
206.916;  -28.750; -210.000; -537.000
207.062;  -65.250; -545.000; -591.000
207.207;  -69.100; -546.000; -443.000
207.353;   54.525;  185.000;  460.000
207.498;    8.175;  196.000;   85.000
207.643;  -64.025; -501.000; -370.000
207.789; -124.850;-1069.000; -910.000
207.934; -102.325; -665.000; -713.000
208.080;  -32.150; -154.000;   66.000
208.225;  -13.625;  -22.000;  -57.000
208.370;  -83.150; -727.000; -619.000
208.516;  -68.425; -741.000; -487.000
208.661;  -40.525; -127.000;  -69.000
208.806;  -31.700; -165.000; -171.000
208.952; -128.525;-1044.000; -731.000
209.097;   67.000;  378.000;  349.000
209.242;  -36.250; -307.000; -382.000
209.387;   73.050;  392.000;  350.000
209.533;  -47.100; -321.000; -350.000
209.678;   70.850;  472.000;  543.000
209.823;  -59.875; -408.000; -310.000
209.969;  -92.275; -860.000; -757.000
210.114; -107.150; -907.000; -719.000
210.259; -112.550; -939.000; -889.000
210.404;  -21.200; -171.000;  103.000
210.549;   15.375;  108.000;    3.000
210.695;  -24.250;   -3.000;  -95.000
210.840;   28.525;   94.000;   67.000
210.985;  -64.250; -484.000; -303.000
211.130;   68.400;  268.000;  406.000
211.275;    6.250;  207.000;  199.000
211.420;  -40.125; -300.000; -289.000
211.566;  -70.000; -536.000; -489.000
211.711;   21.875;  218.000;  157.000
211.856;  -66.525; -545.000; -519.000
212.001;   12.550;  151.000;   44.000
212.146;   16.275;  153.000;   49.000
212.291;  -25.125; -210.000; -186.000
212.436;  -29.875; -280.000;   -6.000
212.581;  -86.275; -685.000; -653.000
212.726;  -72.575; -487.000; -538.000
212.871;  -42.800; -552.000; -217.000
213.016; -147.500;-1172.000;-1029.000
213.161;   57.425;  406.000;  291.000
213.306;  -73.425; -435.000; -577.000
213.451;  -87.675; -778.000; -689.000
213.596;  -45.200; -455.000; -347.000
213.741;  -53.025; -448.000; -538.000
213.886;  -78.325; -498.000; -517.000
214.031;  -18.375; -294.000; -124.000
214.176;  -59.850; -408.000; -341.000
214.321;  -11.850; -296.000; -157.000
214.466;  -37.400; -163.000;  -43.000
214.611;  -10.525;  -61.000;  -10.000
214.756; -120.625; -948.000; -858.000
214.901;  -12.925; -388.000; -226.000
215.046; -121.775; -797.000; -825.000
215.191;   26.450;  128.000;   35.000
215.336;  -26.075; -157.000;  -19.000
215.480;  -72.300; -684.000; -505.000
215.625;  -16.100; -175.000;  -19.000
215.770;  -88.300; -757.000; -662.000
215.915;  -22.425;   -5.000;  -97.000
216.060;   -2.875; -113.000;  -21.000
216.205; -110.850; -731.000; -779.000
216.349;  -62.650; -470.000; -533.000
216.494; -139.050; -939.000; -867.000
216.639; -104.575; -823.000; -888.000
216.784;  -98.600; -577.000; -525.000
216.929;   51.350;  392.000;  281.000
217.073;  -17.975; -244.000;  -31.000
217.218;    2.125;   78.000;  -47.000
217.363;  -73.150; -656.000; -618.000
217.507;  -71.775; -623.000; -588.000
217.652; -126.800; -845.000; -874.000
217.797;  -79.625; -708.000; -659.000
217.942; -113.200; -856.000; -720.000
218.086;   66.125;  608.000;  539.000
218.231;  -15.725; -174.000;  -26.000
218.376;  -39.375; -337.000; -229.000
218.520;   -3.925;  -41.000;   96.000
218.665;  -32.425; -338.000; -204.000
218.810;  -43.775; -275.000; -233.000
218.954;    2.925;  201.000;   35.000
219.099; -112.300; -713.000; -963.000
219.243;  -72.525; -589.000; -554.000
219.388;  -40.775; -264.000; -136.000
219.532;  -15.125; -116.000; -116.000
219.677;  -86.350; -564.000; -521.000
219.822;    7.625;   33.000;   89.000
219.966;   10.175;   17.000;  -99.000
220.111;  -27.700; -328.000;  -40.000
220.255; -107.175; -797.000; -750.000
220.400;  -24.425; -180.000; -146.000
220.544;  -63.625; -516.000; -450.000
220.689;  -57.350; -422.000; -451.000
220.833;  -31.650; -123.000;  -58.000
220.978;  -37.025; -393.000; -563.000
221.122;   15.600;  319.000;  307.000
221.267; -111.525; -906.000; -837.000
221.411;  -57.375; -478.000; -394.000
221.555;    1.575; -104.000;  -23.000
221.700;  -43.175; -329.000; -222.000
221.844;   23.150;  255.000;  272.000
221.989;  -56.875; -328.000; -311.000
222.133;  -36.650; -289.000; -307.000
222.277;  -12.250;    5.000;   78.000
222.422;   14.850;  227.000;  113.000
222.566;  -41.025; -381.000; -214.000
222.711;  -45.975; -414.000; -479.000
222.855;  -76.100; -643.000; -586.000
222.999;  -90.100; -642.000; -717.000
223.144;  -33.925; -195.000; -194.000
223.288;   58.250;  423.000;  251.000
223.432;   15.275;  184.000;  230.000
223.576;   16.900;  152.000;  -21.000
223.721;   28.300;  364.000;  273.000
223.865;  -60.225; -472.000; -475.000
224.009;  220.700; 1673.000; 1631.000
224.153;  -87.000; -660.000; -671.000
224.298;  -69.025; -531.000; -489.000
224.442;  -12.475;  -74.000;  -33.000
224.586;  -20.175; -169.000; -106.000
224.730;  -99.825; -858.000; -670.000
224.875; -114.825; -739.000; -688.000
225.019;    4.275;  102.000;  188.000
225.163;   35.375;  208.000;  341.000
225.307;   27.825;   97.000;  -91.000
225.451;   36.425;  360.000;  481.000
225.595;   21.075;  264.000;  176.000
225.739;  -15.050; -170.000;  -94.000
225.884;   -0.725;   86.000;    5.000
226.028;  -94.925; -760.000; -626.000
226.172;  -34.525; -260.000; -273.000
226.316; -120.125; -941.000; -902.000
226.460;  -72.250; -645.000; -493.000
226.604;  -58.900; -406.000; -400.000
226.748;  -94.325; -836.000; -733.000
226.892;  -28.225; -227.000; -181.000
227.036;  -59.600; -537.000; -447.000
227.180;  -63.875; -551.000; -375.000
227.324;  -61.750; -561.000; -580.000
227.468; -104.675; -819.000; -717.000
227.612;   10.975;  242.000;  -28.000
227.756; -105.750; -845.000; -698.000
227.900;   48.900;  342.000;  441.000
228.044;  -71.125; -509.000; -290.000
228.188;   45.250;  448.000;  568.000
228.332;  -87.375; -546.000; -472.000
228.476;  -25.350; -223.000; -149.000
228.620;  -33.075; -210.000; -150.000
228.764;   56.700;  431.000;  349.000
228.908;  -25.250; -155.000;   30.000
229.052;  -52.300; -615.000; -528.000
229.195;  -20.025; -172.000;   13.000
229.339;  -27.125; -235.000; -305.000
229.483;  -20.825;    5.000; -162.000
229.627;  -10.025; -156.000;  139.000
229.771;  -49.050; -218.000; -294.000
229.915;    3.400;  230.000;   79.000
230.059;  -97.500; -648.000; -663.000
230.202;  -41.300; -370.000; -317.000
230.346;  -19.975; -107.000;  107.000
230.490;  -67.925; -489.000; -521.000
230.634; -111.550; -736.000; -553.000
230.777;   80.700;  478.000;  509.000
230.921;  -51.925; -450.000; -359.000
231.065;  -51.475; -246.000; -286.000
231.209;   22.275;  261.000;  265.000
231.352;   17.700;   54.000;   40.000
231.496;    7.400;  568.000;  188.000
231.640;  -86.675; -693.000; -621.000
231.783;   44.750;  546.000;  525.000
231.927;  -52.625; -294.000; -365.000
232.071; -117.425; -962.000; -736.000
232.214; -101.675; -980.000; -764.000
232.358; -105.350; -683.000; -599.000
232.502;   -1.375;  -19.000;    7.000
232.645; -143.400;-1090.000; -927.000
232.789;  -29.350; -257.000; -218.000
232.933;  -40.950; -407.000; -224.000
233.076; -126.825;-1038.000; -897.000
233.220; -107.300; -752.000; -777.000
233.363;  -74.900; -669.000; -477.000
233.507;   43.150;  371.000;  129.000
233.650; -101.425; -764.000; -834.000
233.794;   32.275;  438.000;  461.000
233.938;  -58.775; -530.000; -362.000
234.081;  -25.225;  -93.000;   31.000
234.225;  -74.775; -631.000; -539.000
234.368; -114.000; -773.000; -723.000
234.512;  -42.275; -385.000; -299.000
234.655;  -88.650; -582.000; -555.000
234.798;  -69.750; -493.000; -466.000
234.942; -125.075; -884.000;-1002.000
235.085;  -71.575; -651.000; -443.000
235.229;  -75.475; -405.000; -410.000
235.372;  -46.425; -247.000; -191.000
235.516;  -75.100; -397.000; -321.000
235.659;   -0.600;   92.000;  121.000
235.802;  -25.950;  -38.000;  -22.000
235.946;   16.850;  335.000;  215.000
236.089;   22.600;  126.000;  250.000
236.233;   61.475;  275.000;  298.000
236.376;  -49.225; -235.000; -378.000
236.519;  -51.000; -297.000; -319.000
236.663;  -37.650; -215.000; -117.000
236.806; -127.375;-1029.000; -999.000
236.949;   50.700;  543.000;  431.000
237.092;   43.775;  412.000;  391.000
237.236;  -82.075; -589.000; -502.000
237.379;   60.150;  352.000;  428.000
237.522; -121.550; -879.000; -768.000
237.666;  -10.050; -271.000;   18.000
237.809; -132.900; -851.000; -823.000
237.952;   25.800;  469.000;  271.000
238.095;  -77.675; -447.000; -442.000
238.238;   70.525;  688.000;  700.000
238.382;   -4.800;  166.000;  103.000
238.525;  -78.850; -598.000; -511.000
238.668; -141.750;-1060.000; -985.000
238.811;  -74.975; -638.000; -643.000
238.954;  -71.700; -483.000; -334.000
239.097;   84.850;  617.000;  664.000
239.241;   16.725;  394.000;  326.000
239.384;  -33.925; -254.000; -214.000
239.527;  -71.750; -424.000; -224.000
239.670; -134.500; -994.000;-1091.000
239.813; -124.450; -696.000; -658.000
239.956;   78.400;  579.000;  473.000
240.099; -121.875; -778.000; -725.000
240.242;   46.925;  428.000;  432.000
240.385;   25.975;  466.000;  450.000
240.528;  -64.250; -706.000; -473.000
240.671;   16.850;  189.000;  134.000
240.814;  -41.025; -441.000; -158.000
240.957;  -93.325; -767.000; -578.000
241.100; -104.250; -779.000; -755.000
241.243; -142.150;-1234.000; -893.000
241.386;  -65.225; -508.000; -379.000
241.529; -100.375; -735.000; -547.000
241.672;  -71.825; -566.000; -495.000
241.815; -114.100; -832.000; -808.000
241.958;  -13.625; -125.000; -182.000
242.101;  -88.225; -545.000; -390.000
242.244;  -40.650; -270.000; -325.000
242.387;  -47.325; -304.000; -246.000
242.530;   49.575;  470.000;  134.000
242.673;  -50.225; -381.000; -309.000
242.815; -114.275; -925.000; -899.000
242.958;  -87.600; -482.000; -381.000
243.101;    5.700;  132.000;  187.000
243.244;  -82.450; -564.000; -521.000
243.387;  -37.775; -313.000; -316.000
243.530;  -91.900; -657.000; -674.000
243.672;   -9.025;   43.000;  -92.000
243.815;  -66.550; -355.000; -283.000
243.958;   -7.800;   98.000;  -26.000
244.101;  -11.800;   59.000;  -16.000
244.243;  -17.300;  -47.000;  101.000
244.386; -120.800; -761.000; -630.000
244.529;  -18.000; -132.000; -139.000
244.672; -156.550;-1154.000; -951.000
244.814;  -94.075; -621.000; -794.000
244.957;  -42.450; -380.000; -304.000
245.100;  -74.450; -489.000; -489.000
245.242;  -63.175; -387.000; -374.000
245.385;  -17.950;  -59.000;  -39.000
245.528; -115.925; -871.000; -705.000
245.670;   92.850;  612.000;  634.000
245.813; -101.850; -599.000; -547.000
245.956;  -27.600; -324.000; -275.000
246.098;  -85.350; -508.000; -650.000
246.241;    6.875;  194.000;   48.000
246.383;   -9.050; -119.000;  -73.000
246.526;  -73.825; -454.000; -525.000
246.669; -112.725; -889.000; -780.000
246.811;   15.225;  172.000;   -1.000
246.954;  -70.750; -512.000; -426.000
247.096;  -29.500;  -84.000;   -6.000
247.239;  -70.050; -482.000; -445.000
247.381;  -64.250; -647.000; -488.000
247.524;   77.625;  645.000;  679.000
247.666;  -22.300;   58.000;   11.000
247.809; -117.025; -887.000; -691.000
247.951;   -9.025;  -75.000;  138.000
248.094;   12.425;  432.000;  308.000
248.236; -156.050;-1262.000;-1238.000
248.378;  -24.825; -356.000;  -81.000
248.521;  -45.200; -334.000; -337.000
248.663;  -47.750; -236.000; -267.000
248.806;  -27.725; -300.000; -266.000
248.948; -128.025; -886.000; -763.000
249.090;  -62.125; -428.000; -398.000
249.233;  -65.875; -344.000; -381.000
249.375;  -78.625; -474.000; -451.000
249.518;  -18.825;  -83.000; -133.000
249.660;   -8.875; -103.000;    3.000
249.802; -175.275;-1303.000;-1189.000
249.945;  -86.575; -612.000; -540.000
250.087; -119.400; -834.000; -768.000
250.229;  -54.675; -362.000; -480.000
250.371;  -75.450; -494.000; -439.000
250.514;  -54.950; -310.000; -244.000
250.656;  -63.000;   69.000;  102.000
250.798; -119.450; -849.000; -800.000
250.940;  -72.200; -322.000; -322.000
251.083;  -20.050; -335.000; -111.000
251.225;   46.150;  338.000;  310.000
251.367;  -31.075; -274.000; -373.000
251.509;  -34.825; -265.000; -210.000
251.651;  -89.825; -731.000; -671.000
251.794;   43.225;  538.000;  632.000
251.936;  -99.950; -821.000; -747.000
252.078;  -84.500; -540.000; -461.000
252.220;  -76.925; -645.000; -477.000
252.362;   53.775;  344.000;  462.000
252.504;  -72.150; -677.000; -584.000
252.646; -115.975; -875.000; -722.000
252.788;    2.000;   14.000; -128.000
252.931;  -62.475; -257.000; -253.000
253.073;  -50.100; -376.000; -317.000
253.215;  -23.800;  141.000;  122.000
253.357;    2.350;   82.000; -153.000
253.499;  -51.100; -374.000; -234.000
253.641;  -83.350; -749.000; -594.000
253.783;  -92.350; -609.000; -527.000
253.925;  -78.300; -586.000; -591.000
254.067; -118.425; -744.000; -667.000
254.209;  -39.650; -391.000; -259.000
254.351; -134.675; -865.000; -883.000
254.493;  -63.675; -441.000; -417.000
254.635; -146.150; -936.000; -818.000
254.777;  -97.975; -752.000; -687.000
254.918;  -84.375; -512.000; -430.000
255.060;  -68.325; -551.000; -395.000
255.202;  -68.700; -473.000; -261.000
255.344;  -77.700; -658.000; -455.000
255.486;  -84.600; -471.000; -406.000
255.628; -106.600; -780.000; -781.000
255.770;  -98.625; -676.000; -536.000
255.912;  -68.775; -559.000; -468.000
256.053;  -97.650; -730.000; -508.000
256.195;  150.125; 1008.000;  903.000
256.337; -107.025; -861.000; -595.000
256.479;   61.625;  532.000;  416.000
256.621;  -50.075; -394.000; -212.000
256.762;  -81.800; -789.000; -742.000
256.904;   34.575;  485.000;  487.000
257.046;  -42.900; -381.000; -271.000
257.188;  -48.000; -351.000; -264.000
257.329;  -63.650; -525.000; -464.000
257.471; -115.100; -939.000; -807.000
257.613;  -68.000; -584.000; -498.000
257.755; -162.125;-1073.000; -982.000
257.896;   30.550;  286.000;  392.000
258.038;  -79.675; -403.000; -352.000
258.180;  -53.725; -354.000; -279.000
258.321;  -91.300; -581.000; -457.000
258.463;  -18.825;  -71.000;  133.000
258.605; -105.050; -562.000; -570.000
258.746; -103.100; -886.000; -772.000
258.888; -152.900;-1026.000;-1020.000
259.029;    3.425;  121.000;   -8.000
259.171;  -92.375; -614.000; -550.000
259.313;  -18.650;  -49.000;  -47.000
259.454;  -71.575; -536.000; -414.000
259.596;  -56.275; -483.000; -390.000
259.737;  -92.425; -590.000; -474.000
259.879;   29.025;  217.000;  311.000
260.020;   75.025;  901.000;  636.000
260.162;  -26.275; -146.000; -253.000
260.303; -122.625; -768.000; -687.000
260.445;  -89.675; -609.000; -613.000
260.586;   19.225;  392.000;  157.000
260.728;  -52.050; -360.000; -248.000
260.869;  -74.750; -350.000; -343.000
261.011;   63.050;  706.000;  537.000
261.152;  -72.700; -479.000; -319.000
261.293;  -73.700; -576.000; -595.000
261.435;  -43.975; -219.000; -184.000
261.576;  -47.950; -455.000; -325.000
261.718;   32.550;  420.000;  470.000
261.859; -137.100; -940.000; -949.000
262.000; -146.800; -951.000;-1016.000
262.142;  -21.675;  -52.000;  -60.000
262.283; -111.550; -808.000; -691.000
262.424;  -91.150; -666.000; -625.000
262.566; -160.825;-1161.000; -983.000
262.707; -117.000; -840.000; -830.000
262.848; -124.450; -769.000; -726.000
262.990;  -49.950; -362.000; -345.000
263.131;   58.525;  650.000;  681.000
263.272;  -22.800;  -61.000;  -41.000
263.413;  -94.575; -589.000; -561.000
263.555;  -63.150; -669.000; -143.000
263.696;  -99.925; -550.000; -641.000
263.837;  -61.575; -449.000; -551.000
263.978;  -22.600;   -5.000;  -77.000
264.119;  -41.075; -283.000; -264.000
264.261; -126.375; -847.000; -630.000
264.402;  -15.400;   33.000;   40.000
264.543;  -80.800; -509.000; -524.000
264.684;  -14.250;   61.000;  -50.000
264.825;  -92.325; -816.000; -538.000
264.966;    0.275;  -84.000;  -67.000
265.107; -121.675; -646.000; -670.000
265.248; -114.025; -825.000; -812.000
265.390;  -25.925;  152.000;   -9.000
265.531;  -18.550; -238.000; -107.000
265.672;  -82.425; -557.000; -630.000
265.813;   52.150;  563.000;  439.000
265.954; -155.225; -959.000; -940.000
266.095;  -19.675; -372.000; -322.000
266.236;  -92.050; -686.000; -548.000
266.377;  -52.300; -243.000; -297.000
266.518;  -79.700; -619.000; -547.000
266.659;   15.775;  170.000;  268.000
266.800;   -9.900;   83.000;   85.000
266.941;  -69.550; -487.000; -478.000
267.082;   11.425;  354.000;   99.000
267.223;  -56.500; -344.000; -273.000
267.364; -127.775; -892.000; -686.000
267.504;  -21.600;    3.000;  135.000
267.645;  -16.650;  160.000;   67.000
267.786;  -39.925; -147.000;  -86.000
267.927;  -80.950; -473.000; -379.000
268.068;  -25.525; -186.000;  -61.000
268.209;  -59.950; -175.000; -413.000
268.350;  -42.000; -388.000; -532.000
268.490;  -91.125; -648.000; -521.000
268.631;   22.575;  127.000;  225.000
268.772; -110.375; -874.000; -647.000
268.913;  -58.175; -328.000; -476.000
269.054;  -20.150; -117.000;   12.000
269.194;  -47.800; -418.000; -402.000
269.335; -160.175;-1137.000;-1074.000
269.476;  -25.125;   33.000;  -35.000
269.617;  -43.550; -347.000; -392.000
269.757;  -98.725; -713.000; -646.000
269.898; -117.525; -856.000; -613.000
270.039;  -60.050; -415.000; -405.000
270.180; -137.875; -952.000; -816.000
270.320;  -39.700; -190.000; -250.000
270.461;  -49.300; -277.000; -249.000
270.602;  -34.175; -186.000; -156.000
270.742; -133.175; -868.000; -943.000
270.883;  -68.200; -442.000; -390.000
271.023;  -76.325; -358.000; -357.000
271.164;  -81.575; -607.000; -528.000
271.305; -107.900; -666.000; -654.000
271.445;  -90.000; -722.000; -683.000
271.586;  -75.475; -462.000; -283.000
271.726;  -57.125; -397.000; -322.000
271.867;  -76.300; -594.000; -534.000
272.008;   45.750; -473.000; -285.000
272.148;   64.400;  462.000;  468.000
272.289;  -18.375; -113.000; -181.000
272.429;   -2.975;   19.000;  185.000
272.570; -111.925; -633.000; -737.000
272.710; -112.275; -825.000; -775.000
272.851;  -35.500;  113.000; -130.000
272.991; -156.725;-1173.000;-1077.000
273.131;  -71.300; -419.000; -459.000
273.272; -108.625; -683.000; -723.000
273.412;   -9.525; -143.000;  -31.000
273.553;  -61.725; -488.000; -507.000
273.693;  105.900;  913.000;  858.000
273.834; -132.850; -894.000; -692.000
273.974;  -91.250; -664.000; -615.000
274.114; -111.525; -772.000; -560.000
274.255;   48.250;  414.000;  373.000
274.395;  -35.425; -180.000; -125.000
274.535;   31.725;  199.000;  350.000
274.676;   -5.675;  225.000;   94.000
274.816;   -9.675;  110.000;   34.000
274.956;  -96.525; -624.000; -690.000
275.097; -108.925;-1014.000; -922.000
275.237; -136.350; -913.000; -803.000
275.377; -120.675; -778.000; -689.000
275.517; -150.500; -878.000; -937.000
275.658;  -69.075; -590.000; -555.000
275.798;  -91.175; -606.000; -413.000
275.938;   17.875;  215.000;  323.000
276.078;  -89.425; -626.000; -395.000
276.218;   -9.275;   99.000;  104.000
276.359; -138.100;-1026.000;-1024.000
276.499;  -75.950; -605.000; -446.000
276.639;  -41.950; -305.000; -151.000
276.779;  -45.375; -475.000; -357.000
276.919;  -88.600; -783.000; -624.000
277.059;  -30.325; -261.000; -212.000
277.199;  -53.850; -357.000; -259.000
277.340;   29.300;  287.000;  175.000
277.480; -114.300; -840.000; -693.000
277.620;    6.700;  192.000;   16.000
277.760; -194.950;-1533.000;-1294.000
277.900;   -7.550;  113.000;   33.000
278.040;    4.075;  137.000;  159.000
278.180;   22.850;  270.000;  170.000
278.320;  -20.150;   21.000;   56.000
278.460;  -79.850; -443.000; -469.000
278.600; -101.800; -708.000; -598.000
278.740;   29.275;  448.000;  224.000
278.880; -112.725; -768.000; -791.000
279.020;  -19.325; -194.000; -144.000
279.160;  -98.125; -672.000; -595.000
279.300; -116.600; -926.000; -873.000
279.440; -101.000; -709.000; -622.000
279.579;  -85.775;-1014.000; -929.000
279.719;  -70.050; -410.000; -394.000
279.859;   30.575;   -4.000;   41.000
279.999;  -24.925; -208.000;  101.000
280.139;  -50.025; -435.000; -387.000
280.279;  -92.750; -708.000; -745.000
280.419;  -16.200; -229.000; -147.000
280.559;  -44.650; -259.000; -180.000
280.698; -101.800; -790.000; -639.000
280.838; -110.375; -778.000; -800.000
280.978; -110.950; -846.000; -790.000
281.118; -117.850; -811.000; -704.000
281.257;  -10.100;   24.000;    6.000
281.397; -148.425;-1094.000; -960.000
281.537; -101.475; -599.000; -712.000
281.677;  -35.525; -150.000; -101.000
281.816;  -93.625; -700.000; -630.000
281.956;  -38.750; -193.000; -257.000
282.096;  -73.525; -539.000; -396.000
282.235; -120.075; -672.000; -638.000
282.375;  -36.575; -243.000;  -98.000
282.515; -114.700; -715.000; -707.000
282.654;   -1.800;   29.000;  106.000
282.794;   17.875;  388.000;  244.000
282.934;  -51.975; -530.000; -491.000
283.073; -146.225;-1030.000; -857.000
283.213;  -59.975; -460.000; -467.000
283.353;  -55.350; -408.000; -349.000
283.492;  -22.225; -264.000; -296.000
283.632;  -55.250; -254.000; -168.000
283.771;  -93.200; -859.000; -730.000
283.911;  -61.350; -369.000; -260.000
284.050; -104.450; -794.000; -748.000
284.190; -157.625;-1229.000;-1096.000
284.329; -143.825;-1055.000; -964.000
284.469; -100.150; -516.000; -591.000
284.608;  -68.925; -559.000; -598.000
284.748;  -80.400; -614.000; -570.000
284.887;  -18.600;  -87.000;  -20.000
285.027; -139.550; -844.000; -892.000
285.166;  -41.850; -192.000; -249.000
285.306;  -27.975; -116.000;  -33.000
285.445;  -47.375; -229.000; -343.000
285.584; -100.050; -630.000; -494.000
285.724;  -42.375; -282.000; -322.000
285.863; -118.625; -857.000; -507.000
286.002;  -64.525; -366.000; -276.000
286.142; -117.800; -715.000; -622.000
286.281;  -66.200; -525.000; -493.000
286.420;  -85.550; -554.000; -417.000
286.560;   89.300;  653.000;  623.000
286.699; -144.650; -958.000; -912.000
286.838;  -94.550; -590.000; -591.000
286.978; -102.450; -533.000; -537.000
287.117; -125.750;-1085.000; -950.000
287.256;  -52.000; -228.000; -211.000
287.395;  -54.475; -197.000; -378.000
287.535;  -61.525; -370.000; -298.000
287.674;  -91.600; -509.000; -484.000
287.813;   42.550;  661.000;  533.000
287.952; -130.500;-1010.000; -871.000
288.091; -150.150;-1049.000; -915.000
288.231;   -8.550;   13.000;   15.000
288.370; -175.700;-1217.000;-1200.000
288.509;  -96.125; -728.000; -645.000
288.648;  -86.875; -770.000; -548.000
288.787;  -44.150; -243.000;  -87.000
288.926;  -75.025; -454.000; -475.000
289.065;  101.975;  859.000;  672.000
289.204;  -66.250; -377.000; -217.000
289.344; -103.225; -791.000; -690.000
289.483;    6.750;  416.000;  304.000
289.622;  -41.550; -291.000; -149.000
289.761;  -38.325; -309.000; -166.000
289.900; -108.350; -785.000; -626.000
290.039;  -25.775;  -12.000;  -95.000
290.178;  -49.450; -274.000; -180.000
290.317;  -83.225; -618.000; -479.000
290.456;  -58.775; -463.000; -451.000
290.595; -135.450; -961.000; -833.000
290.734; -138.600; -904.000; -891.000
290.873;  -90.150; -456.000; -420.000
291.011; -100.675; -833.000; -843.000
291.150; -119.825; -770.000; -682.000
291.289;  -36.300; -343.000; -110.000
291.428;  -98.175; -599.000; -480.000
291.567;  -65.075; -370.000; -442.000
291.706;  -14.450;  109.000;  154.000
291.845;  -96.350; -597.000; -505.000
291.984; -172.725;-1234.000;-1061.000
292.122;   72.350;  602.000;  582.000
292.261;   36.625;  620.000;  463.000
292.400;  -23.750; -144.000;  211.000
292.539; -132.750; -959.000; -813.000
292.678;  -50.200; -325.000; -300.000
292.816; -148.625;-1136.000; -965.000
292.955; -102.750; -844.000; -684.000
293.094;  -35.300; -173.000; -337.000
293.233;  -64.325; -556.000; -400.000
293.371;  -45.600; -225.000;  -84.000
293.510; -113.500; -866.000; -780.000
293.649; -137.025; -959.000; -924.000
293.787; -130.775;-1083.000;-1012.000
293.926;  -26.550; -113.000;  -32.000
294.065;  -44.925; -379.000; -290.000
294.203;   27.800;  298.000;  406.000
294.342;   14.300;   74.000;  156.000
294.481; 5801.025;51180.000; -836.000
294.619;  -35.600; -425.000; -582.000
294.758; -151.225;-1230.000;-1137.000
294.896;   -1.575; -125.000;    5.000
295.035; -140.325;-1040.000;-1006.000
295.174; -122.350;-1082.000; -954.000
295.312;  -58.850; -323.000; -203.000
295.451;  -42.725; -307.000; -428.000
295.589;  -78.625; -389.000; -518.000
295.728;   -3.375; -292.000; -165.000
295.866;  -20.000;  -36.000;  -51.000
296.005;  -84.750; -584.000; -341.000
296.143;  -85.625; -558.000; -596.000
296.282; -106.050; -957.000; -881.000
296.420;  -91.925; -657.000; -557.000
296.559; -101.850; -892.000; -633.000
296.697;  -84.175; -847.000; -665.000
296.835;  -91.475;-1141.000;-1002.000
296.974;   11.075;  -23.000;   39.000
297.112;  -47.900; -443.000; -504.000
297.251; -105.900; -815.000; -755.000
297.389;  -23.950; -576.000; -438.000
297.527;  -14.675; -145.000;  -83.000
297.666;  -66.600; -486.000; -438.000
297.804;  -66.950; -404.000; -264.000
297.942;  -19.600; -136.000; -161.000
298.081;  -26.400; -183.000;   63.000
298.219;   10.025;  -17.000;  -19.000
298.357;  -23.500; -144.000;  -71.000
298.495;  -69.600; -810.000; -812.000
298.634;   -1.150;  245.000;  219.000
298.772;  -33.075; -220.000; -338.000
298.910;  -69.500; -309.000; -182.000
299.048;  -14.325; -130.000; -153.000
299.187;  -53.175; -350.000; -250.000
299.325;   -9.300;   52.000;  122.000
299.463;  -34.500; -389.000; -299.000
299.601;  -16.125; -327.000; -271.000
299.739; -130.150; -908.000; -883.000
299.877;  -94.550; -791.000; -703.000
300.016; -112.850;-1095.000; -935.000
300.154;   34.875;  -19.000; -161.000
300.292;  -44.050; -428.000; -348.000
300.430;  -27.325; -408.000; -291.000
300.568; -115.250; -940.000; -874.000
300.706;  -65.350; -366.000; -469.000
300.844; -132.475;-1108.000; -979.000
300.982;   52.675;  246.000;  282.000
301.120; -138.325; -965.000; -866.000
301.258;  -97.125; -812.000; -705.000
301.396;   -0.225;  104.000;  -41.000
301.534;  -35.100; -218.000; -293.000
301.672;  -86.600; -664.000; -521.000
301.810;  -69.975; -613.000; -545.000
301.948;    8.025;   53.000;  149.000
302.086;  185.175; -250.000;  -32.000
302.224;  213.225; -610.000; -585.000
302.362;  -63.250; -558.000; -622.000
302.500; -101.500; -923.000; -893.000
302.638;   15.550;  128.000;  245.000
302.776;  -45.175; -352.000; -408.000
302.913;   35.400;  447.000;  236.000
303.051;  -34.250;  -86.000;  -23.000
303.189;   10.375;   90.000;  118.000
303.327;  -54.975; -341.000; -256.000
303.465;  -88.875; -832.000; -588.000
303.603; -100.600; -805.000; -604.000
303.740;   56.100;  417.000;  241.000
303.878;  -79.725; -800.000; -759.000
304.016; -109.875; -915.000; -790.000
304.154; -163.800;-1123.000;-1152.000
304.291;  -62.950; -505.000; -554.000
304.429;  -13.375;  102.000;   74.000
304.567; -138.825; -908.000; -893.000
304.705;  -74.000; -408.000; -515.000
304.842;  -31.600; -616.000; -540.000
304.980;   17.750;  215.000;   35.000
305.118;  -26.325; -367.000; -365.000
305.255; -134.125; -945.000; -927.000
305.393;   25.075;  178.000;  239.000
305.531; -147.850;-1173.000; -956.000
305.668;  -86.225; -663.000; -582.000
305.806;   -7.900; -358.000; -439.000
305.943;   -8.800; -629.000; -637.000
306.081;  -19.275; -378.000; -267.000
306.219; -110.450; -863.000; -748.000
306.356;    7.050;  158.000;   27.000
306.494;   99.425;  981.000;  761.000
306.631;  -22.200;  -11.000;  -55.000
306.769;  -41.575; -613.000; -485.000
306.906;  -44.875; -284.000; -258.000
307.044;  -63.325; -473.000; -488.000
307.181;  -74.975; -410.000; -332.000
307.319;    9.225;  112.000;   87.000
307.456; -177.325;-1191.000;-1153.000
307.594; -113.475; -980.000; -727.000
307.731;  -42.975; -371.000; -164.000
307.868;  -17.575;  -15.000;   20.000
308.006; -137.750; -961.000; -847.000
308.143;  -80.525; -618.000; -330.000
308.281;   19.350;  -37.000; -254.000
308.418;  -64.225; -748.000; -640.000
308.555;  -88.450; -400.000; -250.000
308.693;  -76.200; -577.000; -573.000
308.830; -104.300; -712.000; -657.000
308.967;  -18.750; -215.000;  -95.000
309.105;  -57.675; -507.000; -396.000
309.242;  -26.700; -468.000; -367.000
309.379;   27.125; -577.000; -655.000
309.517; -109.150; -936.000; -948.000
309.654; -110.075; -910.000; -734.000
309.791;  -72.625; -662.000; -580.000
309.928; -118.225; -977.000; -914.000
310.065;  115.775;  819.000;  697.000
310.203;  -93.125; -825.000; -850.000
310.340;  -42.200; -465.000; -321.000
310.477;  -86.575; -412.000; -516.000
310.614;  -57.250; -383.000; -473.000
310.751;  -75.475; -427.000; -518.000
310.889;  -25.350;    1.000;   11.000
311.026; -159.650;-1161.000; -939.000
311.163;  -44.500; -386.000; -380.000
311.300;  -94.550; -512.000; -479.000
311.437;  -86.725; -658.000; -619.000
311.574; -161.250;-1226.000; -985.000
311.711;  -61.500; -595.000; -433.000
311.848;  -51.350; -380.000; -388.000
311.985;    0.150;  270.000;   93.000
312.122; -121.750; -932.000; -762.000
312.259; -114.450; -941.000; -994.000
312.396;  -77.750; -508.000; -551.000
312.533;  -88.725; -812.000; -790.000
312.670; -135.200;-1070.000; -898.000
312.807;  -36.900; -352.000; -367.000
312.944;  -87.750; -513.000; -611.000
313.081;  -39.450; -150.000; -415.000
313.218;  -97.125;-1111.000; -867.000
313.355;  -30.525; -531.000; -449.000
313.492;  -28.825; -455.000; -292.000
313.629;  122.475;  815.000;  735.000
313.766; -149.700;-1176.000;-1008.000
313.902;  -15.875; -186.000;   21.000
314.039;  -62.325; -372.000; -289.000
314.176;   25.475;  286.000;  192.000
314.313;  -78.025; -569.000; -473.000
314.450;  -96.025; -788.000; -684.000
314.587;  -75.625; -468.000; -480.000
314.723;    8.100;  -78.000;  130.000
314.860;   34.150;  318.000;  332.000
314.997;   21.950;  223.000;  142.000
315.134;  -44.975; -385.000; -368.000
315.270;  -42.650; -480.000; -496.000
315.407; -122.975;-1094.000; -967.000
315.544;  -57.725; -657.000; -538.000
315.681;  -74.675; -681.000; -565.000
315.817;   33.300; -133.000; -176.000
315.954;   29.850; -613.000; -392.000
316.091; -122.800;-1045.000;-1023.000
316.227;  -45.950;  -71.000; -179.000
316.364;   12.675;   23.000;    6.000
316.500;  -52.950; -113.000; -300.000
316.637;  -49.650; -181.000; -302.000
316.774;  -90.150; -625.000; -358.000
316.910;  -85.900; -598.000; -629.000
317.047;  -81.725; -487.000; -351.000
317.183;  -67.125; -435.000; -566.000
317.320;   16.425; -367.000; -321.000
317.456;  -34.050; -733.000; -805.000
317.593; -104.725; -598.000; -641.000
317.729;   -6.775;  168.000;  -67.000
317.866; -198.050;-1434.000;-1285.000
318.002; -109.325; -708.000; -948.000
318.139; -121.550; -883.000; -867.000
318.275; -116.450;-1003.000; -738.000
318.412;  -71.800; -517.000; -336.000
318.548;  -82.050; -751.000; -720.000
318.685; -106.100; -985.000; -888.000
318.821;  -81.625; -762.000; -735.000
318.957;  -24.150;   34.000;  -23.000
319.094;   21.275;  297.000;  154.000
319.230;  -98.425; -756.000; -742.000
319.367;  -19.275; -471.000; -520.000
319.503;  -38.425; -538.000; -436.000
319.639; -102.300; -877.000; -793.000
319.775; -112.650; -750.000; -685.000
319.912;  -64.850; -424.000; -519.000
320.048; -120.400;-1184.000;-1184.000
320.184;   76.475;   59.000;   70.000
320.321;  -51.800; -497.000; -467.000
320.457;   79.775;  475.000;  662.000
320.593;  -74.725; -375.000; -382.000
320.729;  -93.050; -732.000; -734.000
320.866;  -78.975; -577.000; -635.000
321.002;  -92.750; -759.000; -809.000
321.138;  -44.350; -135.000; -211.000
321.274;   15.450; -148.000; -115.000
321.410;  -73.400; -585.000; -353.000
321.546; -105.850;-1011.000; -911.000
321.683;   12.625;  400.000;  185.000
321.819;  -30.475;  -48.000; -117.000
321.955; -127.625; -743.000; -722.000
322.091;  -70.825; -585.000; -540.000
322.227;  -47.425; -382.000; -202.000
322.363;  -43.275; -320.000; -215.000
322.499;  -69.375; -343.000; -331.000
322.635;   94.975;  636.000;  443.000
322.771;  -28.750; -139.000;   12.000
322.907;   45.075;  129.000;  327.000
323.043;  -40.325; -115.000; -206.000
323.179;  -55.225; -394.000; -363.000
323.315;  -63.725; -401.000; -371.000
323.451;   19.225; -328.000; -236.000
323.587;   29.875;  -60.000;  -77.000
323.723;  -54.800; -682.000; -601.000
323.859;  -47.625; -258.000;  -76.000
323.995;  -51.375; -467.000; -409.000
324.131; -139.375; -967.000; -892.000
324.267;  -43.825; -254.000; -276.000
324.402; -147.725; -960.000; -983.000
324.538;  -44.250; -279.000; -104.000
324.674;  -12.200;  164.000;   77.000
324.810;   39.725;  226.000;  308.000
324.946;  -43.800; -810.000; -658.000
325.082;  -78.000; -568.000; -475.000
325.217;  -34.675;  -62.000;   16.000
325.353; -113.500; -764.000; -659.000
325.489;  -95.625; -540.000; -506.000
325.625;  -82.450; -579.000; -525.000
325.760;   76.000;  517.000;  376.000
325.896;   32.450; -515.000; -702.000
326.032;  -61.775; -403.000; -352.000
326.168;  -65.875; -462.000; -369.000
326.303;  -65.825; -352.000; -461.000
326.439;  -10.400; -336.000; -276.000
326.575;  -18.975; -190.000;  -29.000
326.710;  -22.875; -156.000;  -30.000
326.846;  -25.175;  146.000;  103.000
326.982;  -91.650; -530.000; -548.000
327.117;  -82.850; -481.000; -442.000
327.253;  -81.250; -745.000; -742.000
327.388; -184.725;-1137.000;-1153.000
327.524;  -88.125; -811.000; -578.000
327.659;  -36.450;  -58.000;  -22.000
327.795;  -12.250;   69.000;   45.000
327.931;  -69.475; -723.000; -499.000
328.066;  -34.850; -417.000; -276.000
328.202;  -18.775;   12.000; -129.000
328.337;   90.650;  957.000;  713.000
328.473;   30.400;  -12.000;  -74.000
328.608;  -41.975; -256.000; -267.000
328.743; -123.875; -799.000; -664.000
328.879;    9.775;  214.000;  114.000
329.014;  -44.000; -102.000; -122.000
329.150;  -82.225; -358.000; -483.000
329.285; -107.600; -465.000; -466.000
329.421;  -70.175; -548.000; -246.000
329.556;  -39.275;  -36.000;   85.000
329.691; -109.150; -633.000; -615.000
329.827;  -79.000; -626.000; -480.000
329.962;  -47.275;  131.000; -301.000
330.097;  -80.900; -673.000; -585.000
330.233;  -43.625; -410.000; -223.000
330.368; -133.800; -839.000; -628.000
330.503;  -29.825;    3.000;   98.000
330.638;  -26.075;  -93.000; -125.000
330.774;  -86.175; -609.000; -530.000
330.909;  -55.025; -434.000; -244.000
331.044;  -92.950; -714.000; -708.000
331.179; -168.450;-1217.000;-1109.000
331.315;    3.575;   77.000;   20.000
331.450;    1.875;  157.000;  285.000
331.585;  -92.850; -805.000; -706.000
331.720;  -96.400; -510.000; -460.000
331.855;  -10.575;  -35.000; -102.000
331.990;  408.200;   62.000;  138.000
332.126;  221.900; -110.000;   71.000
332.261;    6.050; -379.000; -265.000
332.396;    7.775; -135.000; -242.000
332.531;  -61.875;-1074.000;-1031.000
332.666;   90.900; -519.000; -363.000
332.801; -104.950; -726.000; -807.000
332.936;  -25.200; -192.000; -122.000
333.071; -139.725; -870.000; -817.000
333.206;    2.775;  307.000;  379.000
333.341;   16.350;  344.000;  418.000
333.476;  -97.975; -627.000; -623.000
333.611;  -57.525; -251.000; -173.000
333.746;  -55.025; -381.000; -464.000
333.881; -128.475; -973.000; -935.000
334.016; -135.175; -936.000; -917.000
334.151; -130.150; -746.000; -702.000
334.286;    5.300;  152.000;  186.000
334.421;  -36.150; -125.000; -178.000
334.556;  -76.300; -611.000; -567.000
334.690;  -97.800; -631.000; -577.000
334.825;   29.700;  381.000;   83.000
334.960;  -68.925; -285.000; -413.000
335.095;   -1.300;  135.000;  -91.000
335.230; -107.950; -722.000; -738.000
335.365; -116.725;-1084.000; -990.000
335.499; -144.250;-1108.000;-1037.000
335.634;   26.050;    9.000;  534.000
335.769; -118.800; -755.000; -720.000
335.904;  -68.425; -603.000; -561.000
336.038;  -50.150; -735.000; -657.000
336.173; -124.025;-1206.000;-1194.000
336.308;   -4.125; -116.000; -189.000
336.443;   63.000; -544.000; -634.000
336.577;  -65.925; -936.000; -787.000
336.712;   65.275;   -4.000;  -12.000
336.847;  -44.775; -724.000; -607.000
336.981;   33.500; -272.000; -208.000
337.116;  271.800;  615.000;  501.000
337.250;  113.475; -434.000; -421.000
337.385;  466.700; -297.000; -208.000
337.520;  248.550; -632.000; -603.000
337.654;  -38.675; -215.000; -126.000
337.789; -122.750; -989.000; -933.000
337.923;  -49.900; -104.000; -205.000
338.058; -112.050; -673.000; -738.000
338.192;  -68.875; -611.000; -488.000
338.327;  -20.200;  -18.000; -155.000
338.461;  -86.525; -299.000; -469.000
338.596;  -85.850; -780.000; -638.000
338.730;  -91.400; -767.000; -803.000
338.865;  171.025;  -46.000; -140.000
338.999;    4.725; -846.000; -702.000
339.134;   -8.125; -634.000; -536.000
339.268;   29.125; -741.000; -603.000
339.403;  566.200; -740.000; -775.000
339.537;  261.025; -894.000; -820.000
339.671; -106.650; -829.000; -813.000
339.806;  -25.050; -556.000; -512.000
339.940;   33.625; -261.000; -235.000
340.074; -118.350; -685.000; -510.000
340.209;  -46.500; -351.000; -230.000
340.343; -105.525; -517.000; -573.000
340.477;  119.950;  998.000; 1036.000
340.612;    3.025;-1033.000; -900.000
340.746;  248.250; -199.000; -243.000
340.880; -119.225; -924.000; -785.000
341.014;  -40.575;  -45.000; -154.000
341.149; -120.100; -756.000; -718.000
341.283; -118.050; -839.000; -754.000
341.417; -144.850;-1124.000; -938.000
341.551;  -40.275; -768.000; -708.000
341.685;  -69.775; -633.000; -611.000
341.820;  -70.200; -562.000; -493.000
341.954;  -69.650; -218.000; -349.000
342.088; -156.975;-1102.000;-1019.000
342.222;   35.625;  565.000;  618.000
342.356;  -85.325; -395.000; -335.000
342.490; -121.675; -880.000; -841.000
342.624;  -53.575; -339.000; -242.000
342.758;  -61.825; -364.000; -312.000
342.892;  -99.600; -710.000; -585.000
343.026;  -54.025;  -58.000; -116.000
343.160;  -76.600; -426.000; -376.000
343.294;  -89.325; -474.000; -337.000
343.428;  -75.950; -488.000; -448.000
343.562;  -37.600; -172.000;  -23.000
343.696;  -55.725; -385.000; -314.000
343.830;  -63.550; -362.000; -356.000
343.964;  -33.050; -231.000; -168.000
344.098;  267.575;  199.000;   70.000
344.232;  240.825; -266.000; -127.000
344.366;   67.600; -567.000; -453.000
344.500;  -61.425; -665.000; -744.000
344.634;  -51.900; -324.000; -164.000
344.768;  -57.650; -531.000; -341.000
344.902;  -13.550;  278.000;  256.000
345.035;  -85.400; -556.000; -496.000
345.169; -144.800; -933.000; -656.000
345.303;  -64.175; -308.000; -482.000
345.437; -117.975; -826.000; -717.000
345.571;  -55.850; -675.000; -594.000
345.704;  -74.375; -309.000; -532.000
345.838;  -23.475; -331.000; -284.000
345.972;  -71.525; -543.000; -495.000
346.106;  242.825; -179.000; -190.000
346.239;  463.050; -312.000; -243.000
346.373;   -8.525; -343.000; -302.000
346.507; -160.325; -950.000; -962.000
346.640;   20.100;  -30.000;   13.000
346.774; -100.275; -650.000; -797.000
346.908;  -32.600; -138.000;  -11.000
347.041; -112.225; -646.000; -593.000
347.175;   -3.175;  259.000;   27.000
347.309; -111.775; -698.000; -628.000
347.442; -111.200; -883.000; -732.000
347.576;  106.050;  670.000;  668.000
347.709;   41.250; -123.000;  -52.000
347.843; -127.150; -933.000; -825.000
347.976;   17.550;  235.000;  294.000
348.110; -168.975;-1268.000;-1186.000
348.243; -120.825; -679.000; -772.000
348.377;    3.400;  -26.000;   60.000
348.510;   24.500;  403.000;  540.000
348.644;  -57.075;  -37.000; -159.000
348.777;  -12.400;  180.000;  191.000
348.911;  -68.650; -142.000; -112.000
349.044;   75.800;  471.000;  448.000
349.178;  -50.950;-1069.000;-1006.000
349.311;   88.200;  141.000;  255.000
349.444;   29.175; -927.000; -813.000
349.578;  -20.350; -347.000; -200.000
349.711; -134.375; -959.000; -862.000
349.845;  -76.125; -661.000; -591.000
349.978; -172.600;-1224.000;-1137.000
350.111;  -96.050; -546.000; -612.000
350.244; -113.900; -596.000; -700.000
350.378;  -68.875; -392.000; -393.000
350.511;  -92.250; -393.000; -426.000
350.644;  -96.475; -808.000; -806.000
350.778;   -6.725;  168.000;  104.000
350.911;  -16.550;  134.000;  140.000
351.044; -109.550; -685.000; -615.000
351.177;  -52.025; -321.000; -281.000
351.310;  -46.425;    3.000; -131.000
351.444; -111.725; -888.000; -788.000
351.577;   23.075;  140.000;   90.000
351.710;   57.900;  593.000;  417.000
351.843;  -47.325; -165.000;  -77.000
351.976;  -31.375;  149.000;  -79.000
352.109; -104.775; -621.000; -612.000
352.242;  -71.250; -464.000; -419.000
352.376;  -91.850; -580.000; -636.000
352.509;    4.450; -437.000; -356.000
352.642;  -97.550; -654.000; -604.000
352.775;  -15.500; -141.000;  -98.000
352.908; -128.775; -933.000; -904.000
353.041; -114.875; -814.000; -824.000
353.174;  -83.450; -551.000; -424.000
353.307;  -79.375; -753.000; -764.000
353.440;   52.125;  541.000;  453.000
353.573; -103.975; -957.000;-1008.000
353.706;  -55.625; -384.000; -558.000
353.839;  -27.000; -264.000; -220.000
353.971; -100.550; -657.000; -512.000
354.104; -116.550; -896.000; -835.000
354.237;  -89.800; -627.000; -662.000
354.370; -102.675; -846.000; -879.000
354.503; -180.825;-1231.000;-1308.000
354.636;  -39.825; -529.000; -348.000
354.769; -136.675; -937.000; -860.000
354.902;  -25.300; -230.000; -139.000
355.034;  -30.150; -164.000; -220.000
355.167;  -12.675; -262.000; -162.000
355.300;  -71.150;-1061.000; -880.000
355.433; 1423.825;  -71.000;  -14.000
355.565; 2215.375; -402.000; -384.000
355.698;  597.250; -356.000; -296.000
355.831;  -15.850; -882.000; -801.000
355.964;   11.375; -285.000; -170.000
356.096;  -98.125; -856.000; -843.000
356.229;  -10.850; -523.000; -530.000
356.362;  514.925; -373.000; -266.000
356.494;  937.575; -229.000; -162.000
356.627;  314.075;  269.000;  377.000
356.760;  891.125;  120.000;   53.000
356.892; 1472.150; -286.000; -601.000
357.025;  327.225;  403.000;  389.000
357.157;  195.975; -167.000; -179.000
357.290; 1240.925; -856.000; -713.000
357.423;  376.200; -667.000; -556.000
357.555;   92.025; -217.000; -228.000
357.688;  123.875; -483.000; -364.000
357.820;  160.925; -870.000; -877.000
357.953; 1450.200; -563.000; -589.000
358.085;  216.100; -632.000; -612.000
358.218;   90.525;-1131.000; -932.000
358.350;   36.625;  -58.000;  312.000
358.483; -172.475;-1300.000;-1187.000
358.615; -128.350;-1182.000;-1078.000
358.747; -159.200;-1187.000;-1058.000
358.880;  -64.350; -810.000; -744.000
359.012;  -51.350; -376.000; -202.000
359.145;  -76.700; -480.000; -511.000
359.277;  -67.325; -962.000; -913.000
359.409; 1225.450;  536.000;  231.000
359.542;  249.900; -738.000; -688.000
359.674;   18.150;   46.000;   13.000
359.806;  -82.450; -565.000; -438.000
359.939;  -36.600; -617.000; -516.000
360.071;   30.275; -583.000; -579.000
360.203;  -22.725; -411.000; -364.000
360.335;   23.000;  164.000;  -16.000
360.468;   82.650; -249.000; -307.000
360.600; 1326.925; -547.000; -454.000
360.732; 4281.875; -546.000; -423.000
360.864;  647.300;-1216.000;-1044.000
360.996;   48.625; -516.000; -554.000
361.129;  -55.025; -389.000; -598.000
361.261;  -14.925;  110.000; -113.000
361.393;  -61.350; -252.000; -214.000
361.525;   -9.325;   94.000;  244.000
361.657; -112.600; -821.000; -703.000
361.789;  -18.725; -139.000; -155.000
361.921;  -52.975; -642.000; -593.000
362.053;  105.650;  524.000;  541.000
362.185;   -2.900;  288.000;   72.000
362.318; -121.850; -709.000; -705.000
362.450;   35.025;  294.000;  444.000
362.582; -105.175; -913.000; -870.000
362.714;  -67.225; -353.000; -332.000
362.846;  -89.400; -606.000; -490.000
362.978; -155.700; -941.000; -811.000
363.109;  -33.925; -161.000; -260.000
363.241;  136.975; -739.000; -749.000
363.373;  605.125; -649.000; -564.000
363.505; 1019.125; -186.000;  -91.000
363.637;  224.175; -787.000; -601.000
363.769; -139.125;-1067.000;-1080.000
363.901;  -84.900; -596.000; -654.000
364.033; -152.775;-1103.000;-1062.000
364.165;  -42.375; -283.000; -283.000
364.296;   93.800; -316.000; -177.000
364.428;  187.700;-1344.000;-1220.000
364.560;  -75.100; -679.000; -661.000
364.692;  -85.275; -738.000; -835.000
364.824;  -13.925; -588.000; -456.000
364.955;  509.600; -402.000; -564.000
365.087; 1731.250;-1097.000; -852.000
365.219;  105.025; -686.000; -816.000
365.351;  -71.800; -526.000; -572.000
365.482;   31.325;  300.000;  240.000
365.614;  -75.650; -402.000; -314.000
365.746; -103.875; -729.000; -752.000
365.877;  -99.650; -706.000; -672.000
366.009;  425.450;  -35.000;  -62.000
366.141;  -15.650;-1249.000;-1134.000
366.272; -108.375; -803.000; -719.000
366.404; -129.625;-1005.000; -874.000
366.535;  -20.900; -139.000;  -12.000
366.667; -110.975; -644.000; -649.000
366.799;   21.275;  353.000;  203.000
366.930; -147.975; -862.000; -996.000
367.062;  193.800; -639.000; -613.000
367.193;  323.275; -872.000; -842.000
367.325;  -39.225; -580.000; -684.000
367.456;   -8.900; -246.000;   31.000
367.588;  274.275; -371.000; -318.000
367.719;   37.000;  -44.000;  -45.000
367.851;  -44.850; -222.000; -241.000
367.982; -119.700; -875.000; -732.000
368.113;  -21.950; -475.000; -358.000
368.245; -161.325; -960.000; -841.000
368.376;  -57.175; -254.000; -302.000
368.508;  -72.800; -188.000; -263.000
368.639; -165.275;-1166.000;-1034.000
368.770; -103.050; -670.000; -589.000
368.902; -118.200; -836.000; -926.000
369.033; -137.900; -906.000; -855.000
369.164;  -46.225; -720.000; -653.000
369.296; -112.100; -452.000; -601.000
369.427;  -55.200; -209.000; -144.000
369.558;  -93.775; -593.000; -377.000
369.689;  -92.750; -721.000; -569.000
369.821; -142.350; -951.000; -845.000
369.952;  -35.125;   42.000; -108.000
370.083;  -67.975; -229.000; -108.000
370.214; -101.250; -735.000; -650.000
370.345;  -26.425;   65.000;   81.000
370.477; -118.250; -810.000; -790.000
370.608;   21.600; -328.000; -264.000
370.739; -126.700;-1233.000;-1292.000
370.870; -116.250;-1102.000; -923.000
371.001;  -34.150; -378.000; -467.000
371.132;  -94.450; -754.000; -735.000
371.263;  -42.825;  -42.000; -148.000
371.394; -160.275; -841.000; -748.000
371.525;   24.750;  345.000;  225.000
371.657; -118.150; -808.000; -670.000
371.788;   15.950;  103.000;  199.000
371.919;   -2.700; -384.000; -304.000
372.050; 1214.325;  -91.000; -156.000
372.181;  357.875; -188.000; -294.000
372.311;   82.400;   42.000; -127.000
372.442;  -53.525; -457.000; -451.000
372.573;  -50.950; -444.000; -340.000
372.704; -155.675;-1008.000; -980.000
372.835;  -33.950; -228.000; -289.000
372.966;  -95.750; -646.000; -554.000
373.097; -103.200; -575.000; -711.000
373.228; -105.375; -717.000; -542.000
373.359;  -43.775; -824.000; -536.000
373.490;  144.725; -881.000; -727.000
373.620;  237.825;-1001.000; -803.000
373.751;  482.425; -332.000; -396.000
373.882;  167.450; -663.000; -733.000
374.013;  -43.175; -449.000; -262.000
374.143;  -86.125; -581.000; -659.000
374.274; -129.200; -987.000; -908.000
374.405;   47.800; -388.000; -276.000
374.536;   83.950; -526.000; -387.000
374.666;  259.525; -759.000; -807.000
374.797;  -23.725; -817.000; -868.000
374.928;  167.075; -710.000; -560.000
375.058;  166.600; -535.000; -500.000
375.189;    5.450;  -59.000;  -93.000
375.320; -137.025; -928.000;-1034.000
375.450;  -58.475; -625.000; -616.000
375.581;  -55.900; -526.000; -436.000
375.712;  -45.725; -574.000; -250.000
375.842;   -6.025; -438.000; -415.000
375.973;  -16.075; -554.000; -513.000
376.103; -106.600; -665.000; -648.000
376.234;  -97.825; -531.000; -552.000
376.364; -133.500; -944.000; -867.000
376.495;  141.100;  925.000;  529.000
376.625;  -75.375; -472.000; -485.000
376.756;  -68.725; -709.000; -678.000
376.886; -156.925;-1178.000;-1026.000
377.017;  146.900;-1048.000;-1061.000
377.147;  640.625; -786.000; -782.000
377.278;   83.875;  174.000;  228.000
377.408; -125.800; -801.000; -815.000
377.538;  -99.325; -707.000; -693.000
377.669; -100.900; -537.000; -613.000
377.799; -120.675; -645.000; -635.000
377.929; -101.650; -610.000; -428.000
378.060; -139.675; -781.000; -847.000
378.190;  -52.025; -726.000; -531.000
378.320;  -43.975; -401.000; -406.000
378.451;  -33.275; -131.000;  -22.000
378.581;  -31.450;  -67.000; -110.000
378.711;   86.625; 1035.000;  866.000
378.841;  -87.775; -533.000; -675.000
378.972; -124.200; -871.000; -751.000
379.102;  -74.650; -652.000; -579.000
379.232;  -49.900; -126.000;  -73.000
379.362; -133.250;-1001.000; -885.000
379.492;  -64.625; -373.000; -424.000
379.623;   38.025;    0.000;  111.000
379.753; -133.050;-1107.000; -974.000
379.883;   70.325;   59.000;  156.000
380.013; -105.275;-1081.000;-1017.000
380.143; -129.700;-1097.000;-1056.000
380.273; -134.025; -985.000; -861.000
380.403;   -2.700; -344.000; -257.000
380.533;  -60.100; -651.000; -664.000
380.663;    9.275;  173.000;  128.000
380.793; -161.550;-1027.000;-1074.000
380.923;  -47.675; -103.000;  -34.000
381.053; -110.825; -613.000; -623.000
381.183;  -57.075; -106.000; -248.000
381.313;  -90.475; -656.000; -470.000
381.443;  -50.125; -692.000; -473.000
381.573;  -29.925; -402.000; -409.000
381.703;  -98.650;-1249.000;-1095.000
381.833; -193.725;-1454.000;-1336.000
381.963;   12.825; -134.000;  -87.000
382.093;  388.300; -925.000; -909.000
382.223;   70.400; -713.000; -602.000
382.353;  -97.150; -801.000; -608.000
382.482;  -21.425;-1091.000; -964.000
382.612;  170.275; -872.000; -644.000
382.742;   63.350; -695.000; -622.000
382.872;  -32.375; -565.000; -551.000
383.002;   21.950;  347.000; -132.000
383.131;  -43.275; -226.000; -160.000
383.261;  -48.975; -706.000; -768.000
383.391;  331.325; -552.000; -377.000
383.521; 5131.450;  451.000;  263.000
383.650; 1537.425; -947.000; -904.000
383.780;   39.225; -783.000; -656.000
383.910;   95.675;  880.000;  802.000
384.039;  -90.925; -794.000; -656.000
384.169; -123.975;-1205.000;-1017.000
384.299; -102.500; -650.000; -662.000
384.428; -121.675; -764.000; -680.000
384.558;  -68.575; -308.000; -275.000
384.687;  -71.225; -414.000; -334.000
384.817;  -13.650;   75.000;   -2.000
384.947;  -50.475; -234.000; -141.000
385.076;  140.875;  982.000;  912.000
385.206;   29.800;  369.000;  480.000
385.335;  -71.075; -549.000; -417.000
385.465; -123.550; -655.000; -663.000
385.594;   21.200;  -53.000;  -44.000
385.724;    6.675; -868.000; -838.000
385.853;  -12.075; -296.000; -270.000
385.982;  319.200; -743.000; -787.000
386.112;  629.550;-1052.000; -871.000
386.241;   -3.250; -307.000; -312.000
386.371;  -23.525; -174.000;  -87.000
386.500;  -59.925; -825.000; -789.000
386.629;  -13.300; -874.000; -817.000
386.759;   55.700;  -43.000;   68.000
386.888;  -16.100; -170.000; -250.000
387.017; -118.025; -648.000; -620.000
387.147; -118.175; -771.000; -798.000
387.276;  -64.275; -410.000; -397.000
387.405;  -51.400; -398.000; -342.000
387.535;  -85.950; -452.000; -361.000
387.664;  -69.875; -692.000; -620.000
387.793;  -32.725; -198.000; -113.000
387.922;  133.200;  255.000;  200.000
388.052;  -78.925; -576.000; -423.000
388.181;  -64.950; -342.000; -472.000
388.310; -110.850; -889.000; -710.000
388.439; -109.050; -749.000; -742.000
388.568;   16.625;  365.000;  244.000
388.697;  232.775; -756.000; -653.000
388.826;   -7.425; -768.000; -666.000
388.956;  -47.375; -285.000; -307.000
389.085;  -74.400; -347.000; -287.000
389.214; -128.975; -842.000; -872.000
389.343;  -77.800; -645.000; -413.000
389.472;  551.950;  126.000;  149.000
389.601;  633.550;   91.000;    0.000
389.730;  -32.075; -568.000; -687.000
389.859;    7.200;  226.000;   46.000
389.988;   28.025; -423.000; -408.000
390.117;   23.500; -168.000; -146.000
390.246;  -65.175; -331.000; -320.000
390.375;  -63.700; -673.000; -626.000
390.504;  -90.450; -703.000; -621.000
390.633; -138.950; -672.000; -726.000
390.761; -106.450; -732.000; -645.000
390.890;  -32.575;   -4.000; -130.000
391.019;  -76.375; -421.000; -441.000
391.148; -148.225; -826.000; -855.000
391.277; -106.275; -576.000; -493.000
391.406; -133.950; -821.000; -805.000
391.534;    1.425;  574.000; -301.000
391.663;  -96.250; -583.000; -645.000
391.792; -111.800; -673.000; -701.000
391.921;  -24.800;   -3.000;   15.000
392.050;  -20.300; -287.000; -228.000
392.178; -143.750;-1206.000;-1061.000
392.307;  -39.100; -758.000; -712.000
392.436;  -63.500; -427.000; -641.000
392.564;  -11.975;  166.000;   -6.000
392.693; -113.225; -860.000; -682.000
392.822;  -19.375; -529.000; -534.000
392.950;  -69.850; -880.000; -714.000
393.079;   60.675; -188.000; -328.000
393.208;  -65.150; -488.000; -511.000
393.336;  -22.050; -170.000; -145.000
393.465;  -58.700; -317.000; -199.000
393.593;  -24.450;   62.000;   79.000
393.722; -156.500;-1121.000; -916.000
393.850;  -26.675; -188.000;  -61.000
393.979; -147.300; -926.000; -805.000
394.107;  -69.300; -517.000; -537.000
394.236;  -70.050; -570.000; -507.000
394.364;   91.050;  383.000;  206.000
394.493;   47.650; -911.000; -767.000
394.621;   -1.850; -955.000; -916.000
394.750; 1123.450; -873.000; -923.000
394.878; 4423.700; -247.000; -149.000
395.007; 6441.975; -721.000; -807.000
395.135;  571.000; -790.000; -721.000
395.263;  -74.025;-1038.000;-1040.000
395.392;   -3.125;  -25.000; -107.000
395.520; -134.450; -818.000; -679.000
395.648; -133.325; -865.000; -915.000
395.777;  -84.500; -366.000; -405.000
395.905;  -89.300; -449.000; -564.000
396.033;  -20.600;  217.000;  172.000
396.162;   97.850; -399.000; -453.000
396.290;  106.700;  -17.000;   -2.000
396.418;  -54.650; -555.000; -514.000
396.546; -113.175; -571.000; -466.000
396.674; -137.325; -850.000; -878.000
396.803;  -30.425;  -72.000;  -23.000
396.931;  -31.050; -179.000; -199.000
397.059; -144.850;-1026.000; -989.000
397.187; -144.250;-1026.000; -975.000
397.315; -155.425; -884.000; -649.000
397.443;  -98.200; -592.000; -443.000
397.572; -107.175; -578.000; -424.000
397.700; -102.750; -607.000; -614.000
397.828;  -60.050;  120.000;  -90.000
397.956;  -52.000; -508.000; -478.000
398.084;  -49.100; -767.000; -626.000
398.212;    4.200;  137.000;  124.000
398.340;  -30.125;  -56.000;  159.000
398.468;  -59.300; -390.000; -169.000
398.596; -154.750; -993.000; -953.000
398.724; -120.400; -762.000; -767.000
398.852; -166.900;-1024.000; -976.000
398.980;  -96.300; -560.000; -560.000
399.108; -112.675; -982.000; -735.000
399.236;  -28.400;   13.000;    8.000
399.363;  -19.350;  222.000;  196.000
399.491;  -78.425; -404.000; -398.000
399.619; -114.900; -829.000; -800.000
399.747; -125.225; -859.000; -771.000
399.875;   35.950;  220.000;  234.000
400.003;  -65.475; -359.000; -284.000
400.130;  -99.250; -421.000; -341.000
400.258;  -41.600;  -83.000;   38.000
400.386;  -75.900; -352.000; -168.000
400.514; -103.225; -526.000; -587.000
400.641; -147.225; -928.000; -802.000
400.769; -165.825; -979.000; -888.000
400.897; -130.125; -838.000; -793.000
401.025;  -49.000; -166.000; -152.000
401.152;  -11.700;  220.000;   38.000
401.280;  -85.700; -430.000; -429.000
401.408; -139.675; -712.000; -576.000
401.535; -125.675; -735.000; -758.000
401.663; -202.975;-1134.000;-1054.000
401.790;  -94.200; -514.000; -525.000
401.918;   12.200;  436.000;  405.000
402.046;  -38.550;  134.000;  122.000
402.173;  -63.725;  -18.000;    7.000
402.301;  -66.700; -519.000; -397.000
402.428;   14.375;  528.000;  383.000
402.556; -157.125;-1188.000; -913.000
402.683;  -43.100;  -20.000;   -1.000
402.811;  -37.275;  -37.000; -206.000
402.938;  -26.350;   20.000;   27.000
403.066;  -18.350; -574.000; -558.000
403.193;   84.100;  299.000;  239.000
403.321;   53.625; -396.000; -574.000
403.448;   86.800;   83.000;   27.000
403.575;   38.425;  -90.000;  -46.000
403.703; -106.775; -732.000; -557.000
403.830;  -48.625; -531.000; -496.000
403.957; -138.850;-1117.000;-1023.000
404.085;   10.275;  -61.000; -172.000
404.212;  100.900;  -50.000;   63.000
404.339;  430.225; -566.000; -306.000
404.467; 8902.950; -612.000; -524.000
404.594; 5421.075; -287.000; -227.000
404.721;  926.850; -869.000; -764.000
404.848;   83.025; -113.000; -202.000
404.976; -106.500; -856.000; -783.000
405.103;   -7.350;  -14.000;  -82.000
405.230;   -4.450;  190.000;  226.000
405.357;   44.500;  117.000;   44.000
405.484;  395.575;  -49.000;    5.000
405.612;  107.900; -548.000; -563.000
405.739;  -76.650; -488.000; -243.000
405.866;   66.450;  669.000;  385.000
405.993;  -60.100; -398.000; -102.000
406.120; -152.575; -801.000; -887.000
406.247;  -88.475; -323.000; -342.000
406.374;   93.575;  540.000;  629.000
406.501;  -99.375; -632.000; -702.000
406.628;  -90.125; -621.000; -589.000
406.755; -135.600; -803.000; -620.000
406.882;  -58.450; -228.000; -277.000
407.009; -126.350; -719.000; -628.000
407.136;  -67.025; -480.000; -401.000
407.263;  -70.750; -939.000; -829.000
407.390; -103.525; -692.000; -614.000
407.517; -180.250;-1139.000;-1187.000
407.644;  -77.175; -332.000; -256.000
407.771; -147.100; -249.000; -287.000
407.898;   -8.400;  168.000;  328.000
408.025;  -89.850; -421.000; -313.000
408.151;  -12.000;   82.000;  153.000
408.278;  -76.350; -267.000; -216.000
408.405; -135.100; -931.000; -899.000
408.532; -105.325; -549.000; -542.000
408.659; -135.725; -677.000; -648.000
408.785; -186.625;-1298.000;-1170.000
408.912;  -81.125; -412.000; -296.000
409.039; -122.850; -610.000; -686.000
409.166; -102.975; -591.000; -555.000
409.292; -107.175; -571.000; -534.000
409.419; -123.150; -665.000; -649.000
409.546;  -98.450; -431.000; -192.000
409.672; -119.425; -713.000; -545.000
409.799;  -40.450;  -36.000;   34.000
409.926;  -46.775; -180.000; -179.000
410.052; -183.575;-1127.000;-1091.000
410.179;  -77.275; -368.000; -392.000
410.305;  -98.750; -375.000; -493.000
410.432;  -41.375; -220.000; -333.000
410.558; -101.850; -305.000; -380.000
410.685; -102.500; -688.000; -431.000
410.812; -115.150; -409.000; -588.000
410.938; -138.300; -964.000; -808.000
411.065; -121.225; -671.000; -645.000
411.191;  -44.300; -189.000; -174.000
411.317; -134.950; -823.000; -742.000
411.444;  -63.425; -317.000; -246.000
411.570;  -87.800; -339.000; -294.000
411.697; -121.300; -758.000; -752.000
411.823; -180.200; -989.000; -999.000
411.949;  -50.750;  -56.000;   17.000
412.076; -112.925; -539.000; -519.000
412.202; -119.200; -758.000; -757.000
412.329; -141.400; -798.000; -752.000
412.455; -122.200; -821.000; -657.000
412.581;  -41.275;  -15.000;  172.000
412.707;  -98.525; -540.000; -457.000
412.834;  -12.325;  156.000;  219.000
412.960; -106.425; -785.000; -784.000
413.086; -122.100; -743.000; -701.000
413.212;   84.250;  604.000;  578.000
413.339; -111.000; -685.000; -701.000
413.465;  -53.800; -364.000; -310.000
413.591; -126.450; -757.000; -474.000
413.717;  -58.750; -358.000; -366.000
413.843; -135.650; -839.000; -861.000
413.969;  -57.850;  -47.000; -292.000
414.096; -101.175; -679.000; -679.000
414.222;  -13.150;  -33.000;   85.000
414.348;  -78.725; -652.000; -385.000
414.474;   -6.800;   38.000;  -52.000
414.600;  -31.850; -126.000; -144.000
414.726;   -3.050;  -96.000;  -55.000
414.852;  -56.050; -365.000; -342.000
414.978;   27.650;  104.000;  -18.000
415.104;   54.275;   38.000;   80.000
415.230;   35.775; -329.000; -330.000
415.356;   56.700; -409.000; -514.000
415.482;  216.075;   13.000;  -35.000
415.608;  403.400; -247.000; -323.000
415.734; 1318.500;   67.000;   38.000
415.860;26968.850; -875.000; -767.000
415.986;22223.375; -685.000; -607.000
416.111; 2048.300; -798.000; -652.000
416.237;  452.250; -424.000; -571.000
416.363; 1638.675; -765.000; -733.000
416.489; 6686.200; -324.000; -251.000
416.615;  899.975; -707.000; -742.000
416.741;   46.100; -677.000; -784.000
416.866;  -66.000; -673.000; -736.000
416.992; -114.400; -801.000; -818.000
417.118;  -27.250;  -41.000;  -80.000
417.244;  -84.075; -798.000; -531.000
417.369;  -97.525; -801.000; -612.000
417.495;  -32.625; -325.000; -254.000
417.621; -107.675;-1015.000; -803.000
417.746;    5.300; -579.000; -572.000
417.872;   59.850; -254.000; -144.000
417.998;  128.325; -515.000; -530.000
418.123; 1507.025;-1073.000; -845.000
418.249; 8459.450; -512.000; -601.000
418.374; 1438.650; -916.000; -824.000
418.500;  212.600; -383.000; -482.000
418.626;  151.100;   70.000;  -59.000
418.751;  144.175; -549.000; -448.000
418.877;  299.525; -637.000; -643.000
419.002; 2551.000; -688.000; -560.000
419.128;19280.525; -930.000; -721.000
419.253; 5437.950; -967.000; -837.000
419.379;  743.150; -391.000; -338.000
419.504;  564.575;  325.000;  415.000
419.629;  809.175; -393.000; -212.000
419.755; 5323.425; -317.000; -254.000
419.880;34657.425;  -98.000;   67.000
420.006;17397.875; -280.000; -221.000
420.131;43085.700; -662.000; -775.000
420.256; 6948.975; -315.000; -316.000
420.382;  950.375; -665.000; -687.000
420.507;  148.675; -649.000; -778.000
420.632;   20.100; -337.000; -339.000
420.758;   38.200; -251.000; -425.000
420.883; -107.300; -876.000; -672.000
421.008; -116.150; -775.000; -619.000
421.133; -101.600; -509.000; -467.000
421.259;  -54.675; -325.000; -259.000
421.384; -127.825; -834.000; -693.000
421.509; -114.125;-1052.000; -862.000
421.634;  129.900; -936.000; -820.000
421.759;   56.600; -359.000; -327.000
421.885; -107.325; -717.000; -656.000
422.010; -107.175; -673.000; -542.000
422.135; -151.075; -695.000; -727.000
422.260;    0.100;  340.000;  280.000
422.385;  -57.750;   12.000;  -98.000
422.510;  -13.525;  151.000;  -26.000
422.635;  -32.275;  -87.000;  -43.000
422.760;  -20.350; -766.000; -791.000
422.885;   15.600;  -57.000;  -80.000
423.010;  -43.900; -112.000; -169.000
423.135; -107.575; -481.000; -561.000
423.260;  -50.875; -150.000; -245.000
423.385;   13.750;  476.000;  222.000
423.510;    4.075;   71.000;  -22.000
423.635;    7.100;  133.000;   45.000
423.760;   41.500;  383.000;  328.000
423.885;   18.075;  336.000;  391.000
424.010;   -0.525;  -68.000;  -13.000
424.135;  -30.050;    5.000;  -33.000
424.259;  -90.575; -654.000; -457.000
424.384;  -59.850; -279.000; -272.000
424.509;  -37.675; -260.000; -186.000
424.634;  -96.025; -761.000; -623.000
424.759;  -40.975; -688.000; -544.000
424.883;   -2.250; -506.000; -527.000
425.008;  192.775; -502.000; -410.000
425.133; 2850.200; -679.000; -653.000
425.258; 1556.800; -517.000; -381.000
425.382;  469.850; -867.000; -774.000
425.507; 1110.150; -487.000; -543.000
425.632;  359.900; -802.000; -663.000
425.756;  706.025; -256.000; -146.000
425.881;10151.800; -831.000; -857.000
426.006;31159.925; -604.000; -355.000
426.130; 5137.075; -696.000; -508.000
426.255;  720.500; -611.000; -491.000
426.379;  256.550; -189.000; -577.000
426.504;  480.650;  660.000;  544.000
426.629; 5519.075; -519.000; -466.000
426.753; 4342.775;   64.000;  -46.000
426.878;  546.375; -252.000; -288.000
427.002;  303.950; -651.000; -668.000
427.127; 2057.700;  -35.000; -158.000
427.251;17125.525;  372.000;  401.000
427.375; 5579.575; -191.000; -173.000
427.500; 1305.925; -616.000; -610.000
427.624;  384.350; -234.000; -400.000
427.749;   64.300; -216.000; -225.000
427.873;  -39.850; -499.000; -412.000
427.997;  -36.950; -222.000; -230.000
428.122;   58.700;  795.000;  703.000
428.246;   47.150;  433.000;  434.000
428.371; -138.925; -869.000; -773.000
428.495; -111.125; -624.000; -646.000
428.619;  -55.325; -186.000; -117.000
428.743;    6.775;   65.000;  132.000
428.868;  -85.775; -732.000; -643.000
428.992;  448.650; -219.000; -326.000
429.116;  143.450; -329.000; -357.000
429.240;  100.375;  419.000;  426.000
429.365;  -56.900; -454.000; -574.000
429.489;  -71.825; -638.000; -647.000
429.613;   16.700; -236.000; -177.000
429.737;   63.025; -563.000; -432.000
429.861;  371.550; -247.000; -133.000
429.985; 7789.500; -425.000; -305.000
430.109; 9962.600; -770.000; -908.000
430.234; 1212.125;   76.000;  -50.000
430.358;  138.800; -250.000; -160.000
430.482;  -62.175; -672.000; -564.000
430.606;  -83.400; -655.000; -375.000
430.730;  -74.950; -437.000; -388.000
430.854; -101.625; -909.000; -835.000
430.978;  -97.200; -795.000; -764.000
431.102;  -95.450; -499.000; -422.000
431.226; -122.425; -874.000; -815.000
431.350;   15.200;  345.000;  422.000
431.474;  -81.550; -661.000; -373.000
431.597; -172.475;-1060.000; -848.000
431.721;  -68.625; -276.000; -267.000
431.845; -130.850; -704.000; -472.000
431.969;  -74.950; -304.000; -349.000
432.093;  -85.925; -395.000; -317.000
432.217;  -19.975;   32.000;   82.000
432.341;  -98.450; -523.000; -518.000
432.464;   -7.125;   96.000;   40.000
432.588;  -43.850; -401.000; -329.000
432.712;   -3.150;  -52.000;  -52.000
432.836;   63.350;  213.000;  263.000
432.959;   21.775; -372.000; -311.000
433.083;  156.125;   11.000;    2.000
433.207;  545.275;  285.000;  930.000
433.330; 7566.600; -391.000; -200.000
433.454;10507.450; -654.000; -638.000
433.578; 5791.175;  583.000;  278.000
433.701; 1220.750; -623.000; -675.000
433.825;  147.525; -292.000; -299.000
433.949;   42.050;   28.000;  -72.000
434.072;  -29.425; -410.000; -323.000
434.196;  -12.150; -309.000; -117.000
434.319; 3736.125;25482.000;25124.000
434.443;  856.325; -656.000; -603.000
434.566; 4040.825;  281.000;   62.000
434.690;  872.075; -637.000; -383.000
434.813;  144.525; -251.000; -173.000
434.937;  -45.575; -569.000; -696.000
435.060;  -84.125; -423.000; -332.000
435.184;  -38.400; -492.000; -217.000
435.307;   -9.850;  159.000;  102.000
435.431;  -35.650;  -40.000;   24.000
435.554;  -85.450; -399.000; -240.000
435.677;  -87.575; -350.000; -258.000
435.801;  -52.750;  -25.000;   49.000
435.924;  -55.175;    1.000;  -67.000
436.048; -155.750;-1019.000; -732.000
436.171;  -78.225; -240.000;  -66.000
436.294;  -30.825; -248.000; -229.000
436.417;  219.450; -963.000; -849.000
436.541;  -32.450; -814.000; -840.000
436.664;  -43.425; -242.000; -316.000
436.787;  -41.850;   13.000;  113.000
436.910; -129.975; -792.000; -422.000
437.034;  -36.400;  142.000;  143.000
437.157;   -8.350;  -11.000;    0.000
437.280;  -89.100; -392.000; -292.000
437.403; -132.750; -982.000; -869.000
437.526;  -18.075; -903.000; -865.000
437.649;  379.150; -505.000; -332.000
437.772;  -40.975; -692.000; -540.000
437.896;   47.825;  700.000;  544.000
438.019; -116.850; -758.000; -503.000
438.142; -114.325; -596.000; -506.000
438.265; -124.925; -639.000; -670.000
438.388;    1.775; -520.000; -410.000
438.511;  -84.725; -597.000; -394.000
438.634;  -79.125; -247.000; -125.000
438.757; -152.350; -693.000; -619.000
438.880;  -46.225;  -34.000;  -57.000
439.003; -121.075; -417.000; -437.000
439.126;  -82.600; -287.000; -167.000
439.248;  -66.700;  -98.000; -139.000
439.371;  -53.500;    9.000;  -53.000
439.494;    0.675;  510.000;  439.000
439.617;  -59.275;   65.000;  -88.000
439.740; -180.950; -968.000; -816.000
439.863; -148.000; -755.000; -595.000
439.986; -118.250; -476.000; -431.000
440.108;  -49.050; -161.000; -112.000
440.231; -184.250; -950.000; -836.000
440.354;  -63.900;  -64.000; -150.000
440.477; -126.800; -566.000; -542.000
440.599;  -96.350; -200.000; -225.000
440.722; -139.225; -709.000; -586.000
440.845;   58.100;  751.000;  928.000
440.968; -121.825; -415.000; -311.000
441.090;  -62.875; -199.000;  -33.000
441.213; -176.075;-1021.000; -825.000
441.336;  -71.800; -159.000;   -5.000
441.458; -108.350; -549.000; -396.000
441.581; -128.750; -628.000; -629.000
441.703;  -88.825; -152.000;   13.000
441.826; -120.250; -557.000; -400.000
441.948;  -51.100;   56.000;   51.000
442.071;   23.975;  555.000;  424.000
442.193; -127.600; -531.000; -485.000
442.316;   -2.325;  152.000;   97.000
442.438;   63.025; -233.000;  -10.000
442.561;   49.975;  272.000;  262.000
442.683;   36.100; -809.000; -522.000
442.806;  212.300;   -8.000;   74.000
442.928; -111.375; -859.000; -604.000
443.051;  -89.050; -577.000; -373.000
443.173; -101.525; -341.000; -339.000
443.295;  -99.400; -263.000; -371.000
443.418;  -87.050; -321.000;  -29.000
443.540;  -40.850; -106.000;   -4.000
443.662; -131.850; -563.000; -465.000
443.785;  -17.300;  335.000;  199.000
443.907; -112.600; -362.000; -208.000
444.029; -129.575; -767.000; -494.000
444.152; -155.000; -644.000; -554.000
444.274;  -34.775;  -18.000;  -24.000
444.396; -135.400; -461.000; -221.000
444.518; -139.600; -691.000; -454.000
444.640; -106.725; -268.000; -111.000
444.763;  -28.500;  388.000;  249.000
444.885; -116.175; -432.000; -392.000
445.007;  -48.025;   35.000;   86.000
445.129; -134.425; -610.000; -515.000
445.251; -114.525; -372.000; -439.000
445.373; -146.600; -537.000; -386.000
445.495;  -24.175;  242.000;  350.000
445.617;   14.425;  853.000;  753.000
445.739;  -84.650; -215.000;  -97.000
445.861;  -66.400; -245.000; -112.000
445.984;  -78.125; -267.000; -101.000
446.105;  -39.025; -418.000; -251.000
446.227;   93.625; -176.000;  -19.000
446.349;  -84.025; -358.000; -249.000
446.471; -133.250; -615.000; -448.000
446.593; -108.025; -316.000;   19.000
446.715;  -49.725;  -67.000;   41.000
446.837;   33.925;  697.000;  832.000
446.959; -103.875; -457.000; -478.000
447.081; -142.250; -628.000; -518.000
447.203;   24.800;  862.000;  834.000
447.325; -104.025; -270.000;   42.000
447.446;  -15.450;  286.000;  530.000
447.568; -156.100; -921.000; -803.000
447.690;  -97.750; -236.000; -245.000
447.812; -154.650; -798.000; -519.000
447.933;  -28.700;  155.000;  127.000
448.055;  -76.450; -306.000; -261.000
448.177;   17.050;   31.000;   79.000
448.299; -102.125; -935.000; -727.000
448.420;   -7.100;  -25.000;  159.000
448.542;  -59.750;   -3.000;   33.000
448.664;  -36.850;  109.000;  322.000
448.785;  -44.500;  265.000;   83.000
448.907; -113.675; -614.000; -353.000
449.028; -121.375; -771.000; -471.000
449.150;   44.225;  492.000;  589.000
449.272; -168.075;-1044.000; -913.000
449.393;   17.150;  612.000;  694.000
449.515; -147.000; -634.000; -581.000
449.636;  -78.150; -264.000; -155.000
449.758;   33.750;  763.000;  622.000
449.879;  -94.125; -498.000; -396.000
450.001;  -76.075; -149.000;  -49.000
450.122;  -39.600;  -95.000;  162.000
450.244;  -30.525;   37.000;  364.000
450.365;  -74.775; -495.000; -301.000
450.486;  -12.225;   80.000;  268.000
450.608;   47.850;  393.000;  326.000
450.729;   88.175;  578.000;  645.000
450.850;  101.250; -574.000; -466.000
450.972; 1197.500; -552.000; -389.000
451.093; 7934.100;  190.000;  588.000
451.214; 4085.825; -516.000; -337.000
451.336;  685.925;  773.000;  579.000
451.457;  105.725;  264.000;  393.000
451.578;  -14.425; -118.000;  -74.000
451.699; -113.050; -546.000; -540.000
451.821;  -69.025; -284.000;  -50.000
451.942;   -3.125;  278.000;  285.000
452.063;   45.625;  228.000;  419.000
452.184;  813.200;  -54.000;  -49.000
452.305; 1723.475;  103.000;  170.000
452.427;  321.425; -549.000; -301.000
452.548;    0.425;   23.000;   79.000
452.669;  -75.550; -257.000;  -89.000
452.790;  -59.550;    3.000;  -18.000
452.911;  -30.825;  195.000;  259.000
453.032;  -84.400; -289.000;  -60.000
453.153;  -62.250;  -29.000;   81.000
453.274;   42.025;  737.000;  868.000
453.395;  -76.325;  -51.000;  175.000
453.516;   75.325; 1317.000; 1388.000
453.637; -107.425; -205.000; -150.000
453.758;  -62.425;   15.000;   69.000
453.879; -137.450; -462.000; -250.000
454.000;   68.925; 1086.000;  948.000
454.121; -138.600; -554.000; -326.000
454.242; -119.650; -599.000; -383.000
454.362;  -54.300;  -99.000;  114.000
454.483;  -37.700; -309.000; -229.000
454.604;   51.275;  512.000;  580.000
454.725; -143.375; -627.000; -555.000
454.846; -119.250; -474.000; -406.000
454.967;  -31.400;  230.000;  539.000
455.087;  -49.425;  179.000;  153.000
455.208;    5.775;  554.000;  856.000
455.329;  -64.550;  -22.000;   82.000
455.450;   52.925;  473.000;  633.000
455.570;  -63.175; -234.000; -211.000
455.691;  -45.350;  201.000;  407.000
455.812; -109.925; -270.000;  -92.000
455.932;  -53.450;  107.000;  -97.000
456.053;  -86.950;   36.000;   24.000
456.173; -120.875; -433.000; -355.000
456.294; -129.275; -476.000; -303.000
456.415;  -57.350;  -73.000;   70.000
456.535;  -59.400;  297.000;  273.000
456.656;  -48.850;  132.000;  240.000
456.776;  -84.050;    3.000;  298.000
456.897;  -24.150;  308.000;  513.000
457.017;  -73.450; -153.000;   -3.000
457.138; -111.400; -402.000; -249.000
457.258;  -37.450;  263.000;  224.000
457.379;   -8.575;  509.000;  521.000
457.499;  -35.425;  443.000;  432.000
457.620; -135.475; -407.000; -231.000
457.740; -104.025; -132.000;  -11.000
457.860;  -51.075;   87.000;   44.000
457.981;  -52.175;  132.000;  124.000
458.101;  -87.850;  -89.000;   40.000
458.221;  -20.925;  336.000;  402.000
458.342;  -64.500;   -4.000;  -37.000
458.462;   39.525;  617.000;  352.000
458.582;   20.575; -302.000; -294.000
458.703;   47.275;  303.000;  154.000
458.823;    6.500;   22.000;  163.000
458.943;   30.450;  341.000;  467.000
459.063;    3.900; 1124.000;  192.000
459.183;  -19.150;  328.000;  313.000
459.304;   17.425;  315.000;  517.000
459.424;  -54.275; -246.000;  -89.000
459.544;  461.650;  388.000;  764.000
459.664; 1309.275;  499.000;  506.000
459.784;  512.250; 1004.000; 1175.000
459.904;   72.425;  867.000;  744.000
460.024;   39.475;  867.000;  684.000
460.144;  -18.750;  449.000;  554.000
460.264;  -15.925;  515.000;  327.000
460.385;  -89.025; -145.000; -119.000
460.505;   18.400;  905.000;  858.000
460.625; -101.675;  -17.000;  -68.000
460.745;  -25.175;  396.000;  541.000
460.864;  -57.375;  153.000;  469.000
460.984;   32.575;  499.000;  573.000
461.104;  122.750; 1656.000; 1775.000
461.224;   17.300;  657.000;  650.000
461.344;  -46.400;  431.000;  360.000
461.464;  -40.325;  258.000;  513.000
461.584;  -44.850;  283.000;  466.000
461.704;  -63.625;   58.000;  108.000
461.824;  -74.175;  238.000;  259.000
461.943;  -48.325;  191.000;  130.000
462.063;  -80.800;    2.000;  324.000
462.183;   22.950;  639.000;  717.000
462.303;   58.725; 1678.000; 1230.000
462.422;   17.375;  781.000;  840.000
462.542;  -39.200;  271.000;  391.000
462.662;   36.200;  353.000;  380.000
462.782;  323.175;  833.000;  572.000
462.901;  736.700;  545.000;  717.000
463.021;  385.025; 1702.000; 1638.000
463.141;    2.000;  337.000;  770.000
463.260;  -12.975;  614.000;  474.000
463.380;   -3.250;  902.000;  884.000
463.499;  -50.000;  342.000;  332.000
463.619;  -31.200;  581.000;  559.000
463.738;   91.750; 1644.000;  903.000
463.858;   11.125;  657.000;  811.000
463.978;  -42.500;  542.000;  396.000
464.097;   42.625;  921.000; 1114.000
464.217;  159.075; 1196.000; 1143.000
464.336;  131.275; 1068.000; 1130.000
464.455;  -20.875;  328.000;  659.000
464.575;    0.025;  597.000;  602.000
464.694;  111.000; 1204.000; 1179.000
464.814;  146.175; 1190.000; 1138.000
464.933;   79.625; 1095.000; 1027.000
465.052;   83.275; 1412.000; 1054.000
465.172;   68.775;  922.000;  799.000
465.291;  107.225; 1376.000; 1320.000
465.410;   -8.375;  462.000;  735.000
465.530;   77.850; 1355.000; 1310.000
465.649;   39.500; 1209.000; 1273.000
465.768;  130.275; 1673.000; 1508.000
465.888;   45.300;  941.000; 1174.000
466.007;   84.575; 1335.000; 1440.000
466.126;  -19.675;  721.000;  641.000
466.245;   33.925; 1176.000; 1187.000
466.364;   12.025;  950.000; 1060.000
466.484;   51.625; 1024.000; 1213.000
466.603;   27.625; 1101.000; 1222.000
466.722;   97.675; 1490.000; 1769.000
466.841;   69.375; 1151.000; 1401.000
466.960;   37.675; 1069.000;  972.000
467.079;  116.725; 1971.000; 1786.000
467.198;   56.950; 1238.000; 1181.000
467.317;   88.300; 1768.000; 1162.000
467.436;   65.100; 1709.000; 1261.000
467.555;  106.975; 1796.000; 1746.000
467.674;   62.825; 1227.000; 1329.000
467.793;   46.275; 1376.000; 1374.000
467.912;   79.750; 1658.000; 1539.000
468.031;  121.475; 2038.000; 1930.000
468.150;  126.525; 1842.000; 1837.000
468.269;  162.850; 2313.000; 2090.000
468.388;  177.400; 2168.000; 2339.000
468.507;  221.575; 2884.000; 2903.000
468.626;  269.825; 2555.000; 2541.000
468.744;  132.875; 2018.000; 2174.000
468.863;  194.225; 2312.000; 2523.000
468.982;  102.275; 1503.000; 1555.000
469.101;  228.600; 2788.000; 2692.000
469.220;  151.475; 2333.000; 2176.000
469.338;  244.450; 2935.000; 3051.000
469.457;  175.575; 2719.000; 2545.000
469.576;  343.000; 3953.000; 3784.000
469.695;  240.875; 2877.000; 3066.000
469.813;  404.275; 4148.000; 4192.000
469.932;  397.100; 4255.000; 4485.000
470.051;  446.975; 4075.000; 4161.000
470.169; 1034.500; 4470.000; 4338.000
470.288; 2008.675; 4700.000; 4809.000
470.406; 1151.150; 5059.000; 5194.000
470.525;  676.075; 6101.000; 5787.000
470.644;  641.925; 6847.000; 6794.000
470.762;  816.550; 8397.000; 7873.000
470.881;  916.625; 8651.000; 8464.000
470.999; 1081.325; 9685.000; 9151.000
471.118; 1109.925;11174.000;10711.000

