
Integration time [ms]: 100.000
Averaging Nr. [scans]: 40
Smoothing Nr. [pixels]: 0
Data measured with spectrometer [name]: 2101012U2
Wave   ;Sample   ;Dark     ;Reference
[nm]   ;[counts] ;[counts] ;[counts] 

197.733;   44.800;  516.000;  404.000
197.879;  -83.175; -610.000; -634.000
198.025;  -57.200; -475.000; -420.000
198.171;  -66.175; -602.000; -612.000
198.317;  -36.100; -401.000; -316.000
198.463;  -50.100; -655.000; -404.000
198.609;   21.525;  181.000; -137.000
198.755;  -75.850; -644.000; -410.000
198.901;  -65.150; -505.000; -424.000
199.047;  -67.825; -615.000; -488.000
199.193;  -37.050; -230.000; -468.000
199.339;  -36.575; -222.000; -369.000
199.485;   29.550;  330.000;  271.000
199.631;   31.275;  227.000;  310.000
199.777;  -58.575; -466.000; -398.000
199.923;  -55.275; -610.000; -424.000
200.069;  -11.000; -141.000;  -58.000
200.215;   60.250;  128.000;  453.000
200.361;   51.300;  243.000;  477.000
200.507;  -55.175; -600.000; -373.000
200.653;  -30.375; -371.000; -194.000
200.798;  -33.225; -215.000; -125.000
200.944;    1.225; -146.000;  -41.000
201.090;   48.875;   61.000;  222.000
201.236;   -5.175; -116.000; -158.000
201.382;  138.375;  874.000;  903.000
201.528;    9.250;  -58.000;  -48.000
201.674;  -52.600; -386.000; -293.000
201.819;  -70.725; -540.000; -439.000
201.965;  -84.050; -699.000; -447.000
202.111;  -17.725; -273.000; -226.000
202.257;  -18.850; -250.000; -238.000
202.402;   11.425;   13.000;  -36.000
202.548;  -29.925; -169.000; -116.000
202.694;   88.100;  410.000; -183.000
202.840;  -70.225; -603.000; -531.000
202.985;  -63.475; -681.000; -639.000
203.131; -105.225; -832.000; -666.000
203.277;  -20.650; -199.000; -262.000
203.423;  -61.825; -434.000; -520.000
203.568;  -42.600; -462.000; -237.000
203.714;  -61.925; -535.000; -542.000
203.860;  -87.800; -682.000; -641.000
204.005;   15.875;  112.000;  167.000
204.151;   94.775;  561.000;  556.000
204.296;  -44.000; -354.000; -221.000
204.442;  -75.125; -600.000; -547.000
204.588;  -75.300; -592.000; -579.000
204.733;   13.300;  178.000;  168.000
204.879; -135.675;-1018.000; -822.000
205.025;   -0.475;  -99.000;  126.000
205.170;    5.500;  -17.000;   94.000
205.316;   82.000;  438.000;  661.000
205.461;  -73.575; -698.000; -554.000
205.607;   80.450;  609.000;  665.000
205.752;  -74.850; -626.000; -551.000
205.898;  -54.625; -501.000; -391.000
206.043;  -51.750; -578.000; -506.000
206.189;  -39.525; -243.000; -285.000
206.334;   80.025;  554.000;  606.000
206.480;   95.050;  409.000;  239.000
206.625;  -82.850; -529.000; -552.000
206.771;  -49.150; -451.000; -373.000
206.916;  -25.825; -210.000; -537.000
207.062;  -73.700; -545.000; -591.000
207.207;  -55.175; -546.000; -443.000
207.353;   53.975;  185.000;  460.000
207.498;    9.950;  196.000;   85.000
207.643;  -60.825; -501.000; -370.000
207.789; -133.625;-1069.000; -910.000
207.934;  -75.325; -665.000; -713.000
208.080;  -22.950; -154.000;   66.000
208.225;  -14.350;  -22.000;  -57.000
208.370;  -65.250; -727.000; -619.000
208.516;  -74.650; -741.000; -487.000
208.661;  -20.150; -127.000;  -69.000
208.806;  -25.875; -165.000; -171.000
208.952; -128.750;-1044.000; -731.000
209.097;   67.575;  378.000;  349.000
209.242;  -40.000; -307.000; -382.000
209.387;   64.750;  392.000;  350.000
209.533;  -42.000; -321.000; -350.000
209.678;   75.425;  472.000;  543.000
209.823;  -40.275; -408.000; -310.000
209.969;  -98.450; -860.000; -757.000
210.114; -103.775; -907.000; -719.000
210.259; -118.825; -939.000; -889.000
210.404;    3.775; -171.000;  103.000
210.549;    3.625;  108.000;    3.000
210.695;  -33.400;   -3.000;  -95.000
210.840;   38.975;   94.000;   67.000
210.985;  -42.950; -484.000; -303.000
211.130;   77.000;  268.000;  406.000
211.275;   27.325;  207.000;  199.000
211.420;  -45.550; -300.000; -289.000
211.566;  -61.325; -536.000; -489.000
211.711;   25.175;  218.000;  157.000
211.856;  -57.400; -545.000; -519.000
212.001;    9.650;  151.000;   44.000
212.146;   24.300;  153.000;   49.000
212.291;  -25.000; -210.000; -186.000
212.436;  -24.475; -280.000;   -6.000
212.581;  -91.775; -685.000; -653.000
212.726;  -78.575; -487.000; -538.000
212.871;  -39.050; -552.000; -217.000
213.016; -157.925;-1172.000;-1029.000
213.161;   59.275;  406.000;  291.000
213.306;  -76.650; -435.000; -577.000
213.451;  -91.725; -778.000; -689.000
213.596;  -37.775; -455.000; -347.000
213.741;  -52.525; -448.000; -538.000
213.886;  -75.275; -498.000; -517.000
214.031;  -34.425; -294.000; -124.000
214.176;  -39.775; -408.000; -341.000
214.321;  -19.675; -296.000; -157.000
214.466;  -25.400; -163.000;  -43.000
214.611;  -10.625;  -61.000;  -10.000
214.756; -107.375; -948.000; -858.000
214.901;  -22.525; -388.000; -226.000
215.046; -116.250; -797.000; -825.000
215.191;   19.400;  128.000;   35.000
215.336;  -11.875; -157.000;  -19.000
215.480;  -72.825; -684.000; -505.000
215.625;   -1.575; -175.000;  -19.000
215.770;  -93.400; -757.000; -662.000
215.915;   -6.825;   -5.000;  -97.000
216.060;   -9.600; -113.000;  -21.000
216.205; -112.550; -731.000; -779.000
216.349;  -75.625; -470.000; -533.000
216.494; -137.100; -939.000; -867.000
216.639; -120.625; -823.000; -888.000
216.784;  -79.650; -577.000; -525.000
216.929;   55.900;  392.000;  281.000
217.073;  -13.550; -244.000;  -31.000
217.218;    4.075;   78.000;  -47.000
217.363;  -76.200; -656.000; -618.000
217.507;  -79.075; -623.000; -588.000
217.652; -115.125; -845.000; -874.000
217.797;  -94.325; -708.000; -659.000
217.942; -100.650; -856.000; -720.000
218.086;   70.800;  608.000;  539.000
218.231;  -26.275; -174.000;  -26.000
218.376;  -35.950; -337.000; -229.000
218.520;    7.200;  -41.000;   96.000
218.665;  -22.300; -338.000; -204.000
218.810;  -38.025; -275.000; -233.000
218.954;   11.500;  201.000;   35.000
219.099; -113.100; -713.000; -963.000
219.243;  -78.950; -589.000; -554.000
219.388;  -27.200; -264.000; -136.000
219.532;  -10.575; -116.000; -116.000
219.677;  -81.400; -564.000; -521.000
219.822;    2.800;   33.000;   89.000
219.966;   11.275;   17.000;  -99.000
220.111;  -32.725; -328.000;  -40.000
220.255;  -87.325; -797.000; -750.000
220.400;  -12.450; -180.000; -146.000
220.544;  -70.500; -516.000; -450.000
220.689;  -43.650; -422.000; -451.000
220.833;  -23.850; -123.000;  -58.000
220.978;  -37.550; -393.000; -563.000
221.122;   29.075;  319.000;  307.000
221.267; -113.850; -906.000; -837.000
221.411;  -59.100; -478.000; -394.000
221.555;  -17.575; -104.000;  -23.000
221.700;  -56.000; -329.000; -222.000
221.844;   42.200;  255.000;  272.000
221.989;  -31.575; -328.000; -311.000
222.133;  -34.775; -289.000; -307.000
222.277;  -21.600;    5.000;   78.000
222.422;   18.700;  227.000;  113.000
222.566;  -23.950; -381.000; -214.000
222.711;  -45.600; -414.000; -479.000
222.855;  -79.850; -643.000; -586.000
222.999;  -86.475; -642.000; -717.000
223.144;  -15.250; -195.000; -194.000
223.288;   56.850;  423.000;  251.000
223.432;   43.725;  184.000;  230.000
223.576;   13.150;  152.000;  -21.000
223.721;   49.325;  364.000;  273.000
223.865;  -56.050; -472.000; -475.000
224.009;  250.200; 1673.000; 1631.000
224.153;  -82.425; -660.000; -671.000
224.298;  -60.875; -531.000; -489.000
224.442;   -8.675;  -74.000;  -33.000
224.586;  -13.050; -169.000; -106.000
224.730;  -98.675; -858.000; -670.000
224.875;  -99.600; -739.000; -688.000
225.019;   21.225;  102.000;  188.000
225.163;   69.950;  208.000;  341.000
225.307;   23.450;   97.000;  -91.000
225.451;   53.500;  360.000;  481.000
225.595;   20.200;  264.000;  176.000
225.739;  -14.125; -170.000;  -94.000
225.884;   -5.225;   86.000;    5.000
226.028;  -96.500; -760.000; -626.000
226.172;  -45.400; -260.000; -273.000
226.316; -120.550; -941.000; -902.000
226.460;  -72.775; -645.000; -493.000
226.604;  -56.450; -406.000; -400.000
226.748;  -96.025; -836.000; -733.000
226.892;  -29.525; -227.000; -181.000
227.036;  -62.150; -537.000; -447.000
227.180;  -54.800; -551.000; -375.000
227.324;  -63.175; -561.000; -580.000
227.468; -111.325; -819.000; -717.000
227.612;    6.300;  242.000;  -28.000
227.756;  -98.425; -845.000; -698.000
227.900;   47.725;  342.000;  441.000
228.044;  -56.275; -509.000; -290.000
228.188;   60.300;  448.000;  568.000
228.332;  -75.025; -546.000; -472.000
228.476;  -20.975; -223.000; -149.000
228.620;  -20.625; -210.000; -150.000
228.764;   66.825;  431.000;  349.000
228.908;  -21.775; -155.000;   30.000
229.052;  -60.800; -615.000; -528.000
229.195;  -12.950; -172.000;   13.000
229.339;  -24.850; -235.000; -305.000
229.483;  -18.925;    5.000; -162.000
229.627;   -9.900; -156.000;  139.000
229.771;  -43.400; -218.000; -294.000
229.915;    5.500;  230.000;   79.000
230.059;  -85.050; -648.000; -663.000
230.202;  -41.275; -370.000; -317.000
230.346;   -7.775; -107.000;  107.000
230.490;  -57.825; -489.000; -521.000
230.634; -101.825; -736.000; -553.000
230.777;   71.675;  478.000;  509.000
230.921;  -51.850; -450.000; -359.000
231.065;  -38.575; -246.000; -286.000
231.209;   27.025;  261.000;  265.000
231.352;   17.100;   54.000;   40.000
231.496;   15.050;  568.000;  188.000
231.640;  -76.725; -693.000; -621.000
231.783;   56.975;  546.000;  525.000
231.927;  -40.125; -294.000; -365.000
232.071; -115.650; -962.000; -736.000
232.214; -126.300; -980.000; -764.000
232.358; -103.725; -683.000; -599.000
232.502;    0.250;  -19.000;    7.000
232.645; -123.875;-1090.000; -927.000
232.789;  -36.825; -257.000; -218.000
232.933;  -45.900; -407.000; -224.000
233.076; -127.350;-1038.000; -897.000
233.220; -101.250; -752.000; -777.000
233.363;  -82.750; -669.000; -477.000
233.507;   58.425;  371.000;  129.000
233.650;  -92.600; -764.000; -834.000
233.794;   48.450;  438.000;  461.000
233.938;  -66.875; -530.000; -362.000
234.081;   -8.725;  -93.000;   31.000
234.225;  -76.525; -631.000; -539.000
234.368; -111.900; -773.000; -723.000
234.512;  -54.025; -385.000; -299.000
234.655;  -83.275; -582.000; -555.000
234.798;  -64.325; -493.000; -466.000
234.942; -127.725; -884.000;-1002.000
235.085;  -74.800; -651.000; -443.000
235.229;  -73.325; -405.000; -410.000
235.372;  -54.750; -247.000; -191.000
235.516;  -49.200; -397.000; -321.000
235.659;   16.975;   92.000;  121.000
235.802;   10.925;  -38.000;  -22.000
235.946;   20.075;  335.000;  215.000
236.089;   34.700;  126.000;  250.000
236.233;   51.950;  275.000;  298.000
236.376;  -45.475; -235.000; -378.000
236.519;  -42.675; -297.000; -319.000
236.663;  -14.725; -215.000; -117.000
236.806; -139.275;-1029.000; -999.000
236.949;   79.850;  543.000;  431.000
237.092;   52.175;  412.000;  391.000
237.236;  -85.725; -589.000; -502.000
237.379;   55.550;  352.000;  428.000
237.522; -107.375; -879.000; -768.000
237.666;  -10.725; -271.000;   18.000
237.809; -118.300; -851.000; -823.000
237.952;   40.900;  469.000;  271.000
238.095;  -59.000; -447.000; -442.000
238.238;   89.250;  688.000;  700.000
238.382;    9.900;  166.000;  103.000
238.525;  -68.300; -598.000; -511.000
238.668; -145.300;-1060.000; -985.000
238.811;  -72.725; -638.000; -643.000
238.954;  -60.075; -483.000; -334.000
239.097;   94.150;  617.000;  664.000
239.241;   24.825;  394.000;  326.000
239.384;  -35.450; -254.000; -214.000
239.527;  -58.900; -424.000; -224.000
239.670; -156.900; -994.000;-1091.000
239.813; -109.625; -696.000; -658.000
239.956;   64.775;  579.000;  473.000
240.099; -108.925; -778.000; -725.000
240.242;   70.875;  428.000;  432.000
240.385;   50.100;  466.000;  450.000
240.528;  -74.375; -706.000; -473.000
240.671;   25.850;  189.000;  134.000
240.814;  -42.825; -441.000; -158.000
240.957; -102.150; -767.000; -578.000
241.100;  -96.750; -779.000; -755.000
241.243; -139.825;-1234.000; -893.000
241.386;  -68.325; -508.000; -379.000
241.529;  -80.750; -735.000; -547.000
241.672;  -70.325; -566.000; -495.000
241.815; -115.500; -832.000; -808.000
241.958;  -22.800; -125.000; -182.000
242.101;  -62.875; -545.000; -390.000
242.244;  -51.675; -270.000; -325.000
242.387;  -29.450; -304.000; -246.000
242.530;   61.400;  470.000;  134.000
242.673;  -51.200; -381.000; -309.000
242.815; -128.950; -925.000; -899.000
242.958;  -62.275; -482.000; -381.000
243.101;   13.500;  132.000;  187.000
243.244;  -77.675; -564.000; -521.000
243.387;  -52.275; -313.000; -316.000
243.530;  -94.375; -657.000; -674.000
243.672;   -4.725;   43.000;  -92.000
243.815;  -52.525; -355.000; -283.000
243.958;   -5.450;   98.000;  -26.000
244.101;   21.725;   59.000;  -16.000
244.243;   -8.475;  -47.000;  101.000
244.386; -111.500; -761.000; -630.000
244.529;  -20.650; -132.000; -139.000
244.672; -159.150;-1154.000; -951.000
244.814; -106.975; -621.000; -794.000
244.957;  -48.125; -380.000; -304.000
245.100;  -75.675; -489.000; -489.000
245.242;  -44.150; -387.000; -374.000
245.385;    1.850;  -59.000;  -39.000
245.528; -114.600; -871.000; -705.000
245.670;   83.150;  612.000;  634.000
245.813;  -67.275; -599.000; -547.000
245.956;  -35.425; -324.000; -275.000
246.098;  -69.675; -508.000; -650.000
246.241;    7.225;  194.000;   48.000
246.383;  -21.525; -119.000;  -73.000
246.526;  -82.425; -454.000; -525.000
246.669; -116.025; -889.000; -780.000
246.811;   10.775;  172.000;   -1.000
246.954;  -69.300; -512.000; -426.000
247.096;  -31.900;  -84.000;   -6.000
247.239;  -60.800; -482.000; -445.000
247.381;  -74.225; -647.000; -488.000
247.524;   96.150;  645.000;  679.000
247.666;    2.500;   58.000;   11.000
247.809; -114.975; -887.000; -691.000
247.951;   -6.850;  -75.000;  138.000
248.094;   18.025;  432.000;  308.000
248.236; -168.950;-1262.000;-1238.000
248.378;    1.775; -356.000;  -81.000
248.521;  -33.900; -334.000; -337.000
248.663;  -32.875; -236.000; -267.000
248.806;  -26.575; -300.000; -266.000
248.948;  -87.575; -886.000; -763.000
249.090;  -55.750; -428.000; -398.000
249.233;  -45.025; -344.000; -381.000
249.375;  -61.725; -474.000; -451.000
249.518;  -10.100;  -83.000; -133.000
249.660;   -0.725; -103.000;    3.000
249.802; -176.000;-1303.000;-1189.000
249.945;  -81.625; -612.000; -540.000
250.087; -107.225; -834.000; -768.000
250.229;  -54.150; -362.000; -480.000
250.371;  -56.025; -494.000; -439.000
250.514;  -55.400; -310.000; -244.000
250.656;   -9.300;   69.000;  102.000
250.798; -129.475; -849.000; -800.000
250.940;  -58.900; -322.000; -322.000
251.083;  -32.275; -335.000; -111.000
251.225;   52.475;  338.000;  310.000
251.367;  -47.650; -274.000; -373.000
251.509;  -26.925; -265.000; -210.000
251.651; -106.300; -731.000; -671.000
251.794;   57.625;  538.000;  632.000
251.936; -109.175; -821.000; -747.000
252.078;  -70.075; -540.000; -461.000
252.220;  -76.700; -645.000; -477.000
252.362;   85.300;  344.000;  462.000
252.504;  -68.025; -677.000; -584.000
252.646; -109.700; -875.000; -722.000
252.788;  -11.575;   14.000; -128.000
252.931;  -32.675; -257.000; -253.000
253.073;  -44.500; -376.000; -317.000
253.215;    9.150;  141.000;  122.000
253.357;  -19.475;   82.000; -153.000
253.499;  -50.250; -374.000; -234.000
253.641;  -76.000; -749.000; -594.000
253.783;  -90.150; -609.000; -527.000
253.925;  -95.075; -586.000; -591.000
254.067; -115.500; -744.000; -667.000
254.209;  -19.800; -391.000; -259.000
254.351; -117.650; -865.000; -883.000
254.493;  -71.125; -441.000; -417.000
254.635; -131.800; -936.000; -818.000
254.777;  -84.700; -752.000; -687.000
254.918;  -65.025; -512.000; -430.000
255.060;  -60.675; -551.000; -395.000
255.202;  -48.825; -473.000; -261.000
255.344;  -82.150; -658.000; -455.000
255.486;  -57.775; -471.000; -406.000
255.628; -110.375; -780.000; -781.000
255.770;  -93.950; -676.000; -536.000
255.912;  -58.000; -559.000; -468.000
256.053;  -90.300; -730.000; -508.000
256.195;  156.675; 1008.000;  903.000
256.337;  -97.575; -861.000; -595.000
256.479;   64.675;  532.000;  416.000
256.621;  -28.450; -394.000; -212.000
256.762;  -99.025; -789.000; -742.000
256.904;   61.875;  485.000;  487.000
257.046;  -57.950; -381.000; -271.000
257.188;  -31.850; -351.000; -264.000
257.329;  -82.875; -525.000; -464.000
257.471; -113.425; -939.000; -807.000
257.613;  -62.750; -584.000; -498.000
257.755; -141.050;-1073.000; -982.000
257.896;   31.975;  286.000;  392.000
258.038;  -64.850; -403.000; -352.000
258.180;  -34.850; -354.000; -279.000
258.321;  -87.025; -581.000; -457.000
258.463;   -4.300;  -71.000;  133.000
258.605;  -89.800; -562.000; -570.000
258.746; -119.225; -886.000; -772.000
258.888; -139.000;-1026.000;-1020.000
259.029;   29.700;  121.000;   -8.000
259.171;  -78.725; -614.000; -550.000
259.313;   -8.800;  -49.000;  -47.000
259.454;  -69.925; -536.000; -414.000
259.596;  -67.900; -483.000; -390.000
259.737;  -77.625; -590.000; -474.000
259.879;   46.575;  217.000;  311.000
260.020;   87.250;  901.000;  636.000
260.162;  -29.475; -146.000; -253.000
260.303; -124.675; -768.000; -687.000
260.445;  -83.375; -609.000; -613.000
260.586;   40.775;  392.000;  157.000
260.728;  -42.075; -360.000; -248.000
260.869;  -61.825; -350.000; -343.000
261.011;   81.425;  706.000;  537.000
261.152;  -56.450; -479.000; -319.000
261.293;  -82.625; -576.000; -595.000
261.435;  -24.650; -219.000; -184.000
261.576;  -55.925; -455.000; -325.000
261.718;   60.350;  420.000;  470.000
261.859; -129.325; -940.000; -949.000
262.000; -123.200; -951.000;-1016.000
262.142;  -16.225;  -52.000;  -60.000
262.283; -119.800; -808.000; -691.000
262.424;  -99.875; -666.000; -625.000
262.566; -146.975;-1161.000; -983.000
262.707; -112.950; -840.000; -830.000
262.848; -117.425; -769.000; -726.000
262.990;  -36.725; -362.000; -345.000
263.131;   84.700;  650.000;  681.000
263.272;  -12.525;  -61.000;  -41.000
263.413;  -88.400; -589.000; -561.000
263.555;  -67.200; -669.000; -143.000
263.696;  -79.400; -550.000; -641.000
263.837;  -59.275; -449.000; -551.000
263.978;   -7.050;   -5.000;  -77.000
264.119;  -60.525; -283.000; -264.000
264.261; -109.875; -847.000; -630.000
264.402;   -5.125;   33.000;   40.000
264.543;  -79.625; -509.000; -524.000
264.684;  -26.150;   61.000;  -50.000
264.825;  -67.225; -816.000; -538.000
264.966;   -8.350;  -84.000;  -67.000
265.107; -106.075; -646.000; -670.000
265.248; -128.250; -825.000; -812.000
265.390;  -19.525;  152.000;   -9.000
265.531;  -32.900; -238.000; -107.000
265.672;  -76.450; -557.000; -630.000
265.813;   56.375;  563.000;  439.000
265.954; -139.250; -959.000; -940.000
266.095;  -27.175; -372.000; -322.000
266.236; -106.350; -686.000; -548.000
266.377;  -45.025; -243.000; -297.000
266.518;  -71.775; -619.000; -547.000
266.659;   27.225;  170.000;  268.000
266.800;   -1.825;   83.000;   85.000
266.941;  -86.500; -487.000; -478.000
267.082;   28.100;  354.000;   99.000
267.223;  -57.300; -344.000; -273.000
267.364; -117.050; -892.000; -686.000
267.504;  -15.350;    3.000;  135.000
267.645;    2.150;  160.000;   67.000
267.786;  -41.500; -147.000;  -86.000
267.927;  -73.050; -473.000; -379.000
268.068;  -19.100; -186.000;  -61.000
268.209;  -42.725; -175.000; -413.000
268.350;  -51.750; -388.000; -532.000
268.490;  -92.975; -648.000; -521.000
268.631;   13.550;  127.000;  225.000
268.772; -105.400; -874.000; -647.000
268.913;  -50.325; -328.000; -476.000
269.054;   -2.900; -117.000;   12.000
269.194;  -53.050; -418.000; -402.000
269.335; -144.425;-1137.000;-1074.000
269.476;   -4.900;   33.000;  -35.000
269.617;  -55.700; -347.000; -392.000
269.757; -105.050; -713.000; -646.000
269.898; -120.800; -856.000; -613.000
270.039;  -66.650; -415.000; -405.000
270.180; -132.725; -952.000; -816.000
270.320;  -35.300; -190.000; -250.000
270.461;  -43.800; -277.000; -249.000
270.602;  -12.725; -186.000; -156.000
270.742; -127.550; -868.000; -943.000
270.883;  -72.625; -442.000; -390.000
271.023;  -43.850; -358.000; -357.000
271.164;  -71.325; -607.000; -528.000
271.305;  -98.675; -666.000; -654.000
271.445; -101.525; -722.000; -683.000
271.586;  -74.175; -462.000; -283.000
271.726;  -40.750; -397.000; -322.000
271.867;  -70.700; -594.000; -534.000
272.008;  144.875; -473.000; -285.000
272.148;  132.350;  462.000;  468.000
272.289;    0.225; -113.000; -181.000
272.429;    7.900;   19.000;  185.000
272.570;  -96.775; -633.000; -737.000
272.710;  -96.750; -825.000; -775.000
272.851;  -29.000;  113.000; -130.000
272.991; -159.600;-1173.000;-1077.000
273.131;  -71.725; -419.000; -459.000
273.272;  -89.825; -683.000; -723.000
273.412;   -0.775; -143.000;  -31.000
273.553;  -49.750; -488.000; -507.000
273.693;  120.425;  913.000;  858.000
273.834;  -97.550; -894.000; -692.000
273.974;  -80.200; -664.000; -615.000
274.114;  -88.075; -772.000; -560.000
274.255;   73.700;  414.000;  373.000
274.395;   13.700; -180.000; -125.000
274.535;   35.800;  199.000;  350.000
274.676;   32.100;  225.000;   94.000
274.816;    8.550;  110.000;   34.000
274.956;  -84.225; -624.000; -690.000
275.097;  -75.125;-1014.000; -922.000
275.237; -115.000; -913.000; -803.000
275.377; -120.000; -778.000; -689.000
275.517; -141.075; -878.000; -937.000
275.658;  -66.300; -590.000; -555.000
275.798;  -78.775; -606.000; -413.000
275.938;   29.225;  215.000;  323.000
276.078;  -91.625; -626.000; -395.000
276.218;    3.000;   99.000;  104.000
276.359; -120.025;-1026.000;-1024.000
276.499;  -66.550; -605.000; -446.000
276.639;  -24.925; -305.000; -151.000
276.779;  -40.325; -475.000; -357.000
276.919; -112.325; -783.000; -624.000
277.059;  -28.675; -261.000; -212.000
277.199;  -29.600; -357.000; -259.000
277.340;   50.825;  287.000;  175.000
277.480; -106.850; -840.000; -693.000
277.620;   22.250;  192.000;   16.000
277.760; -197.150;-1533.000;-1294.000
277.900;   15.575;  113.000;   33.000
278.040;   12.925;  137.000;  159.000
278.180;   21.250;  270.000;  170.000
278.320;    8.750;   21.000;   56.000
278.460;  -76.250; -443.000; -469.000
278.600;  -87.350; -708.000; -598.000
278.740;   41.225;  448.000;  224.000
278.880;  -63.675; -768.000; -791.000
279.020;  -10.625; -194.000; -144.000
279.160;  -91.775; -672.000; -595.000
279.300; -125.100; -926.000; -873.000
279.440;  -91.200; -709.000; -622.000
279.579;  -31.900;-1014.000; -929.000
279.719;  -53.975; -410.000; -394.000
279.859;   60.225;   -4.000;   41.000
279.999;   14.375; -208.000;  101.000
280.139;  -21.025; -435.000; -387.000
280.279;  -82.225; -708.000; -745.000
280.419;  -24.375; -229.000; -147.000
280.559;  -37.025; -259.000; -180.000
280.698;  -86.725; -790.000; -639.000
280.838; -101.525; -778.000; -800.000
280.978; -109.950; -846.000; -790.000
281.118; -107.125; -811.000; -704.000
281.257;   -5.225;   24.000;    6.000
281.397; -127.225;-1094.000; -960.000
281.537;  -91.300; -599.000; -712.000
281.677;  -18.650; -150.000; -101.000
281.816;  -81.100; -700.000; -630.000
281.956;  -29.775; -193.000; -257.000
282.096;  -70.550; -539.000; -396.000
282.235; -104.150; -672.000; -638.000
282.375;  -28.600; -243.000;  -98.000
282.515; -100.575; -715.000; -707.000
282.654;    8.800;   29.000;  106.000
282.794;   17.525;  388.000;  244.000
282.934;  -64.150; -530.000; -491.000
283.073; -122.375;-1030.000; -857.000
283.213;  -55.925; -460.000; -467.000
283.353;  -37.150; -408.000; -349.000
283.492;  -47.025; -264.000; -296.000
283.632;  -52.950; -254.000; -168.000
283.771; -105.975; -859.000; -730.000
283.911;  -62.200; -369.000; -260.000
284.050; -120.050; -794.000; -748.000
284.190; -155.400;-1229.000;-1096.000
284.329; -131.425;-1055.000; -964.000
284.469;  -74.725; -516.000; -591.000
284.608;  -70.500; -559.000; -598.000
284.748;  -82.825; -614.000; -570.000
284.887;   -3.850;  -87.000;  -20.000
285.027; -124.175; -844.000; -892.000
285.166;  -31.225; -192.000; -249.000
285.306;   10.300; -116.000;  -33.000
285.445;  -52.550; -229.000; -343.000
285.584;  -87.425; -630.000; -494.000
285.724;  -50.525; -282.000; -322.000
285.863; -104.075; -857.000; -507.000
286.002;  -53.350; -366.000; -276.000
286.142; -112.975; -715.000; -622.000
286.281;  -75.625; -525.000; -493.000
286.420;  -71.050; -554.000; -417.000
286.560;  107.625;  653.000;  623.000
286.699; -144.925; -958.000; -912.000
286.838;  -86.150; -590.000; -591.000
286.978;  -88.175; -533.000; -537.000
287.117; -134.225;-1085.000; -950.000
287.256;  -29.575; -228.000; -211.000
287.395;  -54.300; -197.000; -378.000
287.535;  -48.425; -370.000; -298.000
287.674;  -85.025; -509.000; -484.000
287.813;   57.400;  661.000;  533.000
287.952; -120.600;-1010.000; -871.000
288.091; -148.625;-1049.000; -915.000
288.231;    8.075;   13.000;   15.000
288.370; -177.900;-1217.000;-1200.000
288.509;  -99.400; -728.000; -645.000
288.648;  -94.600; -770.000; -548.000
288.787;  -38.550; -243.000;  -87.000
288.926;  -56.675; -454.000; -475.000
289.065;   97.100;  859.000;  672.000
289.204;  -49.650; -377.000; -217.000
289.344; -102.575; -791.000; -690.000
289.483;   22.450;  416.000;  304.000
289.622;  -32.475; -291.000; -149.000
289.761;  -10.500; -309.000; -166.000
289.900; -128.475; -785.000; -626.000
290.039;  -26.300;  -12.000;  -95.000
290.178;  -42.225; -274.000; -180.000
290.317;  -75.125; -618.000; -479.000
290.456;  -68.850; -463.000; -451.000
290.595; -139.850; -961.000; -833.000
290.734; -151.375; -904.000; -891.000
290.873;  -71.700; -456.000; -420.000
291.011; -123.800; -833.000; -843.000
291.150; -107.300; -770.000; -682.000
291.289;  -25.850; -343.000; -110.000
291.428;  -96.650; -599.000; -480.000
291.567;  -61.950; -370.000; -442.000
291.706;   -6.975;  109.000;  154.000
291.845;  -89.525; -597.000; -505.000
291.984; -155.825;-1234.000;-1061.000
292.122;   58.075;  602.000;  582.000
292.261;   52.500;  620.000;  463.000
292.400;    4.975; -144.000;  211.000
292.539; -115.800; -959.000; -813.000
292.678;  -55.550; -325.000; -300.000
292.816; -153.525;-1136.000; -965.000
292.955;  -88.800; -844.000; -684.000
293.094;   -7.425; -173.000; -337.000
293.233;  -54.000; -556.000; -400.000
293.371;  -32.250; -225.000;  -84.000
293.510; -121.275; -866.000; -780.000
293.649; -124.925; -959.000; -924.000
293.787;  -79.725;-1083.000;-1012.000
293.926;   -3.150; -113.000;  -32.000
294.065;  -48.775; -379.000; -290.000
294.203;   38.675;  298.000;  406.000
294.342;   18.925;   74.000;  156.000
294.481; 5511.950;51180.000; -836.000
294.619;  -44.475; -425.000; -582.000
294.758; -145.925;-1230.000;-1137.000
294.896;   56.300; -125.000;    5.000
295.035; -136.475;-1040.000;-1006.000
295.174; -136.325;-1082.000; -954.000
295.312;  -35.025; -323.000; -203.000
295.451;  -31.825; -307.000; -428.000
295.589;  -49.425; -389.000; -518.000
295.728;    2.675; -292.000; -165.000
295.866;    3.400;  -36.000;  -51.000
296.005;  -77.725; -584.000; -341.000
296.143;  -78.325; -558.000; -596.000
296.282; -120.800; -957.000; -881.000
296.420;  -87.650; -657.000; -557.000
296.559;  -94.075; -892.000; -633.000
296.697;    7.425; -847.000; -665.000
296.835;   15.750;-1141.000;-1002.000
296.974;   32.925;  -23.000;   39.000
297.112;   -5.725; -443.000; -504.000
297.251;  -88.400; -815.000; -755.000
297.389;   46.250; -576.000; -438.000
297.527;   30.325; -145.000;  -83.000
297.666;  -66.625; -486.000; -438.000
297.804;  -46.250; -404.000; -264.000
297.942;  -16.575; -136.000; -161.000
298.081;   -1.500; -183.000;   63.000
298.219;   50.075;  -17.000;  -19.000
298.357;   40.325; -144.000;  -71.000
298.495;   -4.225; -810.000; -812.000
298.634;   77.350;  245.000;  219.000
298.772;   41.475; -220.000; -338.000
298.910;  -37.925; -309.000; -182.000
299.048;  -24.675; -130.000; -153.000
299.187;  -45.750; -350.000; -250.000
299.325;    2.725;   52.000;  122.000
299.463;   27.525; -389.000; -299.000
299.601;   83.125; -327.000; -271.000
299.739; -113.225; -908.000; -883.000
299.877;  -90.525; -791.000; -703.000
300.016;  -49.750;-1095.000; -935.000
300.154;  128.225;  -19.000; -161.000
300.292;   41.300; -428.000; -348.000
300.430;    7.500; -408.000; -291.000
300.568;  -99.900; -940.000; -874.000
300.706;  -59.350; -366.000; -469.000
300.844; -106.550;-1108.000; -979.000
300.982;  112.875;  246.000;  282.000
301.120; -110.975; -965.000; -866.000
301.258;  -87.400; -812.000; -705.000
301.396;   21.600;  104.000;  -41.000
301.534;   46.200; -218.000; -293.000
301.672;  -29.175; -664.000; -521.000
301.810;   -6.925; -613.000; -545.000
301.948;   97.650;   53.000;  149.000
302.086;  526.550; -250.000;  -32.000
302.224;  802.725; -610.000; -585.000
302.362;   10.675; -558.000; -622.000
302.500;  -35.700; -923.000; -893.000
302.638;   86.350;  128.000;  245.000
302.776;  -18.900; -352.000; -408.000
302.913;   34.475;  447.000;  236.000
303.051;  -25.975;  -86.000;  -23.000
303.189;   37.425;   90.000;  118.000
303.327;  -51.275; -341.000; -256.000
303.465;  -80.825; -832.000; -588.000
303.603;  -96.825; -805.000; -604.000
303.740;   69.225;  417.000;  241.000
303.878;   11.700; -800.000; -759.000
304.016; -105.550; -915.000; -790.000
304.154; -125.325;-1123.000;-1152.000
304.291;  -49.975; -505.000; -554.000
304.429;    9.675;  102.000;   74.000
304.567; -136.750; -908.000; -893.000
304.705;  -57.125; -408.000; -515.000
304.842;   60.350; -616.000; -540.000
304.980;   56.350;  215.000;   35.000
305.118;   22.700; -367.000; -365.000
305.255;  -89.000; -945.000; -927.000
305.393;   44.150;  178.000;  239.000
305.531; -107.650;-1173.000; -956.000
305.668;  -76.450; -663.000; -582.000
305.806;   89.425; -358.000; -439.000
305.943;   84.200; -629.000; -637.000
306.081;   49.225; -378.000; -267.000
306.219; -106.450; -863.000; -748.000
306.356;    7.750;  158.000;   27.000
306.494;  102.225;  981.000;  761.000
306.631;    6.450;  -11.000;  -55.000
306.769;  -17.125; -613.000; -485.000
306.906;  -20.075; -284.000; -258.000
307.044;  -71.250; -473.000; -488.000
307.181;  -66.650; -410.000; -332.000
307.319;    2.750;  112.000;   87.000
307.456; -170.925;-1191.000;-1153.000
307.594; -116.350; -980.000; -727.000
307.731;  -11.850; -371.000; -164.000
307.868;  -12.350;  -15.000;   20.000
308.006; -125.500; -961.000; -847.000
308.143;  -89.900; -618.000; -330.000
308.281;  111.850;  -37.000; -254.000
308.418;  -45.775; -748.000; -640.000
308.555;  -67.200; -400.000; -250.000
308.693;  -81.025; -577.000; -573.000
308.830; -109.025; -712.000; -657.000
308.967;  -28.975; -215.000;  -95.000
309.105;  -53.225; -507.000; -396.000
309.242;   -5.000; -468.000; -367.000
309.379;  208.650; -577.000; -655.000
309.517;  -83.975; -936.000; -948.000
309.654; -111.350; -910.000; -734.000
309.791;  -77.400; -662.000; -580.000
309.928; -119.050; -977.000; -914.000
310.065;  172.575;  819.000;  697.000
310.203;  -19.275; -825.000; -850.000
310.340;  -22.850; -465.000; -321.000
310.477;  -89.175; -412.000; -516.000
310.614;  -72.625; -383.000; -473.000
310.751;  -84.800; -427.000; -518.000
310.889;  -29.400;    1.000;   11.000
311.026; -151.700;-1161.000; -939.000
311.163;  -54.625; -386.000; -380.000
311.300;  -75.650; -512.000; -479.000
311.437;  -95.150; -658.000; -619.000
311.574; -156.100;-1226.000; -985.000
311.711;  -69.850; -595.000; -433.000
311.848;  -51.400; -380.000; -388.000
311.985;    7.150;  270.000;   93.000
312.122; -101.200; -932.000; -762.000
312.259; -134.500; -941.000; -994.000
312.396;  -87.475; -508.000; -551.000
312.533; -103.225; -812.000; -790.000
312.670; -142.950;-1070.000; -898.000
312.807;  -47.575; -352.000; -367.000
312.944;  -87.025; -513.000; -611.000
313.081;  -41.800; -150.000; -415.000
313.218; -105.425;-1111.000; -867.000
313.355;    7.375; -531.000; -449.000
313.492;    1.450; -455.000; -292.000
313.629;  134.275;  815.000;  735.000
313.766; -162.150;-1176.000;-1008.000
313.902;  -10.450; -186.000;   21.000
314.039;  -56.125; -372.000; -289.000
314.176;   20.650;  286.000;  192.000
314.313;  -76.150; -569.000; -473.000
314.450;  -98.175; -788.000; -684.000
314.587;  -62.875; -468.000; -480.000
314.723;   -7.075;  -78.000;  130.000
314.860;   29.700;  318.000;  332.000
314.997;   23.325;  223.000;  142.000
315.134;  -40.950; -385.000; -368.000
315.270;  -57.375; -480.000; -496.000
315.407; -138.525;-1094.000; -967.000
315.544;  -56.050; -657.000; -538.000
315.681;  -68.000; -681.000; -565.000
315.817;   14.525; -133.000; -176.000
315.954;    4.400; -613.000; -392.000
316.091; -132.425;-1045.000;-1023.000
316.227;  -32.250;  -71.000; -179.000
316.364;    6.025;   23.000;    6.000
316.500;  -44.850; -113.000; -300.000
316.637;  -57.725; -181.000; -302.000
316.774;  -79.025; -625.000; -358.000
316.910;  -98.175; -598.000; -629.000
317.047;  -62.800; -487.000; -351.000
317.183;  -62.975; -435.000; -566.000
317.320;  -14.700; -367.000; -321.000
317.456;  -78.975; -733.000; -805.000
317.593;  -88.125; -598.000; -641.000
317.729;   -4.500;  168.000;  -67.000
317.866; -194.725;-1434.000;-1285.000
318.002; -104.875; -708.000; -948.000
318.139;  -99.425; -883.000; -867.000
318.275; -118.650;-1003.000; -738.000
318.412;  -60.050; -517.000; -336.000
318.548;  -45.425; -751.000; -720.000
318.685;  -94.525; -985.000; -888.000
318.821;  -84.325; -762.000; -735.000
318.957;   -7.500;   34.000;  -23.000
319.094;   37.800;  297.000;  154.000
319.230;  -77.425; -756.000; -742.000
319.367;  103.400; -471.000; -520.000
319.503;   37.725; -538.000; -436.000
319.639;  -99.500; -877.000; -793.000
319.775;  -63.150; -750.000; -685.000
319.912;  -59.850; -424.000; -519.000
320.048; -107.725;-1184.000;-1184.000
320.184;   63.975;   59.000;   70.000
320.321;  -71.825; -497.000; -467.000
320.457;   65.000;  475.000;  662.000
320.593;  -57.750; -375.000; -382.000
320.729; -116.375; -732.000; -734.000
320.866;  -67.250; -577.000; -635.000
321.002;  -78.125; -759.000; -809.000
321.138;  -12.675; -135.000; -211.000
321.274;   60.750; -148.000; -115.000
321.410;  -36.825; -585.000; -353.000
321.546;  -41.075;-1011.000; -911.000
321.683;   48.525;  400.000;  185.000
321.819;  -11.800;  -48.000; -117.000
321.955; -109.775; -743.000; -722.000
322.091;  -50.650; -585.000; -540.000
322.227;  -11.850; -382.000; -202.000
322.363;  -17.625; -320.000; -215.000
322.499;  -47.675; -343.000; -331.000
322.635;  145.700;  636.000;  443.000
322.771;   22.050; -139.000;   12.000
322.907;   83.950;  129.000;  327.000
323.043;  -32.475; -115.000; -206.000
323.179;  -46.000; -394.000; -363.000
323.315;  -10.275; -401.000; -371.000
323.451;   63.650; -328.000; -236.000
323.587;   63.875;  -60.000;  -77.000
323.723;   17.075; -682.000; -601.000
323.859;   -9.450; -258.000;  -76.000
323.995;  -33.750; -467.000; -409.000
324.131; -132.150; -967.000; -892.000
324.267;  -46.225; -254.000; -276.000
324.402; -125.700; -960.000; -983.000
324.538;  -15.475; -279.000; -104.000
324.674;   11.425;  164.000;   77.000
324.810;   87.900;  226.000;  308.000
324.946;  -26.050; -810.000; -658.000
325.082;  -83.100; -568.000; -475.000
325.217;  -11.950;  -62.000;   16.000
325.353; -100.125; -764.000; -659.000
325.489;  -87.975; -540.000; -506.000
325.625;  -81.975; -579.000; -525.000
325.760;   63.325;  517.000;  376.000
325.896;  -30.800; -515.000; -702.000
326.032;  -45.425; -403.000; -352.000
326.168;  -72.275; -462.000; -369.000
326.303;  -59.525; -352.000; -461.000
326.439;  -21.550; -336.000; -276.000
326.575;    3.975; -190.000;  -29.000
326.710;   -6.175; -156.000;  -30.000
326.846;  -14.200;  146.000;  103.000
326.982;  -96.750; -530.000; -548.000
327.117;  -87.325; -481.000; -442.000
327.253;  -86.950; -745.000; -742.000
327.388; -120.350;-1137.000;-1153.000
327.524;  -64.850; -811.000; -578.000
327.659;  -25.350;  -58.000;  -22.000
327.795;  -19.975;   69.000;   45.000
327.931;  -89.375; -723.000; -499.000
328.066;  -38.300; -417.000; -276.000
328.202;  -16.850;   12.000; -129.000
328.337;   93.750;  957.000;  713.000
328.473;   35.775;  -12.000;  -74.000
328.608;  -30.950; -256.000; -267.000
328.743;  -92.300; -799.000; -664.000
328.879;    3.750;  214.000;  114.000
329.014;  -45.950; -102.000; -122.000
329.150;  -96.575; -358.000; -483.000
329.285;  -86.275; -465.000; -466.000
329.421;  -57.900; -548.000; -246.000
329.556;  -15.700;  -36.000;   85.000
329.691;  -97.975; -633.000; -615.000
329.827; -100.250; -626.000; -480.000
329.962;  -54.800;  131.000; -301.000
330.097;  -94.000; -673.000; -585.000
330.233;  -54.725; -410.000; -223.000
330.368; -127.700; -839.000; -628.000
330.503;  -24.750;    3.000;   98.000
330.638;    3.800;  -93.000; -125.000
330.774;  -63.000; -609.000; -530.000
330.909;  -48.325; -434.000; -244.000
331.044; -100.775; -714.000; -708.000
331.179; -171.675;-1217.000;-1109.000
331.315;   -0.500;   77.000;   20.000
331.450;   16.225;  157.000;  285.000
331.585; -100.675; -805.000; -706.000
331.720;  -85.800; -510.000; -460.000
331.855;  -16.850;  -35.000; -102.000
331.990;  256.850;   62.000;  138.000
332.126;  118.050; -110.000;   71.000
332.261;  -12.275; -379.000; -265.000
332.396;  -17.875; -135.000; -242.000
332.531;  -96.075;-1074.000;-1031.000
332.666;   33.175; -519.000; -363.000
332.801; -107.550; -726.000; -807.000
332.936;  -25.825; -192.000; -122.000
333.071; -124.325; -870.000; -817.000
333.206;   11.350;  307.000;  379.000
333.341;   35.350;  344.000;  418.000
333.476;  -94.525; -627.000; -623.000
333.611;  -30.725; -251.000; -173.000
333.746;  -57.625; -381.000; -464.000
333.881; -122.775; -973.000; -935.000
334.016; -134.450; -936.000; -917.000
334.151; -115.325; -746.000; -702.000
334.286;   25.400;  152.000;  186.000
334.421;  -17.650; -125.000; -178.000
334.556;  -81.975; -611.000; -567.000
334.690;  -87.900; -631.000; -577.000
334.825;   61.350;  381.000;   83.000
334.960;  -70.525; -285.000; -413.000
335.095;   -8.075;  135.000;  -91.000
335.230;  -94.175; -722.000; -738.000
335.365; -142.600;-1084.000; -990.000
335.499; -129.675;-1108.000;-1037.000
335.634;    7.175;    9.000;  534.000
335.769; -101.675; -755.000; -720.000
335.904;  -82.075; -603.000; -561.000
336.038;  -51.600; -735.000; -657.000
336.173; -134.575;-1206.000;-1194.000
336.308;   -2.925; -116.000; -189.000
336.443;   -1.025; -544.000; -634.000
336.577;  -85.375; -936.000; -787.000
336.712;   53.100;   -4.000;  -12.000
336.847;  -50.250; -724.000; -607.000
336.981;   45.300; -272.000; -208.000
337.116;  261.200;  615.000;  501.000
337.250;  107.200; -434.000; -421.000
337.385;  263.850; -297.000; -208.000
337.520;  104.775; -632.000; -603.000
337.654;  -38.950; -215.000; -126.000
337.789; -126.625; -989.000; -933.000
337.923;  -26.650; -104.000; -205.000
338.058; -106.950; -673.000; -738.000
338.192;  -34.075; -611.000; -488.000
338.327;  -17.650;  -18.000; -155.000
338.461;  -54.850; -299.000; -469.000
338.596; -109.775; -780.000; -638.000
338.730; -104.425; -767.000; -803.000
338.865;   93.475;  -46.000; -140.000
338.999;  -34.075; -846.000; -702.000
339.134;  -33.125; -634.000; -536.000
339.268;   13.300; -741.000; -603.000
339.403;  353.700; -740.000; -775.000
339.537;  131.400; -894.000; -820.000
339.671; -120.600; -829.000; -813.000
339.806;  -65.575; -556.000; -512.000
339.940;    7.350; -261.000; -235.000
340.074; -107.750; -685.000; -510.000
340.209;  -51.975; -351.000; -230.000
340.343;  -97.750; -517.000; -573.000
340.477;  139.350;  998.000; 1036.000
340.612;  -52.500;-1033.000; -900.000
340.746;  124.850; -199.000; -243.000
340.880;  -81.975; -924.000; -785.000
341.014;  -42.475;  -45.000; -154.000
341.149; -127.700; -756.000; -718.000
341.283; -135.525; -839.000; -754.000
341.417; -113.800;-1124.000; -938.000
341.551;   80.925; -768.000; -708.000
341.685;  -51.575; -633.000; -611.000
341.820;  -67.600; -562.000; -493.000
341.954;  -52.050; -218.000; -349.000
342.088; -156.925;-1102.000;-1019.000
342.222;   45.525;  565.000;  618.000
342.356;  -72.300; -395.000; -335.000
342.490; -108.325; -880.000; -841.000
342.624;  -51.825; -339.000; -242.000
342.758;  -26.175; -364.000; -312.000
342.892;  -74.775; -710.000; -585.000
343.026;  -36.050;  -58.000; -116.000
343.160;  -74.425; -426.000; -376.000
343.294;  -76.000; -474.000; -337.000
343.428;  -49.625; -488.000; -448.000
343.562;  -14.575; -172.000;  -23.000
343.696;  -36.125; -385.000; -314.000
343.830;  -11.475; -362.000; -356.000
343.964;   -2.450; -231.000; -168.000
344.098;  763.750;  199.000;   70.000
344.232;  632.125; -266.000; -127.000
344.366;   86.875; -567.000; -453.000
344.500;   30.000; -665.000; -744.000
344.634;   18.200; -324.000; -164.000
344.768;  -37.875; -531.000; -341.000
344.902;   19.125;  278.000;  256.000
345.035;  -77.125; -556.000; -496.000
345.169; -125.025; -933.000; -656.000
345.303;  -79.575; -308.000; -482.000
345.437;  -83.000; -826.000; -717.000
345.571;  -79.925; -675.000; -594.000
345.704;  -68.525; -309.000; -532.000
345.838;  -20.275; -331.000; -284.000
345.972;  -36.825; -543.000; -495.000
346.106;  156.075; -179.000; -190.000
346.239;  401.775; -312.000; -243.000
346.373;   -8.100; -343.000; -302.000
346.507; -133.350; -950.000; -962.000
346.640;  100.400;  -30.000;   13.000
346.774;  -52.000; -650.000; -797.000
346.908;  -35.150; -138.000;  -11.000
347.041;  -85.425; -646.000; -593.000
347.175;    0.575;  259.000;   27.000
347.309;  -70.925; -698.000; -628.000
347.442; -107.375; -883.000; -732.000
347.576;  241.825;  670.000;  668.000
347.709;  148.475; -123.000;  -52.000
347.843;  -93.175; -933.000; -825.000
347.976;   19.500;  235.000;  294.000
348.110; -175.750;-1268.000;-1186.000
348.243; -105.275; -679.000; -772.000
348.377;    1.925;  -26.000;   60.000
348.510;   37.075;  403.000;  540.000
348.644;  -28.000;  -37.000; -159.000
348.777;   -0.050;  180.000;  191.000
348.911;  -34.500; -142.000; -112.000
349.044;  147.575;  471.000;  448.000
349.178;  102.750;-1069.000;-1006.000
349.311;  105.300;  141.000;  255.000
349.444;    5.325; -927.000; -813.000
349.578;  -34.400; -347.000; -200.000
349.711; -101.050; -959.000; -862.000
349.845;  -25.975; -661.000; -591.000
349.978; -152.725;-1224.000;-1137.000
350.111;  -87.900; -546.000; -612.000
350.244;  -78.475; -596.000; -700.000
350.378;  -17.625; -392.000; -393.000
350.511;  -66.850; -393.000; -426.000
350.644; -121.675; -808.000; -806.000
350.778;   14.400;  168.000;  104.000
350.911;   -4.800;  134.000;  140.000
351.044;  -98.275; -685.000; -615.000
351.177;  -36.525; -321.000; -281.000
351.310;  -27.375;    3.000; -131.000
351.444;  -93.700; -888.000; -788.000
351.577;   96.575;  140.000;   90.000
351.710;   76.950;  593.000;  417.000
351.843;  -34.175; -165.000;  -77.000
351.976;  -13.900;  149.000;  -79.000
352.109;  -91.300; -621.000; -612.000
352.242;  -44.675; -464.000; -419.000
352.376;  -67.500; -580.000; -636.000
352.509;  117.675; -437.000; -356.000
352.642;  -24.900; -654.000; -604.000
352.775;   46.525; -141.000;  -98.000
352.908; -125.475; -933.000; -904.000
353.041; -112.575; -814.000; -824.000
353.174;  -66.000; -551.000; -424.000
353.307;  -98.825; -753.000; -764.000
353.440;   73.900;  541.000;  453.000
353.573; -132.875; -957.000;-1008.000
353.706;  -41.675; -384.000; -558.000
353.839;  -24.075; -264.000; -220.000
353.971;  -86.700; -657.000; -512.000
354.104; -104.050; -896.000; -835.000
354.237;  -36.775; -627.000; -662.000
354.370; -102.550; -846.000; -879.000
354.503; -185.150;-1231.000;-1308.000
354.636;  -58.850; -529.000; -348.000
354.769; -132.425; -937.000; -860.000
354.902;  -20.850; -230.000; -139.000
355.034;  -34.100; -164.000; -220.000
355.167;  -41.275; -262.000; -162.000
355.300;  -96.350;-1061.000; -880.000
355.433;  983.700;  -71.000;  -14.000
355.565; 1523.725; -402.000; -384.000
355.698;  400.550; -356.000; -296.000
355.831;   -3.550; -882.000; -801.000
355.964;   60.350; -285.000; -170.000
356.096;  -81.625; -856.000; -843.000
356.229;  -17.475; -523.000; -530.000
356.362;  326.475; -373.000; -266.000
356.494;  595.450; -229.000; -162.000
356.627;  430.750;  269.000;  377.000
356.760;  633.400;  120.000;   53.000
356.892;  985.375; -286.000; -601.000
357.025;  570.200;  403.000;  389.000
357.157;  496.400; -167.000; -179.000
357.290;  710.675; -856.000; -713.000
357.423;  204.300; -667.000; -556.000
357.555;   91.100; -217.000; -228.000
357.688;  121.225; -483.000; -364.000
357.820;  406.525; -870.000; -877.000
357.953; 3290.400; -563.000; -589.000
358.085;  671.325; -632.000; -612.000
358.218;  840.900;-1131.000; -932.000
358.350;  156.925;  -58.000;  312.000
358.483; -118.950;-1300.000;-1187.000
358.615;  -60.825;-1182.000;-1078.000
358.747;  -86.000;-1187.000;-1058.000
358.880;  -10.450; -810.000; -744.000
359.012;   -5.975; -376.000; -202.000
359.145;  -53.200; -480.000; -511.000
359.277;   51.525; -962.000; -913.000
359.409; 2704.450;  536.000;  231.000
359.542;  692.925; -738.000; -688.000
359.674;   64.450;   46.000;   13.000
359.806;  -69.425; -565.000; -438.000
359.939;  -51.125; -617.000; -516.000
360.071;   -5.150; -583.000; -579.000
360.203;  -34.625; -411.000; -364.000
360.335;   51.650;  164.000;  -16.000
360.468;  167.675; -249.000; -307.000
360.600; 2208.600; -547.000; -454.000
360.732; 2951.950; -546.000; -423.000
360.864;  391.150;-1216.000;-1044.000
360.996;  201.725; -516.000; -554.000
361.129;   19.775; -389.000; -598.000
361.261;    9.050;  110.000; -113.000
361.393;  -34.325; -252.000; -214.000
361.525;    5.550;   94.000;  244.000
361.657;  -51.125; -821.000; -703.000
361.789;   -6.475; -139.000; -155.000
361.921;  142.750; -642.000; -593.000
362.053;  212.975;  524.000;  541.000
362.185;   34.225;  288.000;   72.000
362.318; -107.050; -709.000; -705.000
362.450;   78.575;  294.000;  444.000
362.582;   32.950; -913.000; -870.000
362.714;  -44.825; -353.000; -332.000
362.846;  -96.725; -606.000; -490.000
362.978; -141.550; -941.000; -811.000
363.109;   16.625; -161.000; -260.000
363.241;  331.325; -739.000; -749.000
363.373;  415.450; -649.000; -564.000
363.505;  696.175; -186.000;  -91.000
363.637;  160.425; -787.000; -601.000
363.769; -142.325;-1067.000;-1080.000
363.901;  -75.050; -596.000; -654.000
364.033; -134.725;-1103.000;-1062.000
364.165;  -16.025; -283.000; -283.000
364.296;   60.500; -316.000; -177.000
364.428;   68.800;-1344.000;-1220.000
364.560;  -64.775; -679.000; -661.000
364.692;  -66.025; -738.000; -835.000
364.824;  186.300; -588.000; -456.000
364.955;  412.175; -402.000; -564.000
365.087; 1001.900;-1097.000; -852.000
365.219;   23.125; -686.000; -816.000
365.351;  -73.650; -526.000; -572.000
365.482;   51.700;  300.000;  240.000
365.614;  -47.575; -402.000; -314.000
365.746; -120.475; -729.000; -752.000
365.877; -101.300; -706.000; -672.000
366.009;  285.525;  -35.000;  -62.000
366.141;  -86.100;-1249.000;-1134.000
366.272; -117.775; -803.000; -719.000
366.404; -112.000;-1005.000; -874.000
366.535;  -15.175; -139.000;  -12.000
366.667; -102.675; -644.000; -649.000
366.799;   27.200;  353.000;  203.000
366.930; -119.050; -862.000; -996.000
367.062;  111.175; -639.000; -613.000
367.193;  155.350; -872.000; -842.000
367.325;  -65.150; -580.000; -684.000
367.456;   13.200; -246.000;   31.000
367.588;  164.900; -371.000; -318.000
367.719;   27.950;  -44.000;  -45.000
367.851;  -30.425; -222.000; -241.000
367.982;  -87.725; -875.000; -732.000
368.113;   65.350; -475.000; -358.000
368.245; -133.375; -960.000; -841.000
368.376;  -41.775; -254.000; -302.000
368.508;  -25.150; -188.000; -263.000
368.639; -150.450;-1166.000;-1034.000
368.770;  -28.900; -670.000; -589.000
368.902;  -79.225; -836.000; -926.000
369.033; -117.625; -906.000; -855.000
369.164;  -55.750; -720.000; -653.000
369.296; -106.725; -452.000; -601.000
369.427;  -16.250; -209.000; -144.000
369.558;  -50.550; -593.000; -377.000
369.689;  -94.325; -721.000; -569.000
369.821; -139.875; -951.000; -845.000
369.952;  -23.825;   42.000; -108.000
370.083;  -56.550; -229.000; -108.000
370.214; -100.075; -735.000; -650.000
370.345;   -7.875;   65.000;   81.000
370.477;  -92.175; -810.000; -790.000
370.608;  180.550; -328.000; -264.000
370.739;  -74.950;-1233.000;-1292.000
370.870;  -61.725;-1102.000; -923.000
371.001;   61.175; -378.000; -467.000
371.132;  -87.000; -754.000; -735.000
371.263;  -26.725;  -42.000; -148.000
371.394; -137.950; -841.000; -748.000
371.525;   12.300;  345.000;  225.000
371.657; -107.375; -808.000; -670.000
371.788;   44.750;  103.000;  199.000
371.919;  129.525; -384.000; -304.000
372.050; 3117.175;  -91.000; -156.000
372.181;  935.400; -188.000; -294.000
372.311;  299.500;   42.000; -127.000
372.442;    7.300; -457.000; -451.000
372.573;  -35.175; -444.000; -340.000
372.704; -135.925;-1008.000; -980.000
372.835;   39.650; -228.000; -289.000
372.966;  -66.875; -646.000; -554.000
373.097;  -70.225; -575.000; -711.000
373.228;  -52.650; -717.000; -542.000
373.359;   83.300; -824.000; -536.000
373.490;  734.075; -881.000; -727.000
373.620;  914.250;-1001.000; -803.000
373.751; 1468.200; -332.000; -396.000
373.882;  632.150; -663.000; -733.000
374.013;   20.350; -449.000; -262.000
374.143;  -61.925; -581.000; -659.000
374.274; -108.875; -987.000; -908.000
374.405;  137.325; -388.000; -276.000
374.536;  351.350; -526.000; -387.000
374.666;  889.775; -759.000; -807.000
374.797;  161.975; -817.000; -868.000
374.928;  663.325; -710.000; -560.000
375.058;  707.900; -535.000; -500.000
375.189;   58.550;  -59.000;  -93.000
375.320; -108.675; -928.000;-1034.000
375.450;  -55.450; -625.000; -616.000
375.581;  -46.175; -526.000; -436.000
375.712;  -50.525; -574.000; -250.000
375.842;  228.100; -438.000; -415.000
375.973;  156.175; -554.000; -513.000
376.103;  -74.700; -665.000; -648.000
376.234;  -92.100; -531.000; -552.000
376.364;  -53.000; -944.000; -867.000
376.495;  274.775;  925.000;  529.000
376.625;  -55.100; -472.000; -485.000
376.756;   27.250; -709.000; -678.000
376.886;  -83.750;-1178.000;-1026.000
377.017;   53.650;-1048.000;-1061.000
377.147;  372.125; -786.000; -782.000
377.278;   54.050;  174.000;  228.000
377.408; -131.975; -801.000; -815.000
377.538; -103.325; -707.000; -693.000
377.669;  -76.150; -537.000; -613.000
377.799; -102.100; -645.000; -635.000
377.929;  -68.875; -610.000; -428.000
378.060; -127.200; -781.000; -847.000
378.190;  -46.050; -726.000; -531.000
378.320;  -57.225; -401.000; -406.000
378.451;  -25.075; -131.000;  -22.000
378.581;  -19.775;  -67.000; -110.000
378.711;  131.850; 1035.000;  866.000
378.841;  -41.875; -533.000; -675.000
378.972;  -99.625; -871.000; -751.000
379.102;  -31.075; -652.000; -579.000
379.232;  -38.425; -126.000;  -73.000
379.362; -129.500;-1001.000; -885.000
379.492;  -21.750; -373.000; -424.000
379.623;   67.275;    0.000;  111.000
379.753; -116.575;-1107.000; -974.000
379.883;  166.525;   59.000;  156.000
380.013;  -26.125;-1081.000;-1017.000
380.143; -125.975;-1097.000;-1056.000
380.273; -107.625; -985.000; -861.000
380.403;  -17.025; -344.000; -257.000
380.533;  -43.900; -651.000; -664.000
380.663;   48.850;  173.000;  128.000
380.793; -120.350;-1027.000;-1074.000
380.923;  -29.025; -103.000;  -34.000
381.053;  -92.600; -613.000; -623.000
381.183;  -34.925; -106.000; -248.000
381.313;   -8.825; -656.000; -470.000
381.443;   -2.400; -692.000; -473.000
381.573;  138.225; -402.000; -409.000
381.703;  174.925;-1249.000;-1095.000
381.833; -150.150;-1454.000;-1336.000
381.963;   90.050; -134.000;  -87.000
382.093; 1197.900; -925.000; -909.000
382.223;  334.000; -713.000; -602.000
382.353;  -22.875; -801.000; -608.000
382.482;  263.075;-1091.000; -964.000
382.612;  640.175; -872.000; -644.000
382.742;  344.250; -695.000; -622.000
382.872;  204.200; -565.000; -551.000
383.002;   50.425;  347.000; -132.000
383.131;  -28.700; -226.000; -160.000
383.261;  -58.175; -706.000; -768.000
383.391;  269.175; -552.000; -377.000
383.521; 3399.450;  451.000;  263.000
383.650;  818.725; -947.000; -904.000
383.780;  -16.550; -783.000; -656.000
383.910;  104.000;  880.000;  802.000
384.039;  -12.000; -794.000; -656.000
384.169;  138.050;-1205.000;-1017.000
384.299;  -44.675; -650.000; -662.000
384.428; -105.400; -764.000; -680.000
384.558;  -58.375; -308.000; -275.000
384.687;  -55.350; -414.000; -334.000
384.817;   -5.600;   75.000;   -2.000
384.947;    5.125; -234.000; -141.000
385.076;  251.025;  982.000;  912.000
385.206;   85.925;  369.000;  480.000
385.335;  -52.700; -549.000; -417.000
385.465; -100.225; -655.000; -663.000
385.594;  103.800;  -53.000;  -44.000
385.724;  305.675; -868.000; -838.000
385.853;   67.625; -296.000; -270.000
385.982; 1135.750; -743.000; -787.000
386.112; 1760.600;-1052.000; -871.000
386.241;  105.050; -307.000; -312.000
386.371;   -7.275; -174.000;  -87.000
386.500;  -16.850; -825.000; -789.000
386.629;    1.600; -874.000; -817.000
386.759;   66.000;  -43.000;   68.000
386.888;  -36.550; -170.000; -250.000
387.017;  -75.750; -648.000; -620.000
387.147; -111.550; -771.000; -798.000
387.276;  -16.450; -410.000; -397.000
387.405;  -14.150; -398.000; -342.000
387.535;  -63.375; -452.000; -361.000
387.664;  -80.875; -692.000; -620.000
387.793;   30.500; -198.000; -113.000
387.922;  414.600;  255.000;  200.000
388.052;    3.875; -576.000; -423.000
388.181;  -29.500; -342.000; -472.000
388.310;  -39.350; -889.000; -710.000
388.439;  -71.850; -749.000; -742.000
388.568;  153.125;  365.000;  244.000
388.697;  851.475; -756.000; -653.000
388.826;  156.750; -768.000; -666.000
388.956;   30.450; -285.000; -307.000
389.085;  -42.575; -347.000; -287.000
389.214; -125.000; -842.000; -872.000
389.343;  -58.550; -645.000; -413.000
389.472;  422.075;  126.000;  149.000
389.601;  506.775;   91.000;    0.000
389.730;   -9.975; -568.000; -687.000
389.859;   52.900;  226.000;   46.000
389.988;  137.775; -423.000; -408.000
390.117;  103.850; -168.000; -146.000
390.246;  -28.325; -331.000; -320.000
390.375;   57.125; -673.000; -626.000
390.504;  -64.150; -703.000; -621.000
390.633;  -96.700; -672.000; -726.000
390.761;  -87.800; -732.000; -645.000
390.890;    1.900;   -4.000; -130.000
391.019;  -36.875; -421.000; -441.000
391.148; -127.750; -826.000; -855.000
391.277;  -64.700; -576.000; -493.000
391.406;  -88.525; -821.000; -805.000
391.534;    2.600;  574.000; -301.000
391.663;  -78.500; -583.000; -645.000
391.792; -104.100; -673.000; -701.000
391.921;   55.750;   -3.000;   15.000
392.050;  114.575; -287.000; -228.000
392.178;  -71.650;-1206.000;-1061.000
392.307;   93.925; -758.000; -712.000
392.436;   42.425; -427.000; -641.000
392.564;   15.650;  166.000;   -6.000
392.693; -106.675; -860.000; -682.000
392.822;  138.925; -529.000; -534.000
392.950;   44.275; -880.000; -714.000
393.079;  260.300; -188.000; -328.000
393.208;    1.250; -488.000; -511.000
393.336;  -30.225; -170.000; -145.000
393.465;  -45.075; -317.000; -199.000
393.593;   -5.550;   62.000;   79.000
393.722; -158.850;-1121.000; -916.000
393.850;  -31.450; -188.000;  -61.000
393.979; -161.450; -926.000; -805.000
394.107;  -77.325; -517.000; -537.000
394.236;  -26.200; -570.000; -507.000
394.364;  174.175;  383.000;  206.000
394.493;  241.050; -911.000; -767.000
394.621;  -46.350; -955.000; -916.000
394.750;  736.900; -873.000; -923.000
394.878; 3019.300; -247.000; -149.000
395.007; 4122.050; -721.000; -807.000
395.135;  298.700; -790.000; -721.000
395.263;  -96.400;-1038.000;-1040.000
395.392;   -2.675;  -25.000; -107.000
395.520; -138.500; -818.000; -679.000
395.648; -103.925; -865.000; -915.000
395.777;  -30.025; -366.000; -405.000
395.905;  -68.350; -449.000; -564.000
396.033;   -5.175;  217.000;  172.000
396.162;  408.625; -399.000; -453.000
396.290;  363.725;  -17.000;   -2.000
396.418;   46.825; -555.000; -514.000
396.546;  -78.475; -571.000; -466.000
396.674; -110.850; -850.000; -878.000
396.803;   -1.650;  -72.000;  -23.000
396.931;   53.500; -179.000; -199.000
397.059;   -7.950;-1026.000; -989.000
397.187; -125.600;-1026.000; -975.000
397.315; -140.325; -884.000; -649.000
397.443; -108.475; -592.000; -443.000
397.572;  -95.825; -578.000; -424.000
397.700;  -26.875; -607.000; -614.000
397.828;    0.950;  120.000;  -90.000
397.956;  -58.275; -508.000; -478.000
398.084;  -69.000; -767.000; -626.000
398.212;   13.600;  137.000;  124.000
398.340;    2.650;  -56.000;  159.000
398.468;   -7.050; -390.000; -169.000
398.596; -138.200; -993.000; -953.000
398.724; -129.425; -762.000; -767.000
398.852; -167.300;-1024.000; -976.000
398.980;  -81.875; -560.000; -560.000
399.108;  -53.025; -982.000; -735.000
399.236;   15.775;   13.000;    8.000
399.363;    5.150;  222.000;  196.000
399.491;  -83.150; -404.000; -398.000
399.619; -113.575; -829.000; -800.000
399.747; -121.950; -859.000; -771.000
399.875;   64.050;  220.000;  234.000
400.003;  -74.675; -359.000; -284.000
400.130;  -81.625; -421.000; -341.000
400.258;  -45.700;  -83.000;   38.000
400.386;  -70.425; -352.000; -168.000
400.514;  -71.875; -526.000; -587.000
400.641;  -94.225; -928.000; -802.000
400.769; -153.025; -979.000; -888.000
400.897; -122.975; -838.000; -793.000
401.025;  -21.125; -166.000; -152.000
401.152;    0.125;  220.000;   38.000
401.280;  -86.525; -430.000; -429.000
401.408; -122.200; -712.000; -576.000
401.535; -116.050; -735.000; -758.000
401.663; -179.400;-1134.000;-1054.000
401.790;  -93.100; -514.000; -525.000
401.918;   30.250;  436.000;  405.000
402.046;  -23.350;  134.000;  122.000
402.173;  -45.125;  -18.000;    7.000
402.301;  -73.000; -519.000; -397.000
402.428;   34.300;  528.000;  383.000
402.556; -162.425;-1188.000; -913.000
402.683;  -23.800;  -20.000;   -1.000
402.811;  -24.975;  -37.000; -206.000
402.938;  -21.275;   20.000;   27.000
403.066;  142.625; -574.000; -558.000
403.193;  285.750;  299.000;  239.000
403.321;  213.325; -396.000; -574.000
403.448;  273.125;   83.000;   27.000
403.575;  102.825;  -90.000;  -46.000
403.703; -103.500; -732.000; -557.000
403.830;  -77.675; -531.000; -496.000
403.957; -131.200;-1117.000;-1023.000
404.085;    8.725;  -61.000; -172.000
404.212;  104.425;  -50.000;   63.000
404.339;  258.900; -566.000; -306.000
404.467; 6036.375; -612.000; -524.000
404.594; 3773.175; -287.000; -227.000
404.721;  795.050; -869.000; -764.000
404.848;   53.575; -113.000; -202.000
404.976; -100.075; -856.000; -783.000
405.103;  -21.675;  -14.000;  -82.000
405.230;   -6.050;  190.000;  226.000
405.357;    9.375;  117.000;   44.000
405.484;  278.250;  -49.000;    5.000
405.612;   39.650; -548.000; -563.000
405.739;  -56.100; -488.000; -243.000
405.866;   91.600;  669.000;  385.000
405.993;  -42.325; -398.000; -102.000
406.120; -143.925; -801.000; -887.000
406.247;  -69.400; -323.000; -342.000
406.374;  328.400;  540.000;  629.000
406.501;   47.625; -632.000; -702.000
406.628;  -85.175; -621.000; -589.000
406.755;  -96.425; -803.000; -620.000
406.882;  -38.650; -228.000; -277.000
407.009; -128.100; -719.000; -628.000
407.136;   14.725; -480.000; -401.000
407.263;   69.700; -939.000; -829.000
407.390;  -92.875; -692.000; -614.000
407.517; -193.000;-1139.000;-1187.000
407.644;  -49.325; -332.000; -256.000
407.771; -137.700; -249.000; -287.000
407.898;   -1.000;  168.000;  328.000
408.025;  -77.325; -421.000; -313.000
408.151;   -3.425;   82.000;  153.000
408.278;  -62.775; -267.000; -216.000
408.405; -126.425; -931.000; -899.000
408.532;  -75.175; -549.000; -542.000
408.659; -118.675; -677.000; -648.000
408.785; -197.475;-1298.000;-1170.000
408.912;  -72.700; -412.000; -296.000
409.039; -112.000; -610.000; -686.000
409.166; -116.800; -591.000; -555.000
409.292; -113.400; -571.000; -534.000
409.419; -111.550; -665.000; -649.000
409.546;  -78.725; -431.000; -192.000
409.672; -105.950; -713.000; -545.000
409.799;  -22.675;  -36.000;   34.000
409.926;  -60.325; -180.000; -179.000
410.052; -171.550;-1127.000;-1091.000
410.179;  -72.350; -368.000; -392.000
410.305;  -93.375; -375.000; -493.000
410.432;  -64.800; -220.000; -333.000
410.558;  -89.625; -305.000; -380.000
410.685; -105.325; -688.000; -431.000
410.812;  -96.450; -409.000; -588.000
410.938; -157.550; -964.000; -808.000
411.065; -101.125; -671.000; -645.000
411.191;  -33.925; -189.000; -174.000
411.317; -129.400; -823.000; -742.000
411.444;  -74.175; -317.000; -246.000
411.570;  -78.050; -339.000; -294.000
411.697; -131.300; -758.000; -752.000
411.823; -184.625; -989.000; -999.000
411.949;  -50.300;  -56.000;   17.000
412.076; -107.100; -539.000; -519.000
412.202; -136.725; -758.000; -757.000
412.329; -135.025; -798.000; -752.000
412.455; -137.025; -821.000; -657.000
412.581;  -33.725;  -15.000;  172.000
412.707;  -68.275; -540.000; -457.000
412.834;    8.600;  156.000;  219.000
412.960;  -96.750; -785.000; -784.000
413.086; -108.300; -743.000; -701.000
413.212;  116.975;  604.000;  578.000
413.339;  -76.125; -685.000; -701.000
413.465;  -29.375; -364.000; -310.000
413.591; -102.600; -757.000; -474.000
413.717;  -52.700; -358.000; -366.000
413.843; -142.550; -839.000; -861.000
413.969;  -65.650;  -47.000; -292.000
414.096; -100.900; -679.000; -679.000
414.222;  -15.175;  -33.000;   85.000
414.348;  -38.475; -652.000; -385.000
414.474;   60.025;   38.000;  -52.000
414.600;   -3.600; -126.000; -144.000
414.726;  -13.575;  -96.000;  -55.000
414.852;  -62.000; -365.000; -342.000
414.978;   16.125;  104.000;  -18.000
415.104;   54.775;   38.000;   80.000
415.230;   17.800; -329.000; -330.000
415.356;   35.550; -409.000; -514.000
415.482;  185.975;   13.000;  -35.000
415.608;  277.625; -247.000; -323.000
415.734;  965.700;   67.000;   38.000
415.860;20371.025; -875.000; -767.000
415.986;14663.250; -685.000; -607.000
416.111; 1248.475; -798.000; -652.000
416.237;  254.150; -424.000; -571.000
416.363; 1186.925; -765.000; -733.000
416.489; 4379.200; -324.000; -251.000
416.615;  467.675; -707.000; -742.000
416.741;  -30.225; -677.000; -784.000
416.866;  -86.450; -673.000; -736.000
416.992; -117.700; -801.000; -818.000
417.118;  -22.725;  -41.000;  -80.000
417.244;  -79.100; -798.000; -531.000
417.369;  -77.825; -801.000; -612.000
417.495;  -32.275; -325.000; -254.000
417.621;  -92.975;-1015.000; -803.000
417.746;   -5.000; -579.000; -572.000
417.872;   55.900; -254.000; -144.000
417.998;   38.375; -515.000; -530.000
418.123; 1123.225;-1073.000; -845.000
418.249; 5595.725; -512.000; -601.000
418.374;  775.925; -916.000; -824.000
418.500;  108.125; -383.000; -482.000
418.626;  119.450;   70.000;  -59.000
418.751;  114.500; -549.000; -448.000
418.877;  196.725; -637.000; -643.000
419.002; 1867.650; -688.000; -560.000
419.128;13091.975; -930.000; -721.000
419.253; 3166.600; -967.000; -837.000
419.379;  414.575; -391.000; -338.000
419.504;  385.875;  325.000;  415.000
419.629;  529.700; -393.000; -212.000
419.755; 3752.500; -317.000; -254.000
419.880;22377.450;  -98.000;   67.000
420.006;11926.325; -280.000; -221.000
420.131;30227.675; -662.000; -775.000
420.256; 4318.825; -315.000; -316.000
420.382;  559.775; -665.000; -687.000
420.507;   48.550; -649.000; -778.000
420.632;  100.175; -337.000; -339.000
420.758;  180.225; -251.000; -425.000
420.883;  -84.675; -876.000; -672.000
421.008; -104.150; -775.000; -619.000
421.133;  -65.250; -509.000; -467.000
421.259;  -63.675; -325.000; -259.000
421.384; -126.125; -834.000; -693.000
421.509;  -77.600;-1052.000; -862.000
421.634;  877.300; -936.000; -820.000
421.759;  364.125; -359.000; -327.000
421.885;  -75.575; -717.000; -656.000
422.010;  -69.000; -673.000; -542.000
422.135; -154.575; -695.000; -727.000
422.260;   45.575;  340.000;  280.000
422.385;  -45.650;   12.000;  -98.000
422.510;   -3.050;  151.000;  -26.000
422.635;    9.125;  -87.000;  -43.000
422.760;   70.850; -766.000; -791.000
422.885;   59.175;  -57.000;  -80.000
423.010;  -42.400; -112.000; -169.000
423.135;  -88.550; -481.000; -561.000
423.260;  -22.100; -150.000; -245.000
423.385;   61.550;  476.000;  222.000
423.510;   16.025;   71.000;  -22.000
423.635;   57.725;  133.000;   45.000
423.760;   48.850;  383.000;  328.000
423.885;   51.525;  336.000;  391.000
424.010;    1.775;  -68.000;  -13.000
424.135;  -20.275;    5.000;  -33.000
424.259;  -92.575; -654.000; -457.000
424.384;  -65.275; -279.000; -272.000
424.509;  -42.275; -260.000; -186.000
424.634; -102.925; -761.000; -623.000
424.759;  -35.625; -688.000; -544.000
424.883;  -19.000; -506.000; -527.000
425.008;  165.975; -502.000; -410.000
425.133; 2070.300; -679.000; -653.000
425.258;  947.250; -517.000; -381.000
425.382;  888.850; -867.000; -774.000
425.507; 2259.725; -487.000; -543.000
425.632;  401.375; -802.000; -663.000
425.756;  482.450; -256.000; -146.000
425.881; 7063.950; -831.000; -857.000
426.006;19034.250; -604.000; -355.000
426.130; 2897.150; -696.000; -508.000
426.255;  368.850; -611.000; -491.000
426.379;  153.375; -189.000; -577.000
426.504;  367.725;  660.000;  544.000
426.629; 4148.800; -519.000; -466.000
426.753; 2805.225;   64.000;  -46.000
426.878;  324.675; -252.000; -288.000
427.002;  158.475; -651.000; -668.000
427.127; 1624.450;  -35.000; -158.000
427.251;11886.575;  372.000;  401.000
427.375; 3331.150; -191.000; -173.000
427.500; 1988.225; -616.000; -610.000
427.624;  670.825; -234.000; -400.000
427.749;   68.925; -216.000; -225.000
427.873;  -50.975; -499.000; -412.000
427.997;  -41.075; -222.000; -230.000
428.122;   73.925;  795.000;  703.000
428.246;   54.500;  433.000;  434.000
428.371; -131.425; -869.000; -773.000
428.495; -114.225; -624.000; -646.000
428.619;  -37.925; -186.000; -117.000
428.743;   18.450;   65.000;  132.000
428.868;  -11.650; -732.000; -643.000
428.992; 1180.375; -219.000; -326.000
429.116;  460.075; -329.000; -357.000
429.240;  205.800;  419.000;  426.000
429.365;  -24.950; -454.000; -574.000
429.489;  -60.075; -638.000; -647.000
429.613;   17.750; -236.000; -177.000
429.737;   24.300; -563.000; -432.000
429.861;  273.675; -247.000; -133.000
429.985; 5756.975; -425.000; -305.000
430.109; 6321.025; -770.000; -908.000
430.234;  715.300;   76.000;  -50.000
430.358;   64.400; -250.000; -160.000
430.482;  -76.250; -672.000; -564.000
430.606;  -89.050; -655.000; -375.000
430.730;  -13.525; -437.000; -388.000
430.854;   52.400; -909.000; -835.000
430.978;  -93.350; -795.000; -764.000
431.102;  -79.550; -499.000; -422.000
431.226; -145.075; -874.000; -815.000
431.350;   25.325;  345.000;  422.000
431.474;  -94.700; -661.000; -373.000
431.597; -155.025;-1060.000; -848.000
431.721;  -83.725; -276.000; -267.000
431.845; -133.625; -704.000; -472.000
431.969;  -85.725; -304.000; -349.000
432.093;  -98.175; -395.000; -317.000
432.217;  -25.075;   32.000;   82.000
432.341;  -95.250; -523.000; -518.000
432.464;  -14.375;   96.000;   40.000
432.588;  124.700; -401.000; -329.000
432.712;   60.850;  -52.000;  -52.000
432.836;   42.425;  213.000;  263.000
432.959;  -20.150; -372.000; -311.000
433.083;  106.425;   11.000;    2.000
433.207;  386.350;  285.000;  930.000
433.330; 5306.900; -391.000; -200.000
433.454; 6513.600; -654.000; -638.000
433.578; 3740.550;  583.000;  278.000
433.701;  668.125; -623.000; -675.000
433.825;  106.025; -292.000; -299.000
433.949;  106.450;   28.000;  -72.000
434.072;   25.375; -410.000; -323.000
434.196;  -29.475; -309.000; -117.000
434.319; 3727.500;25482.000;25124.000
434.443;  708.825; -656.000; -603.000
434.566; 2733.325;  281.000;   62.000
434.690;  455.775; -637.000; -383.000
434.813;   58.750; -251.000; -173.000
434.937;  -80.925; -569.000; -696.000
435.060;  -52.825; -423.000; -332.000
435.184;  181.925; -492.000; -217.000
435.307;  111.875;  159.000;  102.000
435.431;  -27.675;  -40.000;   24.000
435.554;  -62.500; -399.000; -240.000
435.677;  -99.975; -350.000; -258.000
435.801;  -43.825;  -25.000;   49.000
435.924;  -28.900;    1.000;  -67.000
436.048; -133.600;-1019.000; -732.000
436.171;  -77.250; -240.000;  -66.000
436.294;  -23.500; -248.000; -229.000
436.417;   96.550; -963.000; -849.000
436.541;  -86.425; -814.000; -840.000
436.664;  -66.125; -242.000; -316.000
436.787;  -27.700;   13.000;  113.000
436.910; -125.775; -792.000; -422.000
437.034;    7.650;  142.000;  143.000
437.157;   23.225;  -11.000;    0.000
437.280;  -64.750; -392.000; -292.000
437.403; -110.900; -982.000; -869.000
437.526;  417.575; -903.000; -865.000
437.649; 1670.875; -505.000; -332.000
437.772;  207.750; -692.000; -540.000
437.896;   92.500;  700.000;  544.000
438.019; -107.300; -758.000; -503.000
438.142; -107.175; -596.000; -506.000
438.265;  -52.375; -639.000; -670.000
438.388;  388.825; -520.000; -410.000
438.511;   41.250; -597.000; -394.000
438.634;  -63.225; -247.000; -125.000
438.757; -140.975; -693.000; -619.000
438.880;  -31.100;  -34.000;  -57.000
439.003;  -97.900; -417.000; -437.000
439.126;  -82.925; -287.000; -167.000
439.248;  -76.625;  -98.000; -139.000
439.371;  -52.850;    9.000;  -53.000
439.494;   30.800;  510.000;  439.000
439.617;  -55.625;   65.000;  -88.000
439.740; -176.225; -968.000; -816.000
439.863; -150.700; -755.000; -595.000
439.986; -116.175; -476.000; -431.000
440.108;  -49.925; -161.000; -112.000
440.231; -156.600; -950.000; -836.000
440.354;  -57.550;  -64.000; -150.000
440.477;  -11.300; -566.000; -542.000
440.599;  -43.700; -200.000; -225.000
440.722; -123.825; -709.000; -586.000
440.845;   54.100;  751.000;  928.000
440.968; -115.075; -415.000; -311.000
441.090;  -77.650; -199.000;  -33.000
441.213; -183.425;-1021.000; -825.000
441.336;  -60.825; -159.000;   -5.000
441.458;  -75.700; -549.000; -396.000
441.581; -110.475; -628.000; -629.000
441.703;  -71.975; -152.000;   13.000
441.826; -118.025; -557.000; -400.000
441.948;  -60.275;   56.000;   51.000
442.071;   20.025;  555.000;  424.000
442.193; -126.075; -531.000; -485.000
442.316;    5.925;  152.000;   97.000
442.438;   53.575; -233.000;  -10.000
442.561;   53.625;  272.000;  262.000
442.683;  374.950; -809.000; -522.000
442.806;  862.125;   -8.000;   74.000
442.928;  -19.050; -859.000; -604.000
443.051;  -81.450; -577.000; -373.000
443.173;  -98.675; -341.000; -339.000
443.295; -103.675; -263.000; -371.000
443.418;  -70.175; -321.000;  -29.000
443.540;  -22.525; -106.000;   -4.000
443.662; -127.925; -563.000; -465.000
443.785;  -42.000;  335.000;  199.000
443.907;  -98.075; -362.000; -208.000
444.029; -132.225; -767.000; -494.000
444.152; -134.800; -644.000; -554.000
444.274;  -42.725;  -18.000;  -24.000
444.396; -115.500; -461.000; -221.000
444.518; -139.600; -691.000; -454.000
444.640; -103.450; -268.000; -111.000
444.763;  -27.325;  388.000;  249.000
444.885; -121.750; -432.000; -392.000
445.007;  -48.225;   35.000;   86.000
445.129; -124.150; -610.000; -515.000
445.251; -108.425; -372.000; -439.000
445.373; -143.525; -537.000; -386.000
445.495;   -7.575;  242.000;  350.000
445.617;   42.775;  853.000;  753.000
445.739;  -86.325; -215.000;  -97.000
445.861;  -31.000; -245.000; -112.000
445.984;  -53.050; -267.000; -101.000
446.105;  142.625; -418.000; -251.000
446.227;  465.425; -176.000;  -19.000
446.349;  -25.000; -358.000; -249.000
446.471; -114.950; -615.000; -448.000
446.593;  -82.450; -316.000;   19.000
446.715;  -31.475;  -67.000;   41.000
446.837;   56.400;  697.000;  832.000
446.959;  -97.875; -457.000; -478.000
447.081; -129.825; -628.000; -518.000
447.203;   48.375;  862.000;  834.000
447.325;  -86.525; -270.000;   42.000
447.446;  -15.250;  286.000;  530.000
447.568; -165.050; -921.000; -803.000
447.690;  -76.550; -236.000; -245.000
447.812; -149.825; -798.000; -519.000
447.933;  -46.300;  155.000;  127.000
448.055;  -76.800; -306.000; -261.000
448.177;  112.500;   31.000;   79.000
448.299;   35.900; -935.000; -727.000
448.420;    9.625;  -25.000;  159.000
448.542;  -50.575;   -3.000;   33.000
448.664;  -32.500;  109.000;  322.000
448.785;  -38.900;  265.000;   83.000
448.907;  -84.450; -614.000; -353.000
449.028;  -48.500; -771.000; -471.000
449.150;   54.300;  492.000;  589.000
449.272; -175.775;-1044.000; -913.000
449.393;   28.650;  612.000;  694.000
449.515; -154.550; -634.000; -581.000
449.636;  -60.100; -264.000; -155.000
449.758;   58.700;  763.000;  622.000
449.879; -109.100; -498.000; -396.000
450.001;  -79.500; -149.000;  -49.000
450.122;  -33.200;  -95.000;  162.000
450.244;  -17.075;   37.000;  364.000
450.365;  -99.800; -495.000; -301.000
450.486;  -34.125;   80.000;  268.000
450.608;   22.875;  393.000;  326.000
450.729;   73.950;  578.000;  645.000
450.850;   -0.600; -574.000; -466.000
450.972;  799.450; -552.000; -389.000
451.093; 5246.750;  190.000;  588.000
451.214; 2237.225; -516.000; -337.000
451.336;  399.725;  773.000;  579.000
451.457;   61.525;  264.000;  393.000
451.578;  -48.850; -118.000;  -74.000
451.699; -120.250; -546.000; -540.000
451.821;  -74.625; -284.000;  -50.000
451.942;   17.725;  278.000;  285.000
452.063;   34.675;  228.000;  419.000
452.184;  592.700;  -54.000;  -49.000
452.305; 1133.350;  103.000;  170.000
452.427;  146.850; -549.000; -301.000
452.548;  -19.175;   23.000;   79.000
452.669;  -43.350; -257.000;  -89.000
452.790;  -54.025;    3.000;  -18.000
452.911;   -9.475;  195.000;  259.000
453.032;  -71.225; -289.000;  -60.000
453.153;  -49.375;  -29.000;   81.000
453.274;   65.525;  737.000;  868.000
453.395;  -57.000;  -51.000;  175.000
453.516;  121.050; 1317.000; 1388.000
453.637;  -73.025; -205.000; -150.000
453.758;  -74.375;   15.000;   69.000
453.879; -113.775; -462.000; -250.000
454.000;   66.550; 1086.000;  948.000
454.121; -120.225; -554.000; -326.000
454.242; -129.450; -599.000; -383.000
454.362;  -62.525;  -99.000;  114.000
454.483;  -39.675; -309.000; -229.000
454.604;   51.675;  512.000;  580.000
454.725; -137.500; -627.000; -555.000
454.846; -118.425; -474.000; -406.000
454.967;  -21.150;  230.000;  539.000
455.087;  -32.875;  179.000;  153.000
455.208;    0.100;  554.000;  856.000
455.329;  -53.750;  -22.000;   82.000
455.450;   23.500;  473.000;  633.000
455.570;  -84.350; -234.000; -211.000
455.691;  -57.650;  201.000;  407.000
455.812; -117.300; -270.000;  -92.000
455.932;  -65.475;  107.000;  -97.000
456.053;  -86.825;   36.000;   24.000
456.173; -115.800; -433.000; -355.000
456.294; -130.100; -476.000; -303.000
456.415;  -66.900;  -73.000;   70.000
456.535;  -27.525;  297.000;  273.000
456.656;  -59.350;  132.000;  240.000
456.776;  -76.550;    3.000;  298.000
456.897;   -9.950;  308.000;  513.000
457.017;  -82.075; -153.000;   -3.000
457.138; -116.725; -402.000; -249.000
457.258;  -29.925;  263.000;  224.000
457.379;  -16.100;  509.000;  521.000
457.499;  -21.450;  443.000;  432.000
457.620; -128.200; -407.000; -231.000
457.740;  -89.925; -132.000;  -11.000
457.860;  -73.550;   87.000;   44.000
457.981;  -50.050;  132.000;  124.000
458.101;  -81.950;  -89.000;   40.000
458.221;   -7.900;  336.000;  402.000
458.342;  -56.725;   -4.000;  -37.000
458.462;   30.950;  617.000;  352.000
458.582;  -29.850; -302.000; -294.000
458.703;   28.225;  303.000;  154.000
458.823;  -38.825;   22.000;  163.000
458.943;   25.625;  341.000;  467.000
459.063;  -25.650; 1124.000;  192.000
459.183;  -35.275;  328.000;  313.000
459.304;    1.575;  315.000;  517.000
459.424;  -56.500; -246.000;  -89.000
459.544;  349.000;  388.000;  764.000
459.664;  884.675;  499.000;  506.000
459.784;  297.450; 1004.000; 1175.000
459.904;   39.925;  867.000;  744.000
460.024;   59.250;  867.000;  684.000
460.144;    5.925;  449.000;  554.000
460.264;   -6.800;  515.000;  327.000
460.385;  -95.425; -145.000; -119.000
460.505;   19.375;  905.000;  858.000
460.625;  -94.500;  -17.000;  -68.000
460.745;  -32.400;  396.000;  541.000
460.864;  -55.200;  153.000;  469.000
460.984;   16.900;  499.000;  573.000
461.104;  144.600; 1656.000; 1775.000
461.224;   13.775;  657.000;  650.000
461.344;  -35.500;  431.000;  360.000
461.464;  -43.200;  258.000;  513.000
461.584;  -18.125;  283.000;  466.000
461.704;  -63.200;   58.000;  108.000
461.824;  -62.500;  238.000;  259.000
461.943;  -50.175;  191.000;  130.000
462.063;  -77.700;    2.000;  324.000
462.183;   28.900;  639.000;  717.000
462.303;   96.200; 1678.000; 1230.000
462.422;   23.925;  781.000;  840.000
462.542;  -58.975;  271.000;  391.000
462.662;   22.200;  353.000;  380.000
462.782;  248.675;  833.000;  572.000
462.901;  487.600;  545.000;  717.000
463.021;  291.075; 1702.000; 1638.000
463.141;  -14.775;  337.000;  770.000
463.260;   -6.550;  614.000;  474.000
463.380;   -5.000;  902.000;  884.000
463.499;  -37.125;  342.000;  332.000
463.619;  -27.875;  581.000;  559.000
463.738;  106.750; 1644.000;  903.000
463.858;   14.700;  657.000;  811.000
463.978;  -37.300;  542.000;  396.000
464.097;   59.725;  921.000; 1114.000
464.217;  119.900; 1196.000; 1143.000
464.336;  111.775; 1068.000; 1130.000
464.455;  -25.550;  328.000;  659.000
464.575;   18.325;  597.000;  602.000
464.694;  162.250; 1204.000; 1179.000
464.814;  124.875; 1190.000; 1138.000
464.933;   82.025; 1095.000; 1027.000
465.052;   87.750; 1412.000; 1054.000
465.172;   77.975;  922.000;  799.000
465.291;  125.975; 1376.000; 1320.000
465.410;   27.550;  462.000;  735.000
465.530;   77.200; 1355.000; 1310.000
465.649;   44.575; 1209.000; 1273.000
465.768;  105.825; 1673.000; 1508.000
465.888;   45.650;  941.000; 1174.000
466.007;   86.050; 1335.000; 1440.000
466.126;    2.250;  721.000;  641.000
466.245;   45.250; 1176.000; 1187.000
466.364;   18.500;  950.000; 1060.000
466.484;   57.400; 1024.000; 1213.000
466.603;   47.875; 1101.000; 1222.000
466.722;  112.300; 1490.000; 1769.000
466.841;   90.500; 1151.000; 1401.000
466.960;   36.250; 1069.000;  972.000
467.079;  129.625; 1971.000; 1786.000
467.198;   48.300; 1238.000; 1181.000
467.317;   88.075; 1768.000; 1162.000
467.436;   67.950; 1709.000; 1261.000
467.555;  130.200; 1796.000; 1746.000
467.674;   58.175; 1227.000; 1329.000
467.793;   48.750; 1376.000; 1374.000
467.912;   84.975; 1658.000; 1539.000
468.031;  130.850; 2038.000; 1930.000
468.150;  133.800; 1842.000; 1837.000
468.269;  179.400; 2313.000; 2090.000
468.388;  170.450; 2168.000; 2339.000
468.507;  263.700; 2884.000; 2903.000
468.626;  234.400; 2555.000; 2541.000
468.744;  136.975; 2018.000; 2174.000
468.863;  189.675; 2312.000; 2523.000
468.982;  107.550; 1503.000; 1555.000
469.101;  214.925; 2788.000; 2692.000
469.220;  161.525; 2333.000; 2176.000
469.338;  243.825; 2935.000; 3051.000
469.457;  204.700; 2719.000; 2545.000
469.576;  349.500; 3953.000; 3784.000
469.695;  250.425; 2877.000; 3066.000
469.813;  423.875; 4148.000; 4192.000
469.932;  421.025; 4255.000; 4485.000
470.051;  420.150; 4075.000; 4161.000
470.169;  886.650; 4470.000; 4338.000
470.288; 1517.275; 4700.000; 4809.000
470.406;  897.550; 5059.000; 5194.000
470.525;  623.350; 6101.000; 5787.000
470.644;  669.925; 6847.000; 6794.000
470.762;  815.725; 8397.000; 7873.000
470.881;  886.775; 8651.000; 8464.000
470.999; 1032.325; 9685.000; 9151.000
471.118; 1126.800;11174.000;10711.000

