
Integration time [ms]: 100.000
Averaging Nr. [scans]: 40
Smoothing Nr. [pixels]: 0
Data measured with spectrometer [name]: 2101012U2
Wave   ;Sample   ;Dark     ;Reference
[nm]   ;[counts] ;[counts] ;[counts] 

197.733;   62.250;  516.000;  404.000
197.879;  -84.125; -610.000; -634.000
198.025;  -49.550; -475.000; -420.000
198.171;  -87.250; -602.000; -612.000
198.317;  -46.000; -401.000; -316.000
198.463;  -57.800; -655.000; -404.000
198.609;   19.775;  181.000; -137.000
198.755;  -90.375; -644.000; -410.000
198.901;  -66.450; -505.000; -424.000
199.047;  -71.375; -615.000; -488.000
199.193;  -29.350; -230.000; -468.000
199.339;  -49.500; -222.000; -369.000
199.485;   32.850;  330.000;  271.000
199.631;   -6.200;  227.000;  310.000
199.777;  -53.400; -466.000; -398.000
199.923;  -69.950; -610.000; -424.000
200.069;    1.825; -141.000;  -58.000
200.215;   54.325;  128.000;  453.000
200.361;   41.000;  243.000;  477.000
200.507;  -72.225; -600.000; -373.000
200.653;  -32.725; -371.000; -194.000
200.798;  -40.075; -215.000; -125.000
200.944;  -16.500; -146.000;  -41.000
201.090;   32.400;   61.000;  222.000
201.236;    7.075; -116.000; -158.000
201.382;  128.225;  874.000;  903.000
201.528;   -2.300;  -58.000;  -48.000
201.674;  -31.825; -386.000; -293.000
201.819;  -64.150; -540.000; -439.000
201.965;  -81.700; -699.000; -447.000
202.111;  -40.375; -273.000; -226.000
202.257;  -41.525; -250.000; -238.000
202.402;    8.950;   13.000;  -36.000
202.548;  -38.975; -169.000; -116.000
202.694;   73.650;  410.000; -183.000
202.840;  -79.075; -603.000; -531.000
202.985;  -69.925; -681.000; -639.000
203.131;  -93.225; -832.000; -666.000
203.277;  -36.750; -199.000; -262.000
203.423;  -55.400; -434.000; -520.000
203.568;  -52.075; -462.000; -237.000
203.714;  -58.725; -535.000; -542.000
203.860;  -92.025; -682.000; -641.000
204.005;   12.200;  112.000;  167.000
204.151;   71.700;  561.000;  556.000
204.296;  -42.400; -354.000; -221.000
204.442;  -59.125; -600.000; -547.000
204.588;  -84.800; -592.000; -579.000
204.733;   15.775;  178.000;  168.000
204.879; -117.275;-1018.000; -822.000
205.025;    2.200;  -99.000;  126.000
205.170;  -15.325;  -17.000;   94.000
205.316;   61.525;  438.000;  661.000
205.461;  -90.300; -698.000; -554.000
205.607;   75.275;  609.000;  665.000
205.752;  -92.675; -626.000; -551.000
205.898;  -56.200; -501.000; -391.000
206.043;  -61.450; -578.000; -506.000
206.189;  -47.975; -243.000; -285.000
206.334;   67.700;  554.000;  606.000
206.480;   76.950;  409.000;  239.000
206.625;  -89.500; -529.000; -552.000
206.771;  -50.675; -451.000; -373.000
206.916;  -38.350; -210.000; -537.000
207.062;  -69.350; -545.000; -591.000
207.207;  -65.800; -546.000; -443.000
207.353;   47.050;  185.000;  460.000
207.498;    8.250;  196.000;   85.000
207.643;  -50.350; -501.000; -370.000
207.789; -140.975;-1069.000; -910.000
207.934;  -90.950; -665.000; -713.000
208.080;  -21.525; -154.000;   66.000
208.225;   -2.275;  -22.000;  -57.000
208.370;  -87.525; -727.000; -619.000
208.516;  -76.925; -741.000; -487.000
208.661;  -32.075; -127.000;  -69.000
208.806;  -19.125; -165.000; -171.000
208.952; -127.925;-1044.000; -731.000
209.097;   61.925;  378.000;  349.000
209.242;  -47.900; -307.000; -382.000
209.387;   44.175;  392.000;  350.000
209.533;  -48.725; -321.000; -350.000
209.678;   78.725;  472.000;  543.000
209.823;  -57.700; -408.000; -310.000
209.969; -112.450; -860.000; -757.000
210.114; -108.075; -907.000; -719.000
210.259; -128.875; -939.000; -889.000
210.404;  -11.750; -171.000;  103.000
210.549;    5.175;  108.000;    3.000
210.695;  -21.925;   -3.000;  -95.000
210.840;   16.325;   94.000;   67.000
210.985;  -57.500; -484.000; -303.000
211.130;   66.425;  268.000;  406.000
211.275;   10.450;  207.000;  199.000
211.420;  -62.625; -300.000; -289.000
211.566;  -77.450; -536.000; -489.000
211.711;   18.525;  218.000;  157.000
211.856;  -66.675; -545.000; -519.000
212.001;    8.975;  151.000;   44.000
212.146;   21.025;  153.000;   49.000
212.291;  -35.525; -210.000; -186.000
212.436;  -37.850; -280.000;   -6.000
212.581;  -81.725; -685.000; -653.000
212.726;  -76.475; -487.000; -538.000
212.871;  -55.250; -552.000; -217.000
213.016; -143.150;-1172.000;-1029.000
213.161;   62.350;  406.000;  291.000
213.306;  -85.275; -435.000; -577.000
213.451; -100.250; -778.000; -689.000
213.596;  -47.475; -455.000; -347.000
213.741;  -57.125; -448.000; -538.000
213.886;  -89.375; -498.000; -517.000
214.031;  -18.650; -294.000; -124.000
214.176;  -51.300; -408.000; -341.000
214.321;  -27.775; -296.000; -157.000
214.466;  -33.350; -163.000;  -43.000
214.611;  -18.400;  -61.000;  -10.000
214.756; -126.550; -948.000; -858.000
214.901;  -20.650; -388.000; -226.000
215.046; -122.925; -797.000; -825.000
215.191;   11.750;  128.000;   35.000
215.336;  -23.825; -157.000;  -19.000
215.480;  -76.425; -684.000; -505.000
215.625;  -20.000; -175.000;  -19.000
215.770;  -90.425; -757.000; -662.000
215.915;  -26.575;   -5.000;  -97.000
216.060;  -18.325; -113.000;  -21.000
216.205; -120.050; -731.000; -779.000
216.349;  -77.900; -470.000; -533.000
216.494; -146.700; -939.000; -867.000
216.639; -108.975; -823.000; -888.000
216.784;  -92.800; -577.000; -525.000
216.929;   44.475;  392.000;  281.000
217.073;  -23.900; -244.000;  -31.000
217.218;  -14.450;   78.000;  -47.000
217.363;  -92.500; -656.000; -618.000
217.507;  -88.325; -623.000; -588.000
217.652; -126.725; -845.000; -874.000
217.797; -108.225; -708.000; -659.000
217.942; -116.200; -856.000; -720.000
218.086;   80.425;  608.000;  539.000
218.231;  -21.300; -174.000;  -26.000
218.376;  -38.025; -337.000; -229.000
218.520;    0.500;  -41.000;   96.000
218.665;  -39.275; -338.000; -204.000
218.810;  -40.875; -275.000; -233.000
218.954;    4.975;  201.000;   35.000
219.099; -115.075; -713.000; -963.000
219.243;  -87.800; -589.000; -554.000
219.388;  -33.550; -264.000; -136.000
219.532;   -8.800; -116.000; -116.000
219.677;  -80.950; -564.000; -521.000
219.822;    1.000;   33.000;   89.000
219.966;    7.575;   17.000;  -99.000
220.111;  -33.400; -328.000;  -40.000
220.255; -102.500; -797.000; -750.000
220.400;  -27.675; -180.000; -146.000
220.544;  -74.700; -516.000; -450.000
220.689;  -69.850; -422.000; -451.000
220.833;  -22.300; -123.000;  -58.000
220.978;  -53.000; -393.000; -563.000
221.122;    9.150;  319.000;  307.000
221.267; -118.475; -906.000; -837.000
221.411;  -69.350; -478.000; -394.000
221.555;   -3.200; -104.000;  -23.000
221.700;  -43.850; -329.000; -222.000
221.844;   27.750;  255.000;  272.000
221.989;  -48.225; -328.000; -311.000
222.133;  -34.250; -289.000; -307.000
222.277;  -14.025;    5.000;   78.000
222.422;   16.150;  227.000;  113.000
222.566;  -32.250; -381.000; -214.000
222.711;  -61.400; -414.000; -479.000
222.855;  -77.775; -643.000; -586.000
222.999;  -82.925; -642.000; -717.000
223.144;  -26.400; -195.000; -194.000
223.288;   37.625;  423.000;  251.000
223.432;   19.225;  184.000;  230.000
223.576;   27.525;  152.000;  -21.000
223.721;   34.725;  364.000;  273.000
223.865;  -60.175; -472.000; -475.000
224.009;  227.600; 1673.000; 1631.000
224.153;  -73.775; -660.000; -671.000
224.298;  -73.375; -531.000; -489.000
224.442;  -15.200;  -74.000;  -33.000
224.586;  -22.475; -169.000; -106.000
224.730; -108.925; -858.000; -670.000
224.875; -113.100; -739.000; -688.000
225.019;    9.325;  102.000;  188.000
225.163;   39.050;  208.000;  341.000
225.307;   12.325;   97.000;  -91.000
225.451;   21.850;  360.000;  481.000
225.595;   27.200;  264.000;  176.000
225.739;  -23.275; -170.000;  -94.000
225.884;    6.600;   86.000;    5.000
226.028; -103.750; -760.000; -626.000
226.172;  -42.600; -260.000; -273.000
226.316; -124.975; -941.000; -902.000
226.460;  -64.025; -645.000; -493.000
226.604;  -47.625; -406.000; -400.000
226.748; -109.050; -836.000; -733.000
226.892;  -42.725; -227.000; -181.000
227.036;  -59.775; -537.000; -447.000
227.180;  -61.600; -551.000; -375.000
227.324;  -65.975; -561.000; -580.000
227.468; -124.575; -819.000; -717.000
227.612;    4.175;  242.000;  -28.000
227.756; -110.775; -845.000; -698.000
227.900;   42.175;  342.000;  441.000
228.044;  -55.325; -509.000; -290.000
228.188;   39.325;  448.000;  568.000
228.332;  -93.950; -546.000; -472.000
228.476;  -32.400; -223.000; -149.000
228.620;  -42.500; -210.000; -150.000
228.764;   67.525;  431.000;  349.000
228.908;  -34.875; -155.000;   30.000
229.052;  -61.825; -615.000; -528.000
229.195;  -26.975; -172.000;   13.000
229.339;  -41.150; -235.000; -305.000
229.483;  -47.550;    5.000; -162.000
229.627;    5.900; -156.000;  139.000
229.771;  -49.850; -218.000; -294.000
229.915;    4.450;  230.000;   79.000
230.059; -108.475; -648.000; -663.000
230.202;  -43.725; -370.000; -317.000
230.346;  -22.375; -107.000;  107.000
230.490;  -69.775; -489.000; -521.000
230.634; -111.825; -736.000; -553.000
230.777;   71.900;  478.000;  509.000
230.921;  -64.725; -450.000; -359.000
231.065;  -35.325; -246.000; -286.000
231.209;   25.175;  261.000;  265.000
231.352;   17.825;   54.000;   40.000
231.496;   10.900;  568.000;  188.000
231.640;  -85.100; -693.000; -621.000
231.783;   51.950;  546.000;  525.000
231.927;  -46.350; -294.000; -365.000
232.071; -129.350; -962.000; -736.000
232.214; -110.600; -980.000; -764.000
232.358; -117.275; -683.000; -599.000
232.502;    5.500;  -19.000;    7.000
232.645; -143.950;-1090.000; -927.000
232.789;  -24.650; -257.000; -218.000
232.933;  -47.875; -407.000; -224.000
233.076; -134.275;-1038.000; -897.000
233.220; -118.200; -752.000; -777.000
233.363;  -83.550; -669.000; -477.000
233.507;   53.900;  371.000;  129.000
233.650; -106.375; -764.000; -834.000
233.794;   41.775;  438.000;  461.000
233.938;  -63.250; -530.000; -362.000
234.081;  -25.825;  -93.000;   31.000
234.225;  -66.025; -631.000; -539.000
234.368; -113.350; -773.000; -723.000
234.512;  -43.325; -385.000; -299.000
234.655;  -81.350; -582.000; -555.000
234.798;  -68.750; -493.000; -466.000
234.942; -136.150; -884.000;-1002.000
235.085;  -71.525; -651.000; -443.000
235.229;  -74.225; -405.000; -410.000
235.372;  -62.925; -247.000; -191.000
235.516;  -68.750; -397.000; -321.000
235.659;   20.475;   92.000;  121.000
235.802;  -11.075;  -38.000;  -22.000
235.946;   15.850;  335.000;  215.000
236.089;   13.200;  126.000;  250.000
236.233;   41.150;  275.000;  298.000
236.376;  -51.925; -235.000; -378.000
236.519;  -46.750; -297.000; -319.000
236.663;  -27.050; -215.000; -117.000
236.806; -150.300;-1029.000; -999.000
236.949;   71.850;  543.000;  431.000
237.092;   58.475;  412.000;  391.000
237.236;  -80.625; -589.000; -502.000
237.379;   68.925;  352.000;  428.000
237.522; -125.625; -879.000; -768.000
237.666;  -30.575; -271.000;   18.000
237.809; -125.750; -851.000; -823.000
237.952;   24.775;  469.000;  271.000
238.095;  -66.500; -447.000; -442.000
238.238;   79.700;  688.000;  700.000
238.382;   -7.400;  166.000;  103.000
238.525;  -85.900; -598.000; -511.000
238.668; -145.800;-1060.000; -985.000
238.811;  -87.525; -638.000; -643.000
238.954;  -78.975; -483.000; -334.000
239.097;   87.525;  617.000;  664.000
239.241;   18.400;  394.000;  326.000
239.384;  -36.400; -254.000; -214.000
239.527;  -67.200; -424.000; -224.000
239.670; -151.525; -994.000;-1091.000
239.813; -121.725; -696.000; -658.000
239.956;   62.550;  579.000;  473.000
240.099; -119.025; -778.000; -725.000
240.242;   54.000;  428.000;  432.000
240.385;   20.100;  466.000;  450.000
240.528;  -84.600; -706.000; -473.000
240.671;   20.225;  189.000;  134.000
240.814;  -49.725; -441.000; -158.000
240.957; -115.000; -767.000; -578.000
241.100;  -93.425; -779.000; -755.000
241.243; -138.600;-1234.000; -893.000
241.386;  -74.425; -508.000; -379.000
241.529;  -88.900; -735.000; -547.000
241.672;  -72.975; -566.000; -495.000
241.815; -119.525; -832.000; -808.000
241.958;  -32.950; -125.000; -182.000
242.101;  -77.500; -545.000; -390.000
242.244;  -49.350; -270.000; -325.000
242.387;  -47.450; -304.000; -246.000
242.530;   45.800;  470.000;  134.000
242.673;  -44.100; -381.000; -309.000
242.815; -126.650; -925.000; -899.000
242.958;  -81.050; -482.000; -381.000
243.101;   14.075;  132.000;  187.000
243.244;  -93.575; -564.000; -521.000
243.387;  -51.200; -313.000; -316.000
243.530;  -95.225; -657.000; -674.000
243.672;   -3.650;   43.000;  -92.000
243.815;  -61.150; -355.000; -283.000
243.958;  -10.100;   98.000;  -26.000
244.101;   -9.575;   59.000;  -16.000
244.243;   -5.175;  -47.000;  101.000
244.386; -113.200; -761.000; -630.000
244.529;  -27.850; -132.000; -139.000
244.672; -155.850;-1154.000; -951.000
244.814; -101.700; -621.000; -794.000
244.957;  -49.825; -380.000; -304.000
245.100;  -70.875; -489.000; -489.000
245.242;  -60.150; -387.000; -374.000
245.385;   -3.850;  -59.000;  -39.000
245.528; -117.275; -871.000; -705.000
245.670;   78.875;  612.000;  634.000
245.813; -104.375; -599.000; -547.000
245.956;  -41.675; -324.000; -275.000
246.098;  -79.675; -508.000; -650.000
246.241;    2.750;  194.000;   48.000
246.383;  -10.000; -119.000;  -73.000
246.526;  -82.875; -454.000; -525.000
246.669; -129.975; -889.000; -780.000
246.811;    9.150;  172.000;   -1.000
246.954;  -76.875; -512.000; -426.000
247.096;  -37.650;  -84.000;   -6.000
247.239;  -71.500; -482.000; -445.000
247.381;  -79.450; -647.000; -488.000
247.524;   69.725;  645.000;  679.000
247.666;  -14.800;   58.000;   11.000
247.809; -123.550; -887.000; -691.000
247.951;  -14.425;  -75.000;  138.000
248.094;   29.150;  432.000;  308.000
248.236; -167.000;-1262.000;-1238.000
248.378;   -1.675; -356.000;  -81.000
248.521;  -32.200; -334.000; -337.000
248.663;  -48.375; -236.000; -267.000
248.806;  -40.700; -300.000; -266.000
248.948;  -94.400; -886.000; -763.000
249.090;  -48.975; -428.000; -398.000
249.233;  -44.375; -344.000; -381.000
249.375;  -68.000; -474.000; -451.000
249.518;  -25.700;  -83.000; -133.000
249.660;  -23.125; -103.000;    3.000
249.802; -179.850;-1303.000;-1189.000
249.945;  -88.825; -612.000; -540.000
250.087; -123.025; -834.000; -768.000
250.229;  -51.700; -362.000; -480.000
250.371;  -69.875; -494.000; -439.000
250.514;  -53.950; -310.000; -244.000
250.656;   -4.950;   69.000;  102.000
250.798; -126.625; -849.000; -800.000
250.940;  -69.025; -322.000; -322.000
251.083;  -25.225; -335.000; -111.000
251.225;   50.025;  338.000;  310.000
251.367;  -52.625; -274.000; -373.000
251.509;  -51.075; -265.000; -210.000
251.651; -100.375; -731.000; -671.000
251.794;   51.500;  538.000;  632.000
251.936; -115.950; -821.000; -747.000
252.078;  -96.875; -540.000; -461.000
252.220;  -84.625; -645.000; -477.000
252.362;   65.000;  344.000;  462.000
252.504;  -72.275; -677.000; -584.000
252.646; -127.300; -875.000; -722.000
252.788;   -5.075;   14.000; -128.000
252.931;  -36.725; -257.000; -253.000
253.073;  -38.350; -376.000; -317.000
253.215;   -4.325;  141.000;  122.000
253.357;  -25.225;   82.000; -153.000
253.499;  -56.025; -374.000; -234.000
253.641;  -84.550; -749.000; -594.000
253.783;  -86.725; -609.000; -527.000
253.925;  -92.975; -586.000; -591.000
254.067; -104.900; -744.000; -667.000
254.209;  -30.650; -391.000; -259.000
254.351; -133.925; -865.000; -883.000
254.493;  -61.875; -441.000; -417.000
254.635; -134.075; -936.000; -818.000
254.777;  -93.375; -752.000; -687.000
254.918;  -73.450; -512.000; -430.000
255.060;  -64.150; -551.000; -395.000
255.202;  -62.575; -473.000; -261.000
255.344;  -93.200; -658.000; -455.000
255.486;  -71.475; -471.000; -406.000
255.628; -120.275; -780.000; -781.000
255.770;  -92.500; -676.000; -536.000
255.912;  -76.800; -559.000; -468.000
256.053;  -99.725; -730.000; -508.000
256.195;  124.975; 1008.000;  903.000
256.337; -106.975; -861.000; -595.000
256.479;   55.425;  532.000;  416.000
256.621;  -55.300; -394.000; -212.000
256.762;  -87.800; -789.000; -742.000
256.904;   48.875;  485.000;  487.000
257.046;  -57.025; -381.000; -271.000
257.188;  -54.525; -351.000; -264.000
257.329;  -94.100; -525.000; -464.000
257.471; -121.025; -939.000; -807.000
257.613;  -79.400; -584.000; -498.000
257.755; -149.000;-1073.000; -982.000
257.896;   27.125;  286.000;  392.000
258.038;  -76.500; -403.000; -352.000
258.180;  -44.350; -354.000; -279.000
258.321;  -95.425; -581.000; -457.000
258.463;  -10.975;  -71.000;  133.000
258.605;  -97.550; -562.000; -570.000
258.746;  -95.475; -886.000; -772.000
258.888; -151.125;-1026.000;-1020.000
259.029;    3.650;  121.000;   -8.000
259.171;  -83.575; -614.000; -550.000
259.313;  -16.250;  -49.000;  -47.000
259.454;  -73.750; -536.000; -414.000
259.596;  -55.675; -483.000; -390.000
259.737;  -83.100; -590.000; -474.000
259.879;   30.800;  217.000;  311.000
260.020;   85.325;  901.000;  636.000
260.162;  -40.550; -146.000; -253.000
260.303; -125.400; -768.000; -687.000
260.445;  -87.900; -609.000; -613.000
260.586;   13.275;  392.000;  157.000
260.728;  -37.750; -360.000; -248.000
260.869; -124.975; -350.000; -343.000
261.011;   80.925;  706.000;  537.000
261.152;  -61.075; -479.000; -319.000
261.293;  -93.525; -576.000; -595.000
261.435;  -55.175; -219.000; -184.000
261.576;  -57.650; -455.000; -325.000
261.718;   52.175;  420.000;  470.000
261.859; -137.475; -940.000; -949.000
262.000; -131.725; -951.000;-1016.000
262.142;  -24.925;  -52.000;  -60.000
262.283; -114.475; -808.000; -691.000
262.424;  -99.000; -666.000; -625.000
262.566; -155.975;-1161.000; -983.000
262.707; -127.525; -840.000; -830.000
262.848; -128.775; -769.000; -726.000
262.990;  -61.675; -362.000; -345.000
263.131;   77.025;  650.000;  681.000
263.272;  -11.775;  -61.000;  -41.000
263.413;  -91.925; -589.000; -561.000
263.555;  -75.050; -669.000; -143.000
263.696;  -98.700; -550.000; -641.000
263.837;  -65.125; -449.000; -551.000
263.978;  -19.250;   -5.000;  -77.000
264.119;  -45.075; -283.000; -264.000
264.261; -130.250; -847.000; -630.000
264.402;  -17.025;   33.000;   40.000
264.543;  -82.225; -509.000; -524.000
264.684;  -14.350;   61.000;  -50.000
264.825;  -80.075; -816.000; -538.000
264.966;  -19.675;  -84.000;  -67.000
265.107; -118.400; -646.000; -670.000
265.248; -121.725; -825.000; -812.000
265.390;  -12.575;  152.000;   -9.000
265.531;  -36.800; -238.000; -107.000
265.672;  -85.775; -557.000; -630.000
265.813;   55.525;  563.000;  439.000
265.954; -155.550; -959.000; -940.000
266.095;  -19.775; -372.000; -322.000
266.236; -101.725; -686.000; -548.000
266.377;  -57.675; -243.000; -297.000
266.518;  -80.625; -619.000; -547.000
266.659;   25.650;  170.000;  268.000
266.800;   15.750;   83.000;   85.000
266.941;  -76.125; -487.000; -478.000
267.082;    2.875;  354.000;   99.000
267.223;  -52.500; -344.000; -273.000
267.364; -127.100; -892.000; -686.000
267.504;  -13.000;    3.000;  135.000
267.645;    0.225;  160.000;   67.000
267.786;  -50.525; -147.000;  -86.000
267.927;  -68.175; -473.000; -379.000
268.068;  -29.775; -186.000;  -61.000
268.209;  -55.875; -175.000; -413.000
268.350;  -70.975; -388.000; -532.000
268.490;  -84.475; -648.000; -521.000
268.631;   23.675;  127.000;  225.000
268.772; -107.675; -874.000; -647.000
268.913;  -50.725; -328.000; -476.000
269.054;  -19.225; -117.000;   12.000
269.194;  -55.625; -418.000; -402.000
269.335; -168.925;-1137.000;-1074.000
269.476;  -21.550;   33.000;  -35.000
269.617;  -68.725; -347.000; -392.000
269.757;  -85.000; -713.000; -646.000
269.898; -113.150; -856.000; -613.000
270.039;  -67.875; -415.000; -405.000
270.180; -151.350; -952.000; -816.000
270.320;  -34.475; -190.000; -250.000
270.461;  -44.250; -277.000; -249.000
270.602;  -18.300; -186.000; -156.000
270.742; -129.850; -868.000; -943.000
270.883;  -63.550; -442.000; -390.000
271.023;  -61.100; -358.000; -357.000
271.164;  -76.025; -607.000; -528.000
271.305; -100.325; -666.000; -654.000
271.445;  -83.825; -722.000; -683.000
271.586;  -70.225; -462.000; -283.000
271.726;  -48.175; -397.000; -322.000
271.867;  -49.425; -594.000; -534.000
272.008;  173.925; -473.000; -285.000
272.148;  112.975;  462.000;  468.000
272.289;    7.725; -113.000; -181.000
272.429;   12.075;   19.000;  185.000
272.570;  -98.550; -633.000; -737.000
272.710;  -92.475; -825.000; -775.000
272.851;  -35.250;  113.000; -130.000
272.991; -162.575;-1173.000;-1077.000
273.131;  -84.075; -419.000; -459.000
273.272;  -96.525; -683.000; -723.000
273.412;   -8.000; -143.000;  -31.000
273.553;  -57.550; -488.000; -507.000
273.693;  123.925;  913.000;  858.000
273.834;  -87.850; -894.000; -692.000
273.974;  -83.375; -664.000; -615.000
274.114; -104.175; -772.000; -560.000
274.255;   69.800;  414.000;  373.000
274.395;   -3.600; -180.000; -125.000
274.535;   16.350;  199.000;  350.000
274.676;   15.275;  225.000;   94.000
274.816;  -10.525;  110.000;   34.000
274.956;  -90.325; -624.000; -690.000
275.097;  -63.025;-1014.000; -922.000
275.237; -109.125; -913.000; -803.000
275.377; -107.575; -778.000; -689.000
275.517; -154.075; -878.000; -937.000
275.658;  -62.050; -590.000; -555.000
275.798;  -66.325; -606.000; -413.000
275.938;   18.450;  215.000;  323.000
276.078; -108.050; -626.000; -395.000
276.218;  -10.725;   99.000;  104.000
276.359; -138.650;-1026.000;-1024.000
276.499;  -81.500; -605.000; -446.000
276.639;  -42.550; -305.000; -151.000
276.779;  -43.825; -475.000; -357.000
276.919; -114.275; -783.000; -624.000
277.059;  -33.150; -261.000; -212.000
277.199;  -51.575; -357.000; -259.000
277.340;   40.825;  287.000;  175.000
277.480; -105.700; -840.000; -693.000
277.620;   23.400;  192.000;   16.000
277.760; -194.450;-1533.000;-1294.000
277.900;   18.400;  113.000;   33.000
278.040;    7.750;  137.000;  159.000
278.180;   25.725;  270.000;  170.000
278.320;  -17.575;   21.000;   56.000
278.460;  -77.975; -443.000; -469.000
278.600;  -94.325; -708.000; -598.000
278.740;   42.800;  448.000;  224.000
278.880;  -71.075; -768.000; -791.000
279.020;   -6.600; -194.000; -144.000
279.160;  -89.425; -672.000; -595.000
279.300; -128.725; -926.000; -873.000
279.440; -110.825; -709.000; -622.000
279.579;    0.375;-1014.000; -929.000
279.719;  -47.150; -410.000; -394.000
279.859;   78.200;   -4.000;   41.000
279.999;   29.000; -208.000;  101.000
280.139;  -32.325; -435.000; -387.000
280.279;  -78.725; -708.000; -745.000
280.419;  -22.075; -229.000; -147.000
280.559;  -46.525; -259.000; -180.000
280.698; -105.250; -790.000; -639.000
280.838;  -91.600; -778.000; -800.000
280.978; -114.425; -846.000; -790.000
281.118; -117.075; -811.000; -704.000
281.257;   -2.700;   24.000;    6.000
281.397; -128.900;-1094.000; -960.000
281.537;  -95.050; -599.000; -712.000
281.677;  -19.525; -150.000; -101.000
281.816;  -93.100; -700.000; -630.000
281.956;  -47.725; -193.000; -257.000
282.096;  -68.600; -539.000; -396.000
282.235; -113.050; -672.000; -638.000
282.375;  -22.325; -243.000;  -98.000
282.515; -111.750; -715.000; -707.000
282.654;   16.575;   29.000;  106.000
282.794;   10.350;  388.000;  244.000
282.934;  -67.600; -530.000; -491.000
283.073; -142.350;-1030.000; -857.000
283.213;  -65.050; -460.000; -467.000
283.353;  -42.750; -408.000; -349.000
283.492;  -36.600; -264.000; -296.000
283.632;  -57.775; -254.000; -168.000
283.771; -103.050; -859.000; -730.000
283.911;  -50.200; -369.000; -260.000
284.050; -110.375; -794.000; -748.000
284.190; -156.550;-1229.000;-1096.000
284.329; -149.475;-1055.000; -964.000
284.469;  -74.400; -516.000; -591.000
284.608;  -69.750; -559.000; -598.000
284.748;  -87.850; -614.000; -570.000
284.887;  -13.175;  -87.000;  -20.000
285.027; -140.050; -844.000; -892.000
285.166;  -36.550; -192.000; -249.000
285.306;   -6.825; -116.000;  -33.000
285.445;  -55.625; -229.000; -343.000
285.584;  -92.525; -630.000; -494.000
285.724;  -60.050; -282.000; -322.000
285.863; -115.400; -857.000; -507.000
286.002;  -58.525; -366.000; -276.000
286.142; -110.400; -715.000; -622.000
286.281;  -82.425; -525.000; -493.000
286.420;  -85.475; -554.000; -417.000
286.560;   93.475;  653.000;  623.000
286.699; -152.600; -958.000; -912.000
286.838;  -78.275; -590.000; -591.000
286.978; -107.575; -533.000; -537.000
287.117; -136.825;-1085.000; -950.000
287.256;  -39.875; -228.000; -211.000
287.395;  -58.900; -197.000; -378.000
287.535;  -58.250; -370.000; -298.000
287.674;  -87.425; -509.000; -484.000
287.813;   50.450;  661.000;  533.000
287.952; -143.050;-1010.000; -871.000
288.091; -147.325;-1049.000; -915.000
288.231;    6.075;   13.000;   15.000
288.370; -171.475;-1217.000;-1200.000
288.509;  -95.900; -728.000; -645.000
288.648; -107.550; -770.000; -548.000
288.787;  -43.050; -243.000;  -87.000
288.926;  -66.800; -454.000; -475.000
289.065;   99.575;  859.000;  672.000
289.204;  -65.975; -377.000; -217.000
289.344;  -87.000; -791.000; -690.000
289.483;   16.175;  416.000;  304.000
289.622;  -19.300; -291.000; -149.000
289.761;  -32.450; -309.000; -166.000
289.900; -113.925; -785.000; -626.000
290.039;  -21.375;  -12.000;  -95.000
290.178;  -37.500; -274.000; -180.000
290.317;  -90.825; -618.000; -479.000
290.456;  -68.600; -463.000; -451.000
290.595; -141.600; -961.000; -833.000
290.734; -140.625; -904.000; -891.000
290.873;  -74.075; -456.000; -420.000
291.011; -126.825; -833.000; -843.000
291.150; -122.125; -770.000; -682.000
291.289;  -36.700; -343.000; -110.000
291.428; -100.500; -599.000; -480.000
291.567;  -62.050; -370.000; -442.000
291.706;  -24.150;  109.000;  154.000
291.845;  -99.350; -597.000; -505.000
291.984; -171.375;-1234.000;-1061.000
292.122;   52.400;  602.000;  582.000
292.261;   38.550;  620.000;  463.000
292.400;   -2.575; -144.000;  211.000
292.539; -126.175; -959.000; -813.000
292.678;  -37.150; -325.000; -300.000
292.816; -152.875;-1136.000; -965.000
292.955;  -97.775; -844.000; -684.000
293.094;  -40.750; -173.000; -337.000
293.233;  -63.125; -556.000; -400.000
293.371;  -39.075; -225.000;  -84.000
293.510; -122.100; -866.000; -780.000
293.649; -126.125; -959.000; -924.000
293.787;  -60.525;-1083.000;-1012.000
293.926;  -21.200; -113.000;  -32.000
294.065;  -47.150; -379.000; -290.000
294.203;   36.725;  298.000;  406.000
294.342;   12.050;   74.000;  156.000
294.481; 6371.900;51180.000; -836.000
294.619;  -33.100; -425.000; -582.000
294.758; -158.125;-1230.000;-1137.000
294.896;   66.825; -125.000;    5.000
295.035; -122.250;-1040.000;-1006.000
295.174; -125.425;-1082.000; -954.000
295.312;  -62.025; -323.000; -203.000
295.451;  -24.725; -307.000; -428.000
295.589;  -70.550; -389.000; -518.000
295.728;    2.375; -292.000; -165.000
295.866;    1.975;  -36.000;  -51.000
296.005;  -62.725; -584.000; -341.000
296.143;  -74.675; -558.000; -596.000
296.282; -116.325; -957.000; -881.000
296.420;  -94.325; -657.000; -557.000
296.559;  -81.275; -892.000; -633.000
296.697;    9.725; -847.000; -665.000
296.835;   43.025;-1141.000;-1002.000
296.974;   30.025;  -23.000;   39.000
297.112;   -4.800; -443.000; -504.000
297.251;  -90.925; -815.000; -755.000
297.389;   84.375; -576.000; -438.000
297.527;   26.325; -145.000;  -83.000
297.666;  -59.900; -486.000; -438.000
297.804;  -62.650; -404.000; -264.000
297.942;  -19.450; -136.000; -161.000
298.081;   -5.875; -183.000;   63.000
298.219;   65.675;  -17.000;  -19.000
298.357;   37.925; -144.000;  -71.000
298.495;   25.800; -810.000; -812.000
298.634;   72.850;  245.000;  219.000
298.772;   40.125; -220.000; -338.000
298.910;  -37.425; -309.000; -182.000
299.048;  -20.650; -130.000; -153.000
299.187;  -30.525; -350.000; -250.000
299.325;   21.125;   52.000;  122.000
299.463;   45.275; -389.000; -299.000
299.601;   85.025; -327.000; -271.000
299.739; -110.575; -908.000; -883.000
299.877;  -97.125; -791.000; -703.000
300.016;  -48.625;-1095.000; -935.000
300.154;  156.450;  -19.000; -161.000
300.292;   41.375; -428.000; -348.000
300.430;   16.825; -408.000; -291.000
300.568; -112.200; -940.000; -874.000
300.706;  -57.300; -366.000; -469.000
300.844;  -76.450;-1108.000; -979.000
300.982;  111.250;  246.000;  282.000
301.120; -118.750; -965.000; -866.000
301.258;  -62.850; -812.000; -705.000
301.396;   31.050;  104.000;  -41.000
301.534;   71.650; -218.000; -293.000
301.672;  -23.650; -664.000; -521.000
301.810;   25.325; -613.000; -545.000
301.948;  115.750;   53.000;  149.000
302.086;  627.125; -250.000;  -32.000
302.224;  929.475; -610.000; -585.000
302.362;   21.275; -558.000; -622.000
302.500;  -34.850; -923.000; -893.000
302.638;   94.625;  128.000;  245.000
302.776;  -11.825; -352.000; -408.000
302.913;   40.125;  447.000;  236.000
303.051;   -9.375;  -86.000;  -23.000
303.189;   43.650;   90.000;  118.000
303.327;  -36.075; -341.000; -256.000
303.465;  -85.125; -832.000; -588.000
303.603; -115.475; -805.000; -604.000
303.740;  109.450;  417.000;  241.000
303.878;   11.550; -800.000; -759.000
304.016; -100.825; -915.000; -790.000
304.154; -129.775;-1123.000;-1152.000
304.291;  -45.475; -505.000; -554.000
304.429;   12.275;  102.000;   74.000
304.567; -127.925; -908.000; -893.000
304.705;  -49.475; -408.000; -515.000
304.842;   87.450; -616.000; -540.000
304.980;   55.075;  215.000;   35.000
305.118;   37.050; -367.000; -365.000
305.255;  -86.475; -945.000; -927.000
305.393;   45.850;  178.000;  239.000
305.531; -115.000;-1173.000; -956.000
305.668;  -72.475; -663.000; -582.000
305.806;  105.525; -358.000; -439.000
305.943;   99.050; -629.000; -637.000
306.081;   46.025; -378.000; -267.000
306.219; -115.100; -863.000; -748.000
306.356;    5.425;  158.000;   27.000
306.494;   98.775;  981.000;  761.000
306.631;  -13.200;  -11.000;  -55.000
306.769;   -7.950; -613.000; -485.000
306.906;  -20.350; -284.000; -258.000
307.044;  -66.375; -473.000; -488.000
307.181;  -64.900; -410.000; -332.000
307.319;    2.550;  112.000;   87.000
307.456; -176.875;-1191.000;-1153.000
307.594; -110.875; -980.000; -727.000
307.731;  -10.275; -371.000; -164.000
307.868;  -19.800;  -15.000;   20.000
308.006; -140.025; -961.000; -847.000
308.143;  -78.650; -618.000; -330.000
308.281;  150.750;  -37.000; -254.000
308.418;  -11.050; -748.000; -640.000
308.555;  -68.925; -400.000; -250.000
308.693;  -82.925; -577.000; -573.000
308.830; -110.900; -712.000; -657.000
308.967;  -14.625; -215.000;  -95.000
309.105;  -65.375; -507.000; -396.000
309.242;   27.400; -468.000; -367.000
309.379;  302.800; -577.000; -655.000
309.517;  -71.225; -936.000; -948.000
309.654; -109.475; -910.000; -734.000
309.791;  -82.250; -662.000; -580.000
309.928; -126.900; -977.000; -914.000
310.065;  167.000;  819.000;  697.000
310.203;  -10.825; -825.000; -850.000
310.340;  -24.775; -465.000; -321.000
310.477;  -84.925; -412.000; -516.000
310.614;  -65.800; -383.000; -473.000
310.751;  -84.950; -427.000; -518.000
310.889;  -32.750;    1.000;   11.000
311.026; -159.675;-1161.000; -939.000
311.163;  -51.550; -386.000; -380.000
311.300;  -96.025; -512.000; -479.000
311.437;  -95.900; -658.000; -619.000
311.574; -156.300;-1226.000; -985.000
311.711;  -70.150; -595.000; -433.000
311.848;  -65.525; -380.000; -388.000
311.985;    6.425;  270.000;   93.000
312.122; -112.875; -932.000; -762.000
312.259; -131.125; -941.000; -994.000
312.396;  -94.550; -508.000; -551.000
312.533; -102.475; -812.000; -790.000
312.670; -141.500;-1070.000; -898.000
312.807;  -49.375; -352.000; -367.000
312.944;  -82.650; -513.000; -611.000
313.081;  -23.700; -150.000; -415.000
313.218; -109.550;-1111.000; -867.000
313.355;    1.050; -531.000; -449.000
313.492;    5.600; -455.000; -292.000
313.629;  124.850;  815.000;  735.000
313.766; -165.950;-1176.000;-1008.000
313.902;  -21.250; -186.000;   21.000
314.039;  -56.300; -372.000; -289.000
314.176;   17.675;  286.000;  192.000
314.313;  -77.750; -569.000; -473.000
314.450;  -98.300; -788.000; -684.000
314.587;  -59.125; -468.000; -480.000
314.723;    8.450;  -78.000;  130.000
314.860;   29.550;  318.000;  332.000
314.997;   21.900;  223.000;  142.000
315.134;  -41.450; -385.000; -368.000
315.270;  -34.425; -480.000; -496.000
315.407; -145.350;-1094.000; -967.000
315.544;  -52.175; -657.000; -538.000
315.681;  -69.650; -681.000; -565.000
315.817;   31.850; -133.000; -176.000
315.954;    9.800; -613.000; -392.000
316.091; -118.575;-1045.000;-1023.000
316.227;  -24.550;  -71.000; -179.000
316.364;  -12.025;   23.000;    6.000
316.500;  -59.325; -113.000; -300.000
316.637;  -52.475; -181.000; -302.000
316.774;  -89.325; -625.000; -358.000
316.910; -105.925; -598.000; -629.000
317.047;  -77.875; -487.000; -351.000
317.183;  -56.750; -435.000; -566.000
317.320;  -26.775; -367.000; -321.000
317.456;  -76.625; -733.000; -805.000
317.593;  -95.825; -598.000; -641.000
317.729;    3.125;  168.000;  -67.000
317.866; -202.775;-1434.000;-1285.000
318.002;  -97.850; -708.000; -948.000
318.139;  -96.275; -883.000; -867.000
318.275; -107.100;-1003.000; -738.000
318.412;  -68.125; -517.000; -336.000
318.548;  -42.250; -751.000; -720.000
318.685;  -94.700; -985.000; -888.000
318.821; -102.175; -762.000; -735.000
318.957;  -32.100;   34.000;  -23.000
319.094;   24.600;  297.000;  154.000
319.230;  -72.125; -756.000; -742.000
319.367;  123.400; -471.000; -520.000
319.503;   66.175; -538.000; -436.000
319.639; -102.700; -877.000; -793.000
319.775;  -53.175; -750.000; -685.000
319.912;  -71.575; -424.000; -519.000
320.048; -105.775;-1184.000;-1184.000
320.184;   64.450;   59.000;   70.000
320.321;  -76.775; -497.000; -467.000
320.457;   56.725;  475.000;  662.000
320.593;  -76.350; -375.000; -382.000
320.729; -106.825; -732.000; -734.000
320.866;  -74.225; -577.000; -635.000
321.002;  -88.550; -759.000; -809.000
321.138;  -21.525; -135.000; -211.000
321.274;   63.200; -148.000; -115.000
321.410;  -20.850; -585.000; -353.000
321.546;  -45.150;-1011.000; -911.000
321.683;   37.425;  400.000;  185.000
321.819;   -2.875;  -48.000; -117.000
321.955; -106.475; -743.000; -722.000
322.091;  -49.975; -585.000; -540.000
322.227;  -22.275; -382.000; -202.000
322.363;  -24.625; -320.000; -215.000
322.499;  -59.350; -343.000; -331.000
322.635;  151.200;  636.000;  443.000
322.771;   21.150; -139.000;   12.000
322.907;   89.275;  129.000;  327.000
323.043;  -23.400; -115.000; -206.000
323.179;  -42.800; -394.000; -363.000
323.315;   21.425; -401.000; -371.000
323.451;   70.275; -328.000; -236.000
323.587;   49.625;  -60.000;  -77.000
323.723;   -0.675; -682.000; -601.000
323.859;  -18.875; -258.000;  -76.000
323.995;  -53.925; -467.000; -409.000
324.131; -128.725; -967.000; -892.000
324.267;  -47.950; -254.000; -276.000
324.402; -135.525; -960.000; -983.000
324.538;  -27.350; -279.000; -104.000
324.674;    8.600;  164.000;   77.000
324.810;  116.050;  226.000;  308.000
324.946;   10.150; -810.000; -658.000
325.082;  -85.825; -568.000; -475.000
325.217;  -13.475;  -62.000;   16.000
325.353; -109.425; -764.000; -659.000
325.489; -102.900; -540.000; -506.000
325.625;  -91.600; -579.000; -525.000
325.760;   54.450;  517.000;  376.000
325.896;  -31.350; -515.000; -702.000
326.032;  -68.375; -403.000; -352.000
326.168;  -75.175; -462.000; -369.000
326.303;  -78.475; -352.000; -461.000
326.439;  -40.000; -336.000; -276.000
326.575;   -1.950; -190.000;  -29.000
326.710;  -18.825; -156.000;  -30.000
326.846;  -30.425;  146.000;  103.000
326.982;  -87.125; -530.000; -548.000
327.117;  -86.375; -481.000; -442.000
327.253;  -88.950; -745.000; -742.000
327.388; -157.375;-1137.000;-1153.000
327.524;  -53.550; -811.000; -578.000
327.659;  -40.525;  -58.000;  -22.000
327.795;  -22.350;   69.000;   45.000
327.931;  -95.675; -723.000; -499.000
328.066;  -41.450; -417.000; -276.000
328.202;  -16.800;   12.000; -129.000
328.337;   82.700;  957.000;  713.000
328.473;   31.400;  -12.000;  -74.000
328.608;  -14.800; -256.000; -267.000
328.743;  -82.850; -799.000; -664.000
328.879;    8.675;  214.000;  114.000
329.014;  -44.650; -102.000; -122.000
329.150;  -96.650; -358.000; -483.000
329.285;  -76.200; -465.000; -466.000
329.421;  -54.950; -548.000; -246.000
329.556;  -38.500;  -36.000;   85.000
329.691; -102.325; -633.000; -615.000
329.827;  -98.250; -626.000; -480.000
329.962;  -55.150;  131.000; -301.000
330.097;  -83.725; -673.000; -585.000
330.233;  -59.950; -410.000; -223.000
330.368; -124.525; -839.000; -628.000
330.503;  -12.250;    3.000;   98.000
330.638;   -4.950;  -93.000; -125.000
330.774;  -61.350; -609.000; -530.000
330.909;  -62.050; -434.000; -244.000
331.044;  -98.600; -714.000; -708.000
331.179; -192.225;-1217.000;-1109.000
331.315;   -8.850;   77.000;   20.000
331.450;   -4.025;  157.000;  285.000
331.585;  -98.325; -805.000; -706.000
331.720;  -91.425; -510.000; -460.000
331.855;  -18.100;  -35.000; -102.000
331.990;  241.275;   62.000;  138.000
332.126;  116.475; -110.000;   71.000
332.261;  -14.500; -379.000; -265.000
332.396;  -11.525; -135.000; -242.000
332.531;  -96.775;-1074.000;-1031.000
332.666;   22.750; -519.000; -363.000
332.801; -108.075; -726.000; -807.000
332.936;  -31.825; -192.000; -122.000
333.071; -157.325; -870.000; -817.000
333.206;    2.975;  307.000;  379.000
333.341;   27.750;  344.000;  418.000
333.476;  -97.450; -627.000; -623.000
333.611;  -48.925; -251.000; -173.000
333.746;  -44.200; -381.000; -464.000
333.881; -123.675; -973.000; -935.000
334.016; -134.775; -936.000; -917.000
334.151; -116.850; -746.000; -702.000
334.286;   26.025;  152.000;  186.000
334.421;  -16.050; -125.000; -178.000
334.556;  -92.125; -611.000; -567.000
334.690;  -75.550; -631.000; -577.000
334.825;   38.350;  381.000;   83.000
334.960;  -75.025; -285.000; -413.000
335.095;   -8.325;  135.000;  -91.000
335.230; -108.825; -722.000; -738.000
335.365; -145.025;-1084.000; -990.000
335.499; -143.975;-1108.000;-1037.000
335.634;   13.575;    9.000;  534.000
335.769;  -98.525; -755.000; -720.000
335.904;  -64.425; -603.000; -561.000
336.038;  -66.150; -735.000; -657.000
336.173; -119.925;-1206.000;-1194.000
336.308;    6.300; -116.000; -189.000
336.443;   -8.950; -544.000; -634.000
336.577;  -75.125; -936.000; -787.000
336.712;   62.925;   -4.000;  -12.000
336.847;  -46.050; -724.000; -607.000
336.981;   65.375; -272.000; -208.000
337.116;  271.525;  615.000;  501.000
337.250;  138.925; -434.000; -421.000
337.385;  245.950; -297.000; -208.000
337.520;   78.900; -632.000; -603.000
337.654;  -58.950; -215.000; -126.000
337.789; -135.475; -989.000; -933.000
337.923;  -48.225; -104.000; -205.000
338.058;  -89.350; -673.000; -738.000
338.192;  -47.350; -611.000; -488.000
338.327;  -24.575;  -18.000; -155.000
338.461;  -79.525; -299.000; -469.000
338.596;  -91.925; -780.000; -638.000
338.730; -101.075; -767.000; -803.000
338.865;   78.425;  -46.000; -140.000
338.999;  -60.250; -846.000; -702.000
339.134;  -22.925; -634.000; -536.000
339.268;   10.500; -741.000; -603.000
339.403;  366.275; -740.000; -775.000
339.537;  109.525; -894.000; -820.000
339.671; -119.400; -829.000; -813.000
339.806;  -77.525; -556.000; -512.000
339.940;    1.575; -261.000; -235.000
340.074; -111.425; -685.000; -510.000
340.209;  -62.000; -351.000; -230.000
340.343;  -95.350; -517.000; -573.000
340.477;  132.650;  998.000; 1036.000
340.612;  -56.950;-1033.000; -900.000
340.746;  127.500; -199.000; -243.000
340.880;  -78.050; -924.000; -785.000
341.014;  -27.775;  -45.000; -154.000
341.149; -117.050; -756.000; -718.000
341.283; -109.975; -839.000; -754.000
341.417;  -99.900;-1124.000; -938.000
341.551;  114.600; -768.000; -708.000
341.685;  -45.875; -633.000; -611.000
341.820;  -57.075; -562.000; -493.000
341.954;  -49.950; -218.000; -349.000
342.088; -163.025;-1102.000;-1019.000
342.222;   34.650;  565.000;  618.000
342.356;  -69.150; -395.000; -335.000
342.490; -105.025; -880.000; -841.000
342.624;  -47.725; -339.000; -242.000
342.758;   -7.725; -364.000; -312.000
342.892;  -68.375; -710.000; -585.000
343.026;  -47.800;  -58.000; -116.000
343.160;  -68.050; -426.000; -376.000
343.294;  -84.950; -474.000; -337.000
343.428;  -32.100; -488.000; -448.000
343.562;  -23.575; -172.000;  -23.000
343.696;  -34.025; -385.000; -314.000
343.830;  -17.225; -362.000; -356.000
343.964;    7.800; -231.000; -168.000
344.098;  895.425;  199.000;   70.000
344.232;  735.550; -266.000; -127.000
344.366;   78.050; -567.000; -453.000
344.500;   54.625; -665.000; -744.000
344.634;   19.125; -324.000; -164.000
344.768;  -14.500; -531.000; -341.000
344.902;   14.275;  278.000;  256.000
345.035;  -84.875; -556.000; -496.000
345.169; -152.100; -933.000; -656.000
345.303;  -49.525; -308.000; -482.000
345.437;  -85.675; -826.000; -717.000
345.571;  -81.700; -675.000; -594.000
345.704;  -74.700; -309.000; -532.000
345.838;  -22.275; -331.000; -284.000
345.972;  -51.300; -543.000; -495.000
346.106;  150.250; -179.000; -190.000
346.239;  415.250; -312.000; -243.000
346.373;   -6.825; -343.000; -302.000
346.507; -140.900; -950.000; -962.000
346.640;  112.800;  -30.000;   13.000
346.774;  -60.700; -650.000; -797.000
346.908;  -33.700; -138.000;  -11.000
347.041;  -99.525; -646.000; -593.000
347.175;   -3.850;  259.000;   27.000
347.309;  -79.675; -698.000; -628.000
347.442; -113.225; -883.000; -732.000
347.576;  267.650;  670.000;  668.000
347.709;  198.825; -123.000;  -52.000
347.843;  -97.525; -933.000; -825.000
347.976;   27.725;  235.000;  294.000
348.110; -189.825;-1268.000;-1186.000
348.243; -111.875; -679.000; -772.000
348.377;   -6.425;  -26.000;   60.000
348.510;   41.975;  403.000;  540.000
348.644;  -50.800;  -37.000; -159.000
348.777;   -9.025;  180.000;  191.000
348.911;  -61.925; -142.000; -112.000
349.044;  159.075;  471.000;  448.000
349.178;  167.250;-1069.000;-1006.000
349.311;  111.150;  141.000;  255.000
349.444;   -0.325; -927.000; -813.000
349.578;  -28.175; -347.000; -200.000
349.711; -102.450; -959.000; -862.000
349.845;   -8.075; -661.000; -591.000
349.978; -160.100;-1224.000;-1137.000
350.111;  -98.925; -546.000; -612.000
350.244;  -91.700; -596.000; -700.000
350.378;   -6.525; -392.000; -393.000
350.511;  -80.025; -393.000; -426.000
350.644; -121.925; -808.000; -806.000
350.778;   -0.375;  168.000;  104.000
350.911;  -18.000;  134.000;  140.000
351.044; -103.525; -685.000; -615.000
351.177;  -32.525; -321.000; -281.000
351.310;  -42.625;    3.000; -131.000
351.444;  -89.275; -888.000; -788.000
351.577;  111.550;  140.000;   90.000
351.710;   86.825;  593.000;  417.000
351.843;  -39.825; -165.000;  -77.000
351.976;  -11.850;  149.000;  -79.000
352.109; -103.000; -621.000; -612.000
352.242;  -37.600; -464.000; -419.000
352.376;  -70.225; -580.000; -636.000
352.509;  166.300; -437.000; -356.000
352.642;  -10.325; -654.000; -604.000
352.775;   42.625; -141.000;  -98.000
352.908; -123.650; -933.000; -904.000
353.041; -107.150; -814.000; -824.000
353.174;  -53.650; -551.000; -424.000
353.307;  -90.800; -753.000; -764.000
353.440;   48.825;  541.000;  453.000
353.573; -113.850; -957.000;-1008.000
353.706;  -62.925; -384.000; -558.000
353.839;  -33.550; -264.000; -220.000
353.971; -108.425; -657.000; -512.000
354.104; -101.825; -896.000; -835.000
354.237;  -38.400; -627.000; -662.000
354.370;  -95.825; -846.000; -879.000
354.503; -185.400;-1231.000;-1308.000
354.636;  -47.025; -529.000; -348.000
354.769; -126.075; -937.000; -860.000
354.902;  -12.375; -230.000; -139.000
355.034;  -28.650; -164.000; -220.000
355.167;  -26.250; -262.000; -162.000
355.300;  -99.750;-1061.000; -880.000
355.433;  952.575;  -71.000;  -14.000
355.565; 1532.800; -402.000; -384.000
355.698;  389.325; -356.000; -296.000
355.831;   -8.675; -882.000; -801.000
355.964;   59.600; -285.000; -170.000
356.096; -107.300; -856.000; -843.000
356.229;   -5.775; -523.000; -530.000
356.362;  321.300; -373.000; -266.000
356.494;  582.725; -229.000; -162.000
356.627;  491.900;  269.000;  377.000
356.760;  651.250;  120.000;   53.000
356.892;  966.650; -286.000; -601.000
357.025;  661.475;  403.000;  389.000
357.157;  577.725; -167.000; -179.000
357.290;  674.275; -856.000; -713.000
357.423;  208.900; -667.000; -556.000
357.555;  111.700; -217.000; -228.000
357.688;  115.475; -483.000; -364.000
357.820;  460.250; -870.000; -877.000
357.953; 3759.750; -563.000; -589.000
358.085;  817.050; -632.000; -612.000
358.218; 1110.100;-1131.000; -932.000
358.350;  194.500;  -58.000;  312.000
358.483; -127.675;-1300.000;-1187.000
358.615;  -20.900;-1182.000;-1078.000
358.747;  -73.275;-1187.000;-1058.000
358.880;    5.225; -810.000; -744.000
359.012;  -20.300; -376.000; -202.000
359.145;  -46.775; -480.000; -511.000
359.277;   57.025; -962.000; -913.000
359.409; 3060.900;  536.000;  231.000
359.542;  835.350; -738.000; -688.000
359.674;   70.225;   46.000;   13.000
359.806;  -65.100; -565.000; -438.000
359.939;  -51.400; -617.000; -516.000
360.071;  -21.050; -583.000; -579.000
360.203;  -31.850; -411.000; -364.000
360.335;   45.200;  164.000;  -16.000
360.468;  195.800; -249.000; -307.000
360.600; 2473.025; -547.000; -454.000
360.732; 2913.575; -546.000; -423.000
360.864;  410.225;-1216.000;-1044.000
360.996;  256.800; -516.000; -554.000
361.129;   26.725; -389.000; -598.000
361.261;   10.175;  110.000; -113.000
361.393;  -28.500; -252.000; -214.000
361.525;   17.675;   94.000;  244.000
361.657;  -49.600; -821.000; -703.000
361.789;    3.775; -139.000; -155.000
361.921;  209.525; -642.000; -593.000
362.053;  258.225;  524.000;  541.000
362.185;   26.025;  288.000;   72.000
362.318;  -94.925; -709.000; -705.000
362.450;   92.100;  294.000;  444.000
362.582;   97.275; -913.000; -870.000
362.714;  -47.875; -353.000; -332.000
362.846; -101.125; -606.000; -490.000
362.978; -150.450; -941.000; -811.000
363.109;   36.075; -161.000; -260.000
363.241;  419.425; -739.000; -749.000
363.373;  434.875; -649.000; -564.000
363.505;  661.900; -186.000;  -91.000
363.637;  151.400; -787.000; -601.000
363.769; -120.350;-1067.000;-1080.000
363.901;  -87.000; -596.000; -654.000
364.033; -124.325;-1103.000;-1062.000
364.165;  -28.175; -283.000; -283.000
364.296;   64.575; -316.000; -177.000
364.428;   63.175;-1344.000;-1220.000
364.560;  -77.550; -679.000; -661.000
364.692;  -70.550; -738.000; -835.000
364.824;  255.275; -588.000; -456.000
364.955;  451.150; -402.000; -564.000
365.087;  944.175;-1097.000; -852.000
365.219;   42.725; -686.000; -816.000
365.351;  -75.900; -526.000; -572.000
365.482;   27.025;  300.000;  240.000
365.614;  -52.925; -402.000; -314.000
365.746; -110.400; -729.000; -752.000
365.877;  -96.800; -706.000; -672.000
366.009;  241.375;  -35.000;  -62.000
366.141;  -86.275;-1249.000;-1134.000
366.272; -119.850; -803.000; -719.000
366.404; -124.450;-1005.000; -874.000
366.535;  -18.000; -139.000;  -12.000
366.667;  -94.500; -644.000; -649.000
366.799;   34.625;  353.000;  203.000
366.930; -133.650; -862.000; -996.000
367.062;  117.100; -639.000; -613.000
367.193;  156.050; -872.000; -842.000
367.325;  -67.125; -580.000; -684.000
367.456;   36.900; -246.000;   31.000
367.588;  146.550; -371.000; -318.000
367.719;   19.125;  -44.000;  -45.000
367.851;  -20.525; -222.000; -241.000
367.982;  -65.450; -875.000; -732.000
368.113;   96.675; -475.000; -358.000
368.245; -131.975; -960.000; -841.000
368.376;  -16.425; -254.000; -302.000
368.508;  -44.025; -188.000; -263.000
368.639; -136.825;-1166.000;-1034.000
368.770;  -23.950; -670.000; -589.000
368.902;  -70.275; -836.000; -926.000
369.033; -122.350; -906.000; -855.000
369.164;  -54.225; -720.000; -653.000
369.296; -104.550; -452.000; -601.000
369.427;  -19.050; -209.000; -144.000
369.558;  -67.575; -593.000; -377.000
369.689;  -97.150; -721.000; -569.000
369.821; -142.125; -951.000; -845.000
369.952;  -33.525;   42.000; -108.000
370.083;  -43.550; -229.000; -108.000
370.214;  -92.900; -735.000; -650.000
370.345;  -11.975;   65.000;   81.000
370.477;  -86.375; -810.000; -790.000
370.608;  217.825; -328.000; -264.000
370.739;  -45.550;-1233.000;-1292.000
370.870;  -39.425;-1102.000; -923.000
371.001;   79.475; -378.000; -467.000
371.132;  -90.825; -754.000; -735.000
371.263;  -21.950;  -42.000; -148.000
371.394; -143.825; -841.000; -748.000
371.525;   16.175;  345.000;  225.000
371.657;  -97.100; -808.000; -670.000
371.788;   51.025;  103.000;  199.000
371.919;  157.450; -384.000; -304.000
372.050; 3573.450;  -91.000; -156.000
372.181; 1111.250; -188.000; -294.000
372.311;  354.275;   42.000; -127.000
372.442;   24.125; -457.000; -451.000
372.573;  -25.875; -444.000; -340.000
372.704; -131.000;-1008.000; -980.000
372.835;   88.675; -228.000; -289.000
372.966;  -58.825; -646.000; -554.000
373.097;  -70.450; -575.000; -711.000
373.228;  -46.775; -717.000; -542.000
373.359;  116.550; -824.000; -536.000
373.490;  889.750; -881.000; -727.000
373.620; 1158.700;-1001.000; -803.000
373.751; 1747.625; -332.000; -396.000
373.882;  803.475; -663.000; -733.000
374.013;   50.950; -449.000; -262.000
374.143;  -41.200; -581.000; -659.000
374.274; -113.275; -987.000; -908.000
374.405;  155.875; -388.000; -276.000
374.536;  430.825; -526.000; -387.000
374.666; 1089.025; -759.000; -807.000
374.797;  212.050; -817.000; -868.000
374.928;  829.175; -710.000; -560.000
375.058;  864.350; -535.000; -500.000
375.189;   61.300;  -59.000;  -93.000
375.320; -113.650; -928.000;-1034.000
375.450;  -33.600; -625.000; -616.000
375.581;  -65.600; -526.000; -436.000
375.712;  -38.925; -574.000; -250.000
375.842;  282.825; -438.000; -415.000
375.973;  200.725; -554.000; -513.000
376.103;  -54.575; -665.000; -648.000
376.234;  -85.850; -531.000; -552.000
376.364;  -49.875; -944.000; -867.000
376.495;  292.900;  925.000;  529.000
376.625;  -18.750; -472.000; -485.000
376.756;   43.200; -709.000; -678.000
376.886;  -77.925;-1178.000;-1026.000
377.017;   29.400;-1048.000;-1061.000
377.147;  344.675; -786.000; -782.000
377.278;   57.900;  174.000;  228.000
377.408; -135.300; -801.000; -815.000
377.538; -120.925; -707.000; -693.000
377.669;  -99.800; -537.000; -613.000
377.799;  -88.175; -645.000; -635.000
377.929;  -72.700; -610.000; -428.000
378.060; -130.425; -781.000; -847.000
378.190;  -77.600; -726.000; -531.000
378.320;  -46.825; -401.000; -406.000
378.451;  -22.175; -131.000;  -22.000
378.581;  -17.150;  -67.000; -110.000
378.711;  144.150; 1035.000;  866.000
378.841;  -23.750; -533.000; -675.000
378.972;  -79.175; -871.000; -751.000
379.102;  -13.500; -652.000; -579.000
379.232;  -27.525; -126.000;  -73.000
379.362; -111.500;-1001.000; -885.000
379.492;   -9.175; -373.000; -424.000
379.623;  102.800;    0.000;  111.000
379.753; -110.800;-1107.000; -974.000
379.883;  186.675;   59.000;  156.000
380.013;  -13.600;-1081.000;-1017.000
380.143;  -95.650;-1097.000;-1056.000
380.273;  -97.925; -985.000; -861.000
380.403;  -14.375; -344.000; -257.000
380.533;  -19.925; -651.000; -664.000
380.663;   58.650;  173.000;  128.000
380.793; -111.950;-1027.000;-1074.000
380.923;  -28.450; -103.000;  -34.000
381.053; -101.350; -613.000; -623.000
381.183;  -53.300; -106.000; -248.000
381.313;   28.625; -656.000; -470.000
381.443;   30.075; -692.000; -473.000
381.573;  191.900; -402.000; -409.000
381.703;  267.800;-1249.000;-1095.000
381.833; -132.200;-1454.000;-1336.000
381.963;  114.875; -134.000;  -87.000
382.093; 1401.400; -925.000; -909.000
382.223;  438.700; -713.000; -602.000
382.353;  -14.800; -801.000; -608.000
382.482;  348.750;-1091.000; -964.000
382.612;  764.375; -872.000; -644.000
382.742;  430.525; -695.000; -622.000
382.872;  248.075; -565.000; -551.000
383.002;   57.975;  347.000; -132.000
383.131;  -11.175; -226.000; -160.000
383.261;  -64.600; -706.000; -768.000
383.391;  280.700; -552.000; -377.000
383.521; 3274.650;  451.000;  263.000
383.650;  821.700; -947.000; -904.000
383.780;  -20.600; -783.000; -656.000
383.910;  103.275;  880.000;  802.000
384.039;   22.425; -794.000; -656.000
384.169;  204.800;-1205.000;-1017.000
384.299;  -25.700; -650.000; -662.000
384.428; -100.925; -764.000; -680.000
384.558;  -59.150; -308.000; -275.000
384.687;  -50.000; -414.000; -334.000
384.817;    2.150;   75.000;   -2.000
384.947;    0.575; -234.000; -141.000
385.076;  272.075;  982.000;  912.000
385.206;   81.150;  369.000;  480.000
385.335;  -48.175; -549.000; -417.000
385.465;  -85.750; -655.000; -663.000
385.594;  109.000;  -53.000;  -44.000
385.724;  396.450; -868.000; -838.000
385.853;  101.225; -296.000; -270.000
385.982; 1298.975; -743.000; -787.000
386.112; 2132.100;-1052.000; -871.000
386.241;  127.950; -307.000; -312.000
386.371;    8.200; -174.000;  -87.000
386.500;  -23.725; -825.000; -789.000
386.629;   16.125; -874.000; -817.000
386.759;   54.600;  -43.000;   68.000
386.888;  -25.350; -170.000; -250.000
387.017;  -94.025; -648.000; -620.000
387.147; -111.550; -771.000; -798.000
387.276;  -16.975; -410.000; -397.000
387.405;    4.225; -398.000; -342.000
387.535;  -60.925; -452.000; -361.000
387.664;  -66.050; -692.000; -620.000
387.793;   50.750; -198.000; -113.000
387.922;  490.500;  255.000;  200.000
388.052;    9.725; -576.000; -423.000
388.181;  -10.075; -342.000; -472.000
388.310;  -16.700; -889.000; -710.000
388.439;  -55.575; -749.000; -742.000
388.568;  169.350;  365.000;  244.000
388.697;  996.900; -756.000; -653.000
388.826;  214.950; -768.000; -666.000
388.956;   50.575; -285.000; -307.000
389.085;  -36.850; -347.000; -287.000
389.214; -123.900; -842.000; -872.000
389.343;  -73.400; -645.000; -413.000
389.472;  388.550;  126.000;  149.000
389.601;  524.775;   91.000;    0.000
389.730;    0.450; -568.000; -687.000
389.859;   47.175;  226.000;   46.000
389.988;  166.575; -423.000; -408.000
390.117;  138.450; -168.000; -146.000
390.246;  -11.825; -331.000; -320.000
390.375;   83.450; -673.000; -626.000
390.504;  -62.800; -703.000; -621.000
390.633; -105.100; -672.000; -726.000
390.761;  -73.750; -732.000; -645.000
390.890;    5.800;   -4.000; -130.000
391.019;  -43.850; -421.000; -441.000
391.148; -127.425; -826.000; -855.000
391.277;  -72.625; -576.000; -493.000
391.406;  -82.800; -821.000; -805.000
391.534;    8.925;  574.000; -301.000
391.663;  -58.700; -583.000; -645.000
391.792;  -84.600; -673.000; -701.000
391.921;   75.925;   -3.000;   15.000
392.050;  157.675; -287.000; -228.000
392.178;  -50.450;-1206.000;-1061.000
392.307;  131.725; -758.000; -712.000
392.436;   72.700; -427.000; -641.000
392.564;   19.575;  166.000;   -6.000
392.693; -100.400; -860.000; -682.000
392.822;  186.425; -529.000; -534.000
392.950;   83.025; -880.000; -714.000
393.079;  305.825; -188.000; -328.000
393.208;   17.250; -488.000; -511.000
393.336;  -20.575; -170.000; -145.000
393.465;  -47.200; -317.000; -199.000
393.593;   -6.975;   62.000;   79.000
393.722; -167.725;-1121.000; -916.000
393.850;  -38.975; -188.000;  -61.000
393.979; -161.050; -926.000; -805.000
394.107;  -80.100; -517.000; -537.000
394.236;  -30.875; -570.000; -507.000
394.364;  205.425;  383.000;  206.000
394.493;  342.500; -911.000; -767.000
394.621;  -26.375; -955.000; -916.000
394.750;  704.975; -873.000; -923.000
394.878; 2946.000; -247.000; -149.000
395.007; 4108.225; -721.000; -807.000
395.135;  307.975; -790.000; -721.000
395.263;  -82.350;-1038.000;-1040.000
395.392;   -5.900;  -25.000; -107.000
395.520; -141.750; -818.000; -679.000
395.648;  -94.600; -865.000; -915.000
395.777;  -24.925; -366.000; -405.000
395.905;  -67.100; -449.000; -564.000
396.033;   11.200;  217.000;  172.000
396.162;  555.525; -399.000; -453.000
396.290;  503.750;  -17.000;   -2.000
396.418;   81.100; -555.000; -514.000
396.546;  -78.175; -571.000; -466.000
396.674; -101.700; -850.000; -878.000
396.803;    3.900;  -72.000;  -23.000
396.931;   94.900; -179.000; -199.000
397.059;   28.525;-1026.000; -989.000
397.187; -114.500;-1026.000; -975.000
397.315; -142.275; -884.000; -649.000
397.443; -103.425; -592.000; -443.000
397.572; -103.975; -578.000; -424.000
397.700;  -22.825; -607.000; -614.000
397.828;   10.075;  120.000;  -90.000
397.956;  -58.725; -508.000; -478.000
398.084;  -72.825; -767.000; -626.000
398.212;   19.900;  137.000;  124.000
398.340;    0.350;  -56.000;  159.000
398.468;   13.475; -390.000; -169.000
398.596; -148.050; -993.000; -953.000
398.724; -134.875; -762.000; -767.000
398.852; -164.475;-1024.000; -976.000
398.980;  -75.025; -560.000; -560.000
399.108;  -63.975; -982.000; -735.000
399.236;    8.275;   13.000;    8.000
399.363;    8.825;  222.000;  196.000
399.491;  -71.725; -404.000; -398.000
399.619; -133.425; -829.000; -800.000
399.747; -115.100; -859.000; -771.000
399.875;   73.500;  220.000;  234.000
400.003;  -61.675; -359.000; -284.000
400.130; -112.500; -421.000; -341.000
400.258;  -42.275;  -83.000;   38.000
400.386;  -76.600; -352.000; -168.000
400.514;  -68.975; -526.000; -587.000
400.641;  -96.375; -928.000; -802.000
400.769; -137.975; -979.000; -888.000
400.897; -128.025; -838.000; -793.000
401.025;  -17.450; -166.000; -152.000
401.152;  -17.350;  220.000;   38.000
401.280;  -90.825; -430.000; -429.000
401.408; -127.175; -712.000; -576.000
401.535; -121.500; -735.000; -758.000
401.663; -195.025;-1134.000;-1054.000
401.790;  -98.650; -514.000; -525.000
401.918;   33.025;  436.000;  405.000
402.046;  -43.975;  134.000;  122.000
402.173;  -40.875;  -18.000;    7.000
402.301;  -87.175; -519.000; -397.000
402.428;   19.775;  528.000;  383.000
402.556; -140.900;-1188.000; -913.000
402.683;  -26.850;  -20.000;   -1.000
402.811;  -33.025;  -37.000; -206.000
402.938;  -20.475;   20.000;   27.000
403.066;  171.100; -574.000; -558.000
403.193;  322.450;  299.000;  239.000
403.321;  243.650; -396.000; -574.000
403.448;  320.875;   83.000;   27.000
403.575;  123.200;  -90.000;  -46.000
403.703; -107.575; -732.000; -557.000
403.830;  -65.000; -531.000; -496.000
403.957; -153.500;-1117.000;-1023.000
404.085;    1.275;  -61.000; -172.000
404.212;   91.650;  -50.000;   63.000
404.339;  254.775; -566.000; -306.000
404.467; 5809.575; -612.000; -524.000
404.594; 3884.150; -287.000; -227.000
404.721;  897.800; -869.000; -764.000
404.848;   85.525; -113.000; -202.000
404.976;  -90.550; -856.000; -783.000
405.103;  -22.175;  -14.000;  -82.000
405.230;  -15.725;  190.000;  226.000
405.357;    4.600;  117.000;   44.000
405.484;  251.150;  -49.000;    5.000
405.612;   44.475; -548.000; -563.000
405.739;  -61.800; -488.000; -243.000
405.866;   77.125;  669.000;  385.000
405.993;  -59.100; -398.000; -102.000
406.120; -136.650; -801.000; -887.000
406.247;  -68.250; -323.000; -342.000
406.374;  408.875;  540.000;  629.000
406.501;  110.450; -632.000; -702.000
406.628;  -92.600; -621.000; -589.000
406.755; -106.025; -803.000; -620.000
406.882;  -45.975; -228.000; -277.000
407.009; -109.325; -719.000; -628.000
407.136;   31.700; -480.000; -401.000
407.263;  118.275; -939.000; -829.000
407.390;  -85.175; -692.000; -614.000
407.517; -177.900;-1139.000;-1187.000
407.644;  -73.025; -332.000; -256.000
407.771;  -67.125; -249.000; -287.000
407.898;    1.350;  168.000;  328.000
408.025;  -77.175; -421.000; -313.000
408.151;  -26.275;   82.000;  153.000
408.278;  -80.400; -267.000; -216.000
408.405; -134.725; -931.000; -899.000
408.532;  -75.025; -549.000; -542.000
408.659; -112.650; -677.000; -648.000
408.785; -201.850;-1298.000;-1170.000
408.912;  -80.025; -412.000; -296.000
409.039; -116.050; -610.000; -686.000
409.166; -121.300; -591.000; -555.000
409.292; -111.225; -571.000; -534.000
409.419; -134.125; -665.000; -649.000
409.546;  -93.675; -431.000; -192.000
409.672; -115.650; -713.000; -545.000
409.799;  -40.600;  -36.000;   34.000
409.926;  -45.700; -180.000; -179.000
410.052; -178.275;-1127.000;-1091.000
410.179;  -61.025; -368.000; -392.000
410.305; -117.975; -375.000; -493.000
410.432;  -47.275; -220.000; -333.000
410.558; -106.525; -305.000; -380.000
410.685; -110.575; -688.000; -431.000
410.812; -104.475; -409.000; -588.000
410.938; -142.925; -964.000; -808.000
411.065; -118.425; -671.000; -645.000
411.191;  -28.925; -189.000; -174.000
411.317; -122.275; -823.000; -742.000
411.444;  -76.375; -317.000; -246.000
411.570;  -94.700; -339.000; -294.000
411.697; -134.475; -758.000; -752.000
411.823; -174.625; -989.000; -999.000
411.949;  -44.325;  -56.000;   17.000
412.076; -130.225; -539.000; -519.000
412.202; -122.250; -758.000; -757.000
412.329; -142.100; -798.000; -752.000
412.455; -123.050; -821.000; -657.000
412.581;  -26.550;  -15.000;  172.000
412.707;  -77.800; -540.000; -457.000
412.834;   -6.350;  156.000;  219.000
412.960; -102.200; -785.000; -784.000
413.086; -112.750; -743.000; -701.000
413.212;  125.375;  604.000;  578.000
413.339;  -66.675; -685.000; -701.000
413.465;    0.025; -364.000; -310.000
413.591; -100.375; -757.000; -474.000
413.717;  -66.575; -358.000; -366.000
413.843; -148.875; -839.000; -861.000
413.969;  -65.025;  -47.000; -292.000
414.096; -110.525; -679.000; -679.000
414.222;  -17.975;  -33.000;   85.000
414.348;  -48.950; -652.000; -385.000
414.474;   85.575;   38.000;  -52.000
414.600;  -20.175; -126.000; -144.000
414.726;  -27.950;  -96.000;  -55.000
414.852;  -77.575; -365.000; -342.000
414.978;   16.100;  104.000;  -18.000
415.104;   27.600;   38.000;   80.000
415.230;   24.050; -329.000; -330.000
415.356;   32.775; -409.000; -514.000
415.482;  195.375;   13.000;  -35.000
415.608;  268.375; -247.000; -323.000
415.734;  954.375;   67.000;   38.000
415.860;19819.875; -875.000; -767.000
415.986;15106.800; -685.000; -607.000
416.111; 1328.000; -798.000; -652.000
416.237;  255.800; -424.000; -571.000
416.363; 1100.225; -765.000; -733.000
416.489; 4295.225; -324.000; -251.000
416.615;  471.825; -707.000; -742.000
416.741;  -41.775; -677.000; -784.000
416.866; -100.825; -673.000; -736.000
416.992; -141.675; -801.000; -818.000
417.118;  -39.000;  -41.000;  -80.000
417.244;  -80.325; -798.000; -531.000
417.369;  -89.125; -801.000; -612.000
417.495;  -17.625; -325.000; -254.000
417.621;  -85.875;-1015.000; -803.000
417.746;  -16.150; -579.000; -572.000
417.872;   40.325; -254.000; -144.000
417.998;   58.050; -515.000; -530.000
418.123; 1032.450;-1073.000; -845.000
418.249; 5525.750; -512.000; -601.000
418.374;  822.500; -916.000; -824.000
418.500;  110.525; -383.000; -482.000
418.626;   87.675;   70.000;  -59.000
418.751;  109.300; -549.000; -448.000
418.877;  205.900; -637.000; -643.000
419.002; 1770.300; -688.000; -560.000
419.128;12779.100; -930.000; -721.000
419.253; 3310.950; -967.000; -837.000
419.379;  428.200; -391.000; -338.000
419.504;  388.625;  325.000;  415.000
419.629;  529.925; -393.000; -212.000
419.755; 3484.225; -317.000; -254.000
419.880;21657.500;  -98.000;   67.000
420.006;11584.775; -280.000; -221.000
420.131;30215.475; -662.000; -775.000
420.256; 4518.700; -315.000; -316.000
420.382;  601.925; -665.000; -687.000
420.507;   62.050; -649.000; -778.000
420.632;  114.075; -337.000; -339.000
420.758;  228.250; -251.000; -425.000
420.883;  -89.775; -876.000; -672.000
421.008; -112.500; -775.000; -619.000
421.133;  -97.725; -509.000; -467.000
421.259;  -57.050; -325.000; -259.000
421.384; -131.450; -834.000; -693.000
421.509;  -62.125;-1052.000; -862.000
421.634; 1061.050; -936.000; -820.000
421.759;  486.900; -359.000; -327.000
421.885;  -66.675; -717.000; -656.000
422.010;  -80.475; -673.000; -542.000
422.135; -140.275; -695.000; -727.000
422.260;   21.750;  340.000;  280.000
422.385;  -57.550;   12.000;  -98.000
422.510;  -16.100;  151.000;  -26.000
422.635;    9.550;  -87.000;  -43.000
422.760;   96.025; -766.000; -791.000
422.885;   62.775;  -57.000;  -80.000
423.010;  -27.575; -112.000; -169.000
423.135; -103.525; -481.000; -561.000
423.260;  -12.900; -150.000; -245.000
423.385;   46.000;  476.000;  222.000
423.510;   11.650;   71.000;  -22.000
423.635;   71.050;  133.000;   45.000
423.760;   39.250;  383.000;  328.000
423.885;   45.000;  336.000;  391.000
424.010;    9.700;  -68.000;  -13.000
424.135;  -29.875;    5.000;  -33.000
424.259; -106.075; -654.000; -457.000
424.384;  -73.675; -279.000; -272.000
424.509;  -42.425; -260.000; -186.000
424.634; -108.275; -761.000; -623.000
424.759;  -28.350; -688.000; -544.000
424.883;  -14.500; -506.000; -527.000
425.008;  156.800; -502.000; -410.000
425.133; 1990.950; -679.000; -653.000
425.258; 1008.400; -517.000; -381.000
425.382; 1008.475; -867.000; -774.000
425.507; 2626.550; -487.000; -543.000
425.632;  461.550; -802.000; -663.000
425.756;  470.300; -256.000; -146.000
425.881; 6482.625; -831.000; -857.000
426.006;18521.600; -604.000; -355.000
426.130; 2987.100; -696.000; -508.000
426.255;  379.850; -611.000; -491.000
426.379;  157.625; -189.000; -577.000
426.504;  362.325;  660.000;  544.000
426.629; 3990.725; -519.000; -466.000
426.753; 2888.025;   64.000;  -46.000
426.878;  333.800; -252.000; -288.000
427.002;  137.200; -651.000; -668.000
427.127; 1515.400;  -35.000; -158.000
427.251;11603.675;  372.000;  401.000
427.375; 3484.525; -191.000; -173.000
427.500; 2292.400; -616.000; -610.000
427.624;  818.200; -234.000; -400.000
427.749;   77.200; -216.000; -225.000
427.873;  -47.325; -499.000; -412.000
427.997;  -42.925; -222.000; -230.000
428.122;   66.100;  795.000;  703.000
428.246;   61.975;  433.000;  434.000
428.371; -128.225; -869.000; -773.000
428.495; -118.550; -624.000; -646.000
428.619;  -44.950; -186.000; -117.000
428.743;   21.775;   65.000;  132.000
428.868;   -9.075; -732.000; -643.000
428.992; 1371.550; -219.000; -326.000
429.116;  584.950; -329.000; -357.000
429.240;  266.200;  419.000;  426.000
429.365;  -30.700; -454.000; -574.000
429.489;  -61.175; -638.000; -647.000
429.613;    9.550; -236.000; -177.000
429.737;   19.650; -563.000; -432.000
429.861;  259.300; -247.000; -133.000
429.985; 5498.350; -425.000; -305.000
430.109; 6383.500; -770.000; -908.000
430.234;  751.025;   76.000;  -50.000
430.358;   54.100; -250.000; -160.000
430.482;  -79.250; -672.000; -564.000
430.606;  -72.500; -655.000; -375.000
430.730;    0.000; -437.000; -388.000
430.854;   96.675; -909.000; -835.000
430.978;  -72.725; -795.000; -764.000
431.102; -104.375; -499.000; -422.000
431.226; -135.425; -874.000; -815.000
431.350;   10.800;  345.000;  422.000
431.474;  -99.175; -661.000; -373.000
431.597; -158.850;-1060.000; -848.000
431.721;  -88.425; -276.000; -267.000
431.845; -152.200; -704.000; -472.000
431.969;  -83.500; -304.000; -349.000
432.093;  -98.075; -395.000; -317.000
432.217;  -21.850;   32.000;   82.000
432.341; -102.975; -523.000; -518.000
432.464;  -15.525;   96.000;   40.000
432.588;  179.250; -401.000; -329.000
432.712;   76.675;  -52.000;  -52.000
432.836;   33.225;  213.000;  263.000
432.959;  -24.000; -372.000; -311.000
433.083;   73.125;   11.000;    2.000
433.207;  370.975;  285.000;  930.000
433.330; 5035.600; -391.000; -200.000
433.454; 6511.625; -654.000; -638.000
433.578; 3686.450;  583.000;  278.000
433.701;  695.150; -623.000; -675.000
433.825;  136.400; -292.000; -299.000
433.949;  149.625;   28.000;  -72.000
434.072;   52.650; -410.000; -323.000
434.196;  -29.025; -309.000; -117.000
434.319; 3616.400;25482.000;25124.000
434.443;  708.650; -656.000; -603.000
434.566; 2703.250;  281.000;   62.000
434.690;  481.225; -637.000; -383.000
434.813;   51.775; -251.000; -173.000
434.937;  -93.925; -569.000; -696.000
435.060;  -64.850; -423.000; -332.000
435.184;  263.175; -492.000; -217.000
435.307;  163.925;  159.000;  102.000
435.431;  -22.475;  -40.000;   24.000
435.554;  -82.325; -399.000; -240.000
435.677;  -95.975; -350.000; -258.000
435.801;  -45.925;  -25.000;   49.000
435.924;  -34.975;    1.000;  -67.000
436.048; -121.275;-1019.000; -732.000
436.171;  -78.375; -240.000;  -66.000
436.294;  -31.600; -248.000; -229.000
436.417;   73.125; -963.000; -849.000
436.541;  -84.600; -814.000; -840.000
436.664;  -61.550; -242.000; -316.000
436.787;  -44.925;   13.000;  113.000
436.910; -124.350; -792.000; -422.000
437.034;   -4.850;  142.000;  143.000
437.157;   37.825;  -11.000;    0.000
437.280;  -65.600; -392.000; -292.000
437.403; -103.550; -982.000; -869.000
437.526;  553.200; -903.000; -865.000
437.649; 2108.300; -505.000; -332.000
437.772;  327.200; -692.000; -540.000
437.896;   98.075;  700.000;  544.000
438.019; -111.425; -758.000; -503.000
438.142;  -99.800; -596.000; -506.000
438.265;  -33.025; -639.000; -670.000
438.388;  515.725; -520.000; -410.000
438.511;   90.575; -597.000; -394.000
438.634;  -58.225; -247.000; -125.000
438.757; -147.425; -693.000; -619.000
438.880;  -44.325;  -34.000;  -57.000
439.003;  -92.450; -417.000; -437.000
439.126;  -65.825; -287.000; -167.000
439.248;  -69.000;  -98.000; -139.000
439.371;  -54.525;    9.000;  -53.000
439.494;   26.125;  510.000;  439.000
439.617;  -59.225;   65.000;  -88.000
439.740; -190.725; -968.000; -816.000
439.863; -150.475; -755.000; -595.000
439.986; -135.525; -476.000; -431.000
440.108;  -63.425; -161.000; -112.000
440.231; -162.350; -950.000; -836.000
440.354;  -43.275;  -64.000; -150.000
440.477;    7.075; -566.000; -542.000
440.599;   -3.000; -200.000; -225.000
440.722; -121.500; -709.000; -586.000
440.845;   46.575;  751.000;  928.000
440.968; -122.475; -415.000; -311.000
441.090;  -74.625; -199.000;  -33.000
441.213; -162.100;-1021.000; -825.000
441.336;  -58.425; -159.000;   -5.000
441.458;  -96.025; -549.000; -396.000
441.581;  -97.225; -628.000; -629.000
441.703;  -79.900; -152.000;   13.000
441.826; -111.975; -557.000; -400.000
441.948;  -54.250;   56.000;   51.000
442.071;   12.750;  555.000;  424.000
442.193; -124.325; -531.000; -485.000
442.316;   -6.950;  152.000;   97.000
442.438;   40.925; -233.000;  -10.000
442.561;   54.125;  272.000;  262.000
442.683;  482.325; -809.000; -522.000
442.806; 1093.675;   -8.000;   74.000
442.928;   29.500; -859.000; -604.000
443.051;  -83.375; -577.000; -373.000
443.173; -107.925; -341.000; -339.000
443.295;  -97.275; -263.000; -371.000
443.418;  -82.650; -321.000;  -29.000
443.540;  -21.375; -106.000;   -4.000
443.662; -124.600; -563.000; -465.000
443.785;   -6.500;  335.000;  199.000
443.907;  -98.250; -362.000; -208.000
444.029; -129.175; -767.000; -494.000
444.152; -150.275; -644.000; -554.000
444.274;  -43.200;  -18.000;  -24.000
444.396; -133.500; -461.000; -221.000
444.518; -147.075; -691.000; -454.000
444.640; -107.200; -268.000; -111.000
444.763;  -24.625;  388.000;  249.000
444.885; -128.675; -432.000; -392.000
445.007;  -36.325;   35.000;   86.000
445.129; -130.300; -610.000; -515.000
445.251; -114.325; -372.000; -439.000
445.373; -137.350; -537.000; -386.000
445.495;   -1.225;  242.000;  350.000
445.617;   50.250;  853.000;  753.000
445.739;  -77.925; -215.000;  -97.000
445.861;  -41.475; -245.000; -112.000
445.984;  -39.800; -267.000; -101.000
446.105;  162.750; -418.000; -251.000
446.227;  580.575; -176.000;  -19.000
446.349;   -9.400; -358.000; -249.000
446.471; -109.625; -615.000; -448.000
446.593;  -84.800; -316.000;   19.000
446.715;  -16.450;  -67.000;   41.000
446.837;   59.800;  697.000;  832.000
446.959; -104.175; -457.000; -478.000
447.081; -132.700; -628.000; -518.000
447.203;   42.675;  862.000;  834.000
447.325;  -99.125; -270.000;   42.000
447.446;  -16.700;  286.000;  530.000
447.568; -157.675; -921.000; -803.000
447.690;  -91.350; -236.000; -245.000
447.812; -162.750; -798.000; -519.000
447.933;  -40.525;  155.000;  127.000
448.055;  -86.250; -306.000; -261.000
448.177;  121.700;   31.000;   79.000
448.299;   68.800; -935.000; -727.000
448.420;   23.650;  -25.000;  159.000
448.542;  -58.725;   -3.000;   33.000
448.664;  -23.675;  109.000;  322.000
448.785;  -50.800;  265.000;   83.000
448.907;  -94.625; -614.000; -353.000
449.028;  -51.025; -771.000; -471.000
449.150;   55.800;  492.000;  589.000
449.272; -173.400;-1044.000; -913.000
449.393;   18.825;  612.000;  694.000
449.515; -140.750; -634.000; -581.000
449.636;  -67.800; -264.000; -155.000
449.758;   43.625;  763.000;  622.000
449.879; -104.850; -498.000; -396.000
450.001;  -84.175; -149.000;  -49.000
450.122;  -39.225;  -95.000;  162.000
450.244;  -36.325;   37.000;  364.000
450.365; -102.350; -495.000; -301.000
450.486;  -40.275;   80.000;  268.000
450.608;   21.225;  393.000;  326.000
450.729;   65.625;  578.000;  645.000
450.850;   23.125; -574.000; -466.000
450.972;  739.050; -552.000; -389.000
451.093; 4962.825;  190.000;  588.000
451.214; 2306.550; -516.000; -337.000
451.336;  404.000;  773.000;  579.000
451.457;   55.275;  264.000;  393.000
451.578;  -46.275; -118.000;  -74.000
451.699; -118.375; -546.000; -540.000
451.821;  -67.675; -284.000;  -50.000
451.942;  -17.600;  278.000;  285.000
452.063;   17.425;  228.000;  419.000
452.184;  535.575;  -54.000;  -49.000
452.305; 1133.825;  103.000;  170.000
452.427;  150.675; -549.000; -301.000
452.548;  -26.475;   23.000;   79.000
452.669;  -62.700; -257.000;  -89.000
452.790;  -53.025;    3.000;  -18.000
452.911;  -13.400;  195.000;  259.000
453.032;  -77.200; -289.000;  -60.000
453.153;  -55.525;  -29.000;   81.000
453.274;   49.175;  737.000;  868.000
453.395;  -65.150;  -51.000;  175.000
453.516;  101.425; 1317.000; 1388.000
453.637;  -78.050; -205.000; -150.000
453.758;  -63.075;   15.000;   69.000
453.879; -120.700; -462.000; -250.000
454.000;   49.825; 1086.000;  948.000
454.121; -128.175; -554.000; -326.000
454.242; -134.950; -599.000; -383.000
454.362;  -57.100;  -99.000;  114.000
454.483;  -53.975; -309.000; -229.000
454.604;   45.050;  512.000;  580.000
454.725; -142.275; -627.000; -555.000
454.846; -132.475; -474.000; -406.000
454.967;  -28.600;  230.000;  539.000
455.087;  -63.075;  179.000;  153.000
455.208;   10.075;  554.000;  856.000
455.329;  -81.350;  -22.000;   82.000
455.450;   32.775;  473.000;  633.000
455.570;  -97.150; -234.000; -211.000
455.691;  -52.725;  201.000;  407.000
455.812; -114.225; -270.000;  -92.000
455.932;  -68.650;  107.000;  -97.000
456.053;  -84.675;   36.000;   24.000
456.173; -115.375; -433.000; -355.000
456.294; -139.350; -476.000; -303.000
456.415;  -79.850;  -73.000;   70.000
456.535;  -54.250;  297.000;  273.000
456.656;  -57.500;  132.000;  240.000
456.776;  -89.525;    3.000;  298.000
456.897;   -8.225;  308.000;  513.000
457.017;  -73.800; -153.000;   -3.000
457.138; -107.625; -402.000; -249.000
457.258;  -43.225;  263.000;  224.000
457.379;  -21.750;  509.000;  521.000
457.499;  -39.475;  443.000;  432.000
457.620; -124.525; -407.000; -231.000
457.740; -118.225; -132.000;  -11.000
457.860;  -56.525;   87.000;   44.000
457.981;  -49.575;  132.000;  124.000
458.101;  -82.025;  -89.000;   40.000
458.221;  -31.400;  336.000;  402.000
458.342;  -82.150;   -4.000;  -37.000
458.462;    9.625;  617.000;  352.000
458.582;  -38.125; -302.000; -294.000
458.703;    9.475;  303.000;  154.000
458.823;  -32.475;   22.000;  163.000
458.943;   -0.175;  341.000;  467.000
459.063;  -35.450; 1124.000;  192.000
459.183;  -39.850;  328.000;  313.000
459.304;   -7.425;  315.000;  517.000
459.424;  -70.300; -246.000;  -89.000
459.544;  324.100;  388.000;  764.000
459.664;  843.775;  499.000;  506.000
459.784;  319.425; 1004.000; 1175.000
459.904;   41.675;  867.000;  744.000
460.024;   66.125;  867.000;  684.000
460.144;   -3.875;  449.000;  554.000
460.264;   -0.875;  515.000;  327.000
460.385; -103.250; -145.000; -119.000
460.505;   33.475;  905.000;  858.000
460.625; -103.625;  -17.000;  -68.000
460.745;  -35.825;  396.000;  541.000
460.864;  -55.250;  153.000;  469.000
460.984;    2.850;  499.000;  573.000
461.104;  120.425; 1656.000; 1775.000
461.224;   10.300;  657.000;  650.000
461.344;  -35.900;  431.000;  360.000
461.464;  -41.375;  258.000;  513.000
461.584;  -35.675;  283.000;  466.000
461.704;  -69.250;   58.000;  108.000
461.824;  -61.050;  238.000;  259.000
461.943;  -53.075;  191.000;  130.000
462.063;  -77.125;    2.000;  324.000
462.183;   27.675;  639.000;  717.000
462.303;   83.775; 1678.000; 1230.000
462.422;   25.650;  781.000;  840.000
462.542;  -45.400;  271.000;  391.000
462.662;   23.925;  353.000;  380.000
462.782;  219.225;  833.000;  572.000
462.901;  499.775;  545.000;  717.000
463.021;  286.500; 1702.000; 1638.000
463.141;  -24.875;  337.000;  770.000
463.260;  -42.225;  614.000;  474.000
463.380;   -6.650;  902.000;  884.000
463.499;  -40.400;  342.000;  332.000
463.619;  -54.000;  581.000;  559.000
463.738;  110.725; 1644.000;  903.000
463.858;    9.475;  657.000;  811.000
463.978;  -41.625;  542.000;  396.000
464.097;   33.575;  921.000; 1114.000
464.217;   94.500; 1196.000; 1143.000
464.336;  120.275; 1068.000; 1130.000
464.455;  -41.400;  328.000;  659.000
464.575;   35.075;  597.000;  602.000
464.694;  166.250; 1204.000; 1179.000
464.814;  127.500; 1190.000; 1138.000
464.933;   70.175; 1095.000; 1027.000
465.052;   81.700; 1412.000; 1054.000
465.172;   60.300;  922.000;  799.000
465.291;  120.825; 1376.000; 1320.000
465.410;   -1.300;  462.000;  735.000
465.530;   61.400; 1355.000; 1310.000
465.649;   51.650; 1209.000; 1273.000
465.768;  134.075; 1673.000; 1508.000
465.888;   46.125;  941.000; 1174.000
466.007;   86.375; 1335.000; 1440.000
466.126;  -15.600;  721.000;  641.000
466.245;   30.900; 1176.000; 1187.000
466.364;   23.250;  950.000; 1060.000
466.484;   59.400; 1024.000; 1213.000
466.603;   28.800; 1101.000; 1222.000
466.722;  101.025; 1490.000; 1769.000
466.841;   72.300; 1151.000; 1401.000
466.960;   34.175; 1069.000;  972.000
467.079;  120.700; 1971.000; 1786.000
467.198;   38.200; 1238.000; 1181.000
467.317;   71.850; 1768.000; 1162.000
467.436;   59.875; 1709.000; 1261.000
467.555;  115.975; 1796.000; 1746.000
467.674;   56.375; 1227.000; 1329.000
467.793;   42.575; 1376.000; 1374.000
467.912;   82.925; 1658.000; 1539.000
468.031;  131.975; 2038.000; 1930.000
468.150;  116.825; 1842.000; 1837.000
468.269;  181.150; 2313.000; 2090.000
468.388;  167.100; 2168.000; 2339.000
468.507;  238.900; 2884.000; 2903.000
468.626;  257.450; 2555.000; 2541.000
468.744;  151.350; 2018.000; 2174.000
468.863;  195.800; 2312.000; 2523.000
468.982;   75.400; 1503.000; 1555.000
469.101;  225.125; 2788.000; 2692.000
469.220;  150.175; 2333.000; 2176.000
469.338;  241.600; 2935.000; 3051.000
469.457;  184.225; 2719.000; 2545.000
469.576;  333.600; 3953.000; 3784.000
469.695;  242.300; 2877.000; 3066.000
469.813;  404.075; 4148.000; 4192.000
469.932;  409.150; 4255.000; 4485.000
470.051;  419.950; 4075.000; 4161.000
470.169;  834.050; 4470.000; 4338.000
470.288; 1497.150; 4700.000; 4809.000
470.406;  888.075; 5059.000; 5194.000
470.525;  628.525; 6101.000; 5787.000
470.644;  645.375; 6847.000; 6794.000
470.762;  789.175; 8397.000; 7873.000
470.881;  887.800; 8651.000; 8464.000
470.999; 1035.800; 9685.000; 9151.000
471.118; 1100.400;11174.000;10711.000

