
Integration time [ms]: 100.000
Averaging Nr. [scans]: 40
Smoothing Nr. [pixels]: 0
Data measured with spectrometer [name]: 2101012U2
Wave   ;Sample   ;Dark     ;Reference
[nm]   ;[counts] ;[counts] ;[counts] 

197.733;   65.425;  516.000;  404.000
197.879;  -78.175; -610.000; -634.000
198.025;  -44.125; -475.000; -420.000
198.171;  -67.025; -602.000; -612.000
198.317;  -24.775; -401.000; -316.000
198.463;  -70.700; -655.000; -404.000
198.609;   26.700;  181.000; -137.000
198.755;  -63.050; -644.000; -410.000
198.901;  -63.400; -505.000; -424.000
199.047;  -71.500; -615.000; -488.000
199.193;  -25.225; -230.000; -468.000
199.339;  -54.525; -222.000; -369.000
199.485;   43.600;  330.000;  271.000
199.631;   12.800;  227.000;  310.000
199.777;  -31.850; -466.000; -398.000
199.923;  -54.475; -610.000; -424.000
200.069;    4.075; -141.000;  -58.000
200.215;   50.375;  128.000;  453.000
200.361;   50.325;  243.000;  477.000
200.507;  -60.800; -600.000; -373.000
200.653;  -10.625; -371.000; -194.000
200.798;  -59.250; -215.000; -125.000
200.944;   -8.075; -146.000;  -41.000
201.090;   28.925;   61.000;  222.000
201.236;  -11.100; -116.000; -158.000
201.382;  116.275;  874.000;  903.000
201.528;   14.850;  -58.000;  -48.000
201.674;  -28.350; -386.000; -293.000
201.819;  -62.525; -540.000; -439.000
201.965;  -81.300; -699.000; -447.000
202.111;  -17.900; -273.000; -226.000
202.257;  -38.675; -250.000; -238.000
202.402;    9.225;   13.000;  -36.000
202.548;  -35.850; -169.000; -116.000
202.694;   89.450;  410.000; -183.000
202.840;  -71.150; -603.000; -531.000
202.985;  -69.875; -681.000; -639.000
203.131; -106.900; -832.000; -666.000
203.277;  -13.375; -199.000; -262.000
203.423;  -49.200; -434.000; -520.000
203.568;  -39.150; -462.000; -237.000
203.714;  -50.700; -535.000; -542.000
203.860;  -76.250; -682.000; -641.000
204.005;   13.950;  112.000;  167.000
204.151;   77.825;  561.000;  556.000
204.296;  -45.075; -354.000; -221.000
204.442;  -78.500; -600.000; -547.000
204.588;  -82.825; -592.000; -579.000
204.733;   20.575;  178.000;  168.000
204.879; -122.625;-1018.000; -822.000
205.025;   12.850;  -99.000;  126.000
205.170;   -7.125;  -17.000;   94.000
205.316;   82.150;  438.000;  661.000
205.461;  -82.675; -698.000; -554.000
205.607;   86.425;  609.000;  665.000
205.752;  -73.475; -626.000; -551.000
205.898;  -25.925; -501.000; -391.000
206.043;  -78.850; -578.000; -506.000
206.189;  -41.625; -243.000; -285.000
206.334;   81.525;  554.000;  606.000
206.480;   73.425;  409.000;  239.000
206.625;  -79.400; -529.000; -552.000
206.771;  -35.950; -451.000; -373.000
206.916;  -29.900; -210.000; -537.000
207.062;  -80.350; -545.000; -591.000
207.207;  -56.475; -546.000; -443.000
207.353;   63.525;  185.000;  460.000
207.498;    8.600;  196.000;   85.000
207.643;  -46.100; -501.000; -370.000
207.789; -127.125;-1069.000; -910.000
207.934;  -92.950; -665.000; -713.000
208.080;  -33.300; -154.000;   66.000
208.225;  -22.075;  -22.000;  -57.000
208.370;  -81.475; -727.000; -619.000
208.516;  -68.025; -741.000; -487.000
208.661;  -24.000; -127.000;  -69.000
208.806;  -25.050; -165.000; -171.000
208.952; -124.150;-1044.000; -731.000
209.097;   69.400;  378.000;  349.000
209.242;  -43.300; -307.000; -382.000
209.387;   62.800;  392.000;  350.000
209.533;  -63.875; -321.000; -350.000
209.678;   70.625;  472.000;  543.000
209.823;  -66.250; -408.000; -310.000
209.969;  -96.275; -860.000; -757.000
210.114; -116.200; -907.000; -719.000
210.259; -101.900; -939.000; -889.000
210.404;   -6.850; -171.000;  103.000
210.549;    9.475;  108.000;    3.000
210.695;  -16.375;   -3.000;  -95.000
210.840;   26.675;   94.000;   67.000
210.985;  -70.275; -484.000; -303.000
211.130;   64.550;  268.000;  406.000
211.275;   16.075;  207.000;  199.000
211.420;  -42.600; -300.000; -289.000
211.566;  -64.450; -536.000; -489.000
211.711;   24.425;  218.000;  157.000
211.856;  -63.700; -545.000; -519.000
212.001;   21.175;  151.000;   44.000
212.146;    9.200;  153.000;   49.000
212.291;  -21.950; -210.000; -186.000
212.436;  -21.275; -280.000;   -6.000
212.581;  -85.700; -685.000; -653.000
212.726;  -77.550; -487.000; -538.000
212.871;  -48.525; -552.000; -217.000
213.016; -163.375;-1172.000;-1029.000
213.161;   56.500;  406.000;  291.000
213.306;  -76.350; -435.000; -577.000
213.451;  -88.300; -778.000; -689.000
213.596;  -34.050; -455.000; -347.000
213.741;  -41.025; -448.000; -538.000
213.886;  -66.650; -498.000; -517.000
214.031;   -7.475; -294.000; -124.000
214.176;  -58.425; -408.000; -341.000
214.321;  -29.725; -296.000; -157.000
214.466;  -31.575; -163.000;  -43.000
214.611;   -0.825;  -61.000;  -10.000
214.756; -126.325; -948.000; -858.000
214.901;  -20.450; -388.000; -226.000
215.046; -112.575; -797.000; -825.000
215.191;    8.575;  128.000;   35.000
215.336;  -14.600; -157.000;  -19.000
215.480;  -62.800; -684.000; -505.000
215.625;  -14.925; -175.000;  -19.000
215.770;  -76.050; -757.000; -662.000
215.915;  -19.175;   -5.000;  -97.000
216.060;   -9.200; -113.000;  -21.000
216.205; -116.450; -731.000; -779.000
216.349;  -64.200; -470.000; -533.000
216.494; -125.550; -939.000; -867.000
216.639; -114.275; -823.000; -888.000
216.784;  -90.675; -577.000; -525.000
216.929;   48.975;  392.000;  281.000
217.073;  -28.825; -244.000;  -31.000
217.218;   15.875;   78.000;  -47.000
217.363;  -89.275; -656.000; -618.000
217.507;  -58.625; -623.000; -588.000
217.652; -128.975; -845.000; -874.000
217.797;  -92.650; -708.000; -659.000
217.942;  -96.575; -856.000; -720.000
218.086;   64.225;  608.000;  539.000
218.231;  -40.375; -174.000;  -26.000
218.376;  -32.100; -337.000; -229.000
218.520;  -13.475;  -41.000;   96.000
218.665;  -20.075; -338.000; -204.000
218.810;  -43.825; -275.000; -233.000
218.954;   17.150;  201.000;   35.000
219.099; -110.250; -713.000; -963.000
219.243;  -58.975; -589.000; -554.000
219.388;  -24.425; -264.000; -136.000
219.532;   -9.875; -116.000; -116.000
219.677;  -81.675; -564.000; -521.000
219.822;    4.575;   33.000;   89.000
219.966;   -9.850;   17.000;  -99.000
220.111;  -24.425; -328.000;  -40.000
220.255; -105.475; -797.000; -750.000
220.400;  -14.700; -180.000; -146.000
220.544;  -67.325; -516.000; -450.000
220.689;  -62.800; -422.000; -451.000
220.833;  -19.275; -123.000;  -58.000
220.978;  -35.475; -393.000; -563.000
221.122;   29.325;  319.000;  307.000
221.267; -106.450; -906.000; -837.000
221.411;  -81.900; -478.000; -394.000
221.555;    6.675; -104.000;  -23.000
221.700;  -53.025; -329.000; -222.000
221.844;   31.300;  255.000;  272.000
221.989;  -50.550; -328.000; -311.000
222.133;  -29.925; -289.000; -307.000
222.277;  -17.500;    5.000;   78.000
222.422;   29.300;  227.000;  113.000
222.566;  -51.600; -381.000; -214.000
222.711;  -61.975; -414.000; -479.000
222.855;  -80.025; -643.000; -586.000
222.999;  -77.700; -642.000; -717.000
223.144;  -38.500; -195.000; -194.000
223.288;   54.250;  423.000;  251.000
223.432;   17.225;  184.000;  230.000
223.576;   12.900;  152.000;  -21.000
223.721;   36.475;  364.000;  273.000
223.865;  -47.775; -472.000; -475.000
224.009;  237.950; 1673.000; 1631.000
224.153;  -87.850; -660.000; -671.000
224.298;  -66.300; -531.000; -489.000
224.442;  -12.825;  -74.000;  -33.000
224.586;  -20.600; -169.000; -106.000
224.730;  -89.400; -858.000; -670.000
224.875; -115.750; -739.000; -688.000
225.019;   14.200;  102.000;  188.000
225.163;   42.850;  208.000;  341.000
225.307;   19.600;   97.000;  -91.000
225.451;   48.825;  360.000;  481.000
225.595;   29.850;  264.000;  176.000
225.739;  -15.550; -170.000;  -94.000
225.884;   21.925;   86.000;    5.000
226.028; -105.250; -760.000; -626.000
226.172;  -46.550; -260.000; -273.000
226.316; -121.450; -941.000; -902.000
226.460;  -69.375; -645.000; -493.000
226.604;  -60.500; -406.000; -400.000
226.748;  -91.400; -836.000; -733.000
226.892;  -29.050; -227.000; -181.000
227.036;  -62.900; -537.000; -447.000
227.180;  -63.875; -551.000; -375.000
227.324;  -57.875; -561.000; -580.000
227.468; -115.850; -819.000; -717.000
227.612;   17.225;  242.000;  -28.000
227.756;  -95.975; -845.000; -698.000
227.900;   49.000;  342.000;  441.000
228.044;  -67.300; -509.000; -290.000
228.188;   52.750;  448.000;  568.000
228.332;  -74.225; -546.000; -472.000
228.476;  -26.800; -223.000; -149.000
228.620;  -30.850; -210.000; -150.000
228.764;   78.000;  431.000;  349.000
228.908;  -14.675; -155.000;   30.000
229.052;  -55.000; -615.000; -528.000
229.195;  -15.025; -172.000;   13.000
229.339;  -27.000; -235.000; -305.000
229.483;  -25.100;    5.000; -162.000
229.627;    4.275; -156.000;  139.000
229.771;  -45.875; -218.000; -294.000
229.915;   24.450;  230.000;   79.000
230.059;  -96.250; -648.000; -663.000
230.202;  -35.200; -370.000; -317.000
230.346;  -23.400; -107.000;  107.000
230.490;  -69.975; -489.000; -521.000
230.634; -106.075; -736.000; -553.000
230.777;   65.400;  478.000;  509.000
230.921;  -49.725; -450.000; -359.000
231.065;  -56.800; -246.000; -286.000
231.209;   11.400;  261.000;  265.000
231.352;   29.425;   54.000;   40.000
231.496;   10.750;  568.000;  188.000
231.640;  -82.750; -693.000; -621.000
231.783;   67.675;  546.000;  525.000
231.927;  -40.375; -294.000; -365.000
232.071; -106.600; -962.000; -736.000
232.214; -113.350; -980.000; -764.000
232.358; -104.000; -683.000; -599.000
232.502;   -4.175;  -19.000;    7.000
232.645; -137.675;-1090.000; -927.000
232.789;  -22.150; -257.000; -218.000
232.933;  -44.900; -407.000; -224.000
233.076; -113.450;-1038.000; -897.000
233.220; -108.800; -752.000; -777.000
233.363;  -79.225; -669.000; -477.000
233.507;   39.875;  371.000;  129.000
233.650;  -83.775; -764.000; -834.000
233.794;   44.050;  438.000;  461.000
233.938;  -46.900; -530.000; -362.000
234.081;  -17.475;  -93.000;   31.000
234.225;  -67.925; -631.000; -539.000
234.368; -118.375; -773.000; -723.000
234.512;  -48.850; -385.000; -299.000
234.655;  -91.175; -582.000; -555.000
234.798;  -64.200; -493.000; -466.000
234.942; -122.375; -884.000;-1002.000
235.085;  -70.975; -651.000; -443.000
235.229;  -79.275; -405.000; -410.000
235.372;  -35.375; -247.000; -191.000
235.516;  -70.050; -397.000; -321.000
235.659;   25.325;   92.000;  121.000
235.802;  -23.550;  -38.000;  -22.000
235.946;   16.650;  335.000;  215.000
236.089;   24.400;  126.000;  250.000
236.233;   48.825;  275.000;  298.000
236.376;  -50.725; -235.000; -378.000
236.519;  -37.625; -297.000; -319.000
236.663;  -21.850; -215.000; -117.000
236.806; -128.325;-1029.000; -999.000
236.949;   45.900;  543.000;  431.000
237.092;   52.175;  412.000;  391.000
237.236; -102.475; -589.000; -502.000
237.379;   59.275;  352.000;  428.000
237.522; -110.300; -879.000; -768.000
237.666;  -24.025; -271.000;   18.000
237.809; -122.825; -851.000; -823.000
237.952;   31.975;  469.000;  271.000
238.095;  -62.100; -447.000; -442.000
238.238;   77.750;  688.000;  700.000
238.382;   -9.100;  166.000;  103.000
238.525;  -60.550; -598.000; -511.000
238.668; -139.600;-1060.000; -985.000
238.811;  -89.950; -638.000; -643.000
238.954;  -76.050; -483.000; -334.000
239.097;   89.300;  617.000;  664.000
239.241;   20.500;  394.000;  326.000
239.384;  -29.425; -254.000; -214.000
239.527;  -67.350; -424.000; -224.000
239.670; -145.775; -994.000;-1091.000
239.813; -110.750; -696.000; -658.000
239.956;   75.250;  579.000;  473.000
240.099; -113.750; -778.000; -725.000
240.242;   64.275;  428.000;  432.000
240.385;   32.675;  466.000;  450.000
240.528;  -76.475; -706.000; -473.000
240.671;   12.300;  189.000;  134.000
240.814;  -33.400; -441.000; -158.000
240.957; -106.225; -767.000; -578.000
241.100;  -86.075; -779.000; -755.000
241.243; -148.250;-1234.000; -893.000
241.386;  -59.775; -508.000; -379.000
241.529;  -90.850; -735.000; -547.000
241.672;  -60.600; -566.000; -495.000
241.815; -107.925; -832.000; -808.000
241.958;  -26.150; -125.000; -182.000
242.101;  -80.975; -545.000; -390.000
242.244;  -39.400; -270.000; -325.000
242.387;  -43.575; -304.000; -246.000
242.530;   51.025;  470.000;  134.000
242.673;  -56.625; -381.000; -309.000
242.815; -108.275; -925.000; -899.000
242.958;  -73.150; -482.000; -381.000
243.101;   17.300;  132.000;  187.000
243.244;  -89.650; -564.000; -521.000
243.387;  -57.575; -313.000; -316.000
243.530;  -97.300; -657.000; -674.000
243.672;   -0.875;   43.000;  -92.000
243.815;  -59.150; -355.000; -283.000
243.958;    0.175;   98.000;  -26.000
244.101;  -15.525;   59.000;  -16.000
244.243;  -16.575;  -47.000;  101.000
244.386; -118.175; -761.000; -630.000
244.529;  -25.900; -132.000; -139.000
244.672; -165.050;-1154.000; -951.000
244.814;  -98.600; -621.000; -794.000
244.957;  -71.175; -380.000; -304.000
245.100;  -70.350; -489.000; -489.000
245.242;  -59.250; -387.000; -374.000
245.385;  -13.825;  -59.000;  -39.000
245.528; -128.000; -871.000; -705.000
245.670;   92.550;  612.000;  634.000
245.813;  -95.400; -599.000; -547.000
245.956;  -42.750; -324.000; -275.000
246.098;  -66.600; -508.000; -650.000
246.241;    5.975;  194.000;   48.000
246.383;  -21.650; -119.000;  -73.000
246.526;  -67.225; -454.000; -525.000
246.669; -120.725; -889.000; -780.000
246.811;   -5.275;  172.000;   -1.000
246.954;  -69.550; -512.000; -426.000
247.096;  -22.975;  -84.000;   -6.000
247.239;  -75.125; -482.000; -445.000
247.381;  -74.125; -647.000; -488.000
247.524;   92.975;  645.000;  679.000
247.666;   -9.025;   58.000;   11.000
247.809; -109.200; -887.000; -691.000
247.951;   -7.275;  -75.000;  138.000
248.094;   21.300;  432.000;  308.000
248.236; -149.500;-1262.000;-1238.000
248.378;    0.675; -356.000;  -81.000
248.521;  -22.200; -334.000; -337.000
248.663;  -47.675; -236.000; -267.000
248.806;  -16.050; -300.000; -266.000
248.948;  -96.750; -886.000; -763.000
249.090;  -41.900; -428.000; -398.000
249.233;  -45.425; -344.000; -381.000
249.375;  -67.725; -474.000; -451.000
249.518;  -26.325;  -83.000; -133.000
249.660;  -11.425; -103.000;    3.000
249.802; -173.425;-1303.000;-1189.000
249.945;  -72.175; -612.000; -540.000
250.087; -115.700; -834.000; -768.000
250.229;  -44.500; -362.000; -480.000
250.371;  -78.775; -494.000; -439.000
250.514;  -45.325; -310.000; -244.000
250.656;  -74.875;   69.000;  102.000
250.798; -117.750; -849.000; -800.000
250.940;  -66.450; -322.000; -322.000
251.083;  -38.250; -335.000; -111.000
251.225;   49.900;  338.000;  310.000
251.367;  -49.500; -274.000; -373.000
251.509;  -48.275; -265.000; -210.000
251.651; -100.750; -731.000; -671.000
251.794;   35.300;  538.000;  632.000
251.936; -112.775; -821.000; -747.000
252.078;  -77.725; -540.000; -461.000
252.220;  -73.775; -645.000; -477.000
252.362;   85.450;  344.000;  462.000
252.504;  -67.625; -677.000; -584.000
252.646; -116.850; -875.000; -722.000
252.788;   -1.050;   14.000; -128.000
252.931;  -60.275; -257.000; -253.000
253.073;  -35.550; -376.000; -317.000
253.215;  -17.050;  141.000;  122.000
253.357;  -12.325;   82.000; -153.000
253.499;  -53.725; -374.000; -234.000
253.641;  -89.375; -749.000; -594.000
253.783;  -95.000; -609.000; -527.000
253.925;  -80.525; -586.000; -591.000
254.067; -110.650; -744.000; -667.000
254.209;  -15.225; -391.000; -259.000
254.351; -138.375; -865.000; -883.000
254.493;  -54.500; -441.000; -417.000
254.635; -129.250; -936.000; -818.000
254.777;  -79.100; -752.000; -687.000
254.918;  -68.225; -512.000; -430.000
255.060;  -62.700; -551.000; -395.000
255.202;  -57.550; -473.000; -261.000
255.344;  -85.325; -658.000; -455.000
255.486;  -64.950; -471.000; -406.000
255.628; -104.400; -780.000; -781.000
255.770;  -97.450; -676.000; -536.000
255.912;  -62.250; -559.000; -468.000
256.053; -102.225; -730.000; -508.000
256.195;  139.050; 1008.000;  903.000
256.337; -102.275; -861.000; -595.000
256.479;   55.300;  532.000;  416.000
256.621;  -55.900; -394.000; -212.000
256.762;  -97.025; -789.000; -742.000
256.904;   31.200;  485.000;  487.000
257.046;  -50.550; -381.000; -271.000
257.188;  -56.150; -351.000; -264.000
257.329;  -70.825; -525.000; -464.000
257.471; -116.575; -939.000; -807.000
257.613;  -62.700; -584.000; -498.000
257.755; -145.350;-1073.000; -982.000
257.896;   34.475;  286.000;  392.000
258.038;  -70.550; -403.000; -352.000
258.180;  -43.050; -354.000; -279.000
258.321;  -81.275; -581.000; -457.000
258.463;    0.750;  -71.000;  133.000
258.605;  -88.775; -562.000; -570.000
258.746;  -98.050; -886.000; -772.000
258.888; -154.100;-1026.000;-1020.000
259.029;   19.650;  121.000;   -8.000
259.171;  -97.700; -614.000; -550.000
259.313;  -10.100;  -49.000;  -47.000
259.454;  -77.350; -536.000; -414.000
259.596;  -57.225; -483.000; -390.000
259.737;  -73.225; -590.000; -474.000
259.879;   36.900;  217.000;  311.000
260.020;   75.125;  901.000;  636.000
260.162;  -27.450; -146.000; -253.000
260.303; -120.700; -768.000; -687.000
260.445;  -86.525; -609.000; -613.000
260.586;   23.050;  392.000;  157.000
260.728;  -35.100; -360.000; -248.000
260.869; -104.650; -350.000; -343.000
261.011;   78.550;  706.000;  537.000
261.152;  -61.025; -479.000; -319.000
261.293;  -83.850; -576.000; -595.000
261.435;  -41.575; -219.000; -184.000
261.576;  -51.050; -455.000; -325.000
261.718;   42.500;  420.000;  470.000
261.859; -120.325; -940.000; -949.000
262.000; -141.125; -951.000;-1016.000
262.142;  -17.825;  -52.000;  -60.000
262.283; -113.025; -808.000; -691.000
262.424;  -84.250; -666.000; -625.000
262.566; -154.675;-1161.000; -983.000
262.707; -117.125; -840.000; -830.000
262.848; -118.350; -769.000; -726.000
262.990;  -47.100; -362.000; -345.000
263.131;   65.925;  650.000;  681.000
263.272;   -9.075;  -61.000;  -41.000
263.413;  -95.725; -589.000; -561.000
263.555;  -55.950; -669.000; -143.000
263.696;  -91.225; -550.000; -641.000
263.837;  -57.900; -449.000; -551.000
263.978;   -1.000;   -5.000;  -77.000
264.119;  -40.650; -283.000; -264.000
264.261; -116.850; -847.000; -630.000
264.402;   11.750;   33.000;   40.000
264.543;  -75.400; -509.000; -524.000
264.684;  -17.575;   61.000;  -50.000
264.825;  -83.625; -816.000; -538.000
264.966;   -8.300;  -84.000;  -67.000
265.107; -106.400; -646.000; -670.000
265.248; -110.525; -825.000; -812.000
265.390;  -15.075;  152.000;   -9.000
265.531;  -32.875; -238.000; -107.000
265.672; -105.825; -557.000; -630.000
265.813;   61.000;  563.000;  439.000
265.954; -141.475; -959.000; -940.000
266.095;  -13.925; -372.000; -322.000
266.236;  -94.425; -686.000; -548.000
266.377;  -40.475; -243.000; -297.000
266.518;  -73.750; -619.000; -547.000
266.659;   32.025;  170.000;  268.000
266.800;    7.725;   83.000;   85.000
266.941;  -74.925; -487.000; -478.000
267.082;   10.125;  354.000;   99.000
267.223;  -40.425; -344.000; -273.000
267.364; -115.775; -892.000; -686.000
267.504;  -22.200;    3.000;  135.000
267.645;   -8.075;  160.000;   67.000
267.786;  -27.425; -147.000;  -86.000
267.927;  -75.900; -473.000; -379.000
268.068;  -16.350; -186.000;  -61.000
268.209;  -41.650; -175.000; -413.000
268.350;  -75.850; -388.000; -532.000
268.490;  -93.400; -648.000; -521.000
268.631;   32.275;  127.000;  225.000
268.772; -112.925; -874.000; -647.000
268.913;  -69.425; -328.000; -476.000
269.054;  -25.725; -117.000;   12.000
269.194;  -45.700; -418.000; -402.000
269.335; -160.200;-1137.000;-1074.000
269.476;  -19.250;   33.000;  -35.000
269.617;  -55.900; -347.000; -392.000
269.757;  -82.650; -713.000; -646.000
269.898; -108.475; -856.000; -613.000
270.039;  -62.825; -415.000; -405.000
270.180; -135.275; -952.000; -816.000
270.320;  -25.600; -190.000; -250.000
270.461;  -42.675; -277.000; -249.000
270.602;  -28.575; -186.000; -156.000
270.742; -127.875; -868.000; -943.000
270.883;  -58.500; -442.000; -390.000
271.023;  -65.425; -358.000; -357.000
271.164;  -81.175; -607.000; -528.000
271.305; -105.650; -666.000; -654.000
271.445;  -89.200; -722.000; -683.000
271.586;  -80.925; -462.000; -283.000
271.726;  -54.975; -397.000; -322.000
271.867;  -52.200; -594.000; -534.000
272.008;  204.225; -473.000; -285.000
272.148;  145.875;  462.000;  468.000
272.289;   17.875; -113.000; -181.000
272.429;    6.500;   19.000;  185.000
272.570;  -85.425; -633.000; -737.000
272.710; -113.525; -825.000; -775.000
272.851;  -13.350;  113.000; -130.000
272.991; -167.700;-1173.000;-1077.000
273.131;  -57.075; -419.000; -459.000
273.272; -109.900; -683.000; -723.000
273.412;    4.975; -143.000;  -31.000
273.553;  -56.225; -488.000; -507.000
273.693;  132.300;  913.000;  858.000
273.834;  -88.400; -894.000; -692.000
273.974;  -64.225; -664.000; -615.000
274.114;  -96.325; -772.000; -560.000
274.255;   95.500;  414.000;  373.000
274.395;   -6.325; -180.000; -125.000
274.535;   31.575;  199.000;  350.000
274.676;   12.575;  225.000;   94.000
274.816;    3.375;  110.000;   34.000
274.956;  -87.525; -624.000; -690.000
275.097;  -38.950;-1014.000; -922.000
275.237; -107.425; -913.000; -803.000
275.377;  -86.325; -778.000; -689.000
275.517; -146.150; -878.000; -937.000
275.658;  -61.300; -590.000; -555.000
275.798;  -77.475; -606.000; -413.000
275.938;   14.400;  215.000;  323.000
276.078;  -93.500; -626.000; -395.000
276.218;   13.800;   99.000;  104.000
276.359; -132.475;-1026.000;-1024.000
276.499;  -65.925; -605.000; -446.000
276.639;  -29.425; -305.000; -151.000
276.779;  -42.100; -475.000; -357.000
276.919; -104.800; -783.000; -624.000
277.059;  -23.750; -261.000; -212.000
277.199;  -45.950; -357.000; -259.000
277.340;   31.750;  287.000;  175.000
277.480; -112.825; -840.000; -693.000
277.620;   22.500;  192.000;   16.000
277.760; -206.000;-1533.000;-1294.000
277.900;   -0.850;  113.000;   33.000
278.040;   14.875;  137.000;  159.000
278.180;   49.675;  270.000;  170.000
278.320;    5.175;   21.000;   56.000
278.460;  -71.950; -443.000; -469.000
278.600;  -85.725; -708.000; -598.000
278.740;   64.575;  448.000;  224.000
278.880;  -49.225; -768.000; -791.000
279.020;    2.600; -194.000; -144.000
279.160;  -78.075; -672.000; -595.000
279.300; -104.275; -926.000; -873.000
279.440;  -87.300; -709.000; -622.000
279.579;   -3.725;-1014.000; -929.000
279.719;  -51.250; -410.000; -394.000
279.859;   76.475;   -4.000;   41.000
279.999;   19.950; -208.000;  101.000
280.139;  -10.025; -435.000; -387.000
280.279;  -74.075; -708.000; -745.000
280.419;  -13.600; -229.000; -147.000
280.559;  -44.200; -259.000; -180.000
280.698;  -77.750; -790.000; -639.000
280.838;  -99.875; -778.000; -800.000
280.978;  -97.375; -846.000; -790.000
281.118; -116.450; -811.000; -704.000
281.257;    2.675;   24.000;    6.000
281.397; -113.250;-1094.000; -960.000
281.537;  -87.875; -599.000; -712.000
281.677;  -26.625; -150.000; -101.000
281.816;  -94.750; -700.000; -630.000
281.956;  -30.200; -193.000; -257.000
282.096;  -50.325; -539.000; -396.000
282.235; -104.975; -672.000; -638.000
282.375;  -31.000; -243.000;  -98.000
282.515; -116.125; -715.000; -707.000
282.654;   24.800;   29.000;  106.000
282.794;   25.500;  388.000;  244.000
282.934;  -55.875; -530.000; -491.000
283.073; -124.450;-1030.000; -857.000
283.213;  -53.175; -460.000; -467.000
283.353;  -30.325; -408.000; -349.000
283.492;  -37.550; -264.000; -296.000
283.632;  -42.500; -254.000; -168.000
283.771;  -90.675; -859.000; -730.000
283.911;  -59.050; -369.000; -260.000
284.050; -101.525; -794.000; -748.000
284.190; -151.125;-1229.000;-1096.000
284.329; -133.300;-1055.000; -964.000
284.469;  -51.400; -516.000; -591.000
284.608;  -41.225; -559.000; -598.000
284.748;  -84.775; -614.000; -570.000
284.887;    4.350;  -87.000;  -20.000
285.027; -130.550; -844.000; -892.000
285.166;  -24.050; -192.000; -249.000
285.306;   18.900; -116.000;  -33.000
285.445;  -41.600; -229.000; -343.000
285.584;  -98.775; -630.000; -494.000
285.724;  -51.325; -282.000; -322.000
285.863; -116.725; -857.000; -507.000
286.002;  -46.800; -366.000; -276.000
286.142; -104.275; -715.000; -622.000
286.281;  -60.325; -525.000; -493.000
286.420;  -93.525; -554.000; -417.000
286.560;   84.600;  653.000;  623.000
286.699; -146.750; -958.000; -912.000
286.838;  -77.100; -590.000; -591.000
286.978;  -98.225; -533.000; -537.000
287.117; -138.325;-1085.000; -950.000
287.256;  -42.375; -228.000; -211.000
287.395;  -39.900; -197.000; -378.000
287.535;  -39.350; -370.000; -298.000
287.674;  -88.950; -509.000; -484.000
287.813;   49.950;  661.000;  533.000
287.952; -124.000;-1010.000; -871.000
288.091; -142.600;-1049.000; -915.000
288.231;    2.125;   13.000;   15.000
288.370; -170.225;-1217.000;-1200.000
288.509;  -95.550; -728.000; -645.000
288.648;  -91.250; -770.000; -548.000
288.787;  -32.525; -243.000;  -87.000
288.926;  -64.050; -454.000; -475.000
289.065;  117.025;  859.000;  672.000
289.204;  -57.625; -377.000; -217.000
289.344;  -78.350; -791.000; -690.000
289.483;   17.600;  416.000;  304.000
289.622;  -26.075; -291.000; -149.000
289.761;   -8.750; -309.000; -166.000
289.900; -119.875; -785.000; -626.000
290.039;  -30.650;  -12.000;  -95.000
290.178;  -39.025; -274.000; -180.000
290.317;  -83.000; -618.000; -479.000
290.456;  -72.925; -463.000; -451.000
290.595; -125.150; -961.000; -833.000
290.734; -129.225; -904.000; -891.000
290.873;  -72.775; -456.000; -420.000
291.011;  -98.350; -833.000; -843.000
291.150; -112.625; -770.000; -682.000
291.289;  -16.025; -343.000; -110.000
291.428;  -91.950; -599.000; -480.000
291.567;  -39.350; -370.000; -442.000
291.706;  -11.900;  109.000;  154.000
291.845;  -90.350; -597.000; -505.000
291.984; -158.475;-1234.000;-1061.000
292.122;   80.375;  602.000;  582.000
292.261;   50.075;  620.000;  463.000
292.400;   11.700; -144.000;  211.000
292.539; -123.600; -959.000; -813.000
292.678;  -37.050; -325.000; -300.000
292.816; -153.825;-1136.000; -965.000
292.955;  -74.225; -844.000; -684.000
293.094;  -23.200; -173.000; -337.000
293.233;  -54.125; -556.000; -400.000
293.371;  -49.800; -225.000;  -84.000
293.510;  -99.425; -866.000; -780.000
293.649; -111.100; -959.000; -924.000
293.787;  -50.275;-1083.000;-1012.000
293.926;   -0.175; -113.000;  -32.000
294.065;  -42.900; -379.000; -290.000
294.203;   42.975;  298.000;  406.000
294.342;   25.250;   74.000;  156.000
294.481; 6050.675;51180.000; -836.000
294.619;  -31.025; -425.000; -582.000
294.758; -137.000;-1230.000;-1137.000
294.896;   80.550; -125.000;    5.000
295.035; -121.150;-1040.000;-1006.000
295.174; -111.475;-1082.000; -954.000
295.312;  -54.300; -323.000; -203.000
295.451;  -11.775; -307.000; -428.000
295.589;  -60.400; -389.000; -518.000
295.728;   27.325; -292.000; -165.000
295.866;   -1.050;  -36.000;  -51.000
296.005;  -64.525; -584.000; -341.000
296.143;  -67.475; -558.000; -596.000
296.282; -102.850; -957.000; -881.000
296.420;  -88.250; -657.000; -557.000
296.559;  -70.075; -892.000; -633.000
296.697;   49.550; -847.000; -665.000
296.835;   86.975;-1141.000;-1002.000
296.974;   36.525;  -23.000;   39.000
297.112;   35.200; -443.000; -504.000
297.251;  -63.725; -815.000; -755.000
297.389;  112.725; -576.000; -438.000
297.527;   33.150; -145.000;  -83.000
297.666;  -44.150; -486.000; -438.000
297.804;  -58.425; -404.000; -264.000
297.942;   -9.725; -136.000; -161.000
298.081;  -16.300; -183.000;   63.000
298.219;   86.125;  -17.000;  -19.000
298.357;   63.575; -144.000;  -71.000
298.495;   46.275; -810.000; -812.000
298.634;   86.000;  245.000;  219.000
298.772;   63.975; -220.000; -338.000
298.910;  -34.600; -309.000; -182.000
299.048;  -13.975; -130.000; -153.000
299.187;  -30.075; -350.000; -250.000
299.325;   23.050;   52.000;  122.000
299.463;   79.550; -389.000; -299.000
299.601;  141.700; -327.000; -271.000
299.739;  -98.625; -908.000; -883.000
299.877;  -76.175; -791.000; -703.000
300.016;  -21.725;-1095.000; -935.000
300.154;  189.250;  -19.000; -161.000
300.292;   69.825; -428.000; -348.000
300.430;   39.600; -408.000; -291.000
300.568; -109.675; -940.000; -874.000
300.706;  -50.975; -366.000; -469.000
300.844;  -61.975;-1108.000; -979.000
300.982;  121.025;  246.000;  282.000
301.120; -101.875; -965.000; -866.000
301.258;  -60.800; -812.000; -705.000
301.396;   14.275;  104.000;  -41.000
301.534;  104.275; -218.000; -293.000
301.672;   -6.750; -664.000; -521.000
301.810;   64.550; -613.000; -545.000
301.948;  123.900;   53.000;  149.000
302.086;  716.975; -250.000;  -32.000
302.224; 1067.575; -610.000; -585.000
302.362;   62.450; -558.000; -622.000
302.500;   -3.200; -923.000; -893.000
302.638;  110.175;  128.000;  245.000
302.776;  -15.050; -352.000; -408.000
302.913;   46.425;  447.000;  236.000
303.051;    4.750;  -86.000;  -23.000
303.189;   58.025;   90.000;  118.000
303.327;  -39.225; -341.000; -256.000
303.465;  -70.025; -832.000; -588.000
303.603; -101.800; -805.000; -604.000
303.740;  125.700;  417.000;  241.000
303.878;   44.600; -800.000; -759.000
304.016;  -76.300; -915.000; -790.000
304.154; -113.625;-1123.000;-1152.000
304.291;  -23.275; -505.000; -554.000
304.429;    6.625;  102.000;   74.000
304.567; -123.200; -908.000; -893.000
304.705;  -59.925; -408.000; -515.000
304.842;  115.925; -616.000; -540.000
304.980;   51.700;  215.000;   35.000
305.118;   75.225; -367.000; -365.000
305.255;  -54.800; -945.000; -927.000
305.393;   65.000;  178.000;  239.000
305.531;  -91.450;-1173.000; -956.000
305.668;  -59.600; -663.000; -582.000
305.806;  132.975; -358.000; -439.000
305.943;  120.225; -629.000; -637.000
306.081;   65.700; -378.000; -267.000
306.219;  -96.375; -863.000; -748.000
306.356;    6.625;  158.000;   27.000
306.494;  106.175;  981.000;  761.000
306.631;  -16.900;  -11.000;  -55.000
306.769;    8.875; -613.000; -485.000
306.906;   -5.250; -284.000; -258.000
307.044;  -70.600; -473.000; -488.000
307.181;  -68.900; -410.000; -332.000
307.319;    6.675;  112.000;   87.000
307.456; -165.500;-1191.000;-1153.000
307.594;  -95.575; -980.000; -727.000
307.731;  -12.525; -371.000; -164.000
307.868;    4.900;  -15.000;   20.000
308.006; -121.975; -961.000; -847.000
308.143;  -58.900; -618.000; -330.000
308.281;  193.500;  -37.000; -254.000
308.418;   14.550; -748.000; -640.000
308.555;  -59.500; -400.000; -250.000
308.693;  -75.050; -577.000; -573.000
308.830; -107.900; -712.000; -657.000
308.967;   -8.675; -215.000;  -95.000
309.105;  -51.925; -507.000; -396.000
309.242;   60.900; -468.000; -367.000
309.379;  390.025; -577.000; -655.000
309.517;  -55.875; -936.000; -948.000
309.654;  -98.400; -910.000; -734.000
309.791;  -63.450; -662.000; -580.000
309.928; -118.600; -977.000; -914.000
310.065;  185.550;  819.000;  697.000
310.203;   15.750; -825.000; -850.000
310.340;    4.875; -465.000; -321.000
310.477;  -80.125; -412.000; -516.000
310.614;  -58.125; -383.000; -473.000
310.751;  -75.325; -427.000; -518.000
310.889;  -26.150;    1.000;   11.000
311.026; -158.225;-1161.000; -939.000
311.163;  -42.775; -386.000; -380.000
311.300;  -76.025; -512.000; -479.000
311.437;  -76.025; -658.000; -619.000
311.574; -147.425;-1226.000; -985.000
311.711;  -62.100; -595.000; -433.000
311.848;  -41.025; -380.000; -388.000
311.985;    6.975;  270.000;   93.000
312.122; -117.550; -932.000; -762.000
312.259; -119.500; -941.000; -994.000
312.396;  -97.025; -508.000; -551.000
312.533;  -81.550; -812.000; -790.000
312.670; -139.525;-1070.000; -898.000
312.807;  -26.125; -352.000; -367.000
312.944;  -65.200; -513.000; -611.000
313.081;  -24.950; -150.000; -415.000
313.218; -100.975;-1111.000; -867.000
313.355;   20.925; -531.000; -449.000
313.492;   11.600; -455.000; -292.000
313.629;  120.325;  815.000;  735.000
313.766; -154.275;-1176.000;-1008.000
313.902;   -3.325; -186.000;   21.000
314.039;  -68.725; -372.000; -289.000
314.176;   25.200;  286.000;  192.000
314.313;  -67.050; -569.000; -473.000
314.450;  -68.800; -788.000; -684.000
314.587;  -59.325; -468.000; -480.000
314.723;    2.875;  -78.000;  130.000
314.860;   33.975;  318.000;  332.000
314.997;   29.600;  223.000;  142.000
315.134;  -35.025; -385.000; -368.000
315.270;  -27.575; -480.000; -496.000
315.407; -133.875;-1094.000; -967.000
315.544;  -31.550; -657.000; -538.000
315.681;  -61.850; -681.000; -565.000
315.817;   42.550; -133.000; -176.000
315.954;   11.825; -613.000; -392.000
316.091; -112.825;-1045.000;-1023.000
316.227;  -26.425;  -71.000; -179.000
316.364;   17.875;   23.000;    6.000
316.500;  -40.175; -113.000; -300.000
316.637;  -35.500; -181.000; -302.000
316.774;  -98.625; -625.000; -358.000
316.910;  -86.375; -598.000; -629.000
317.047;  -70.025; -487.000; -351.000
317.183;  -32.875; -435.000; -566.000
317.320;   -5.650; -367.000; -321.000
317.456;  -63.125; -733.000; -805.000
317.593;  -94.800; -598.000; -641.000
317.729;   -5.125;  168.000;  -67.000
317.866; -202.950;-1434.000;-1285.000
318.002;  -76.375; -708.000; -948.000
318.139;  -80.875; -883.000; -867.000
318.275; -102.050;-1003.000; -738.000
318.412;  -64.450; -517.000; -336.000
318.548;  -16.275; -751.000; -720.000
318.685; -100.300; -985.000; -888.000
318.821;  -90.075; -762.000; -735.000
318.957;  -10.450;   34.000;  -23.000
319.094;   45.875;  297.000;  154.000
319.230;  -50.000; -756.000; -742.000
319.367;  145.750; -471.000; -520.000
319.503;   65.525; -538.000; -436.000
319.639;  -94.175; -877.000; -793.000
319.775;  -56.275; -750.000; -685.000
319.912;  -40.700; -424.000; -519.000
320.048;  -93.000;-1184.000;-1184.000
320.184;   72.750;   59.000;   70.000
320.321;  -59.300; -497.000; -467.000
320.457;   41.550;  475.000;  662.000
320.593;  -74.850; -375.000; -382.000
320.729; -102.925; -732.000; -734.000
320.866;  -77.600; -577.000; -635.000
321.002;  -66.975; -759.000; -809.000
321.138;  -18.775; -135.000; -211.000
321.274;   92.150; -148.000; -115.000
321.410;   -9.700; -585.000; -353.000
321.546;  -10.100;-1011.000; -911.000
321.683;   50.025;  400.000;  185.000
321.819;    2.225;  -48.000; -117.000
321.955; -112.300; -743.000; -722.000
322.091;  -34.025; -585.000; -540.000
322.227;  -21.800; -382.000; -202.000
322.363;   -8.750; -320.000; -215.000
322.499;  -34.475; -343.000; -331.000
322.635;  171.025;  636.000;  443.000
322.771;   25.350; -139.000;   12.000
322.907;   89.875;  129.000;  327.000
323.043;  -20.000; -115.000; -206.000
323.179;  -27.875; -394.000; -363.000
323.315;   36.725; -401.000; -371.000
323.451;  112.000; -328.000; -236.000
323.587;   72.375;  -60.000;  -77.000
323.723;   24.125; -682.000; -601.000
323.859;   -9.625; -258.000;  -76.000
323.995;  -32.775; -467.000; -409.000
324.131; -135.975; -967.000; -892.000
324.267;  -36.250; -254.000; -276.000
324.402; -140.200; -960.000; -983.000
324.538;   -1.625; -279.000; -104.000
324.674;    9.900;  164.000;   77.000
324.810;  150.875;  226.000;  308.000
324.946;   13.625; -810.000; -658.000
325.082;  -65.050; -568.000; -475.000
325.217;  -20.600;  -62.000;   16.000
325.353;  -95.350; -764.000; -659.000
325.489;  -88.475; -540.000; -506.000
325.625;  -77.725; -579.000; -525.000
325.760;   49.375;  517.000;  376.000
325.896;  -24.750; -515.000; -702.000
326.032;  -50.700; -403.000; -352.000
326.168;  -48.725; -462.000; -369.000
326.303;  -68.075; -352.000; -461.000
326.439;  -25.800; -336.000; -276.000
326.575;    5.075; -190.000;  -29.000
326.710;    0.450; -156.000;  -30.000
326.846;   -2.250;  146.000;  103.000
326.982;  -82.750; -530.000; -548.000
327.117;  -70.375; -481.000; -442.000
327.253;  -80.825; -745.000; -742.000
327.388; -157.050;-1137.000;-1153.000
327.524;  -34.100; -811.000; -578.000
327.659;  -32.575;  -58.000;  -22.000
327.795;    2.175;   69.000;   45.000
327.931;  -95.725; -723.000; -499.000
328.066;  -23.300; -417.000; -276.000
328.202;  -15.350;   12.000; -129.000
328.337;  102.375;  957.000;  713.000
328.473;   43.900;  -12.000;  -74.000
328.608;  -18.275; -256.000; -267.000
328.743;  -78.200; -799.000; -664.000
328.879;   13.225;  214.000;  114.000
329.014;  -37.750; -102.000; -122.000
329.150;  -72.150; -358.000; -483.000
329.285;  -69.050; -465.000; -466.000
329.421;  -52.000; -548.000; -246.000
329.556;  -18.075;  -36.000;   85.000
329.691; -100.275; -633.000; -615.000
329.827;  -83.075; -626.000; -480.000
329.962;  -36.625;  131.000; -301.000
330.097; -101.050; -673.000; -585.000
330.233;  -58.675; -410.000; -223.000
330.368; -115.925; -839.000; -628.000
330.503;  -15.525;    3.000;   98.000
330.638;   11.675;  -93.000; -125.000
330.774;  -55.625; -609.000; -530.000
330.909;  -63.500; -434.000; -244.000
331.044;  -89.275; -714.000; -708.000
331.179; -188.550;-1217.000;-1109.000
331.315;   13.700;   77.000;   20.000
331.450;    5.725;  157.000;  285.000
331.585;  -75.325; -805.000; -706.000
331.720;  -91.650; -510.000; -460.000
331.855;   -4.875;  -35.000; -102.000
331.990;  238.700;   62.000;  138.000
332.126;  112.750; -110.000;   71.000
332.261;  -28.050; -379.000; -265.000
332.396;   -7.850; -135.000; -242.000
332.531;  -91.900;-1074.000;-1031.000
332.666;   26.775; -519.000; -363.000
332.801; -110.900; -726.000; -807.000
332.936;  -34.750; -192.000; -122.000
333.071; -154.800; -870.000; -817.000
333.206;   23.650;  307.000;  379.000
333.341;   30.975;  344.000;  418.000
333.476;  -82.275; -627.000; -623.000
333.611;  -34.725; -251.000; -173.000
333.746;  -48.900; -381.000; -464.000
333.881; -120.900; -973.000; -935.000
334.016; -128.050; -936.000; -917.000
334.151; -119.850; -746.000; -702.000
334.286;   32.650;  152.000;  186.000
334.421;  -15.875; -125.000; -178.000
334.556;  -59.325; -611.000; -567.000
334.690;  -80.675; -631.000; -577.000
334.825;   50.900;  381.000;   83.000
334.960;  -58.850; -285.000; -413.000
335.095;   -7.600;  135.000;  -91.000
335.230;  -95.950; -722.000; -738.000
335.365; -124.950;-1084.000; -990.000
335.499; -129.675;-1108.000;-1037.000
335.634;   20.275;    9.000;  534.000
335.769; -109.975; -755.000; -720.000
335.904;  -51.650; -603.000; -561.000
336.038;  -69.100; -735.000; -657.000
336.173;  -99.800;-1206.000;-1194.000
336.308;   18.650; -116.000; -189.000
336.443;   -6.275; -544.000; -634.000
336.577;  -69.100; -936.000; -787.000
336.712;   71.425;   -4.000;  -12.000
336.847;  -26.250; -724.000; -607.000
336.981;   70.075; -272.000; -208.000
337.116;  307.625;  615.000;  501.000
337.250;  177.750; -434.000; -421.000
337.385;  255.850; -297.000; -208.000
337.520;   75.925; -632.000; -603.000
337.654;  -37.950; -215.000; -126.000
337.789; -115.875; -989.000; -933.000
337.923;  -46.750; -104.000; -205.000
338.058;  -87.775; -673.000; -738.000
338.192;  -31.475; -611.000; -488.000
338.327;   -8.900;  -18.000; -155.000
338.461;  -62.800; -299.000; -469.000
338.596;  -89.525; -780.000; -638.000
338.730; -105.700; -767.000; -803.000
338.865;   84.225;  -46.000; -140.000
338.999;  -61.150; -846.000; -702.000
339.134;  -20.925; -634.000; -536.000
339.268;   12.125; -741.000; -603.000
339.403;  359.275; -740.000; -775.000
339.537;   91.225; -894.000; -820.000
339.671; -116.525; -829.000; -813.000
339.806;  -64.400; -556.000; -512.000
339.940;   17.975; -261.000; -235.000
340.074;  -96.175; -685.000; -510.000
340.209;  -43.750; -351.000; -230.000
340.343;  -90.950; -517.000; -573.000
340.477;  153.550;  998.000; 1036.000
340.612;  -44.425;-1033.000; -900.000
340.746;  138.725; -199.000; -243.000
340.880;  -63.600; -924.000; -785.000
341.014;   -7.525;  -45.000; -154.000
341.149;  -97.525; -756.000; -718.000
341.283;  -96.850; -839.000; -754.000
341.417;  -93.900;-1124.000; -938.000
341.551;  151.150; -768.000; -708.000
341.685;  -38.775; -633.000; -611.000
341.820;  -46.075; -562.000; -493.000
341.954;  -49.150; -218.000; -349.000
342.088; -142.375;-1102.000;-1019.000
342.222;   46.825;  565.000;  618.000
342.356;  -56.875; -395.000; -335.000
342.490;  -68.825; -880.000; -841.000
342.624;  -51.200; -339.000; -242.000
342.758;   -4.650; -364.000; -312.000
342.892;  -52.050; -710.000; -585.000
343.026;  -54.075;  -58.000; -116.000
343.160;  -51.700; -426.000; -376.000
343.294;  -83.300; -474.000; -337.000
343.428;  -15.975; -488.000; -448.000
343.562;  -24.250; -172.000;  -23.000
343.696;  -20.225; -385.000; -314.000
343.830;  -22.125; -362.000; -356.000
343.964;   29.300; -231.000; -168.000
344.098; 1001.975;  199.000;   70.000
344.232;  866.150; -266.000; -127.000
344.366;  113.850; -567.000; -453.000
344.500;   78.575; -665.000; -744.000
344.634;   35.700; -324.000; -164.000
344.768;   -5.825; -531.000; -341.000
344.902;   36.775;  278.000;  256.000
345.035;  -71.000; -556.000; -496.000
345.169; -131.825; -933.000; -656.000
345.303;   -6.075; -308.000; -482.000
345.437;  -70.725; -826.000; -717.000
345.571;  -76.025; -675.000; -594.000
345.704;  -69.700; -309.000; -532.000
345.838;  -19.275; -331.000; -284.000
345.972;  -27.450; -543.000; -495.000
346.106;  157.150; -179.000; -190.000
346.239;  410.825; -312.000; -243.000
346.373;    1.950; -343.000; -302.000
346.507; -135.075; -950.000; -962.000
346.640;  158.175;  -30.000;   13.000
346.774;  -41.075; -650.000; -797.000
346.908;  -21.300; -138.000;  -11.000
347.041;  -94.825; -646.000; -593.000
347.175;   20.225;  259.000;   27.000
347.309;  -73.225; -698.000; -628.000
347.442;  -91.000; -883.000; -732.000
347.576;  289.975;  670.000;  668.000
347.709;  237.625; -123.000;  -52.000
347.843;  -93.775; -933.000; -825.000
347.976;   43.350;  235.000;  294.000
348.110; -189.725;-1268.000;-1186.000
348.243;  -98.450; -679.000; -772.000
348.377;   -3.150;  -26.000;   60.000
348.510;   54.950;  403.000;  540.000
348.644;  -40.800;  -37.000; -159.000
348.777;    2.000;  180.000;  191.000
348.911;  -43.700; -142.000; -112.000
349.044;  189.650;  471.000;  448.000
349.178;  185.625;-1069.000;-1006.000
349.311;  114.950;  141.000;  255.000
349.444;  -10.300; -927.000; -813.000
349.578;  -10.400; -347.000; -200.000
349.711;  -94.400; -959.000; -862.000
349.845;    9.575; -661.000; -591.000
349.978; -150.875;-1224.000;-1137.000
350.111;  -72.550; -546.000; -612.000
350.244;  -72.250; -596.000; -700.000
350.378;   25.625; -392.000; -393.000
350.511;  -59.425; -393.000; -426.000
350.644;  -98.000; -808.000; -806.000
350.778;   -7.550;  168.000;  104.000
350.911;    9.125;  134.000;  140.000
351.044;  -91.475; -685.000; -615.000
351.177;  -29.725; -321.000; -281.000
351.310;  -22.575;    3.000; -131.000
351.444;  -72.675; -888.000; -788.000
351.577;  140.725;  140.000;   90.000
351.710;   93.850;  593.000;  417.000
351.843;  -43.825; -165.000;  -77.000
351.976;    1.500;  149.000;  -79.000
352.109;  -82.850; -621.000; -612.000
352.242;  -29.350; -464.000; -419.000
352.376;  -43.375; -580.000; -636.000
352.509;  206.025; -437.000; -356.000
352.642;   23.875; -654.000; -604.000
352.775;   73.925; -141.000;  -98.000
352.908; -115.450; -933.000; -904.000
353.041;  -91.450; -814.000; -824.000
353.174;  -58.400; -551.000; -424.000
353.307;  -73.600; -753.000; -764.000
353.440;   74.950;  541.000;  453.000
353.573; -101.650; -957.000;-1008.000
353.706;  -24.400; -384.000; -558.000
353.839;   -2.200; -264.000; -220.000
353.971; -104.000; -657.000; -512.000
354.104;  -77.825; -896.000; -835.000
354.237;  -26.475; -627.000; -662.000
354.370;  -80.100; -846.000; -879.000
354.503; -193.225;-1231.000;-1308.000
354.636;  -28.925; -529.000; -348.000
354.769; -124.925; -937.000; -860.000
354.902;   -7.625; -230.000; -139.000
355.034;  -16.375; -164.000; -220.000
355.167;  -26.675; -262.000; -162.000
355.300;  -84.650;-1061.000; -880.000
355.433;  943.325;  -71.000;  -14.000
355.565; 1485.700; -402.000; -384.000
355.698;  372.650; -356.000; -296.000
355.831;    9.900; -882.000; -801.000
355.964;  116.075; -285.000; -170.000
356.096;  -68.950; -856.000; -843.000
356.229;   23.700; -523.000; -530.000
356.362;  310.825; -373.000; -266.000
356.494;  591.400; -229.000; -162.000
356.627;  515.975;  269.000;  377.000
356.760;  661.700;  120.000;   53.000
356.892;  950.825; -286.000; -601.000
357.025;  755.925;  403.000;  389.000
357.157;  700.300; -167.000; -179.000
357.290;  619.050; -856.000; -713.000
357.423;  200.375; -667.000; -556.000
357.555;  134.650; -217.000; -228.000
357.688;  139.950; -483.000; -364.000
357.820;  514.300; -870.000; -877.000
357.953; 4032.375; -563.000; -589.000
358.085;  917.450; -632.000; -612.000
358.218; 1328.650;-1131.000; -932.000
358.350;  247.900;  -58.000;  312.000
358.483; -113.400;-1300.000;-1187.000
358.615;   14.600;-1182.000;-1078.000
358.747;  -31.250;-1187.000;-1058.000
358.880;   63.375; -810.000; -744.000
359.012;    0.375; -376.000; -202.000
359.145;  -25.150; -480.000; -511.000
359.277;   81.125; -962.000; -913.000
359.409; 3289.800;  536.000;  231.000
359.542;  902.250; -738.000; -688.000
359.674;   96.725;   46.000;   13.000
359.806;  -62.850; -565.000; -438.000
359.939;  -33.400; -617.000; -516.000
360.071;  -19.975; -583.000; -579.000
360.203;  -30.575; -411.000; -364.000
360.335;   54.025;  164.000;  -16.000
360.468;  221.300; -249.000; -307.000
360.600; 2639.175; -547.000; -454.000
360.732; 2784.425; -546.000; -423.000
360.864;  402.900;-1216.000;-1044.000
360.996;  311.400; -516.000; -554.000
361.129;   69.175; -389.000; -598.000
361.261;   25.375;  110.000; -113.000
361.393;  -39.125; -252.000; -214.000
361.525;   16.350;   94.000;  244.000
361.657;  -25.175; -821.000; -703.000
361.789;   12.975; -139.000; -155.000
361.921;  268.750; -642.000; -593.000
362.053;  293.300;  524.000;  541.000
362.185;   50.825;  288.000;   72.000
362.318;  -71.175; -709.000; -705.000
362.450;  124.725;  294.000;  444.000
362.582;  148.000; -913.000; -870.000
362.714;  -28.025; -353.000; -332.000
362.846;  -88.000; -606.000; -490.000
362.978; -144.225; -941.000; -811.000
363.109;   52.225; -161.000; -260.000
363.241;  503.200; -739.000; -749.000
363.373;  457.525; -649.000; -564.000
363.505;  635.475; -186.000;  -91.000
363.637;  175.900; -787.000; -601.000
363.769; -102.525;-1067.000;-1080.000
363.901;  -48.275; -596.000; -654.000
364.033; -116.275;-1103.000;-1062.000
364.165;    2.275; -283.000; -283.000
364.296;   56.750; -316.000; -177.000
364.428;   82.125;-1344.000;-1220.000
364.560;  -62.675; -679.000; -661.000
364.692;  -46.500; -738.000; -835.000
364.824;  319.325; -588.000; -456.000
364.955;  463.825; -402.000; -564.000
365.087;  850.825;-1097.000; -852.000
365.219;   38.825; -686.000; -816.000
365.351;  -57.850; -526.000; -572.000
365.482;   59.675;  300.000;  240.000
365.614;  -52.925; -402.000; -314.000
365.746;  -92.475; -729.000; -752.000
365.877; -103.900; -706.000; -672.000
366.009;  253.000;  -35.000;  -62.000
366.141;  -87.925;-1249.000;-1134.000
366.272; -105.100; -803.000; -719.000
366.404; -109.775;-1005.000; -874.000
366.535;   -7.500; -139.000;  -12.000
366.667; -105.575; -644.000; -649.000
366.799;   36.550;  353.000;  203.000
366.930; -121.400; -862.000; -996.000
367.062;  120.650; -639.000; -613.000
367.193;  149.300; -872.000; -842.000
367.325;  -52.800; -580.000; -684.000
367.456;   65.475; -246.000;   31.000
367.588;  166.500; -371.000; -318.000
367.719;    9.975;  -44.000;  -45.000
367.851;    1.050; -222.000; -241.000
367.982;  -38.100; -875.000; -732.000
368.113;  120.200; -475.000; -358.000
368.245; -103.450; -960.000; -841.000
368.376;  -17.000; -254.000; -302.000
368.508;  -29.275; -188.000; -263.000
368.639; -127.025;-1166.000;-1034.000
368.770;   -4.100; -670.000; -589.000
368.902;  -51.575; -836.000; -926.000
369.033;  -95.975; -906.000; -855.000
369.164;  -38.000; -720.000; -653.000
369.296; -102.500; -452.000; -601.000
369.427;    1.225; -209.000; -144.000
369.558;  -46.700; -593.000; -377.000
369.689;  -83.375; -721.000; -569.000
369.821; -130.475; -951.000; -845.000
369.952;   -1.525;   42.000; -108.000
370.083;  -45.525; -229.000; -108.000
370.214;  -75.800; -735.000; -650.000
370.345;    4.750;   65.000;   81.000
370.477;  -68.900; -810.000; -790.000
370.608;  252.400; -328.000; -264.000
370.739;  -12.425;-1233.000;-1292.000
370.870;  -25.475;-1102.000; -923.000
371.001;  111.625; -378.000; -467.000
371.132;  -67.975; -754.000; -735.000
371.263;  -18.450;  -42.000; -148.000
371.394; -130.150; -841.000; -748.000
371.525;   30.625;  345.000;  225.000
371.657;  -79.825; -808.000; -670.000
371.788;   92.350;  103.000;  199.000
371.919;  176.425; -384.000; -304.000
372.050; 3982.300;  -91.000; -156.000
372.181; 1230.500; -188.000; -294.000
372.311;  432.900;   42.000; -127.000
372.442;   43.075; -457.000; -451.000
372.573;   -6.475; -444.000; -340.000
372.704; -111.325;-1008.000; -980.000
372.835;   99.825; -228.000; -289.000
372.966;  -70.525; -646.000; -554.000
373.097;  -57.975; -575.000; -711.000
373.228;  -38.500; -717.000; -542.000
373.359;  175.825; -824.000; -536.000
373.490; 1050.225; -881.000; -727.000
373.620; 1344.875;-1001.000; -803.000
373.751; 1971.600; -332.000; -396.000
373.882;  931.725; -663.000; -733.000
374.013;   79.425; -449.000; -262.000
374.143;   -8.525; -581.000; -659.000
374.274;  -91.750; -987.000; -908.000
374.405;  194.750; -388.000; -276.000
374.536;  489.050; -526.000; -387.000
374.666; 1309.800; -759.000; -807.000
374.797;  273.325; -817.000; -868.000
374.928;  979.875; -710.000; -560.000
375.058; 1047.475; -535.000; -500.000
375.189;   90.375;  -59.000;  -93.000
375.320; -108.300; -928.000;-1034.000
375.450;  -33.825; -625.000; -616.000
375.581;  -40.700; -526.000; -436.000
375.712;  -27.650; -574.000; -250.000
375.842;  331.575; -438.000; -415.000
375.973;  284.900; -554.000; -513.000
376.103;  -35.750; -665.000; -648.000
376.234;  -71.250; -531.000; -552.000
376.364;  -10.575; -944.000; -867.000
376.495;  356.675;  925.000;  529.000
376.625;    7.150; -472.000; -485.000
376.756;   84.800; -709.000; -678.000
376.886;  -57.525;-1178.000;-1026.000
377.017;   66.025;-1048.000;-1061.000
377.147;  339.150; -786.000; -782.000
377.278;   46.875;  174.000;  228.000
377.408; -123.000; -801.000; -815.000
377.538; -106.050; -707.000; -693.000
377.669;  -83.200; -537.000; -613.000
377.799;  -72.075; -645.000; -635.000
377.929;  -55.900; -610.000; -428.000
378.060; -116.400; -781.000; -847.000
378.190;  -76.200; -726.000; -531.000
378.320;  -47.250; -401.000; -406.000
378.451;  -18.450; -131.000;  -22.000
378.581;    0.700;  -67.000; -110.000
378.711;  154.975; 1035.000;  866.000
378.841;    6.300; -533.000; -675.000
378.972;  -61.975; -871.000; -751.000
379.102;    6.975; -652.000; -579.000
379.232;  -16.800; -126.000;  -73.000
379.362; -108.975;-1001.000; -885.000
379.492;   17.725; -373.000; -424.000
379.623;  135.975;    0.000;  111.000
379.753; -103.675;-1107.000; -974.000
379.883;  219.575;   59.000;  156.000
380.013;   17.625;-1081.000;-1017.000
380.143;  -90.650;-1097.000;-1056.000
380.273;  -98.000; -985.000; -861.000
380.403;   -3.800; -344.000; -257.000
380.533;  -19.950; -651.000; -664.000
380.663;   77.675;  173.000;  128.000
380.793;  -69.925;-1027.000;-1074.000
380.923;  -14.150; -103.000;  -34.000
381.053; -106.300; -613.000; -623.000
381.183;  -20.250; -106.000; -248.000
381.313;   44.425; -656.000; -470.000
381.443;   66.800; -692.000; -473.000
381.573;  247.900; -402.000; -409.000
381.703;  377.450;-1249.000;-1095.000
381.833; -112.250;-1454.000;-1336.000
381.963;  125.800; -134.000;  -87.000
382.093; 1539.525; -925.000; -909.000
382.223;  517.250; -713.000; -602.000
382.353;    7.575; -801.000; -608.000
382.482;  438.375;-1091.000; -964.000
382.612;  859.375; -872.000; -644.000
382.742;  518.000; -695.000; -622.000
382.872;  322.025; -565.000; -551.000
383.002;   73.575;  347.000; -132.000
383.131;  -20.850; -226.000; -160.000
383.261;  -40.925; -706.000; -768.000
383.391;  291.475; -552.000; -377.000
383.521; 3092.825;  451.000;  263.000
383.650;  752.800; -947.000; -904.000
383.780;   -9.000; -783.000; -656.000
383.910;  107.150;  880.000;  802.000
384.039;   50.475; -794.000; -656.000
384.169;  276.500;-1205.000;-1017.000
384.299;    7.700; -650.000; -662.000
384.428;  -83.575; -764.000; -680.000
384.558;  -27.225; -308.000; -275.000
384.687;  -22.125; -414.000; -334.000
384.817;   26.450;   75.000;   -2.000
384.947;   22.550; -234.000; -141.000
385.076;  318.000;  982.000;  912.000
385.206;  118.400;  369.000;  480.000
385.335;  -22.850; -549.000; -417.000
385.465;  -77.250; -655.000; -663.000
385.594;  149.525;  -53.000;  -44.000
385.724;  504.925; -868.000; -838.000
385.853;  154.200; -296.000; -270.000
385.982; 1490.525; -743.000; -787.000
386.112; 2461.300;-1052.000; -871.000
386.241;  173.625; -307.000; -312.000
386.371;   36.875; -174.000;  -87.000
386.500;    7.000; -825.000; -789.000
386.629;   43.175; -874.000; -817.000
386.759;   72.850;  -43.000;   68.000
386.888;    7.725; -170.000; -250.000
387.017;  -67.425; -648.000; -620.000
387.147;  -71.000; -771.000; -798.000
387.276;    7.075; -410.000; -397.000
387.405;   31.475; -398.000; -342.000
387.535;  -38.150; -452.000; -361.000
387.664;  -46.975; -692.000; -620.000
387.793;   69.300; -198.000; -113.000
387.922;  582.225;  255.000;  200.000
388.052;   37.275; -576.000; -423.000
388.181;   35.100; -342.000; -472.000
388.310;   27.725; -889.000; -710.000
388.439;  -25.225; -749.000; -742.000
388.568;  193.550;  365.000;  244.000
388.697; 1201.400; -756.000; -653.000
388.826;  263.575; -768.000; -666.000
388.956;   72.075; -285.000; -307.000
389.085;  -26.150; -347.000; -287.000
389.214;  -95.450; -842.000; -872.000
389.343;  -59.025; -645.000; -413.000
389.472;  410.450;  126.000;  149.000
389.601;  533.800;   91.000;    0.000
389.730;   33.825; -568.000; -687.000
389.859;   60.375;  226.000;   46.000
389.988;  220.900; -423.000; -408.000
390.117;  163.875; -168.000; -146.000
390.246;   -3.750; -331.000; -320.000
390.375;  129.025; -673.000; -626.000
390.504;  -53.000; -703.000; -621.000
390.633;  -86.050; -672.000; -726.000
390.761;  -49.125; -732.000; -645.000
390.890;   20.475;   -4.000; -130.000
391.019;  -22.850; -421.000; -441.000
391.148; -127.625; -826.000; -855.000
391.277;  -53.750; -576.000; -493.000
391.406;  -72.825; -821.000; -805.000
391.534;   31.375;  574.000; -301.000
391.663;  -64.975; -583.000; -645.000
391.792;  -68.775; -673.000; -701.000
391.921;  118.075;   -3.000;   15.000
392.050;  219.175; -287.000; -228.000
392.178;  -21.675;-1206.000;-1061.000
392.307;  171.400; -758.000; -712.000
392.436;  105.925; -427.000; -641.000
392.564;   29.600;  166.000;   -6.000
392.693;  -76.850; -860.000; -682.000
392.822;  247.600; -529.000; -534.000
392.950;  116.625; -880.000; -714.000
393.079;  378.525; -188.000; -328.000
393.208;   42.150; -488.000; -511.000
393.336;    2.525; -170.000; -145.000
393.465;  -47.925; -317.000; -199.000
393.593;   -1.250;   62.000;   79.000
393.722; -149.400;-1121.000; -916.000
393.850;  -37.000; -188.000;  -61.000
393.979; -146.375; -926.000; -805.000
394.107;  -60.475; -517.000; -537.000
394.236;  -16.050; -570.000; -507.000
394.364;  254.700;  383.000;  206.000
394.493;  446.000; -911.000; -767.000
394.621;   14.550; -955.000; -916.000
394.750;  677.575; -873.000; -923.000
394.878; 2821.400; -247.000; -149.000
395.007; 4005.375; -721.000; -807.000
395.135;  333.225; -790.000; -721.000
395.263;  -82.675;-1038.000;-1040.000
395.392;    0.675;  -25.000; -107.000
395.520; -123.625; -818.000; -679.000
395.648;  -75.725; -865.000; -915.000
395.777;    2.300; -366.000; -405.000
395.905;  -43.125; -449.000; -564.000
396.033;   33.025;  217.000;  172.000
396.162;  702.350; -399.000; -453.000
396.290;  641.825;  -17.000;   -2.000
396.418;  124.450; -555.000; -514.000
396.546;  -50.550; -571.000; -466.000
396.674;  -90.225; -850.000; -878.000
396.803;   12.200;  -72.000;  -23.000
396.931;  118.775; -179.000; -199.000
397.059;  105.275;-1026.000; -989.000
397.187;  -94.775;-1026.000; -975.000
397.315; -138.000; -884.000; -649.000
397.443;  -87.900; -592.000; -443.000
397.572;  -94.500; -578.000; -424.000
397.700;    0.350; -607.000; -614.000
397.828;   38.150;  120.000;  -90.000
397.956;  -45.650; -508.000; -478.000
398.084;  -60.300; -767.000; -626.000
398.212;   40.750;  137.000;  124.000
398.340;    6.425;  -56.000;  159.000
398.468;   54.950; -390.000; -169.000
398.596; -114.650; -993.000; -953.000
398.724; -120.700; -762.000; -767.000
398.852; -161.375;-1024.000; -976.000
398.980;  -57.850; -560.000; -560.000
399.108;  -39.975; -982.000; -735.000
399.236;   46.475;   13.000;    8.000
399.363;   -5.325;  222.000;  196.000
399.491;  -65.100; -404.000; -398.000
399.619; -126.325; -829.000; -800.000
399.747;  -89.375; -859.000; -771.000
399.875;   75.275;  220.000;  234.000
400.003;  -36.475; -359.000; -284.000
400.130;  -90.000; -421.000; -341.000
400.258;  -18.925;  -83.000;   38.000
400.386;  -73.900; -352.000; -168.000
400.514;  -27.650; -526.000; -587.000
400.641;  -72.875; -928.000; -802.000
400.769; -124.350; -979.000; -888.000
400.897;  -94.075; -838.000; -793.000
401.025;   -4.100; -166.000; -152.000
401.152;   -7.850;  220.000;   38.000
401.280;  -77.000; -430.000; -429.000
401.408; -130.575; -712.000; -576.000
401.535;  -94.625; -735.000; -758.000
401.663; -187.850;-1134.000;-1054.000
401.790;  -68.400; -514.000; -525.000
401.918;   37.650;  436.000;  405.000
402.046;  -20.600;  134.000;  122.000
402.173;  -36.200;  -18.000;    7.000
402.301;  -56.625; -519.000; -397.000
402.428;   33.175;  528.000;  383.000
402.556; -142.850;-1188.000; -913.000
402.683;  -35.700;  -20.000;   -1.000
402.811;   -4.450;  -37.000; -206.000
402.938;  -21.200;   20.000;   27.000
403.066;  212.350; -574.000; -558.000
403.193;  386.650;  299.000;  239.000
403.321;  288.200; -396.000; -574.000
403.448;  346.675;   83.000;   27.000
403.575;  167.600;  -90.000;  -46.000
403.703;  -80.800; -732.000; -557.000
403.830;  -75.925; -531.000; -496.000
403.957; -140.575;-1117.000;-1023.000
404.085;   20.175;  -61.000; -172.000
404.212;  114.000;  -50.000;   63.000
404.339;  261.925; -566.000; -306.000
404.467; 5558.125; -612.000; -524.000
404.594; 4009.675; -287.000; -227.000
404.721; 1018.050; -869.000; -764.000
404.848;   96.000; -113.000; -202.000
404.976; -113.725; -856.000; -783.000
405.103;  -21.525;  -14.000;  -82.000
405.230;  -10.700;  190.000;  226.000
405.357;   29.250;  117.000;   44.000
405.484;  250.850;  -49.000;    5.000
405.612;   53.325; -548.000; -563.000
405.739;  -54.525; -488.000; -243.000
405.866;   69.150;  669.000;  385.000
405.993;  -50.925; -398.000; -102.000
406.120; -129.800; -801.000; -887.000
406.247;  -47.850; -323.000; -342.000
406.374;  508.150;  540.000;  629.000
406.501;  159.175; -632.000; -702.000
406.628;  -81.700; -621.000; -589.000
406.755;  -95.800; -803.000; -620.000
406.882;  -41.575; -228.000; -277.000
407.009; -113.850; -719.000; -628.000
407.136;   59.700; -480.000; -401.000
407.263;  181.425; -939.000; -829.000
407.390;  -65.225; -692.000; -614.000
407.517; -165.950;-1139.000;-1187.000
407.644;  -49.275; -332.000; -256.000
407.771;  -62.425; -249.000; -287.000
407.898;    3.825;  168.000;  328.000
408.025;  -68.875; -421.000; -313.000
408.151;  -11.625;   82.000;  153.000
408.278;  -71.650; -267.000; -216.000
408.405; -100.225; -931.000; -899.000
408.532;  -65.100; -549.000; -542.000
408.659; -106.250; -677.000; -648.000
408.785; -203.175;-1298.000;-1170.000
408.912;  -52.975; -412.000; -296.000
409.039; -120.775; -610.000; -686.000
409.166;  -99.325; -591.000; -555.000
409.292; -111.800; -571.000; -534.000
409.419; -125.950; -665.000; -649.000
409.546;  -76.325; -431.000; -192.000
409.672;  -98.050; -713.000; -545.000
409.799;  -20.875;  -36.000;   34.000
409.926;  -52.100; -180.000; -179.000
410.052; -179.125;-1127.000;-1091.000
410.179;  -53.225; -368.000; -392.000
410.305;  -90.175; -375.000; -493.000
410.432;  -42.900; -220.000; -333.000
410.558;  -92.425; -305.000; -380.000
410.685;  -94.075; -688.000; -431.000
410.812;  -92.675; -409.000; -588.000
410.938; -138.900; -964.000; -808.000
411.065;  -96.050; -671.000; -645.000
411.191;  -16.550; -189.000; -174.000
411.317; -117.950; -823.000; -742.000
411.444;  -65.100; -317.000; -246.000
411.570;  -69.425; -339.000; -294.000
411.697; -127.475; -758.000; -752.000
411.823; -161.350; -989.000; -999.000
411.949;  -31.850;  -56.000;   17.000
412.076; -112.000; -539.000; -519.000
412.202; -116.975; -758.000; -757.000
412.329; -132.575; -798.000; -752.000
412.455; -113.450; -821.000; -657.000
412.581;  -17.350;  -15.000;  172.000
412.707;  -65.975; -540.000; -457.000
412.834;    0.200;  156.000;  219.000
412.960;  -74.800; -785.000; -784.000
413.086; -112.000; -743.000; -701.000
413.212;  157.575;  604.000;  578.000
413.339;  -57.125; -685.000; -701.000
413.465;   19.700; -364.000; -310.000
413.591;  -87.300; -757.000; -474.000
413.717;  -40.025; -358.000; -366.000
413.843; -142.400; -839.000; -861.000
413.969;  -51.925;  -47.000; -292.000
414.096; -101.825; -679.000; -679.000
414.222;   -8.100;  -33.000;   85.000
414.348;  -24.150; -652.000; -385.000
414.474;  112.375;   38.000;  -52.000
414.600;   -7.475; -126.000; -144.000
414.726;  -14.425;  -96.000;  -55.000
414.852;  -71.300; -365.000; -342.000
414.978;   39.825;  104.000;  -18.000
415.104;   39.150;   38.000;   80.000
415.230;   38.750; -329.000; -330.000
415.356;   45.100; -409.000; -514.000
415.482;  216.700;   13.000;  -35.000
415.608;  259.225; -247.000; -323.000
415.734;  937.700;   67.000;   38.000
415.860;19324.100; -875.000; -767.000
415.986;15343.625; -685.000; -607.000
416.111; 1368.250; -798.000; -652.000
416.237;  286.550; -424.000; -571.000
416.363; 1013.700; -765.000; -733.000
416.489; 4187.450; -324.000; -251.000
416.615;  499.475; -707.000; -742.000
416.741;  -19.225; -677.000; -784.000
416.866;  -86.575; -673.000; -736.000
416.992; -108.600; -801.000; -818.000
417.118;  -34.600;  -41.000;  -80.000
417.244;  -56.400; -798.000; -531.000
417.369;  -76.800; -801.000; -612.000
417.495;   -4.275; -325.000; -254.000
417.621;  -83.650;-1015.000; -803.000
417.746;    8.350; -579.000; -572.000
417.872;   39.950; -254.000; -144.000
417.998;   52.250; -515.000; -530.000
418.123;  947.100;-1073.000; -845.000
418.249; 5382.300; -512.000; -601.000
418.374;  828.300; -916.000; -824.000
418.500;  118.850; -383.000; -482.000
418.626;  100.225;   70.000;  -59.000
418.751;  126.950; -549.000; -448.000
418.877;  202.575; -637.000; -643.000
419.002; 1629.000; -688.000; -560.000
419.128;12326.300; -930.000; -721.000
419.253; 3350.400; -967.000; -837.000
419.379;  428.050; -391.000; -338.000
419.504;  411.525;  325.000;  415.000
419.629;  495.300; -393.000; -212.000
419.755; 3225.375; -317.000; -254.000
419.880;20478.800;  -98.000;   67.000
420.006;11179.125; -280.000; -221.000
420.131;29683.025; -662.000; -775.000
420.256; 4722.975; -315.000; -316.000
420.382;  608.825; -665.000; -687.000
420.507;   97.100; -649.000; -778.000
420.632;  152.700; -337.000; -339.000
420.758;  286.950; -251.000; -425.000
420.883;  -82.725; -876.000; -672.000
421.008;  -86.800; -775.000; -619.000
421.133;  -71.525; -509.000; -467.000
421.259;  -47.500; -325.000; -259.000
421.384; -115.450; -834.000; -693.000
421.509;  -37.350;-1052.000; -862.000
421.634; 1279.700; -936.000; -820.000
421.759;  638.125; -359.000; -327.000
421.885;  -42.875; -717.000; -656.000
422.010;  -69.675; -673.000; -542.000
422.135; -151.125; -695.000; -727.000
422.260;   38.525;  340.000;  280.000
422.385;  -34.675;   12.000;  -98.000
422.510;   10.325;  151.000;  -26.000
422.635;   28.250;  -87.000;  -43.000
422.760;  141.275; -766.000; -791.000
422.885;   54.925;  -57.000;  -80.000
423.010;  -31.925; -112.000; -169.000
423.135;  -99.425; -481.000; -561.000
423.260;   -2.525; -150.000; -245.000
423.385;   64.300;  476.000;  222.000
423.510;   35.075;   71.000;  -22.000
423.635;   80.850;  133.000;   45.000
423.760;   49.600;  383.000;  328.000
423.885;   46.450;  336.000;  391.000
424.010;   22.625;  -68.000;  -13.000
424.135;  -24.175;    5.000;  -33.000
424.259;  -79.475; -654.000; -457.000
424.384;  -66.125; -279.000; -272.000
424.509;  -28.975; -260.000; -186.000
424.634;  -96.550; -761.000; -623.000
424.759;  -14.075; -688.000; -544.000
424.883;  -15.425; -506.000; -527.000
425.008;  175.900; -502.000; -410.000
425.133; 1949.375; -679.000; -653.000
425.258; 1009.900; -517.000; -381.000
425.382; 1070.150; -867.000; -774.000
425.507; 2945.700; -487.000; -543.000
425.632;  513.025; -802.000; -663.000
425.756;  448.375; -256.000; -146.000
425.881; 5871.875; -831.000; -857.000
426.006;17305.400; -604.000; -355.000
426.130; 2986.150; -696.000; -508.000
426.255;  392.750; -611.000; -491.000
426.379;  166.400; -189.000; -577.000
426.504;  362.950;  660.000;  544.000
426.629; 3907.750; -519.000; -466.000
426.753; 2970.275;   64.000;  -46.000
426.878;  345.500; -252.000; -288.000
427.002;  180.225; -651.000; -668.000
427.127; 1499.075;  -35.000; -158.000
427.251;11088.000;  372.000;  401.000
427.375; 3495.400; -191.000; -173.000
427.500; 2475.100; -616.000; -610.000
427.624;  936.675; -234.000; -400.000
427.749;  105.000; -216.000; -225.000
427.873;  -29.775; -499.000; -412.000
427.997;  -34.475; -222.000; -230.000
428.122;   79.075;  795.000;  703.000
428.246;   84.725;  433.000;  434.000
428.371; -123.450; -869.000; -773.000
428.495;  -99.575; -624.000; -646.000
428.619;  -41.500; -186.000; -117.000
428.743;   33.775;   65.000;  132.000
428.868;   11.550; -732.000; -643.000
428.992; 1514.675; -219.000; -326.000
429.116;  661.375; -329.000; -357.000
429.240;  312.300;  419.000;  426.000
429.365;  -26.125; -454.000; -574.000
429.489;  -20.975; -638.000; -647.000
429.613;   31.575; -236.000; -177.000
429.737;   34.525; -563.000; -432.000
429.861;  267.875; -247.000; -133.000
429.985; 5234.150; -425.000; -305.000
430.109; 6359.250; -770.000; -908.000
430.234;  773.525;   76.000;  -50.000
430.358;   73.950; -250.000; -160.000
430.482;  -55.550; -672.000; -564.000
430.606;  -68.750; -655.000; -375.000
430.730;   20.900; -437.000; -388.000
430.854;  154.650; -909.000; -835.000
430.978;  -38.450; -795.000; -764.000
431.102;  -86.850; -499.000; -422.000
431.226; -102.950; -874.000; -815.000
431.350;   32.350;  345.000;  422.000
431.474;  -66.125; -661.000; -373.000
431.597; -153.000;-1060.000; -848.000
431.721;  -68.275; -276.000; -267.000
431.845; -131.175; -704.000; -472.000
431.969;  -76.200; -304.000; -349.000
432.093;  -89.925; -395.000; -317.000
432.217;  -10.750;   32.000;   82.000
432.341;  -86.950; -523.000; -518.000
432.464;   27.350;   96.000;   40.000
432.588;  224.425; -401.000; -329.000
432.712;  132.425;  -52.000;  -52.000
432.836;   49.200;  213.000;  263.000
432.959;  -16.950; -372.000; -311.000
433.083;   75.725;   11.000;    2.000
433.207;  363.750;  285.000;  930.000
433.330; 4692.500; -391.000; -200.000
433.454; 6340.500; -654.000; -638.000
433.578; 3595.325;  583.000;  278.000
433.701;  740.200; -623.000; -675.000
433.825;  164.025; -292.000; -299.000
433.949;  216.250;   28.000;  -72.000
434.072;   82.625; -410.000; -323.000
434.196;   -3.175; -309.000; -117.000
434.319; 3595.875;25482.000;25124.000
434.443;  696.125; -656.000; -603.000
434.566; 2660.775;  281.000;   62.000
434.690;  490.800; -637.000; -383.000
434.813;   62.625; -251.000; -173.000
434.937;  -63.725; -569.000; -696.000
435.060;  -47.925; -423.000; -332.000
435.184;  353.175; -492.000; -217.000
435.307;  208.650;  159.000;  102.000
435.431;    2.675;  -40.000;   24.000
435.554;  -81.475; -399.000; -240.000
435.677;  -81.075; -350.000; -258.000
435.801;  -37.425;  -25.000;   49.000
435.924;   -5.500;    1.000;  -67.000
436.048; -103.925;-1019.000; -732.000
436.171;  -67.075; -240.000;  -66.000
436.294;  -43.700; -248.000; -229.000
436.417;   99.050; -963.000; -849.000
436.541;  -76.600; -814.000; -840.000
436.664;  -47.875; -242.000; -316.000
436.787;  -40.650;   13.000;  113.000
436.910; -103.250; -792.000; -422.000
437.034;    2.100;  142.000;  143.000
437.157;   69.300;  -11.000;    0.000
437.280;  -45.725; -392.000; -292.000
437.403;  -72.075; -982.000; -869.000
437.526;  662.975; -903.000; -865.000
437.649; 2578.750; -505.000; -332.000
437.772;  438.250; -692.000; -540.000
437.896;  142.150;  700.000;  544.000
438.019;  -91.500; -758.000; -503.000
438.142;  -70.650; -596.000; -506.000
438.265;  -16.575; -639.000; -670.000
438.388;  637.675; -520.000; -410.000
438.511;  145.775; -597.000; -394.000
438.634;  -39.325; -247.000; -125.000
438.757; -127.925; -693.000; -619.000
438.880;  -38.100;  -34.000;  -57.000
439.003;  -81.125; -417.000; -437.000
439.126;  -73.875; -287.000; -167.000
439.248;  -62.600;  -98.000; -139.000
439.371;  -45.375;    9.000;  -53.000
439.494;   13.375;  510.000;  439.000
439.617;  -47.550;   65.000;  -88.000
439.740; -169.750; -968.000; -816.000
439.863; -151.600; -755.000; -595.000
439.986; -127.500; -476.000; -431.000
440.108;  -51.225; -161.000; -112.000
440.231; -161.700; -950.000; -836.000
440.354;  -30.475;  -64.000; -150.000
440.477;   54.350; -566.000; -542.000
440.599;   16.975; -200.000; -225.000
440.722; -113.975; -709.000; -586.000
440.845;   64.400;  751.000;  928.000
440.968; -108.800; -415.000; -311.000
441.090;  -58.675; -199.000;  -33.000
441.213; -160.550;-1021.000; -825.000
441.336;  -53.650; -159.000;   -5.000
441.458;  -79.025; -549.000; -396.000
441.581;  -78.175; -628.000; -629.000
441.703;  -72.325; -152.000;   13.000
441.826; -113.050; -557.000; -400.000
441.948;  -59.625;   56.000;   51.000
442.071;   19.300;  555.000;  424.000
442.193; -109.125; -531.000; -485.000
442.316;   18.250;  152.000;   97.000
442.438;   48.300; -233.000;  -10.000
442.561;   79.175;  272.000;  262.000
442.683;  561.325; -809.000; -522.000
442.806; 1350.075;   -8.000;   74.000
442.928;   80.375; -859.000; -604.000
443.051;  -48.475; -577.000; -373.000
443.173; -100.300; -341.000; -339.000
443.295;  -77.975; -263.000; -371.000
443.418;  -75.125; -321.000;  -29.000
443.540;    4.500; -106.000;   -4.000
443.662; -118.750; -563.000; -465.000
443.785;   -1.600;  335.000;  199.000
443.907; -108.525; -362.000; -208.000
444.029; -124.850; -767.000; -494.000
444.152; -139.475; -644.000; -554.000
444.274;  -30.275;  -18.000;  -24.000
444.396; -112.800; -461.000; -221.000
444.518; -136.025; -691.000; -454.000
444.640; -109.275; -268.000; -111.000
444.763;  -25.675;  388.000;  249.000
444.885; -123.800; -432.000; -392.000
445.007;  -33.925;   35.000;   86.000
445.129; -118.875; -610.000; -515.000
445.251;  -93.400; -372.000; -439.000
445.373; -127.250; -537.000; -386.000
445.495;    7.925;  242.000;  350.000
445.617;   55.175;  853.000;  753.000
445.739;  -76.950; -215.000;  -97.000
445.861;  -41.750; -245.000; -112.000
445.984;  -25.750; -267.000; -101.000
446.105;  216.525; -418.000; -251.000
446.227;  681.050; -176.000;  -19.000
446.349;   38.100; -358.000; -249.000
446.471;  -92.725; -615.000; -448.000
446.593;  -66.450; -316.000;   19.000
446.715;    7.200;  -67.000;   41.000
446.837;   61.550;  697.000;  832.000
446.959;  -90.700; -457.000; -478.000
447.081; -119.575; -628.000; -518.000
447.203;   49.050;  862.000;  834.000
447.325;  -83.475; -270.000;   42.000
447.446;   -5.775;  286.000;  530.000
447.568; -148.800; -921.000; -803.000
447.690;  -72.850; -236.000; -245.000
447.812; -136.575; -798.000; -519.000
447.933;  -28.750;  155.000;  127.000
448.055;  -76.800; -306.000; -261.000
448.177;  154.400;   31.000;   79.000
448.299;  128.950; -935.000; -727.000
448.420;   32.100;  -25.000;  159.000
448.542;  -46.250;   -3.000;   33.000
448.664;  -17.475;  109.000;  322.000
448.785;  -48.700;  265.000;   83.000
448.907;  -83.200; -614.000; -353.000
449.028;  -32.475; -771.000; -471.000
449.150;   57.950;  492.000;  589.000
449.272; -181.775;-1044.000; -913.000
449.393;   17.000;  612.000;  694.000
449.515; -155.500; -634.000; -581.000
449.636;  -58.300; -264.000; -155.000
449.758;   67.300;  763.000;  622.000
449.879;  -89.200; -498.000; -396.000
450.001;  -72.250; -149.000;  -49.000
450.122;  -30.950;  -95.000;  162.000
450.244;  -36.975;   37.000;  364.000
450.365;  -98.675; -495.000; -301.000
450.486;  -39.825;   80.000;  268.000
450.608;   16.250;  393.000;  326.000
450.729;   74.875;  578.000;  645.000
450.850;   12.425; -574.000; -466.000
450.972;  658.425; -552.000; -389.000
451.093; 4710.850;  190.000;  588.000
451.214; 2268.375; -516.000; -337.000
451.336;  424.675;  773.000;  579.000
451.457;   53.425;  264.000;  393.000
451.578;  -26.200; -118.000;  -74.000
451.699; -127.825; -546.000; -540.000
451.821;  -54.150; -284.000;  -50.000
451.942;  -15.650;  278.000;  285.000
452.063;   30.325;  228.000;  419.000
452.184;  506.075;  -54.000;  -49.000
452.305; 1088.125;  103.000;  170.000
452.427;  155.325; -549.000; -301.000
452.548;   -9.700;   23.000;   79.000
452.669;  -45.875; -257.000;  -89.000
452.790;  -44.200;    3.000;  -18.000
452.911;  -13.400;  195.000;  259.000
453.032;  -73.175; -289.000;  -60.000
453.153;  -44.750;  -29.000;   81.000
453.274;   58.675;  737.000;  868.000
453.395;  -54.125;  -51.000;  175.000
453.516;  124.250; 1317.000; 1388.000
453.637;  -66.350; -205.000; -150.000
453.758;  -49.375;   15.000;   69.000
453.879; -117.075; -462.000; -250.000
454.000;   83.700; 1086.000;  948.000
454.121; -128.850; -554.000; -326.000
454.242; -114.475; -599.000; -383.000
454.362;  -50.125;  -99.000;  114.000
454.483;  -35.225; -309.000; -229.000
454.604;   58.925;  512.000;  580.000
454.725; -132.500; -627.000; -555.000
454.846; -127.450; -474.000; -406.000
454.967;  -25.925;  230.000;  539.000
455.087;  -50.875;  179.000;  153.000
455.208;   24.325;  554.000;  856.000
455.329;  -71.725;  -22.000;   82.000
455.450;   34.125;  473.000;  633.000
455.570;  -88.225; -234.000; -211.000
455.691;  -47.150;  201.000;  407.000
455.812; -103.575; -270.000;  -92.000
455.932;  -55.025;  107.000;  -97.000
456.053;  -81.825;   36.000;   24.000
456.173; -116.100; -433.000; -355.000
456.294; -133.450; -476.000; -303.000
456.415;  -68.350;  -73.000;   70.000
456.535;  -32.650;  297.000;  273.000
456.656;  -59.050;  132.000;  240.000
456.776;  -79.600;    3.000;  298.000
456.897;  -11.850;  308.000;  513.000
457.017;  -72.600; -153.000;   -3.000
457.138; -104.175; -402.000; -249.000
457.258;  -33.825;  263.000;  224.000
457.379;  -19.975;  509.000;  521.000
457.499;  -31.000;  443.000;  432.000
457.620; -109.050; -407.000; -231.000
457.740;  -94.900; -132.000;  -11.000
457.860;  -60.025;   87.000;   44.000
457.981;  -41.875;  132.000;  124.000
458.101;  -76.900;  -89.000;   40.000
458.221;  -31.075;  336.000;  402.000
458.342;  -43.125;   -4.000;  -37.000
458.462;   18.275;  617.000;  352.000
458.582;  -36.700; -302.000; -294.000
458.703;   -6.600;  303.000;  154.000
458.823;  -21.625;   22.000;  163.000
458.943;   14.900;  341.000;  467.000
459.063;  -10.175; 1124.000;  192.000
459.183;  -17.025;  328.000;  313.000
459.304;    1.400;  315.000;  517.000
459.424;  -68.525; -246.000;  -89.000
459.544;  309.050;  388.000;  764.000
459.664;  817.625;  499.000;  506.000
459.784;  336.075; 1004.000; 1175.000
459.904;   50.700;  867.000;  744.000
460.024;   67.325;  867.000;  684.000
460.144;    5.550;  449.000;  554.000
460.264;   -1.025;  515.000;  327.000
460.385;  -89.400; -145.000; -119.000
460.505;   27.075;  905.000;  858.000
460.625;  -93.350;  -17.000;  -68.000
460.745;  -22.300;  396.000;  541.000
460.864;  -62.725;  153.000;  469.000
460.984;   26.100;  499.000;  573.000
461.104;  134.450; 1656.000; 1775.000
461.224;   18.875;  657.000;  650.000
461.344;  -30.050;  431.000;  360.000
461.464;  -24.400;  258.000;  513.000
461.584;  -20.425;  283.000;  466.000
461.704;  -41.325;   58.000;  108.000
461.824;  -59.575;  238.000;  259.000
461.943;  -38.200;  191.000;  130.000
462.063;  -82.725;    2.000;  324.000
462.183;   37.225;  639.000;  717.000
462.303;   88.800; 1678.000; 1230.000
462.422;   39.350;  781.000;  840.000
462.542;  -44.475;  271.000;  391.000
462.662;   43.100;  353.000;  380.000
462.782;  219.250;  833.000;  572.000
462.901;  482.325;  545.000;  717.000
463.021;  284.300; 1702.000; 1638.000
463.141;    8.325;  337.000;  770.000
463.260;  -38.400;  614.000;  474.000
463.380;   31.300;  902.000;  884.000
463.499;  -47.525;  342.000;  332.000
463.619;  -23.000;  581.000;  559.000
463.738;   95.125; 1644.000;  903.000
463.858;    6.350;  657.000;  811.000
463.978;  -38.675;  542.000;  396.000
464.097;   47.500;  921.000; 1114.000
464.217;   86.925; 1196.000; 1143.000
464.336;  105.875; 1068.000; 1130.000
464.455;  -39.400;  328.000;  659.000
464.575;   50.075;  597.000;  602.000
464.694;  159.675; 1204.000; 1179.000
464.814;  137.350; 1190.000; 1138.000
464.933;   61.025; 1095.000; 1027.000
465.052;   94.125; 1412.000; 1054.000
465.172;   72.375;  922.000;  799.000
465.291;  135.000; 1376.000; 1320.000
465.410;    4.425;  462.000;  735.000
465.530;   90.150; 1355.000; 1310.000
465.649;   47.325; 1209.000; 1273.000
465.768;  135.825; 1673.000; 1508.000
465.888;   48.200;  941.000; 1174.000
466.007;   91.300; 1335.000; 1440.000
466.126;  -15.225;  721.000;  641.000
466.245;   54.400; 1176.000; 1187.000
466.364;   31.150;  950.000; 1060.000
466.484;   48.225; 1024.000; 1213.000
466.603;   26.700; 1101.000; 1222.000
466.722;  130.575; 1490.000; 1769.000
466.841;   68.400; 1151.000; 1401.000
466.960;   34.450; 1069.000;  972.000
467.079;  123.375; 1971.000; 1786.000
467.198;   50.150; 1238.000; 1181.000
467.317;   75.775; 1768.000; 1162.000
467.436;   73.250; 1709.000; 1261.000
467.555;  123.125; 1796.000; 1746.000
467.674;   68.400; 1227.000; 1329.000
467.793;   41.950; 1376.000; 1374.000
467.912;   87.925; 1658.000; 1539.000
468.031;  116.875; 2038.000; 1930.000
468.150;  142.625; 1842.000; 1837.000
468.269;  192.800; 2313.000; 2090.000
468.388;  190.350; 2168.000; 2339.000
468.507;  238.175; 2884.000; 2903.000
468.626;  265.025; 2555.000; 2541.000
468.744;  134.375; 2018.000; 2174.000
468.863;  208.400; 2312.000; 2523.000
468.982;  108.225; 1503.000; 1555.000
469.101;  222.450; 2788.000; 2692.000
469.220;  145.775; 2333.000; 2176.000
469.338;  258.825; 2935.000; 3051.000
469.457;  197.400; 2719.000; 2545.000
469.576;  330.700; 3953.000; 3784.000
469.695;  255.075; 2877.000; 3066.000
469.813;  418.800; 4148.000; 4192.000
469.932;  392.900; 4255.000; 4485.000
470.051;  436.225; 4075.000; 4161.000
470.169;  811.100; 4470.000; 4338.000
470.288; 1456.125; 4700.000; 4809.000
470.406;  899.325; 5059.000; 5194.000
470.525;  654.600; 6101.000; 5787.000
470.644;  642.500; 6847.000; 6794.000
470.762;  800.275; 8397.000; 7873.000
470.881;  899.100; 8651.000; 8464.000
470.999; 1039.325; 9685.000; 9151.000
471.118; 1101.775;11174.000;10711.000

