
Integration time [ms]: 100.000
Averaging Nr. [scans]: 40
Smoothing Nr. [pixels]: 0
Data measured with spectrometer [name]: 2101012U2
Wave   ;Sample   ;Dark     ;Reference
[nm]   ;[counts] ;[counts] ;[counts] 

197.733;   57.625;  516.000;  404.000
197.879;  -83.175; -610.000; -634.000
198.025;  -40.850; -475.000; -420.000
198.171;  -65.175; -602.000; -612.000
198.317;  -29.825; -401.000; -316.000
198.463;  -53.900; -655.000; -404.000
198.609;   26.400;  181.000; -137.000
198.755;  -69.800; -644.000; -410.000
198.901;  -72.875; -505.000; -424.000
199.047;  -61.475; -615.000; -488.000
199.193;  -46.375; -230.000; -468.000
199.339;  -41.575; -222.000; -369.000
199.485;   31.650;  330.000;  271.000
199.631;   21.975;  227.000;  310.000
199.777;  -54.150; -466.000; -398.000
199.923;  -60.175; -610.000; -424.000
200.069;   -9.500; -141.000;  -58.000
200.215;   55.775;  128.000;  453.000
200.361;   50.675;  243.000;  477.000
200.507;  -48.000; -600.000; -373.000
200.653;  -28.325; -371.000; -194.000
200.798;  -34.925; -215.000; -125.000
200.944;  -16.125; -146.000;  -41.000
201.090;   47.800;   61.000;  222.000
201.236;    2.850; -116.000; -158.000
201.382;  125.025;  874.000;  903.000
201.528;   -3.100;  -58.000;  -48.000
201.674;  -37.175; -386.000; -293.000
201.819;  -77.725; -540.000; -439.000
201.965;  -83.500; -699.000; -447.000
202.111;  -25.325; -273.000; -226.000
202.257;  -33.650; -250.000; -238.000
202.402;   -2.675;   13.000;  -36.000
202.548;  -25.625; -169.000; -116.000
202.694;   75.025;  410.000; -183.000
202.840;  -63.775; -603.000; -531.000
202.985;  -69.425; -681.000; -639.000
203.131;  -99.700; -832.000; -666.000
203.277;  -27.075; -199.000; -262.000
203.423;  -52.250; -434.000; -520.000
203.568;  -31.450; -462.000; -237.000
203.714;  -60.625; -535.000; -542.000
203.860;  -66.900; -682.000; -641.000
204.005;   14.075;  112.000;  167.000
204.151;   79.675;  561.000;  556.000
204.296;  -51.850; -354.000; -221.000
204.442;  -66.225; -600.000; -547.000
204.588;  -75.175; -592.000; -579.000
204.733;   17.500;  178.000;  168.000
204.879; -126.700;-1018.000; -822.000
205.025;   11.350;  -99.000;  126.000
205.170;   -9.075;  -17.000;   94.000
205.316;   81.150;  438.000;  661.000
205.461;  -79.200; -698.000; -554.000
205.607;   97.125;  609.000;  665.000
205.752;  -77.875; -626.000; -551.000
205.898;  -43.575; -501.000; -391.000
206.043;  -55.925; -578.000; -506.000
206.189;  -47.700; -243.000; -285.000
206.334;   81.750;  554.000;  606.000
206.480;   60.500;  409.000;  239.000
206.625;  -72.150; -529.000; -552.000
206.771;  -48.400; -451.000; -373.000
206.916;  -32.175; -210.000; -537.000
207.062;  -68.000; -545.000; -591.000
207.207;  -50.450; -546.000; -443.000
207.353;   45.600;  185.000;  460.000
207.498;   14.325;  196.000;   85.000
207.643;  -50.750; -501.000; -370.000
207.789; -115.725;-1069.000; -910.000
207.934;  -88.450; -665.000; -713.000
208.080;  -20.200; -154.000;   66.000
208.225;  -12.175;  -22.000;  -57.000
208.370;  -79.800; -727.000; -619.000
208.516;  -79.900; -741.000; -487.000
208.661;  -33.375; -127.000;  -69.000
208.806;  -15.800; -165.000; -171.000
208.952; -114.200;-1044.000; -731.000
209.097;   56.875;  378.000;  349.000
209.242;  -36.225; -307.000; -382.000
209.387;   66.575;  392.000;  350.000
209.533;  -59.350; -321.000; -350.000
209.678;   69.825;  472.000;  543.000
209.823;  -50.675; -408.000; -310.000
209.969; -102.250; -860.000; -757.000
210.114;  -96.600; -907.000; -719.000
210.259; -118.400; -939.000; -889.000
210.404;   -7.675; -171.000;  103.000
210.549;    5.475;  108.000;    3.000
210.695;  -21.650;   -3.000;  -95.000
210.840;   28.850;   94.000;   67.000
210.985;  -61.500; -484.000; -303.000
211.130;   69.275;  268.000;  406.000
211.275;   24.075;  207.000;  199.000
211.420;  -52.000; -300.000; -289.000
211.566;  -66.325; -536.000; -489.000
211.711;   26.000;  218.000;  157.000
211.856;  -42.625; -545.000; -519.000
212.001;    6.200;  151.000;   44.000
212.146;   14.625;  153.000;   49.000
212.291;  -27.800; -210.000; -186.000
212.436;  -27.750; -280.000;   -6.000
212.581;  -79.775; -685.000; -653.000
212.726;  -59.450; -487.000; -538.000
212.871;  -52.000; -552.000; -217.000
213.016; -141.725;-1172.000;-1029.000
213.161;   71.200;  406.000;  291.000
213.306;  -70.500; -435.000; -577.000
213.451;  -88.375; -778.000; -689.000
213.596;  -41.600; -455.000; -347.000
213.741;  -43.275; -448.000; -538.000
213.886;  -72.425; -498.000; -517.000
214.031;  -17.775; -294.000; -124.000
214.176;  -53.800; -408.000; -341.000
214.321;  -15.625; -296.000; -157.000
214.466;  -23.550; -163.000;  -43.000
214.611;   -3.700;  -61.000;  -10.000
214.756; -109.725; -948.000; -858.000
214.901;  -19.175; -388.000; -226.000
215.046; -105.800; -797.000; -825.000
215.191;   20.275;  128.000;   35.000
215.336;  -13.300; -157.000;  -19.000
215.480;  -69.725; -684.000; -505.000
215.625;  -17.475; -175.000;  -19.000
215.770;  -85.950; -757.000; -662.000
215.915;    0.025;   -5.000;  -97.000
216.060;   -7.600; -113.000;  -21.000
216.205; -107.475; -731.000; -779.000
216.349;  -70.850; -470.000; -533.000
216.494; -133.675; -939.000; -867.000
216.639; -115.150; -823.000; -888.000
216.784;  -92.075; -577.000; -525.000
216.929;   49.875;  392.000;  281.000
217.073;   -6.275; -244.000;  -31.000
217.218;   -5.925;   78.000;  -47.000
217.363;  -75.850; -656.000; -618.000
217.507;  -72.850; -623.000; -588.000
217.652; -123.500; -845.000; -874.000
217.797;  -85.000; -708.000; -659.000
217.942;  -88.525; -856.000; -720.000
218.086;   65.275;  608.000;  539.000
218.231;  -18.325; -174.000;  -26.000
218.376;  -38.300; -337.000; -229.000
218.520;    8.750;  -41.000;   96.000
218.665;  -35.325; -338.000; -204.000
218.810;  -41.625; -275.000; -233.000
218.954;   26.350;  201.000;   35.000
219.099; -111.775; -713.000; -963.000
219.243;  -65.525; -589.000; -554.000
219.388;  -35.800; -264.000; -136.000
219.532;  -12.375; -116.000; -116.000
219.677;  -64.100; -564.000; -521.000
219.822;    5.025;   33.000;   89.000
219.966;    9.750;   17.000;  -99.000
220.111;  -31.850; -328.000;  -40.000
220.255;  -83.700; -797.000; -750.000
220.400;  -18.500; -180.000; -146.000
220.544;  -68.300; -516.000; -450.000
220.689;  -55.875; -422.000; -451.000
220.833;  -29.650; -123.000;  -58.000
220.978;  -36.100; -393.000; -563.000
221.122;   24.050;  319.000;  307.000
221.267; -116.725; -906.000; -837.000
221.411;  -67.150; -478.000; -394.000
221.555;  -16.775; -104.000;  -23.000
221.700;  -45.000; -329.000; -222.000
221.844;   31.850;  255.000;  272.000
221.989;  -46.300; -328.000; -311.000
222.133;  -33.650; -289.000; -307.000
222.277;   -8.875;    5.000;   78.000
222.422;    1.750;  227.000;  113.000
222.566;  -34.325; -381.000; -214.000
222.711;  -64.950; -414.000; -479.000
222.855;  -76.500; -643.000; -586.000
222.999;  -92.525; -642.000; -717.000
223.144;  -13.450; -195.000; -194.000
223.288;   46.150;  423.000;  251.000
223.432;   21.450;  184.000;  230.000
223.576;    8.800;  152.000;  -21.000
223.721;   42.675;  364.000;  273.000
223.865;  -62.775; -472.000; -475.000
224.009;  266.925; 1673.000; 1631.000
224.153;  -85.950; -660.000; -671.000
224.298;  -61.400; -531.000; -489.000
224.442;  -12.575;  -74.000;  -33.000
224.586;   -1.375; -169.000; -106.000
224.730;  -93.425; -858.000; -670.000
224.875;  -96.500; -739.000; -688.000
225.019;    5.750;  102.000;  188.000
225.163;   56.550;  208.000;  341.000
225.307;    9.200;   97.000;  -91.000
225.451;   48.900;  360.000;  481.000
225.595;   24.500;  264.000;  176.000
225.739;    2.650; -170.000;  -94.000
225.884;    1.325;   86.000;    5.000
226.028;  -88.775; -760.000; -626.000
226.172;  -30.900; -260.000; -273.000
226.316; -120.025; -941.000; -902.000
226.460;  -64.250; -645.000; -493.000
226.604;  -44.000; -406.000; -400.000
226.748; -100.300; -836.000; -733.000
226.892;  -35.050; -227.000; -181.000
227.036;  -51.725; -537.000; -447.000
227.180;  -49.200; -551.000; -375.000
227.324;  -67.525; -561.000; -580.000
227.468; -104.250; -819.000; -717.000
227.612;   13.250;  242.000;  -28.000
227.756;  -86.400; -845.000; -698.000
227.900;   37.575;  342.000;  441.000
228.044;  -55.450; -509.000; -290.000
228.188;   61.175;  448.000;  568.000
228.332;  -80.800; -546.000; -472.000
228.476;  -20.850; -223.000; -149.000
228.620;  -23.775; -210.000; -150.000
228.764;   71.050;  431.000;  349.000
228.908;   -8.475; -155.000;   30.000
229.052;  -65.475; -615.000; -528.000
229.195;  -12.800; -172.000;   13.000
229.339;  -31.150; -235.000; -305.000
229.483;  -17.525;    5.000; -162.000
229.627;  -12.425; -156.000;  139.000
229.771;  -47.275; -218.000; -294.000
229.915;    6.525;  230.000;   79.000
230.059;  -81.325; -648.000; -663.000
230.202;  -45.825; -370.000; -317.000
230.346;  -13.475; -107.000;  107.000
230.490;  -42.675; -489.000; -521.000
230.634; -106.600; -736.000; -553.000
230.777;   67.100;  478.000;  509.000
230.921;  -36.250; -450.000; -359.000
231.065;  -43.675; -246.000; -286.000
231.209;   38.525;  261.000;  265.000
231.352;   19.875;   54.000;   40.000
231.496;   24.250;  568.000;  188.000
231.640;  -65.900; -693.000; -621.000
231.783;   55.825;  546.000;  525.000
231.927;  -55.650; -294.000; -365.000
232.071; -101.950; -962.000; -736.000
232.214; -111.250; -980.000; -764.000
232.358; -103.075; -683.000; -599.000
232.502;   -7.125;  -19.000;    7.000
232.645; -128.575;-1090.000; -927.000
232.789;  -37.125; -257.000; -218.000
232.933;  -32.700; -407.000; -224.000
233.076; -128.500;-1038.000; -897.000
233.220;  -94.975; -752.000; -777.000
233.363;  -70.550; -669.000; -477.000
233.507;   47.675;  371.000;  129.000
233.650;  -92.550; -764.000; -834.000
233.794;   53.150;  438.000;  461.000
233.938;  -58.025; -530.000; -362.000
234.081;  -27.250;  -93.000;   31.000
234.225;  -70.825; -631.000; -539.000
234.368; -109.300; -773.000; -723.000
234.512;  -37.975; -385.000; -299.000
234.655;  -82.250; -582.000; -555.000
234.798;  -61.275; -493.000; -466.000
234.942; -128.825; -884.000;-1002.000
235.085;  -71.050; -651.000; -443.000
235.229;  -65.925; -405.000; -410.000
235.372;  -59.975; -247.000; -191.000
235.516;  -49.750; -397.000; -321.000
235.659;   20.725;   92.000;  121.000
235.802;    1.000;  -38.000;  -22.000
235.946;   22.850;  335.000;  215.000
236.089;   24.700;  126.000;  250.000
236.233;   43.875;  275.000;  298.000
236.376;  -49.475; -235.000; -378.000
236.519;  -50.650; -297.000; -319.000
236.663;  -27.450; -215.000; -117.000
236.806; -129.075;-1029.000; -999.000
236.949;   32.575;  543.000;  431.000
237.092;   54.250;  412.000;  391.000
237.236;  -80.125; -589.000; -502.000
237.379;   68.825;  352.000;  428.000
237.522; -107.600; -879.000; -768.000
237.666;   -8.925; -271.000;   18.000
237.809; -108.950; -851.000; -823.000
237.952;   41.625;  469.000;  271.000
238.095;  -56.875; -447.000; -442.000
238.238;   80.700;  688.000;  700.000
238.382;   -9.275;  166.000;  103.000
238.525;  -62.650; -598.000; -511.000
238.668; -135.375;-1060.000; -985.000
238.811;  -72.450; -638.000; -643.000
238.954;  -47.900; -483.000; -334.000
239.097;   86.650;  617.000;  664.000
239.241;   28.000;  394.000;  326.000
239.384;  -31.825; -254.000; -214.000
239.527;  -44.750; -424.000; -224.000
239.670; -145.750; -994.000;-1091.000
239.813;  -97.450; -696.000; -658.000
239.956;   79.350;  579.000;  473.000
240.099; -108.050; -778.000; -725.000
240.242;   54.300;  428.000;  432.000
240.385;   62.925;  466.000;  450.000
240.528;  -71.300; -706.000; -473.000
240.671;   22.875;  189.000;  134.000
240.814;  -31.050; -441.000; -158.000
240.957;  -77.700; -767.000; -578.000
241.100;  -87.875; -779.000; -755.000
241.243; -136.125;-1234.000; -893.000
241.386;  -63.150; -508.000; -379.000
241.529;  -80.025; -735.000; -547.000
241.672;  -64.675; -566.000; -495.000
241.815; -116.850; -832.000; -808.000
241.958;  -30.125; -125.000; -182.000
242.101;  -82.025; -545.000; -390.000
242.244;  -39.875; -270.000; -325.000
242.387;  -39.125; -304.000; -246.000
242.530;   51.275;  470.000;  134.000
242.673;  -46.975; -381.000; -309.000
242.815; -125.750; -925.000; -899.000
242.958;  -56.950; -482.000; -381.000
243.101;   11.300;  132.000;  187.000
243.244;  -74.425; -564.000; -521.000
243.387;  -41.700; -313.000; -316.000
243.530;  -81.800; -657.000; -674.000
243.672;  -14.650;   43.000;  -92.000
243.815;  -58.500; -355.000; -283.000
243.958;  -10.225;   98.000;  -26.000
244.101;    2.175;   59.000;  -16.000
244.243;  -18.950;  -47.000;  101.000
244.386; -115.650; -761.000; -630.000
244.529;  -32.950; -132.000; -139.000
244.672; -137.775;-1154.000; -951.000
244.814;  -98.900; -621.000; -794.000
244.957;  -54.425; -380.000; -304.000
245.100;  -76.200; -489.000; -489.000
245.242;  -57.575; -387.000; -374.000
245.385;  -12.925;  -59.000;  -39.000
245.528; -106.825; -871.000; -705.000
245.670;   65.650;  612.000;  634.000
245.813;  -74.925; -599.000; -547.000
245.956;  -24.075; -324.000; -275.000
246.098;  -64.300; -508.000; -650.000
246.241;    1.925;  194.000;   48.000
246.383;  -23.400; -119.000;  -73.000
246.526;  -73.200; -454.000; -525.000
246.669; -106.325; -889.000; -780.000
246.811;   13.725;  172.000;   -1.000
246.954;  -54.625; -512.000; -426.000
247.096;  -23.575;  -84.000;   -6.000
247.239;  -60.600; -482.000; -445.000
247.381;  -61.000; -647.000; -488.000
247.524;   87.650;  645.000;  679.000
247.666;   -7.825;   58.000;   11.000
247.809; -121.150; -887.000; -691.000
247.951;  -10.850;  -75.000;  138.000
248.094;   31.050;  432.000;  308.000
248.236; -152.975;-1262.000;-1238.000
248.378;   12.000; -356.000;  -81.000
248.521;  -40.000; -334.000; -337.000
248.663;  -33.300; -236.000; -267.000
248.806;  -23.125; -300.000; -266.000
248.948;  -84.225; -886.000; -763.000
249.090;  -43.350; -428.000; -398.000
249.233;  -44.875; -344.000; -381.000
249.375;  -63.900; -474.000; -451.000
249.518;   -9.200;  -83.000; -133.000
249.660;   -5.350; -103.000;    3.000
249.802; -154.875;-1303.000;-1189.000
249.945;  -74.975; -612.000; -540.000
250.087;  -93.550; -834.000; -768.000
250.229;  -44.700; -362.000; -480.000
250.371;  -64.350; -494.000; -439.000
250.514;  -46.175; -310.000; -244.000
250.656;  -74.950;   69.000;  102.000
250.798; -102.775; -849.000; -800.000
250.940;  -57.925; -322.000; -322.000
251.083;  -28.100; -335.000; -111.000
251.225;   58.900;  338.000;  310.000
251.367;  -50.925; -274.000; -373.000
251.509;  -41.975; -265.000; -210.000
251.651;  -93.900; -731.000; -671.000
251.794;   43.300;  538.000;  632.000
251.936;  -99.675; -821.000; -747.000
252.078;  -68.200; -540.000; -461.000
252.220;  -66.250; -645.000; -477.000
252.362;   81.925;  344.000;  462.000
252.504;  -71.075; -677.000; -584.000
252.646; -103.275; -875.000; -722.000
252.788;  -14.675;   14.000; -128.000
252.931;  -35.400; -257.000; -253.000
253.073;  -43.625; -376.000; -317.000
253.215;   -7.425;  141.000;  122.000
253.357;   -7.225;   82.000; -153.000
253.499;  -67.100; -374.000; -234.000
253.641;  -78.775; -749.000; -594.000
253.783;  -80.275; -609.000; -527.000
253.925;  -95.825; -586.000; -591.000
254.067; -110.325; -744.000; -667.000
254.209;  -29.900; -391.000; -259.000
254.351; -129.750; -865.000; -883.000
254.493;  -54.900; -441.000; -417.000
254.635; -126.900; -936.000; -818.000
254.777;  -87.200; -752.000; -687.000
254.918;  -64.600; -512.000; -430.000
255.060;  -60.500; -551.000; -395.000
255.202;  -56.525; -473.000; -261.000
255.344;  -79.150; -658.000; -455.000
255.486;  -77.975; -471.000; -406.000
255.628; -108.225; -780.000; -781.000
255.770; -102.050; -676.000; -536.000
255.912;  -71.700; -559.000; -468.000
256.053;  -88.450; -730.000; -508.000
256.195;  140.200; 1008.000;  903.000
256.337;  -92.775; -861.000; -595.000
256.479;   68.475;  532.000;  416.000
256.621;  -33.100; -394.000; -212.000
256.762;  -96.800; -789.000; -742.000
256.904;   59.975;  485.000;  487.000
257.046;  -44.475; -381.000; -271.000
257.188;  -54.925; -351.000; -264.000
257.329;  -68.975; -525.000; -464.000
257.471; -112.650; -939.000; -807.000
257.613;  -50.575; -584.000; -498.000
257.755; -139.925;-1073.000; -982.000
257.896;   18.150;  286.000;  392.000
258.038;  -67.625; -403.000; -352.000
258.180;  -54.100; -354.000; -279.000
258.321;  -83.550; -581.000; -457.000
258.463;   -5.750;  -71.000;  133.000
258.605;  -77.800; -562.000; -570.000
258.746;  -99.550; -886.000; -772.000
258.888; -148.075;-1026.000;-1020.000
259.029;   30.775;  121.000;   -8.000
259.171;  -82.150; -614.000; -550.000
259.313;   -9.800;  -49.000;  -47.000
259.454;  -73.200; -536.000; -414.000
259.596;  -57.375; -483.000; -390.000
259.737;  -69.725; -590.000; -474.000
259.879;   37.925;  217.000;  311.000
260.020;   93.775;  901.000;  636.000
260.162;  -36.075; -146.000; -253.000
260.303; -108.050; -768.000; -687.000
260.445;  -86.900; -609.000; -613.000
260.586;   22.050;  392.000;  157.000
260.728;  -51.050; -360.000; -248.000
260.869;  -55.375; -350.000; -343.000
261.011;   73.500;  706.000;  537.000
261.152;  -65.125; -479.000; -319.000
261.293;  -78.675; -576.000; -595.000
261.435;  -20.475; -219.000; -184.000
261.576;  -52.175; -455.000; -325.000
261.718;   37.375;  420.000;  470.000
261.859; -122.150; -940.000; -949.000
262.000; -121.750; -951.000;-1016.000
262.142;  -20.225;  -52.000;  -60.000
262.283; -105.025; -808.000; -691.000
262.424;  -89.925; -666.000; -625.000
262.566; -141.900;-1161.000; -983.000
262.707; -112.425; -840.000; -830.000
262.848; -107.050; -769.000; -726.000
262.990;  -49.275; -362.000; -345.000
263.131;   84.075;  650.000;  681.000
263.272;   -2.250;  -61.000;  -41.000
263.413;  -96.000; -589.000; -561.000
263.555;  -71.575; -669.000; -143.000
263.696;  -82.800; -550.000; -641.000
263.837;  -65.050; -449.000; -551.000
263.978;   -2.000;   -5.000;  -77.000
264.119;  -44.900; -283.000; -264.000
264.261; -111.700; -847.000; -630.000
264.402;   -0.750;   33.000;   40.000
264.543;  -60.000; -509.000; -524.000
264.684;    1.800;   61.000;  -50.000
264.825;  -78.075; -816.000; -538.000
264.966;  -13.075;  -84.000;  -67.000
265.107; -118.400; -646.000; -670.000
265.248; -102.700; -825.000; -812.000
265.390;  -17.750;  152.000;   -9.000
265.531;  -13.575; -238.000; -107.000
265.672;  -81.550; -557.000; -630.000
265.813;   48.950;  563.000;  439.000
265.954; -142.700; -959.000; -940.000
266.095;  -19.225; -372.000; -322.000
266.236;  -84.025; -686.000; -548.000
266.377;  -52.900; -243.000; -297.000
266.518;  -64.300; -619.000; -547.000
266.659;   26.750;  170.000;  268.000
266.800;   16.875;   83.000;   85.000
266.941;  -91.000; -487.000; -478.000
267.082;   14.000;  354.000;   99.000
267.223;  -54.500; -344.000; -273.000
267.364; -124.375; -892.000; -686.000
267.504;  -23.900;    3.000;  135.000
267.645;   -0.825;  160.000;   67.000
267.786;  -41.450; -147.000;  -86.000
267.927;  -53.850; -473.000; -379.000
268.068;  -18.675; -186.000;  -61.000
268.209;  -39.775; -175.000; -413.000
268.350;  -55.975; -388.000; -532.000
268.490;  -79.800; -648.000; -521.000
268.631;   24.975;  127.000;  225.000
268.772;  -96.675; -874.000; -647.000
268.913;  -44.100; -328.000; -476.000
269.054;  -11.750; -117.000;   12.000
269.194;  -47.875; -418.000; -402.000
269.335; -155.850;-1137.000;-1074.000
269.476;  -17.650;   33.000;  -35.000
269.617;  -51.750; -347.000; -392.000
269.757;  -76.525; -713.000; -646.000
269.898;  -88.500; -856.000; -613.000
270.039;  -62.050; -415.000; -405.000
270.180; -141.025; -952.000; -816.000
270.320;  -22.825; -190.000; -250.000
270.461;  -38.100; -277.000; -249.000
270.602;  -29.400; -186.000; -156.000
270.742; -109.550; -868.000; -943.000
270.883;  -67.725; -442.000; -390.000
271.023;  -65.175; -358.000; -357.000
271.164;  -69.400; -607.000; -528.000
271.305; -105.650; -666.000; -654.000
271.445; -107.325; -722.000; -683.000
271.586;  -62.550; -462.000; -283.000
271.726;  -46.900; -397.000; -322.000
271.867;  -45.175; -594.000; -534.000
272.008;  188.950; -473.000; -285.000
272.148;  126.050;  462.000;  468.000
272.289;    3.750; -113.000; -181.000
272.429;   24.975;   19.000;  185.000
272.570; -103.600; -633.000; -737.000
272.710;  -97.950; -825.000; -775.000
272.851;  -33.375;  113.000; -130.000
272.991; -164.675;-1173.000;-1077.000
273.131;  -65.200; -419.000; -459.000
273.272;  -98.275; -683.000; -723.000
273.412;   17.625; -143.000;  -31.000
273.553;  -52.375; -488.000; -507.000
273.693;  121.375;  913.000;  858.000
273.834;  -82.800; -894.000; -692.000
273.974;  -70.225; -664.000; -615.000
274.114;  -88.650; -772.000; -560.000
274.255;   73.700;  414.000;  373.000
274.395;   13.250; -180.000; -125.000
274.535;   42.250;  199.000;  350.000
274.676;   31.875;  225.000;   94.000
274.816;   -2.700;  110.000;   34.000
274.956;  -63.175; -624.000; -690.000
275.097;  -47.200;-1014.000; -922.000
275.237; -101.875; -913.000; -803.000
275.377; -104.725; -778.000; -689.000
275.517; -146.200; -878.000; -937.000
275.658;  -57.450; -590.000; -555.000
275.798;  -62.525; -606.000; -413.000
275.938;    5.550;  215.000;  323.000
276.078;  -82.350; -626.000; -395.000
276.218;   -8.650;   99.000;  104.000
276.359; -122.225;-1026.000;-1024.000
276.499;  -66.250; -605.000; -446.000
276.639;  -39.500; -305.000; -151.000
276.779;  -44.350; -475.000; -357.000
276.919;  -90.450; -783.000; -624.000
277.059;  -21.000; -261.000; -212.000
277.199;  -42.550; -357.000; -259.000
277.340;   34.350;  287.000;  175.000
277.480; -118.200; -840.000; -693.000
277.620;   33.700;  192.000;   16.000
277.760; -189.600;-1533.000;-1294.000
277.900;   21.700;  113.000;   33.000
278.040;   19.850;  137.000;  159.000
278.180;   43.675;  270.000;  170.000
278.320;   -8.900;   21.000;   56.000
278.460;  -75.850; -443.000; -469.000
278.600;  -85.325; -708.000; -598.000
278.740;   40.575;  448.000;  224.000
278.880;  -51.625; -768.000; -791.000
279.020;  -11.000; -194.000; -144.000
279.160;  -77.725; -672.000; -595.000
279.300; -116.025; -926.000; -873.000
279.440;  -86.950; -709.000; -622.000
279.579;  -13.950;-1014.000; -929.000
279.719;  -55.625; -410.000; -394.000
279.859;   75.225;   -4.000;   41.000
279.999;   26.075; -208.000;  101.000
280.139;  -16.350; -435.000; -387.000
280.279;  -69.025; -708.000; -745.000
280.419;  -24.250; -229.000; -147.000
280.559;  -23.325; -259.000; -180.000
280.698;  -80.600; -790.000; -639.000
280.838;  -91.625; -778.000; -800.000
280.978;  -87.300; -846.000; -790.000
281.118; -113.525; -811.000; -704.000
281.257;   -5.275;   24.000;    6.000
281.397; -107.575;-1094.000; -960.000
281.537;  -93.050; -599.000; -712.000
281.677;  -10.775; -150.000; -101.000
281.816;  -82.325; -700.000; -630.000
281.956;  -29.650; -193.000; -257.000
282.096;  -72.625; -539.000; -396.000
282.235; -101.775; -672.000; -638.000
282.375;   -9.450; -243.000;  -98.000
282.515; -102.225; -715.000; -707.000
282.654;   27.875;   29.000;  106.000
282.794;   21.575;  388.000;  244.000
282.934;  -55.175; -530.000; -491.000
283.073; -123.100;-1030.000; -857.000
283.213;  -45.775; -460.000; -467.000
283.353;  -38.325; -408.000; -349.000
283.492;  -20.075; -264.000; -296.000
283.632;  -43.050; -254.000; -168.000
283.771; -100.325; -859.000; -730.000
283.911;  -28.100; -369.000; -260.000
284.050;  -98.875; -794.000; -748.000
284.190; -147.650;-1229.000;-1096.000
284.329; -135.200;-1055.000; -964.000
284.469;  -60.250; -516.000; -591.000
284.608;  -61.875; -559.000; -598.000
284.748;  -66.325; -614.000; -570.000
284.887;    2.100;  -87.000;  -20.000
285.027; -116.675; -844.000; -892.000
285.166;  -27.850; -192.000; -249.000
285.306;   16.625; -116.000;  -33.000
285.445;  -44.100; -229.000; -343.000
285.584;  -95.725; -630.000; -494.000
285.724;  -33.850; -282.000; -322.000
285.863; -100.150; -857.000; -507.000
286.002;  -54.000; -366.000; -276.000
286.142; -102.000; -715.000; -622.000
286.281;  -68.200; -525.000; -493.000
286.420;  -69.575; -554.000; -417.000
286.560;   88.825;  653.000;  623.000
286.699; -122.900; -958.000; -912.000
286.838;  -85.550; -590.000; -591.000
286.978;  -84.100; -533.000; -537.000
287.117; -131.925;-1085.000; -950.000
287.256;  -34.150; -228.000; -211.000
287.395;  -54.700; -197.000; -378.000
287.535;  -58.850; -370.000; -298.000
287.674;  -74.075; -509.000; -484.000
287.813;   48.150;  661.000;  533.000
287.952; -136.200;-1010.000; -871.000
288.091; -137.425;-1049.000; -915.000
288.231;   19.675;   13.000;   15.000
288.370; -161.300;-1217.000;-1200.000
288.509;  -86.875; -728.000; -645.000
288.648;  -86.850; -770.000; -548.000
288.787;  -29.375; -243.000;  -87.000
288.926;  -53.275; -454.000; -475.000
289.065;  114.925;  859.000;  672.000
289.204;  -46.625; -377.000; -217.000
289.344; -101.150; -791.000; -690.000
289.483;   29.600;  416.000;  304.000
289.622;  -18.225; -291.000; -149.000
289.761;  -21.475; -309.000; -166.000
289.900; -106.925; -785.000; -626.000
290.039;  -16.200;  -12.000;  -95.000
290.178;  -46.875; -274.000; -180.000
290.317;  -92.075; -618.000; -479.000
290.456;  -65.800; -463.000; -451.000
290.595; -121.000; -961.000; -833.000
290.734; -126.225; -904.000; -891.000
290.873;  -70.675; -456.000; -420.000
291.011; -116.150; -833.000; -843.000
291.150; -105.375; -770.000; -682.000
291.289;  -35.625; -343.000; -110.000
291.428;  -75.775; -599.000; -480.000
291.567;  -54.650; -370.000; -442.000
291.706;   -5.200;  109.000;  154.000
291.845;  -73.025; -597.000; -505.000
291.984; -167.325;-1234.000;-1061.000
292.122;   64.175;  602.000;  582.000
292.261;   37.875;  620.000;  463.000
292.400;    7.525; -144.000;  211.000
292.539; -115.600; -959.000; -813.000
292.678;  -37.950; -325.000; -300.000
292.816; -141.500;-1136.000; -965.000
292.955;  -90.175; -844.000; -684.000
293.094;  -23.000; -173.000; -337.000
293.233;  -52.500; -556.000; -400.000
293.371;  -32.025; -225.000;  -84.000
293.510; -104.850; -866.000; -780.000
293.649; -123.150; -959.000; -924.000
293.787;  -65.200;-1083.000;-1012.000
293.926;    1.850; -113.000;  -32.000
294.065;  -37.150; -379.000; -290.000
294.203;   34.175;  298.000;  406.000
294.342;   26.100;   74.000;  156.000
294.481; 5874.800;51180.000; -836.000
294.619;  -19.725; -425.000; -582.000
294.758; -143.300;-1230.000;-1137.000
294.896;   65.600; -125.000;    5.000
295.035; -113.850;-1040.000;-1006.000
295.174; -128.325;-1082.000; -954.000
295.312;  -39.175; -323.000; -203.000
295.451;   -9.400; -307.000; -428.000
295.589;  -62.000; -389.000; -518.000
295.728;   34.725; -292.000; -165.000
295.866;    7.600;  -36.000;  -51.000
296.005;  -51.925; -584.000; -341.000
296.143;  -65.125; -558.000; -596.000
296.282;  -84.800; -957.000; -881.000
296.420;  -83.475; -657.000; -557.000
296.559;  -68.900; -892.000; -633.000
296.697;   39.825; -847.000; -665.000
296.835;   70.925;-1141.000;-1002.000
296.974;   40.125;  -23.000;   39.000
297.112;    8.050; -443.000; -504.000
297.251;  -85.000; -815.000; -755.000
297.389;   89.900; -576.000; -438.000
297.527;   39.675; -145.000;  -83.000
297.666;  -41.350; -486.000; -438.000
297.804;  -61.925; -404.000; -264.000
297.942;   -5.400; -136.000; -161.000
298.081;   -4.450; -183.000;   63.000
298.219;   66.775;  -17.000;  -19.000
298.357;   71.550; -144.000;  -71.000
298.495;   34.550; -810.000; -812.000
298.634;   83.950;  245.000;  219.000
298.772;   71.300; -220.000; -338.000
298.910;  -31.425; -309.000; -182.000
299.048;  -17.825; -130.000; -153.000
299.187;  -30.675; -350.000; -250.000
299.325;   19.750;   52.000;  122.000
299.463;   58.125; -389.000; -299.000
299.601;  115.925; -327.000; -271.000
299.739; -113.000; -908.000; -883.000
299.877;  -80.750; -791.000; -703.000
300.016;  -28.550;-1095.000; -935.000
300.154;  167.725;  -19.000; -161.000
300.292;   62.150; -428.000; -348.000
300.430;   32.075; -408.000; -291.000
300.568; -100.550; -940.000; -874.000
300.706;  -51.650; -366.000; -469.000
300.844;  -56.000;-1108.000; -979.000
300.982;  116.525;  246.000;  282.000
301.120; -101.025; -965.000; -866.000
301.258;  -71.200; -812.000; -705.000
301.396;   29.475;  104.000;  -41.000
301.534;   88.550; -218.000; -293.000
301.672;   14.650; -664.000; -521.000
301.810;   43.600; -613.000; -545.000
301.948;  118.950;   53.000;  149.000
302.086;  678.775; -250.000;  -32.000
302.224;  998.300; -610.000; -585.000
302.362;   50.125; -558.000; -622.000
302.500;   -0.775; -923.000; -893.000
302.638;  107.100;  128.000;  245.000
302.776;    0.375; -352.000; -408.000
302.913;   38.325;  447.000;  236.000
303.051;   10.450;  -86.000;  -23.000
303.189;   53.025;   90.000;  118.000
303.327;  -41.775; -341.000; -256.000
303.465;  -82.425; -832.000; -588.000
303.603;  -80.000; -805.000; -604.000
303.740;   88.750;  417.000;  241.000
303.878;   32.500; -800.000; -759.000
304.016;  -82.625; -915.000; -790.000
304.154; -123.900;-1123.000;-1152.000
304.291;  -32.400; -505.000; -554.000
304.429;   14.625;  102.000;   74.000
304.567; -125.175; -908.000; -893.000
304.705;  -29.425; -408.000; -515.000
304.842;  106.775; -616.000; -540.000
304.980;   59.025;  215.000;   35.000
305.118;   53.225; -367.000; -365.000
305.255;  -56.725; -945.000; -927.000
305.393;   55.375;  178.000;  239.000
305.531;  -82.225;-1173.000; -956.000
305.668;  -65.500; -663.000; -582.000
305.806;  113.975; -358.000; -439.000
305.943;  101.450; -629.000; -637.000
306.081;   59.225; -378.000; -267.000
306.219; -103.250; -863.000; -748.000
306.356;   -3.825;  158.000;   27.000
306.494;  104.675;  981.000;  761.000
306.631;  -14.450;  -11.000;  -55.000
306.769;   -0.475; -613.000; -485.000
306.906;    5.900; -284.000; -258.000
307.044;  -65.975; -473.000; -488.000
307.181;  -63.575; -410.000; -332.000
307.319;   -8.450;  112.000;   87.000
307.456; -164.125;-1191.000;-1153.000
307.594;  -95.125; -980.000; -727.000
307.731;   -0.800; -371.000; -164.000
307.868;   -1.800;  -15.000;   20.000
308.006; -121.575; -961.000; -847.000
308.143;  -55.950; -618.000; -330.000
308.281;  194.425;  -37.000; -254.000
308.418;    7.800; -748.000; -640.000
308.555;  -70.625; -400.000; -250.000
308.693;  -62.325; -577.000; -573.000
308.830; -104.075; -712.000; -657.000
308.967;  -11.775; -215.000;  -95.000
309.105;  -37.600; -507.000; -396.000
309.242;   70.375; -468.000; -367.000
309.379;  370.000; -577.000; -655.000
309.517;  -44.650; -936.000; -948.000
309.654; -111.225; -910.000; -734.000
309.791;  -83.100; -662.000; -580.000
309.928; -117.350; -977.000; -914.000
310.065;  154.975;  819.000;  697.000
310.203;   13.825; -825.000; -850.000
310.340;   -4.900; -465.000; -321.000
310.477;  -85.575; -412.000; -516.000
310.614;  -63.950; -383.000; -473.000
310.751;  -74.725; -427.000; -518.000
310.889;  -17.775;    1.000;   11.000
311.026; -146.575;-1161.000; -939.000
311.163;  -41.450; -386.000; -380.000
311.300;  -67.050; -512.000; -479.000
311.437;  -86.975; -658.000; -619.000
311.574; -150.950;-1226.000; -985.000
311.711;  -66.500; -595.000; -433.000
311.848;  -37.950; -380.000; -388.000
311.985;   20.200;  270.000;   93.000
312.122; -108.600; -932.000; -762.000
312.259; -114.750; -941.000; -994.000
312.396;  -66.900; -508.000; -551.000
312.533;  -85.200; -812.000; -790.000
312.670; -127.275;-1070.000; -898.000
312.807;  -36.200; -352.000; -367.000
312.944;  -72.775; -513.000; -611.000
313.081;  -42.850; -150.000; -415.000
313.218; -105.750;-1111.000; -867.000
313.355;   10.500; -531.000; -449.000
313.492;    7.775; -455.000; -292.000
313.629;  138.475;  815.000;  735.000
313.766; -156.050;-1176.000;-1008.000
313.902;  -23.050; -186.000;   21.000
314.039;  -55.900; -372.000; -289.000
314.176;   17.925;  286.000;  192.000
314.313;  -64.100; -569.000; -473.000
314.450;  -72.650; -788.000; -684.000
314.587;  -50.825; -468.000; -480.000
314.723;    0.250;  -78.000;  130.000
314.860;   27.300;  318.000;  332.000
314.997;   21.850;  223.000;  142.000
315.134;  -35.525; -385.000; -368.000
315.270;  -39.650; -480.000; -496.000
315.407; -101.075;-1094.000; -967.000
315.544;  -57.500; -657.000; -538.000
315.681;  -62.300; -681.000; -565.000
315.817;   39.900; -133.000; -176.000
315.954;   20.150; -613.000; -392.000
316.091; -119.225;-1045.000;-1023.000
316.227;  -15.575;  -71.000; -179.000
316.364;   -7.225;   23.000;    6.000
316.500;  -50.200; -113.000; -300.000
316.637;  -38.025; -181.000; -302.000
316.774;  -81.525; -625.000; -358.000
316.910;  -91.425; -598.000; -629.000
317.047;  -67.350; -487.000; -351.000
317.183;  -54.875; -435.000; -566.000
317.320;   -0.675; -367.000; -321.000
317.456;  -76.100; -733.000; -805.000
317.593;  -84.775; -598.000; -641.000
317.729;  -12.650;  168.000;  -67.000
317.866; -181.225;-1434.000;-1285.000
318.002;  -84.125; -708.000; -948.000
318.139;  -95.500; -883.000; -867.000
318.275; -103.600;-1003.000; -738.000
318.412;  -57.300; -517.000; -336.000
318.548;  -22.375; -751.000; -720.000
318.685;  -75.775; -985.000; -888.000
318.821;  -92.875; -762.000; -735.000
318.957;   -8.675;   34.000;  -23.000
319.094;   21.725;  297.000;  154.000
319.230;  -49.700; -756.000; -742.000
319.367;  143.325; -471.000; -520.000
319.503;   60.800; -538.000; -436.000
319.639; -100.200; -877.000; -793.000
319.775;  -64.125; -750.000; -685.000
319.912;  -57.525; -424.000; -519.000
320.048;  -61.250;-1184.000;-1184.000
320.184;   75.200;   59.000;   70.000
320.321;  -51.575; -497.000; -467.000
320.457;   51.000;  475.000;  662.000
320.593;  -65.925; -375.000; -382.000
320.729; -104.275; -732.000; -734.000
320.866;  -69.200; -577.000; -635.000
321.002;  -86.650; -759.000; -809.000
321.138;   -8.375; -135.000; -211.000
321.274;   79.025; -148.000; -115.000
321.410;  -11.100; -585.000; -353.000
321.546;  -24.775;-1011.000; -911.000
321.683;   65.300;  400.000;  185.000
321.819;   -2.525;  -48.000; -117.000
321.955; -104.475; -743.000; -722.000
322.091;  -54.500; -585.000; -540.000
322.227;  -10.950; -382.000; -202.000
322.363;  -20.400; -320.000; -215.000
322.499;  -40.200; -343.000; -331.000
322.635;  169.800;  636.000;  443.000
322.771;   38.825; -139.000;   12.000
322.907;   89.525;  129.000;  327.000
323.043;  -12.775; -115.000; -206.000
323.179;  -39.475; -394.000; -363.000
323.315;   29.125; -401.000; -371.000
323.451;   97.300; -328.000; -236.000
323.587;   61.200;  -60.000;  -77.000
323.723;   18.400; -682.000; -601.000
323.859;   -1.275; -258.000;  -76.000
323.995;  -29.275; -467.000; -409.000
324.131; -114.625; -967.000; -892.000
324.267;  -30.025; -254.000; -276.000
324.402; -110.625; -960.000; -983.000
324.538;  -22.900; -279.000; -104.000
324.674;   16.250;  164.000;   77.000
324.810;  139.225;  226.000;  308.000
324.946;    9.675; -810.000; -658.000
325.082;  -60.900; -568.000; -475.000
325.217;    2.100;  -62.000;   16.000
325.353; -100.975; -764.000; -659.000
325.489;  -80.275; -540.000; -506.000
325.625;  -81.400; -579.000; -525.000
325.760;   64.300;  517.000;  376.000
325.896;  -26.625; -515.000; -702.000
326.032;  -53.100; -403.000; -352.000
326.168;  -74.600; -462.000; -369.000
326.303;  -70.925; -352.000; -461.000
326.439;  -37.025; -336.000; -276.000
326.575;   -0.850; -190.000;  -29.000
326.710;   -3.025; -156.000;  -30.000
326.846;   -1.850;  146.000;  103.000
326.982;  -94.775; -530.000; -548.000
327.117;  -70.600; -481.000; -442.000
327.253;  -99.050; -745.000; -742.000
327.388; -114.725;-1137.000;-1153.000
327.524;  -44.775; -811.000; -578.000
327.659;  -21.300;  -58.000;  -22.000
327.795;  -36.100;   69.000;   45.000
327.931;  -77.300; -723.000; -499.000
328.066;  -42.600; -417.000; -276.000
328.202;   -7.600;   12.000; -129.000
328.337;   95.300;  957.000;  713.000
328.473;   39.200;  -12.000;  -74.000
328.608;  -27.800; -256.000; -267.000
328.743;  -75.350; -799.000; -664.000
328.879;   21.600;  214.000;  114.000
329.014;  -31.275; -102.000; -122.000
329.150;  -88.900; -358.000; -483.000
329.285;  -64.675; -465.000; -466.000
329.421;  -46.525; -548.000; -246.000
329.556;  -22.825;  -36.000;   85.000
329.691;  -95.250; -633.000; -615.000
329.827;  -80.900; -626.000; -480.000
329.962;  -42.475;  131.000; -301.000
330.097;  -81.550; -673.000; -585.000
330.233;  -49.350; -410.000; -223.000
330.368; -123.525; -839.000; -628.000
330.503;  -18.375;    3.000;   98.000
330.638;   10.725;  -93.000; -125.000
330.774;  -60.925; -609.000; -530.000
330.909;  -39.350; -434.000; -244.000
331.044;  -85.350; -714.000; -708.000
331.179; -166.175;-1217.000;-1109.000
331.315;    7.300;   77.000;   20.000
331.450;   20.525;  157.000;  285.000
331.585;  -79.800; -805.000; -706.000
331.720;  -87.975; -510.000; -460.000
331.855;  -17.700;  -35.000; -102.000
331.990;  243.900;   62.000;  138.000
332.126;  121.950; -110.000;   71.000
332.261;  -31.350; -379.000; -265.000
332.396;  -13.000; -135.000; -242.000
332.531;  -91.550;-1074.000;-1031.000
332.666;   26.675; -519.000; -363.000
332.801; -112.850; -726.000; -807.000
332.936;  -35.550; -192.000; -122.000
333.071; -146.675; -870.000; -817.000
333.206;   11.850;  307.000;  379.000
333.341;   21.375;  344.000;  418.000
333.476;  -93.975; -627.000; -623.000
333.611;  -36.000; -251.000; -173.000
333.746;  -57.250; -381.000; -464.000
333.881; -108.250; -973.000; -935.000
334.016; -120.175; -936.000; -917.000
334.151; -122.725; -746.000; -702.000
334.286;   18.550;  152.000;  186.000
334.421;  -24.950; -125.000; -178.000
334.556;  -77.575; -611.000; -567.000
334.690;  -84.550; -631.000; -577.000
334.825;   49.325;  381.000;   83.000
334.960;  -42.525; -285.000; -413.000
335.095;    2.075;  135.000;  -91.000
335.230;  -91.625; -722.000; -738.000
335.365; -143.800;-1084.000; -990.000
335.499; -114.875;-1108.000;-1037.000
335.634;   12.675;    9.000;  534.000
335.769;  -86.625; -755.000; -720.000
335.904;  -70.700; -603.000; -561.000
336.038;  -55.425; -735.000; -657.000
336.173; -115.950;-1206.000;-1194.000
336.308;   12.100; -116.000; -189.000
336.443;   20.700; -544.000; -634.000
336.577;  -71.125; -936.000; -787.000
336.712;   49.625;   -4.000;  -12.000
336.847;  -41.450; -724.000; -607.000
336.981;   73.275; -272.000; -208.000
337.116;  295.550;  615.000;  501.000
337.250;  165.500; -434.000; -421.000
337.385;  241.550; -297.000; -208.000
337.520;   81.450; -632.000; -603.000
337.654;  -34.575; -215.000; -126.000
337.789; -122.025; -989.000; -933.000
337.923;  -19.275; -104.000; -205.000
338.058;  -89.275; -673.000; -738.000
338.192;  -25.375; -611.000; -488.000
338.327;  -11.075;  -18.000; -155.000
338.461;  -59.075; -299.000; -469.000
338.596;  -83.400; -780.000; -638.000
338.730;  -97.200; -767.000; -803.000
338.865;   67.675;  -46.000; -140.000
338.999;  -37.925; -846.000; -702.000
339.134;  -21.725; -634.000; -536.000
339.268;   17.225; -741.000; -603.000
339.403;  356.175; -740.000; -775.000
339.537;  123.350; -894.000; -820.000
339.671; -113.475; -829.000; -813.000
339.806;  -55.075; -556.000; -512.000
339.940;    8.150; -261.000; -235.000
340.074;  -87.600; -685.000; -510.000
340.209;  -55.100; -351.000; -230.000
340.343;  -80.100; -517.000; -573.000
340.477;  149.000;  998.000; 1036.000
340.612;  -29.250;-1033.000; -900.000
340.746;  128.675; -199.000; -243.000
340.880;  -59.800; -924.000; -785.000
341.014;  -14.800;  -45.000; -154.000
341.149; -111.725; -756.000; -718.000
341.283; -106.450; -839.000; -754.000
341.417;  -98.825;-1124.000; -938.000
341.551;  142.375; -768.000; -708.000
341.685;  -39.850; -633.000; -611.000
341.820;  -55.400; -562.000; -493.000
341.954;  -43.300; -218.000; -349.000
342.088; -150.775;-1102.000;-1019.000
342.222;   44.475;  565.000;  618.000
342.356;  -56.750; -395.000; -335.000
342.490;  -92.100; -880.000; -841.000
342.624;  -45.600; -339.000; -242.000
342.758;   -0.625; -364.000; -312.000
342.892;  -69.000; -710.000; -585.000
343.026;  -30.500;  -58.000; -116.000
343.160;  -61.325; -426.000; -376.000
343.294;  -74.625; -474.000; -337.000
343.428;  -31.050; -488.000; -448.000
343.562;  -10.575; -172.000;  -23.000
343.696;  -26.975; -385.000; -314.000
343.830;   -6.425; -362.000; -356.000
343.964;   12.200; -231.000; -168.000
344.098;  962.825;  199.000;   70.000
344.232;  794.450; -266.000; -127.000
344.366;  100.200; -567.000; -453.000
344.500;   68.000; -665.000; -744.000
344.634;   34.425; -324.000; -164.000
344.768;   -2.175; -531.000; -341.000
344.902;   19.500;  278.000;  256.000
345.035;  -82.225; -556.000; -496.000
345.169; -122.450; -933.000; -656.000
345.303;  -25.250; -308.000; -482.000
345.437;  -63.550; -826.000; -717.000
345.571;  -69.625; -675.000; -594.000
345.704;  -70.850; -309.000; -532.000
345.838;   -7.350; -331.000; -284.000
345.972;  -32.475; -543.000; -495.000
346.106;  150.300; -179.000; -190.000
346.239;  438.950; -312.000; -243.000
346.373;   12.150; -343.000; -302.000
346.507; -143.025; -950.000; -962.000
346.640;  150.400;  -30.000;   13.000
346.774;  -34.650; -650.000; -797.000
346.908;  -17.925; -138.000;  -11.000
347.041;  -87.125; -646.000; -593.000
347.175;    1.325;  259.000;   27.000
347.309;  -76.225; -698.000; -628.000
347.442; -101.775; -883.000; -732.000
347.576;  294.050;  670.000;  668.000
347.709;  201.625; -123.000;  -52.000
347.843;  -86.225; -933.000; -825.000
347.976;   23.150;  235.000;  294.000
348.110; -174.600;-1268.000;-1186.000
348.243; -108.150; -679.000; -772.000
348.377;   -5.000;  -26.000;   60.000
348.510;   41.725;  403.000;  540.000
348.644;  -36.425;  -37.000; -159.000
348.777;   -0.050;  180.000;  191.000
348.911;  -43.175; -142.000; -112.000
349.044;  152.650;  471.000;  448.000
349.178;  171.075;-1069.000;-1006.000
349.311;  112.675;  141.000;  255.000
349.444;    4.400; -927.000; -813.000
349.578;   -2.150; -347.000; -200.000
349.711;  -97.275; -959.000; -862.000
349.845;   -0.250; -661.000; -591.000
349.978; -142.650;-1224.000;-1137.000
350.111;  -88.775; -546.000; -612.000
350.244;  -78.625; -596.000; -700.000
350.378;   12.800; -392.000; -393.000
350.511;  -64.000; -393.000; -426.000
350.644; -111.350; -808.000; -806.000
350.778;   14.725;  168.000;  104.000
350.911;  -14.250;  134.000;  140.000
351.044;  -89.650; -685.000; -615.000
351.177;  -35.725; -321.000; -281.000
351.310;  -18.475;    3.000; -131.000
351.444;  -85.825; -888.000; -788.000
351.577;  115.950;  140.000;   90.000
351.710;   99.000;  593.000;  417.000
351.843;  -36.175; -165.000;  -77.000
351.976;  -13.225;  149.000;  -79.000
352.109;  -99.150; -621.000; -612.000
352.242;  -30.050; -464.000; -419.000
352.376;  -54.775; -580.000; -636.000
352.509;  183.575; -437.000; -356.000
352.642;   21.875; -654.000; -604.000
352.775;   59.950; -141.000;  -98.000
352.908; -104.825; -933.000; -904.000
353.041;  -94.250; -814.000; -824.000
353.174;  -61.900; -551.000; -424.000
353.307;  -79.200; -753.000; -764.000
353.440;   80.700;  541.000;  453.000
353.573; -110.425; -957.000;-1008.000
353.706;  -16.650; -384.000; -558.000
353.839;  -20.700; -264.000; -220.000
353.971;  -85.025; -657.000; -512.000
354.104;  -73.100; -896.000; -835.000
354.237;  -24.650; -627.000; -662.000
354.370;  -84.175; -846.000; -879.000
354.503; -154.850;-1231.000;-1308.000
354.636;  -39.175; -529.000; -348.000
354.769; -106.475; -937.000; -860.000
354.902;  -20.625; -230.000; -139.000
355.034;  -15.625; -164.000; -220.000
355.167;  -16.425; -262.000; -162.000
355.300;  -82.725;-1061.000; -880.000
355.433;  989.275;  -71.000;  -14.000
355.565; 1535.000; -402.000; -384.000
355.698;  391.275; -356.000; -296.000
355.831;    2.175; -882.000; -801.000
355.964;   82.075; -285.000; -170.000
356.096;  -70.875; -856.000; -843.000
356.229;   -1.825; -523.000; -530.000
356.362;  319.025; -373.000; -266.000
356.494;  586.525; -229.000; -162.000
356.627;  497.925;  269.000;  377.000
356.760;  647.400;  120.000;   53.000
356.892;  942.825; -286.000; -601.000
357.025;  687.300;  403.000;  389.000
357.157;  669.925; -167.000; -179.000
357.290;  656.250; -856.000; -713.000
357.423;  206.725; -667.000; -556.000
357.555;  118.825; -217.000; -228.000
357.688;  130.125; -483.000; -364.000
357.820;  471.925; -870.000; -877.000
357.953; 3894.325; -563.000; -589.000
358.085;  874.950; -632.000; -612.000
358.218; 1223.775;-1131.000; -932.000
358.350;  222.500;  -58.000;  312.000
358.483; -106.450;-1300.000;-1187.000
358.615;   -6.800;-1182.000;-1078.000
358.747;  -39.925;-1187.000;-1058.000
358.880;   34.125; -810.000; -744.000
359.012;   -0.525; -376.000; -202.000
359.145;  -28.850; -480.000; -511.000
359.277;   85.425; -962.000; -913.000
359.409; 3184.750;  536.000;  231.000
359.542;  869.775; -738.000; -688.000
359.674;   79.025;   46.000;   13.000
359.806;  -67.975; -565.000; -438.000
359.939;  -55.425; -617.000; -516.000
360.071;    5.150; -583.000; -579.000
360.203;  -12.625; -411.000; -364.000
360.335;   56.500;  164.000;  -16.000
360.468;  205.850; -249.000; -307.000
360.600; 2551.500; -547.000; -454.000
360.732; 2892.200; -546.000; -423.000
360.864;  423.325;-1216.000;-1044.000
360.996;  306.775; -516.000; -554.000
361.129;   64.225; -389.000; -598.000
361.261;   28.625;  110.000; -113.000
361.393;  -36.625; -252.000; -214.000
361.525;   26.375;   94.000;  244.000
361.657;  -29.450; -821.000; -703.000
361.789;   11.225; -139.000; -155.000
361.921;  259.650; -642.000; -593.000
362.053;  280.375;  524.000;  541.000
362.185;   65.775;  288.000;   72.000
362.318;  -85.875; -709.000; -705.000
362.450;  116.800;  294.000;  444.000
362.582;  114.400; -913.000; -870.000
362.714;  -29.000; -353.000; -332.000
362.846;  -76.900; -606.000; -490.000
362.978; -120.200; -941.000; -811.000
363.109;   23.200; -161.000; -260.000
363.241;  461.550; -739.000; -749.000
363.373;  452.250; -649.000; -564.000
363.505;  658.200; -186.000;  -91.000
363.637;  167.250; -787.000; -601.000
363.769; -113.200;-1067.000;-1080.000
363.901;  -78.075; -596.000; -654.000
364.033; -129.350;-1103.000;-1062.000
364.165;   10.950; -283.000; -283.000
364.296;   74.225; -316.000; -177.000
364.428;   77.550;-1344.000;-1220.000
364.560;  -68.700; -679.000; -661.000
364.692;  -57.550; -738.000; -835.000
364.824;  293.950; -588.000; -456.000
364.955;  451.525; -402.000; -564.000
365.087;  928.525;-1097.000; -852.000
365.219;   31.475; -686.000; -816.000
365.351;  -67.900; -526.000; -572.000
365.482;   53.675;  300.000;  240.000
365.614;  -44.500; -402.000; -314.000
365.746;  -93.850; -729.000; -752.000
365.877;  -96.475; -706.000; -672.000
366.009;  258.350;  -35.000;  -62.000
366.141;  -83.425;-1249.000;-1134.000
366.272; -104.950; -803.000; -719.000
366.404; -102.725;-1005.000; -874.000
366.535;   -9.800; -139.000;  -12.000
366.667;  -96.775; -644.000; -649.000
366.799;   37.775;  353.000;  203.000
366.930; -109.725; -862.000; -996.000
367.062;  128.050; -639.000; -613.000
367.193;  164.225; -872.000; -842.000
367.325;  -63.250; -580.000; -684.000
367.456;   46.025; -246.000;   31.000
367.588;  139.875; -371.000; -318.000
367.719;   30.675;  -44.000;  -45.000
367.851;  -17.275; -222.000; -241.000
367.982;  -33.400; -875.000; -732.000
368.113;   94.575; -475.000; -358.000
368.245; -109.000; -960.000; -841.000
368.376;  -18.050; -254.000; -302.000
368.508;  -41.450; -188.000; -263.000
368.639; -135.100;-1166.000;-1034.000
368.770;   -1.925; -670.000; -589.000
368.902;  -54.500; -836.000; -926.000
369.033;  -99.350; -906.000; -855.000
369.164;  -40.425; -720.000; -653.000
369.296; -103.150; -452.000; -601.000
369.427;  -13.475; -209.000; -144.000
369.558;  -29.850; -593.000; -377.000
369.689;  -80.200; -721.000; -569.000
369.821; -123.800; -951.000; -845.000
369.952;  -10.525;   42.000; -108.000
370.083;  -35.525; -229.000; -108.000
370.214;  -68.125; -735.000; -650.000
370.345;    1.800;   65.000;   81.000
370.477;  -75.350; -810.000; -790.000
370.608;  223.400; -328.000; -264.000
370.739;  -33.250;-1233.000;-1292.000
370.870;  -33.200;-1102.000; -923.000
371.001;   95.300; -378.000; -467.000
371.132;  -63.000; -754.000; -735.000
371.263;  -32.750;  -42.000; -148.000
371.394; -131.200; -841.000; -748.000
371.525;   22.250;  345.000;  225.000
371.657;  -83.800; -808.000; -670.000
371.788;   79.550;  103.000;  199.000
371.919;  185.975; -384.000; -304.000
372.050; 3699.550;  -91.000; -156.000
372.181; 1176.125; -188.000; -294.000
372.311;  386.425;   42.000; -127.000
372.442;   55.000; -457.000; -451.000
372.573;  -24.450; -444.000; -340.000
372.704;  -98.250;-1008.000; -980.000
372.835;   88.675; -228.000; -289.000
372.966;  -53.700; -646.000; -554.000
373.097;  -59.025; -575.000; -711.000
373.228;  -30.900; -717.000; -542.000
373.359;  128.075; -824.000; -536.000
373.490;  983.500; -881.000; -727.000
373.620; 1269.150;-1001.000; -803.000
373.751; 1885.675; -332.000; -396.000
373.882;  858.550; -663.000; -733.000
374.013;   59.625; -449.000; -262.000
374.143;  -40.000; -581.000; -659.000
374.274;  -95.475; -987.000; -908.000
374.405;  175.350; -388.000; -276.000
374.536;  458.525; -526.000; -387.000
374.666; 1219.500; -759.000; -807.000
374.797;  261.050; -817.000; -868.000
374.928;  917.100; -710.000; -560.000
375.058;  966.150; -535.000; -500.000
375.189;   80.300;  -59.000;  -93.000
375.320;  -84.475; -928.000;-1034.000
375.450;  -44.825; -625.000; -616.000
375.581;  -38.800; -526.000; -436.000
375.712;  -36.075; -574.000; -250.000
375.842;  334.325; -438.000; -415.000
375.973;  235.925; -554.000; -513.000
376.103;  -27.850; -665.000; -648.000
376.234;  -83.525; -531.000; -552.000
376.364;  -20.250; -944.000; -867.000
376.495;  327.250;  925.000;  529.000
376.625;    5.025; -472.000; -485.000
376.756;   69.750; -709.000; -678.000
376.886;  -59.200;-1178.000;-1026.000
377.017;   54.475;-1048.000;-1061.000
377.147;  372.150; -786.000; -782.000
377.278;   68.875;  174.000;  228.000
377.408; -122.900; -801.000; -815.000
377.538; -107.325; -707.000; -693.000
377.669;  -83.325; -537.000; -613.000
377.799;  -85.375; -645.000; -635.000
377.929;  -41.325; -610.000; -428.000
378.060; -123.000; -781.000; -847.000
378.190;  -65.350; -726.000; -531.000
378.320;  -53.125; -401.000; -406.000
378.451;   -9.775; -131.000;  -22.000
378.581;  -13.150;  -67.000; -110.000
378.711;  157.525; 1035.000;  866.000
378.841;  -30.275; -533.000; -675.000
378.972;  -68.550; -871.000; -751.000
379.102;   -9.850; -652.000; -579.000
379.232;   -1.350; -126.000;  -73.000
379.362; -107.600;-1001.000; -885.000
379.492;   12.725; -373.000; -424.000
379.623;  109.500;    0.000;  111.000
379.753;  -83.425;-1107.000; -974.000
379.883;  206.200;   59.000;  156.000
380.013;   42.525;-1081.000;-1017.000
380.143;  -86.375;-1097.000;-1056.000
380.273;  -93.350; -985.000; -861.000
380.403;   -2.175; -344.000; -257.000
380.533;  -33.075; -651.000; -664.000
380.663;   74.425;  173.000;  128.000
380.793;  -90.325;-1027.000;-1074.000
380.923;  -13.775; -103.000;  -34.000
381.053;  -92.150; -613.000; -623.000
381.183;  -29.200; -106.000; -248.000
381.313;   42.850; -656.000; -470.000
381.443;   41.250; -692.000; -473.000
381.573;  214.275; -402.000; -409.000
381.703;  318.650;-1249.000;-1095.000
381.833; -120.925;-1454.000;-1336.000
381.963;  120.575; -134.000;  -87.000
382.093; 1450.450; -925.000; -909.000
382.223;  490.100; -713.000; -602.000
382.353;   -2.900; -801.000; -608.000
382.482;  398.750;-1091.000; -964.000
382.612;  803.700; -872.000; -644.000
382.742;  467.925; -695.000; -622.000
382.872;  301.150; -565.000; -551.000
383.002;   68.350;  347.000; -132.000
383.131;  -12.725; -226.000; -160.000
383.261;  -35.150; -706.000; -768.000
383.391;  272.275; -552.000; -377.000
383.521; 3219.425;  451.000;  263.000
383.650;  792.675; -947.000; -904.000
383.780;  -11.900; -783.000; -656.000
383.910;  112.650;  880.000;  802.000
384.039;   39.775; -794.000; -656.000
384.169;  240.850;-1205.000;-1017.000
384.299;   -9.300; -650.000; -662.000
384.428;  -79.750; -764.000; -680.000
384.558;  -47.400; -308.000; -275.000
384.687;  -34.500; -414.000; -334.000
384.817;   11.350;   75.000;   -2.000
384.947;   33.025; -234.000; -141.000
385.076;  293.625;  982.000;  912.000
385.206;  109.300;  369.000;  480.000
385.335;  -41.350; -549.000; -417.000
385.465;  -78.775; -655.000; -663.000
385.594;  123.375;  -53.000;  -44.000
385.724;  446.325; -868.000; -838.000
385.853;  121.550; -296.000; -270.000
385.982; 1373.475; -743.000; -787.000
386.112; 2287.150;-1052.000; -871.000
386.241;  171.100; -307.000; -312.000
386.371;   10.600; -174.000;  -87.000
386.500;   19.900; -825.000; -789.000
386.629;   35.925; -874.000; -817.000
386.759;   74.350;  -43.000;   68.000
386.888;   -2.300; -170.000; -250.000
387.017;  -79.175; -648.000; -620.000
387.147;  -84.150; -771.000; -798.000
387.276;   17.900; -410.000; -397.000
387.405;   10.200; -398.000; -342.000
387.535;  -41.325; -452.000; -361.000
387.664;  -63.350; -692.000; -620.000
387.793;   56.100; -198.000; -113.000
387.922;  528.625;  255.000;  200.000
388.052;   20.375; -576.000; -423.000
388.181;    2.775; -342.000; -472.000
388.310;    6.275; -889.000; -710.000
388.439;  -38.225; -749.000; -742.000
388.568;  184.500;  365.000;  244.000
388.697; 1086.725; -756.000; -653.000
388.826;  228.225; -768.000; -666.000
388.956;   50.025; -285.000; -307.000
389.085;  -42.475; -347.000; -287.000
389.214; -109.225; -842.000; -872.000
389.343;  -60.275; -645.000; -413.000
389.472;  383.475;  126.000;  149.000
389.601;  536.075;   91.000;    0.000
389.730;   16.150; -568.000; -687.000
389.859;   69.725;  226.000;   46.000
389.988;  190.600; -423.000; -408.000
390.117;  152.625; -168.000; -146.000
390.246;    1.325; -331.000; -320.000
390.375;  123.200; -673.000; -626.000
390.504;  -55.500; -703.000; -621.000
390.633;  -82.025; -672.000; -726.000
390.761;  -71.550; -732.000; -645.000
390.890;   25.150;   -4.000; -130.000
391.019;  -39.975; -421.000; -441.000
391.148; -131.225; -826.000; -855.000
391.277;  -67.500; -576.000; -493.000
391.406;  -74.450; -821.000; -805.000
391.534;   27.100;  574.000; -301.000
391.663;  -51.125; -583.000; -645.000
391.792;  -91.825; -673.000; -701.000
391.921;   88.175;   -3.000;   15.000
392.050;  198.450; -287.000; -228.000
392.178;  -30.075;-1206.000;-1061.000
392.307;  153.200; -758.000; -712.000
392.436;   95.425; -427.000; -641.000
392.564;   13.075;  166.000;   -6.000
392.693;  -66.625; -860.000; -682.000
392.822;  208.125; -529.000; -534.000
392.950;  112.700; -880.000; -714.000
393.079;  337.750; -188.000; -328.000
393.208;   38.575; -488.000; -511.000
393.336;  -32.475; -170.000; -145.000
393.465;  -45.875; -317.000; -199.000
393.593;  -10.650;   62.000;   79.000
393.722; -143.625;-1121.000; -916.000
393.850;  -29.800; -188.000;  -61.000
393.979; -149.850; -926.000; -805.000
394.107;  -70.950; -517.000; -537.000
394.236;  -25.500; -570.000; -507.000
394.364;  231.725;  383.000;  206.000
394.493;  431.200; -911.000; -767.000
394.621;   -3.275; -955.000; -916.000
394.750;  698.550; -873.000; -923.000
394.878; 2919.375; -247.000; -149.000
395.007; 4179.675; -721.000; -807.000
395.135;  326.975; -790.000; -721.000
395.263;  -81.550;-1038.000;-1040.000
395.392;    7.100;  -25.000; -107.000
395.520; -128.350; -818.000; -679.000
395.648;  -88.450; -865.000; -915.000
395.777;   -7.750; -366.000; -405.000
395.905;  -45.675; -449.000; -564.000
396.033;   12.125;  217.000;  172.000
396.162;  649.525; -399.000; -453.000
396.290;  635.500;  -17.000;   -2.000
396.418;  122.425; -555.000; -514.000
396.546;  -62.925; -571.000; -466.000
396.674; -114.725; -850.000; -878.000
396.803;    1.325;  -72.000;  -23.000
396.931;   99.475; -179.000; -199.000
397.059;   97.375;-1026.000; -989.000
397.187; -100.025;-1026.000; -975.000
397.315; -122.975; -884.000; -649.000
397.443;  -97.125; -592.000; -443.000
397.572;  -93.950; -578.000; -424.000
397.700;  -15.075; -607.000; -614.000
397.828;   16.275;  120.000;  -90.000
397.956;  -43.725; -508.000; -478.000
398.084;  -64.650; -767.000; -626.000
398.212;   38.975;  137.000;  124.000
398.340;   17.850;  -56.000;  159.000
398.468;   27.950; -390.000; -169.000
398.596; -137.975; -993.000; -953.000
398.724; -126.025; -762.000; -767.000
398.852; -155.100;-1024.000; -976.000
398.980;  -47.625; -560.000; -560.000
399.108;  -35.000; -982.000; -735.000
399.236;   23.100;   13.000;    8.000
399.363;   12.575;  222.000;  196.000
399.491;  -76.125; -404.000; -398.000
399.619; -126.025; -829.000; -800.000
399.747;  -91.400; -859.000; -771.000
399.875;   84.575;  220.000;  234.000
400.003;  -52.450; -359.000; -284.000
400.130;  -84.075; -421.000; -341.000
400.258;  -38.550;  -83.000;   38.000
400.386;  -72.400; -352.000; -168.000
400.514;  -38.700; -526.000; -587.000
400.641;  -76.125; -928.000; -802.000
400.769; -127.075; -979.000; -888.000
400.897; -109.100; -838.000; -793.000
401.025;  -18.500; -166.000; -152.000
401.152;   -0.700;  220.000;   38.000
401.280;  -83.350; -430.000; -429.000
401.408; -102.625; -712.000; -576.000
401.535; -117.025; -735.000; -758.000
401.663; -179.925;-1134.000;-1054.000
401.790;  -80.300; -514.000; -525.000
401.918;   40.500;  436.000;  405.000
402.046;  -24.350;  134.000;  122.000
402.173;  -35.525;  -18.000;    7.000
402.301;  -71.725; -519.000; -397.000
402.428;   28.300;  528.000;  383.000
402.556; -146.875;-1188.000; -913.000
402.683;  -33.075;  -20.000;   -1.000
402.811;  -34.225;  -37.000; -206.000
402.938;   -6.600;   20.000;   27.000
403.066;  180.625; -574.000; -558.000
403.193;  354.225;  299.000;  239.000
403.321;  261.475; -396.000; -574.000
403.448;  320.350;   83.000;   27.000
403.575;  150.975;  -90.000;  -46.000
403.703;  -87.275; -732.000; -557.000
403.830;  -62.825; -531.000; -496.000
403.957; -119.100;-1117.000;-1023.000
404.085;    4.500;  -61.000; -172.000
404.212;  107.000;  -50.000;   63.000
404.339;  263.825; -566.000; -306.000
404.467; 5735.250; -612.000; -524.000
404.594; 4067.725; -287.000; -227.000
404.721; 1019.950; -869.000; -764.000
404.848;   87.525; -113.000; -202.000
404.976;  -90.350; -856.000; -783.000
405.103;  -21.425;  -14.000;  -82.000
405.230;    4.275;  190.000;  226.000
405.357;   22.500;  117.000;   44.000
405.484;  257.175;  -49.000;    5.000
405.612;   71.825; -548.000; -563.000
405.739;  -60.100; -488.000; -243.000
405.866;   80.150;  669.000;  385.000
405.993;  -32.075; -398.000; -102.000
406.120; -141.825; -801.000; -887.000
406.247;  -45.000; -323.000; -342.000
406.374;  445.350;  540.000;  629.000
406.501;  130.975; -632.000; -702.000
406.628;  -70.675; -621.000; -589.000
406.755;  -91.300; -803.000; -620.000
406.882;  -40.575; -228.000; -277.000
407.009;  -99.100; -719.000; -628.000
407.136;   46.775; -480.000; -401.000
407.263;  174.275; -939.000; -829.000
407.390;  -70.275; -692.000; -614.000
407.517; -167.150;-1139.000;-1187.000
407.644;  -57.175; -332.000; -256.000
407.771;  -69.750; -249.000; -287.000
407.898;   -6.075;  168.000;  328.000
408.025;  -62.325; -421.000; -313.000
408.151;  -11.800;   82.000;  153.000
408.278;  -74.125; -267.000; -216.000
408.405; -106.750; -931.000; -899.000
408.532;  -75.625; -549.000; -542.000
408.659; -122.775; -677.000; -648.000
408.785; -185.075;-1298.000;-1170.000
408.912;  -77.025; -412.000; -296.000
409.039; -115.625; -610.000; -686.000
409.166; -103.125; -591.000; -555.000
409.292; -109.275; -571.000; -534.000
409.419; -131.475; -665.000; -649.000
409.546;  -90.475; -431.000; -192.000
409.672; -115.300; -713.000; -545.000
409.799;  -39.350;  -36.000;   34.000
409.926;  -36.275; -180.000; -179.000
410.052; -172.425;-1127.000;-1091.000
410.179;  -59.075; -368.000; -392.000
410.305;  -94.150; -375.000; -493.000
410.432;  -45.000; -220.000; -333.000
410.558;  -81.600; -305.000; -380.000
410.685; -102.075; -688.000; -431.000
410.812;  -92.525; -409.000; -588.000
410.938; -147.900; -964.000; -808.000
411.065; -104.575; -671.000; -645.000
411.191;  -24.025; -189.000; -174.000
411.317; -107.150; -823.000; -742.000
411.444;  -60.750; -317.000; -246.000
411.570;  -65.500; -339.000; -294.000
411.697; -130.600; -758.000; -752.000
411.823; -158.125; -989.000; -999.000
411.949;  -28.850;  -56.000;   17.000
412.076; -109.175; -539.000; -519.000
412.202; -123.750; -758.000; -757.000
412.329; -121.525; -798.000; -752.000
412.455; -113.975; -821.000; -657.000
412.581;  -16.050;  -15.000;  172.000
412.707;  -60.050; -540.000; -457.000
412.834;    9.450;  156.000;  219.000
412.960;  -86.725; -785.000; -784.000
413.086;  -96.750; -743.000; -701.000
413.212;  157.125;  604.000;  578.000
413.339;  -47.750; -685.000; -701.000
413.465;   -2.425; -364.000; -310.000
413.591;  -91.450; -757.000; -474.000
413.717;  -58.750; -358.000; -366.000
413.843; -142.275; -839.000; -861.000
413.969;  -72.950;  -47.000; -292.000
414.096;  -99.725; -679.000; -679.000
414.222;    0.975;  -33.000;   85.000
414.348;  -18.400; -652.000; -385.000
414.474;   94.300;   38.000;  -52.000
414.600;   -6.550; -126.000; -144.000
414.726;   -6.350;  -96.000;  -55.000
414.852;  -45.950; -365.000; -342.000
414.978;   34.825;  104.000;  -18.000
415.104;   48.450;   38.000;   80.000
415.230;   32.900; -329.000; -330.000
415.356;   48.325; -409.000; -514.000
415.482;  207.725;   13.000;  -35.000
415.608;  292.250; -247.000; -323.000
415.734;  960.975;   67.000;   38.000
415.860;19728.275; -875.000; -767.000
415.986;15830.325; -685.000; -607.000
416.111; 1424.350; -798.000; -652.000
416.237;  282.225; -424.000; -571.000
416.363; 1078.100; -765.000; -733.000
416.489; 4296.500; -324.000; -251.000
416.615;  532.025; -707.000; -742.000
416.741;  -17.750; -677.000; -784.000
416.866;  -96.650; -673.000; -736.000
416.992; -102.700; -801.000; -818.000
417.118;  -19.825;  -41.000;  -80.000
417.244;  -80.425; -798.000; -531.000
417.369;  -72.350; -801.000; -612.000
417.495;  -15.200; -325.000; -254.000
417.621;  -91.975;-1015.000; -803.000
417.746;   15.225; -579.000; -572.000
417.872;   53.575; -254.000; -144.000
417.998;   54.850; -515.000; -530.000
418.123;  981.475;-1073.000; -845.000
418.249; 5584.225; -512.000; -601.000
418.374;  891.825; -916.000; -824.000
418.500;  130.550; -383.000; -482.000
418.626;  120.825;   70.000;  -59.000
418.751;  124.325; -549.000; -448.000
418.877;  227.450; -637.000; -643.000
419.002; 1715.200; -688.000; -560.000
419.128;12727.050; -930.000; -721.000
419.253; 3467.450; -967.000; -837.000
419.379;  471.575; -391.000; -338.000
419.504;  401.950;  325.000;  415.000
419.629;  508.325; -393.000; -212.000
419.755; 3333.125; -317.000; -254.000
419.880;21363.600;  -98.000;   67.000
420.006;11576.325; -280.000; -221.000
420.131;30631.125; -662.000; -775.000
420.256; 4857.675; -315.000; -316.000
420.382;  661.875; -665.000; -687.000
420.507;  101.025; -649.000; -778.000
420.632;  124.450; -337.000; -339.000
420.758;  251.075; -251.000; -425.000
420.883;  -68.125; -876.000; -672.000
421.008;  -97.750; -775.000; -619.000
421.133;  -89.600; -509.000; -467.000
421.259;  -58.225; -325.000; -259.000
421.384; -100.475; -834.000; -693.000
421.509;  -63.950;-1052.000; -862.000
421.634; 1133.675; -936.000; -820.000
421.759;  578.575; -359.000; -327.000
421.885;  -43.550; -717.000; -656.000
422.010;  -82.250; -673.000; -542.000
422.135; -133.700; -695.000; -727.000
422.260;   32.350;  340.000;  280.000
422.385;  -46.500;   12.000;  -98.000
422.510;    6.050;  151.000;  -26.000
422.635;   21.475;  -87.000;  -43.000
422.760;  113.450; -766.000; -791.000
422.885;   63.825;  -57.000;  -80.000
423.010;  -34.575; -112.000; -169.000
423.135;  -93.025; -481.000; -561.000
423.260;  -18.100; -150.000; -245.000
423.385;   61.600;  476.000;  222.000
423.510;   31.100;   71.000;  -22.000
423.635;   80.175;  133.000;   45.000
423.760;   46.950;  383.000;  328.000
423.885;   52.950;  336.000;  391.000
424.010;   14.700;  -68.000;  -13.000
424.135;  -16.000;    5.000;  -33.000
424.259;  -79.150; -654.000; -457.000
424.384;  -62.675; -279.000; -272.000
424.509;  -28.300; -260.000; -186.000
424.634;  -98.275; -761.000; -623.000
424.759;  -26.525; -688.000; -544.000
424.883;   -9.000; -506.000; -527.000
425.008;  157.100; -502.000; -410.000
425.133; 1984.275; -679.000; -653.000
425.258; 1031.900; -517.000; -381.000
425.382; 1021.800; -867.000; -774.000
425.507; 2778.150; -487.000; -543.000
425.632;  500.100; -802.000; -663.000
425.756;  449.300; -256.000; -146.000
425.881; 6126.100; -831.000; -857.000
426.006;18169.625; -604.000; -355.000
426.130; 3107.400; -696.000; -508.000
426.255;  412.425; -611.000; -491.000
426.379;  176.100; -189.000; -577.000
426.504;  359.450;  660.000;  544.000
426.629; 3987.075; -519.000; -466.000
426.753; 3076.775;   64.000;  -46.000
426.878;  355.875; -252.000; -288.000
427.002;  207.200; -651.000; -668.000
427.127; 1492.300;  -35.000; -158.000
427.251;11443.200;  372.000;  401.000
427.375; 3686.800; -191.000; -173.000
427.500; 2381.300; -616.000; -610.000
427.624;  894.925; -234.000; -400.000
427.749;   89.725; -216.000; -225.000
427.873;  -26.575; -499.000; -412.000
427.997;  -33.700; -222.000; -230.000
428.122;   73.675;  795.000;  703.000
428.246;   57.925;  433.000;  434.000
428.371; -107.175; -869.000; -773.000
428.495; -112.800; -624.000; -646.000
428.619;  -36.725; -186.000; -117.000
428.743;   23.575;   65.000;  132.000
428.868;    5.775; -732.000; -643.000
428.992; 1412.675; -219.000; -326.000
429.116;  633.750; -329.000; -357.000
429.240;  295.650;  419.000;  426.000
429.365;   -9.575; -454.000; -574.000
429.489;  -31.925; -638.000; -647.000
429.613;   16.950; -236.000; -177.000
429.737;   33.625; -563.000; -432.000
429.861;  273.450; -247.000; -133.000
429.985; 5368.525; -425.000; -305.000
430.109; 6542.525; -770.000; -908.000
430.234;  794.500;   76.000;  -50.000
430.358;   92.850; -250.000; -160.000
430.482;  -65.625; -672.000; -564.000
430.606;  -65.400; -655.000; -375.000
430.730;    8.775; -437.000; -388.000
430.854;  142.875; -909.000; -835.000
430.978;  -72.500; -795.000; -764.000
431.102;  -78.650; -499.000; -422.000
431.226; -118.675; -874.000; -815.000
431.350;   39.475;  345.000;  422.000
431.474;  -72.650; -661.000; -373.000
431.597; -141.000;-1060.000; -848.000
431.721;  -76.450; -276.000; -267.000
431.845; -128.800; -704.000; -472.000
431.969;  -90.925; -304.000; -349.000
432.093;  -91.025; -395.000; -317.000
432.217;  -25.925;   32.000;   82.000
432.341;  -77.675; -523.000; -518.000
432.464;   -9.150;   96.000;   40.000
432.588;  221.500; -401.000; -329.000
432.712;  123.775;  -52.000;  -52.000
432.836;   34.625;  213.000;  263.000
432.959;   -7.500; -372.000; -311.000
433.083;   92.100;   11.000;    2.000
433.207;  341.850;  285.000;  930.000
433.330; 4891.275; -391.000; -200.000
433.454; 6575.425; -654.000; -638.000
433.578; 3753.825;  583.000;  278.000
433.701;  771.450; -623.000; -675.000
433.825;  148.250; -292.000; -299.000
433.949;  180.850;   28.000;  -72.000
434.072;   53.900; -410.000; -323.000
434.196;  -18.550; -309.000; -117.000
434.319; 3511.750;25482.000;25124.000
434.443;  691.375; -656.000; -603.000
434.566; 2725.575;  281.000;   62.000
434.690;  546.425; -637.000; -383.000
434.813;   60.200; -251.000; -173.000
434.937;  -77.425; -569.000; -696.000
435.060;  -44.925; -423.000; -332.000
435.184;  304.825; -492.000; -217.000
435.307;  179.850;  159.000;  102.000
435.431;  -14.700;  -40.000;   24.000
435.554;  -83.300; -399.000; -240.000
435.677; -105.350; -350.000; -258.000
435.801;  -41.450;  -25.000;   49.000
435.924;  -13.925;    1.000;  -67.000
436.048; -115.650;-1019.000; -732.000
436.171;  -56.375; -240.000;  -66.000
436.294;  -29.050; -248.000; -229.000
436.417;   85.975; -963.000; -849.000
436.541;  -77.850; -814.000; -840.000
436.664;  -45.725; -242.000; -316.000
436.787;  -29.575;   13.000;  113.000
436.910; -111.350; -792.000; -422.000
437.034;   -0.175;  142.000;  143.000
437.157;   54.925;  -11.000;    0.000
437.280;  -48.850; -392.000; -292.000
437.403;  -88.175; -982.000; -869.000
437.526;  575.450; -903.000; -865.000
437.649; 2275.650; -505.000; -332.000
437.772;  417.025; -692.000; -540.000
437.896;  111.325;  700.000;  544.000
438.019;  -76.800; -758.000; -503.000
438.142;  -84.975; -596.000; -506.000
438.265;  -17.750; -639.000; -670.000
438.388;  584.350; -520.000; -410.000
438.511;  141.025; -597.000; -394.000
438.634;  -45.675; -247.000; -125.000
438.757; -130.125; -693.000; -619.000
438.880;  -30.175;  -34.000;  -57.000
439.003;  -75.900; -417.000; -437.000
439.126;  -79.975; -287.000; -167.000
439.248;  -63.700;  -98.000; -139.000
439.371;  -38.975;    9.000;  -53.000
439.494;   25.775;  510.000;  439.000
439.617;  -79.350;   65.000;  -88.000
439.740; -168.625; -968.000; -816.000
439.863; -153.000; -755.000; -595.000
439.986; -122.275; -476.000; -431.000
440.108;  -45.650; -161.000; -112.000
440.231; -161.650; -950.000; -836.000
440.354;  -49.350;  -64.000; -150.000
440.477;   40.075; -566.000; -542.000
440.599;   19.725; -200.000; -225.000
440.722; -100.875; -709.000; -586.000
440.845;   61.400;  751.000;  928.000
440.968; -106.950; -415.000; -311.000
441.090;  -77.450; -199.000;  -33.000
441.213; -163.575;-1021.000; -825.000
441.336;  -58.425; -159.000;   -5.000
441.458;  -66.450; -549.000; -396.000
441.581;  -76.900; -628.000; -629.000
441.703;  -63.800; -152.000;   13.000
441.826; -109.800; -557.000; -400.000
441.948;  -44.100;   56.000;   51.000
442.071;   25.575;  555.000;  424.000
442.193; -109.225; -531.000; -485.000
442.316;   11.600;  152.000;   97.000
442.438;   38.325; -233.000;  -10.000
442.561;   66.775;  272.000;  262.000
442.683;  489.950; -809.000; -522.000
442.806; 1194.125;   -8.000;   74.000
442.928;   60.875; -859.000; -604.000
443.051;  -68.925; -577.000; -373.000
443.173;  -91.450; -341.000; -339.000
443.295;  -87.025; -263.000; -371.000
443.418;  -64.500; -321.000;  -29.000
443.540;   -9.725; -106.000;   -4.000
443.662; -102.850; -563.000; -465.000
443.785;  -14.475;  335.000;  199.000
443.907; -103.400; -362.000; -208.000
444.029; -123.325; -767.000; -494.000
444.152; -130.275; -644.000; -554.000
444.274;  -34.175;  -18.000;  -24.000
444.396; -110.700; -461.000; -221.000
444.518; -127.950; -691.000; -454.000
444.640;  -95.275; -268.000; -111.000
444.763;  -34.225;  388.000;  249.000
444.885; -113.750; -432.000; -392.000
445.007;  -36.100;   35.000;   86.000
445.129; -119.875; -610.000; -515.000
445.251;  -99.600; -372.000; -439.000
445.373; -123.225; -537.000; -386.000
445.495;  -14.400;  242.000;  350.000
445.617;   61.525;  853.000;  753.000
445.739;  -65.525; -215.000;  -97.000
445.861;  -30.950; -245.000; -112.000
445.984;  -28.850; -267.000; -101.000
446.105;  180.400; -418.000; -251.000
446.227;  618.175; -176.000;  -19.000
446.349;   13.950; -358.000; -249.000
446.471; -109.625; -615.000; -448.000
446.593;  -67.150; -316.000;   19.000
446.715;    5.425;  -67.000;   41.000
446.837;   64.625;  697.000;  832.000
446.959; -103.675; -457.000; -478.000
447.081; -128.500; -628.000; -518.000
447.203;   52.525;  862.000;  834.000
447.325;  -83.125; -270.000;   42.000
447.446;   -3.575;  286.000;  530.000
447.568; -157.675; -921.000; -803.000
447.690;  -83.875; -236.000; -245.000
447.812; -135.725; -798.000; -519.000
447.933;  -27.400;  155.000;  127.000
448.055;  -63.550; -306.000; -261.000
448.177;  130.975;   31.000;   79.000
448.299;  114.150; -935.000; -727.000
448.420;   20.550;  -25.000;  159.000
448.542;  -41.375;   -3.000;   33.000
448.664;  -28.575;  109.000;  322.000
448.785;  -26.550;  265.000;   83.000
448.907;  -87.125; -614.000; -353.000
449.028;  -22.175; -771.000; -471.000
449.150;   62.425;  492.000;  589.000
449.272; -157.400;-1044.000; -913.000
449.393;   16.575;  612.000;  694.000
449.515; -131.625; -634.000; -581.000
449.636;  -59.125; -264.000; -155.000
449.758;   73.450;  763.000;  622.000
449.879;  -97.350; -498.000; -396.000
450.001;  -83.325; -149.000;  -49.000
450.122;  -38.375;  -95.000;  162.000
450.244;  -24.375;   37.000;  364.000
450.365; -103.700; -495.000; -301.000
450.486;  -40.375;   80.000;  268.000
450.608;    3.775;  393.000;  326.000
450.729;   65.800;  578.000;  645.000
450.850;   10.000; -574.000; -466.000
450.972;  699.525; -552.000; -389.000
451.093; 4872.450;  190.000;  588.000
451.214; 2386.975; -516.000; -337.000
451.336;  426.125;  773.000;  579.000
451.457;   78.525;  264.000;  393.000
451.578;  -24.600; -118.000;  -74.000
451.699; -106.225; -546.000; -540.000
451.821;  -79.925; -284.000;  -50.000
451.942;   -4.150;  278.000;  285.000
452.063;   25.300;  228.000;  419.000
452.184;  507.825;  -54.000;  -49.000
452.305; 1147.425;  103.000;  170.000
452.427;  166.400; -549.000; -301.000
452.548;   -8.575;   23.000;   79.000
452.669;  -48.125; -257.000;  -89.000
452.790;  -41.675;    3.000;  -18.000
452.911;  -10.550;  195.000;  259.000
453.032;  -55.725; -289.000;  -60.000
453.153;  -35.525;  -29.000;   81.000
453.274;   73.400;  737.000;  868.000
453.395;  -42.775;  -51.000;  175.000
453.516;   44.625; 1317.000; 1388.000
453.637;  -48.925; -205.000; -150.000
453.758;  -61.300;   15.000;   69.000
453.879; -111.600; -462.000; -250.000
454.000;   61.700; 1086.000;  948.000
454.121; -114.200; -554.000; -326.000
454.242; -103.275; -599.000; -383.000
454.362;  -57.175;  -99.000;  114.000
454.483;  -44.600; -309.000; -229.000
454.604;   61.675;  512.000;  580.000
454.725; -126.675; -627.000; -555.000
454.846; -119.425; -474.000; -406.000
454.967;  -33.025;  230.000;  539.000
455.087;  -56.175;  179.000;  153.000
455.208;   18.400;  554.000;  856.000
455.329;  -62.225;  -22.000;   82.000
455.450;   24.825;  473.000;  633.000
455.570;  -68.900; -234.000; -211.000
455.691;  -49.200;  201.000;  407.000
455.812; -103.325; -270.000;  -92.000
455.932;  -54.950;  107.000;  -97.000
456.053;  -77.875;   36.000;   24.000
456.173; -111.250; -433.000; -355.000
456.294; -121.850; -476.000; -303.000
456.415;  -62.375;  -73.000;   70.000
456.535;  -46.250;  297.000;  273.000
456.656;  -47.025;  132.000;  240.000
456.776;  -67.875;    3.000;  298.000
456.897;  -10.775;  308.000;  513.000
457.017;  -79.800; -153.000;   -3.000
457.138; -113.700; -402.000; -249.000
457.258;  -18.975;  263.000;  224.000
457.379;  -24.250;  509.000;  521.000
457.499;  -33.800;  443.000;  432.000
457.620; -114.800; -407.000; -231.000
457.740;  -95.175; -132.000;  -11.000
457.860;  -59.525;   87.000;   44.000
457.981;  -49.425;  132.000;  124.000
458.101;  -66.900;  -89.000;   40.000
458.221;  -20.875;  336.000;  402.000
458.342;  -66.675;   -4.000;  -37.000
458.462;   25.625;  617.000;  352.000
458.582;  -40.000; -302.000; -294.000
458.703;    7.550;  303.000;  154.000
458.823;  -24.725;   22.000;  163.000
458.943;   25.625;  341.000;  467.000
459.063;   -9.600; 1124.000;  192.000
459.183;  -36.575;  328.000;  313.000
459.304;   16.375;  315.000;  517.000
459.424;  -62.675; -246.000;  -89.000
459.544;  302.525;  388.000;  764.000
459.664;  855.050;  499.000;  506.000
459.784;  318.075; 1004.000; 1175.000
459.904;   52.675;  867.000;  744.000
460.024;   53.000;  867.000;  684.000
460.144;    3.325;  449.000;  554.000
460.264;  -11.075;  515.000;  327.000
460.385;  -87.450; -145.000; -119.000
460.505;   34.625;  905.000;  858.000
460.625;  -92.850;  -17.000;  -68.000
460.745;  -11.175;  396.000;  541.000
460.864;  -49.825;  153.000;  469.000
460.984;    1.650;  499.000;  573.000
461.104;  136.400; 1656.000; 1775.000
461.224;   12.925;  657.000;  650.000
461.344;  -44.450;  431.000;  360.000
461.464;  -39.350;  258.000;  513.000
461.584;  -17.250;  283.000;  466.000
461.704;  -57.700;   58.000;  108.000
461.824;  -55.375;  238.000;  259.000
461.943;  -51.200;  191.000;  130.000
462.063;  -78.950;    2.000;  324.000
462.183;   32.350;  639.000;  717.000
462.303;  100.750; 1678.000; 1230.000
462.422;   28.850;  781.000;  840.000
462.542;  -33.175;  271.000;  391.000
462.662;   43.550;  353.000;  380.000
462.782;  245.925;  833.000;  572.000
462.901;  500.350;  545.000;  717.000
463.021;  305.675; 1702.000; 1638.000
463.141;   -3.850;  337.000;  770.000
463.260;   -4.500;  614.000;  474.000
463.380;   18.275;  902.000;  884.000
463.499;  -37.675;  342.000;  332.000
463.619;  -38.200;  581.000;  559.000
463.738;  105.350; 1644.000;  903.000
463.858;   20.300;  657.000;  811.000
463.978;  -29.975;  542.000;  396.000
464.097;   41.500;  921.000; 1114.000
464.217;  117.100; 1196.000; 1143.000
464.336;  125.700; 1068.000; 1130.000
464.455;  -24.100;  328.000;  659.000
464.575;   29.400;  597.000;  602.000
464.694;  175.225; 1204.000; 1179.000
464.814;  140.275; 1190.000; 1138.000
464.933;   79.175; 1095.000; 1027.000
465.052;   86.050; 1412.000; 1054.000
465.172;   81.900;  922.000;  799.000
465.291;  132.750; 1376.000; 1320.000
465.410;   15.300;  462.000;  735.000
465.530;   80.525; 1355.000; 1310.000
465.649;   60.150; 1209.000; 1273.000
465.768;  139.675; 1673.000; 1508.000
465.888;   45.375;  941.000; 1174.000
466.007;   90.900; 1335.000; 1440.000
466.126;  -13.050;  721.000;  641.000
466.245;   51.800; 1176.000; 1187.000
466.364;   31.900;  950.000; 1060.000
466.484;   57.425; 1024.000; 1213.000
466.603;   43.250; 1101.000; 1222.000
466.722;  130.750; 1490.000; 1769.000
466.841;   77.125; 1151.000; 1401.000
466.960;   30.675; 1069.000;  972.000
467.079;  116.425; 1971.000; 1786.000
467.198;   42.900; 1238.000; 1181.000
467.317;   88.850; 1768.000; 1162.000
467.436;   68.625; 1709.000; 1261.000
467.555;  140.950; 1796.000; 1746.000
467.674;   60.025; 1227.000; 1329.000
467.793;   53.700; 1376.000; 1374.000
467.912;   94.225; 1658.000; 1539.000
468.031;  133.775; 2038.000; 1930.000
468.150;  150.575; 1842.000; 1837.000
468.269;  197.825; 2313.000; 2090.000
468.388;  198.225; 2168.000; 2339.000
468.507;  236.475; 2884.000; 2903.000
468.626;  266.750; 2555.000; 2541.000
468.744;  143.250; 2018.000; 2174.000
468.863;  189.025; 2312.000; 2523.000
468.982;   95.425; 1503.000; 1555.000
469.101;  245.925; 2788.000; 2692.000
469.220;  159.825; 2333.000; 2176.000
469.338;  239.100; 2935.000; 3051.000
469.457;  193.625; 2719.000; 2545.000
469.576;  353.425; 3953.000; 3784.000
469.695;  243.200; 2877.000; 3066.000
469.813;  414.275; 4148.000; 4192.000
469.932;  412.200; 4255.000; 4485.000
470.051;  413.900; 4075.000; 4161.000
470.169;  832.975; 4470.000; 4338.000
470.288; 1486.325; 4700.000; 4809.000
470.406;  928.450; 5059.000; 5194.000
470.525;  632.675; 6101.000; 5787.000
470.644;  639.875; 6847.000; 6794.000
470.762;  811.425; 8397.000; 7873.000
470.881;  908.075; 8651.000; 8464.000
470.999; 1038.950; 9685.000; 9151.000
471.118; 1093.075;11174.000;10711.000

