
Integration time [ms]: 100.000
Averaging Nr. [scans]: 40
Smoothing Nr. [pixels]: 0
Data measured with spectrometer [name]: 2101012U2
Wave   ;Sample   ;Dark     ;Reference
[nm]   ;[counts] ;[counts] ;[counts] 

197.733;   60.500;  516.000;  404.000
197.879;  -80.175; -610.000; -634.000
198.025;  -45.675; -475.000; -420.000
198.171;  -68.075; -602.000; -612.000
198.317;  -36.175; -401.000; -316.000
198.463;  -55.525; -655.000; -404.000
198.609;   25.500;  181.000; -137.000
198.755;  -80.675; -644.000; -410.000
198.901;  -70.975; -505.000; -424.000
199.047;  -59.550; -615.000; -488.000
199.193;  -52.000; -230.000; -468.000
199.339;  -31.950; -222.000; -369.000
199.485;   43.025;  330.000;  271.000
199.631;   27.250;  227.000;  310.000
199.777;  -50.600; -466.000; -398.000
199.923;  -62.300; -610.000; -424.000
200.069;   -6.075; -141.000;  -58.000
200.215;   62.875;  128.000;  453.000
200.361;   39.700;  243.000;  477.000
200.507;  -62.800; -600.000; -373.000
200.653;  -21.700; -371.000; -194.000
200.798;  -36.625; -215.000; -125.000
200.944;   -5.025; -146.000;  -41.000
201.090;   32.775;   61.000;  222.000
201.236;   -7.925; -116.000; -158.000
201.382;  118.175;  874.000;  903.000
201.528;   -5.075;  -58.000;  -48.000
201.674;  -51.650; -386.000; -293.000
201.819;  -70.100; -540.000; -439.000
201.965;  -79.550; -699.000; -447.000
202.111;  -17.775; -273.000; -226.000
202.257;  -37.500; -250.000; -238.000
202.402;    2.350;   13.000;  -36.000
202.548;  -24.075; -169.000; -116.000
202.694;   89.850;  410.000; -183.000
202.840;  -77.950; -603.000; -531.000
202.985;  -76.475; -681.000; -639.000
203.131; -110.775; -832.000; -666.000
203.277;  -25.050; -199.000; -262.000
203.423;  -59.875; -434.000; -520.000
203.568;  -39.975; -462.000; -237.000
203.714;  -53.475; -535.000; -542.000
203.860;  -87.450; -682.000; -641.000
204.005;    2.425;  112.000;  167.000
204.151;   82.150;  561.000;  556.000
204.296;  -48.775; -354.000; -221.000
204.442;  -84.125; -600.000; -547.000
204.588;  -70.550; -592.000; -579.000
204.733;   26.125;  178.000;  168.000
204.879; -120.075;-1018.000; -822.000
205.025;    3.400;  -99.000;  126.000
205.170;   -5.325;  -17.000;   94.000
205.316;   77.900;  438.000;  661.000
205.461;  -73.450; -698.000; -554.000
205.607;   75.975;  609.000;  665.000
205.752;  -69.500; -626.000; -551.000
205.898;  -58.675; -501.000; -391.000
206.043;  -52.200; -578.000; -506.000
206.189;  -44.775; -243.000; -285.000
206.334;   81.125;  554.000;  606.000
206.480;   82.675;  409.000;  239.000
206.625;  -77.650; -529.000; -552.000
206.771;  -49.925; -451.000; -373.000
206.916;  -41.275; -210.000; -537.000
207.062;  -77.750; -545.000; -591.000
207.207;  -47.200; -546.000; -443.000
207.353;   47.050;  185.000;  460.000
207.498;   15.175;  196.000;   85.000
207.643;  -62.625; -501.000; -370.000
207.789; -134.750;-1069.000; -910.000
207.934;  -93.625; -665.000; -713.000
208.080;  -15.550; -154.000;   66.000
208.225;  -14.675;  -22.000;  -57.000
208.370;  -74.450; -727.000; -619.000
208.516;  -81.750; -741.000; -487.000
208.661;  -26.750; -127.000;  -69.000
208.806;   -6.475; -165.000; -171.000
208.952; -139.300;-1044.000; -731.000
209.097;   53.650;  378.000;  349.000
209.242;  -41.175; -307.000; -382.000
209.387;   63.350;  392.000;  350.000
209.533;  -60.150; -321.000; -350.000
209.678;   77.350;  472.000;  543.000
209.823;  -50.525; -408.000; -310.000
209.969; -102.725; -860.000; -757.000
210.114; -104.200; -907.000; -719.000
210.259; -120.825; -939.000; -889.000
210.404;   -7.225; -171.000;  103.000
210.549;    4.900;  108.000;    3.000
210.695;  -13.775;   -3.000;  -95.000
210.840;   39.550;   94.000;   67.000
210.985;  -44.800; -484.000; -303.000
211.130;   78.025;  268.000;  406.000
211.275;   20.475;  207.000;  199.000
211.420;  -52.850; -300.000; -289.000
211.566;  -70.625; -536.000; -489.000
211.711;   28.175;  218.000;  157.000
211.856;  -66.075; -545.000; -519.000
212.001;    8.600;  151.000;   44.000
212.146;   26.600;  153.000;   49.000
212.291;  -24.375; -210.000; -186.000
212.436;  -31.200; -280.000;   -6.000
212.581;  -86.325; -685.000; -653.000
212.726;  -82.000; -487.000; -538.000
212.871;  -57.900; -552.000; -217.000
213.016; -158.175;-1172.000;-1029.000
213.161;   62.800;  406.000;  291.000
213.306;  -69.000; -435.000; -577.000
213.451;  -97.025; -778.000; -689.000
213.596;  -53.950; -455.000; -347.000
213.741;  -62.625; -448.000; -538.000
213.886;  -90.150; -498.000; -517.000
214.031;  -22.150; -294.000; -124.000
214.176;  -49.800; -408.000; -341.000
214.321;  -40.325; -296.000; -157.000
214.466;  -29.975; -163.000;  -43.000
214.611;  -13.575;  -61.000;  -10.000
214.756; -119.950; -948.000; -858.000
214.901;  -32.775; -388.000; -226.000
215.046; -125.225; -797.000; -825.000
215.191;   14.900;  128.000;   35.000
215.336;   -0.675; -157.000;  -19.000
215.480;  -83.025; -684.000; -505.000
215.625;  -41.200; -175.000;  -19.000
215.770;  -92.300; -757.000; -662.000
215.915;  -17.275;   -5.000;  -97.000
216.060;  -13.925; -113.000;  -21.000
216.205; -103.350; -731.000; -779.000
216.349;  -70.275; -470.000; -533.000
216.494; -129.600; -939.000; -867.000
216.639; -115.925; -823.000; -888.000
216.784;  -91.650; -577.000; -525.000
216.929;   51.300;  392.000;  281.000
217.073;   -5.075; -244.000;  -31.000
217.218;    6.825;   78.000;  -47.000
217.363;  -88.625; -656.000; -618.000
217.507;  -80.000; -623.000; -588.000
217.652; -126.425; -845.000; -874.000
217.797;  -87.950; -708.000; -659.000
217.942; -110.175; -856.000; -720.000
218.086;   60.675;  608.000;  539.000
218.231;  -24.250; -174.000;  -26.000
218.376;  -34.925; -337.000; -229.000
218.520;   13.750;  -41.000;   96.000
218.665;  -42.425; -338.000; -204.000
218.810;  -55.100; -275.000; -233.000
218.954;   20.450;  201.000;   35.000
219.099; -113.250; -713.000; -963.000
219.243;  -69.950; -589.000; -554.000
219.388;  -37.450; -264.000; -136.000
219.532;  -16.375; -116.000; -116.000
219.677;  -67.025; -564.000; -521.000
219.822;    3.150;   33.000;   89.000
219.966;    7.975;   17.000;  -99.000
220.111;  -43.025; -328.000;  -40.000
220.255;  -97.250; -797.000; -750.000
220.400;  -38.800; -180.000; -146.000
220.544;  -68.225; -516.000; -450.000
220.689;  -46.500; -422.000; -451.000
220.833;  -27.150; -123.000;  -58.000
220.978;  -44.450; -393.000; -563.000
221.122;   24.925;  319.000;  307.000
221.267; -114.075; -906.000; -837.000
221.411;  -72.950; -478.000; -394.000
221.555;  -11.525; -104.000;  -23.000
221.700;  -42.425; -329.000; -222.000
221.844;   38.550;  255.000;  272.000
221.989;  -45.725; -328.000; -311.000
222.133;  -40.775; -289.000; -307.000
222.277;   -2.675;    5.000;   78.000
222.422;   17.475;  227.000;  113.000
222.566;  -34.800; -381.000; -214.000
222.711;  -55.650; -414.000; -479.000
222.855;  -78.475; -643.000; -586.000
222.999;  -82.975; -642.000; -717.000
223.144;  -15.550; -195.000; -194.000
223.288;   49.875;  423.000;  251.000
223.432;   38.000;  184.000;  230.000
223.576;   12.650;  152.000;  -21.000
223.721;   35.900;  364.000;  273.000
223.865;  -48.525; -472.000; -475.000
224.009;  269.550; 1673.000; 1631.000
224.153;  -92.150; -660.000; -671.000
224.298;  -58.375; -531.000; -489.000
224.442;  -25.050;  -74.000;  -33.000
224.586;  -21.150; -169.000; -106.000
224.730; -120.675; -858.000; -670.000
224.875;  -98.650; -739.000; -688.000
225.019;    4.575;  102.000;  188.000
225.163;   63.950;  208.000;  341.000
225.307;   11.475;   97.000;  -91.000
225.451;   57.625;  360.000;  481.000
225.595;   23.625;  264.000;  176.000
225.739;  -28.075; -170.000;  -94.000
225.884;    3.650;   86.000;    5.000
226.028; -110.700; -760.000; -626.000
226.172;  -42.300; -260.000; -273.000
226.316; -121.900; -941.000; -902.000
226.460;  -75.675; -645.000; -493.000
226.604;  -51.875; -406.000; -400.000
226.748; -111.075; -836.000; -733.000
226.892;  -23.625; -227.000; -181.000
227.036;  -54.050; -537.000; -447.000
227.180;  -56.150; -551.000; -375.000
227.324;  -64.275; -561.000; -580.000
227.468; -118.300; -819.000; -717.000
227.612;    6.175;  242.000;  -28.000
227.756; -106.000; -845.000; -698.000
227.900;   55.875;  342.000;  441.000
228.044;  -67.000; -509.000; -290.000
228.188;   48.400;  448.000;  568.000
228.332;  -92.875; -546.000; -472.000
228.476;  -32.650; -223.000; -149.000
228.620;  -38.000; -210.000; -150.000
228.764;   62.900;  431.000;  349.000
228.908;  -22.650; -155.000;   30.000
229.052;  -65.750; -615.000; -528.000
229.195;  -22.025; -172.000;   13.000
229.339;  -32.950; -235.000; -305.000
229.483;  -15.900;    5.000; -162.000
229.627;    1.250; -156.000;  139.000
229.771;  -40.525; -218.000; -294.000
229.915;    6.100;  230.000;   79.000
230.059; -105.300; -648.000; -663.000
230.202;  -46.250; -370.000; -317.000
230.346;  -23.425; -107.000;  107.000
230.490;  -74.625; -489.000; -521.000
230.634; -107.250; -736.000; -553.000
230.777;   81.300;  478.000;  509.000
230.921;  -66.475; -450.000; -359.000
231.065;  -49.450; -246.000; -286.000
231.209;   34.375;  261.000;  265.000
231.352;   13.425;   54.000;   40.000
231.496;   18.250;  568.000;  188.000
231.640;  -93.425; -693.000; -621.000
231.783;   71.900;  546.000;  525.000
231.927;  -51.500; -294.000; -365.000
232.071; -126.700; -962.000; -736.000
232.214; -125.325; -980.000; -764.000
232.358;  -96.825; -683.000; -599.000
232.502;    9.325;  -19.000;    7.000
232.645; -131.600;-1090.000; -927.000
232.789;  -10.350; -257.000; -218.000
232.933;  -43.275; -407.000; -224.000
233.076; -138.125;-1038.000; -897.000
233.220; -106.950; -752.000; -777.000
233.363;  -80.250; -669.000; -477.000
233.507;   73.075;  371.000;  129.000
233.650;  -91.000; -764.000; -834.000
233.794;   55.550;  438.000;  461.000
233.938;  -65.050; -530.000; -362.000
234.081;  -14.250;  -93.000;   31.000
234.225;  -58.675; -631.000; -539.000
234.368; -112.275; -773.000; -723.000
234.512;  -37.625; -385.000; -299.000
234.655;  -92.250; -582.000; -555.000
234.798;  -68.775; -493.000; -466.000
234.942; -141.625; -884.000;-1002.000
235.085;  -77.975; -651.000; -443.000
235.229;  -65.175; -405.000; -410.000
235.372;  -47.600; -247.000; -191.000
235.516;  -64.275; -397.000; -321.000
235.659;    9.000;   92.000;  121.000
235.802;  -10.275;  -38.000;  -22.000
235.946;   39.500;  335.000;  215.000
236.089;   26.850;  126.000;  250.000
236.233;   29.200;  275.000;  298.000
236.376;  -56.250; -235.000; -378.000
236.519;  -42.150; -297.000; -319.000
236.663;  -27.950; -215.000; -117.000
236.806; -131.775;-1029.000; -999.000
236.949;   58.900;  543.000;  431.000
237.092;   68.100;  412.000;  391.000
237.236;  -84.050; -589.000; -502.000
237.379;   70.000;  352.000;  428.000
237.522; -115.425; -879.000; -768.000
237.666;  -35.900; -271.000;   18.000
237.809; -118.475; -851.000; -823.000
237.952;   39.525;  469.000;  271.000
238.095;  -71.400; -447.000; -442.000
238.238;   83.650;  688.000;  700.000
238.382;    2.250;  166.000;  103.000
238.525;  -73.950; -598.000; -511.000
238.668; -135.950;-1060.000; -985.000
238.811;  -89.750; -638.000; -643.000
238.954;  -59.275; -483.000; -334.000
239.097;   88.250;  617.000;  664.000
239.241;   27.700;  394.000;  326.000
239.384;  -50.700; -254.000; -214.000
239.527;  -61.300; -424.000; -224.000
239.670; -153.025; -994.000;-1091.000
239.813; -118.100; -696.000; -658.000
239.956;   81.850;  579.000;  473.000
240.099; -116.100; -778.000; -725.000
240.242;   59.125;  428.000;  432.000
240.385;   36.625;  466.000;  450.000
240.528;  -83.175; -706.000; -473.000
240.671;   23.575;  189.000;  134.000
240.814;  -41.525; -441.000; -158.000
240.957; -112.975; -767.000; -578.000
241.100;  -94.775; -779.000; -755.000
241.243; -142.500;-1234.000; -893.000
241.386;  -73.050; -508.000; -379.000
241.529;  -98.225; -735.000; -547.000
241.672;  -67.875; -566.000; -495.000
241.815; -124.500; -832.000; -808.000
241.958;  -32.725; -125.000; -182.000
242.101;  -77.775; -545.000; -390.000
242.244;  -45.575; -270.000; -325.000
242.387;  -28.750; -304.000; -246.000
242.530;   42.100;  470.000;  134.000
242.673;  -49.750; -381.000; -309.000
242.815; -132.850; -925.000; -899.000
242.958;  -72.150; -482.000; -381.000
243.101;   12.775;  132.000;  187.000
243.244;  -89.275; -564.000; -521.000
243.387;  -53.650; -313.000; -316.000
243.530;  -93.725; -657.000; -674.000
243.672;   -7.750;   43.000;  -92.000
243.815;  -50.500; -355.000; -283.000
243.958;   -2.875;   98.000;  -26.000
244.101;    2.850;   59.000;  -16.000
244.243;   -6.775;  -47.000;  101.000
244.386; -120.525; -761.000; -630.000
244.529;  -26.500; -132.000; -139.000
244.672; -155.200;-1154.000; -951.000
244.814;  -97.200; -621.000; -794.000
244.957;  -62.550; -380.000; -304.000
245.100;  -66.075; -489.000; -489.000
245.242;  -58.350; -387.000; -374.000
245.385;  -19.200;  -59.000;  -39.000
245.528; -138.575; -871.000; -705.000
245.670;   85.900;  612.000;  634.000
245.813;  -83.275; -599.000; -547.000
245.956;  -44.575; -324.000; -275.000
246.098;  -74.850; -508.000; -650.000
246.241;    8.650;  194.000;   48.000
246.383;  -20.625; -119.000;  -73.000
246.526;  -82.425; -454.000; -525.000
246.669; -119.450; -889.000; -780.000
246.811;   13.800;  172.000;   -1.000
246.954;  -55.400; -512.000; -426.000
247.096;  -16.375;  -84.000;   -6.000
247.239;  -70.450; -482.000; -445.000
247.381;  -77.400; -647.000; -488.000
247.524;   94.900;  645.000;  679.000
247.666;   -1.275;   58.000;   11.000
247.809; -122.525; -887.000; -691.000
247.951;  -11.600;  -75.000;  138.000
248.094;   34.800;  432.000;  308.000
248.236; -160.400;-1262.000;-1238.000
248.378;  -12.150; -356.000;  -81.000
248.521;  -28.875; -334.000; -337.000
248.663;  -42.750; -236.000; -267.000
248.806;  -34.275; -300.000; -266.000
248.948;  -86.125; -886.000; -763.000
249.090;  -39.075; -428.000; -398.000
249.233;  -46.050; -344.000; -381.000
249.375;  -77.750; -474.000; -451.000
249.518;  -20.050;  -83.000; -133.000
249.660;  -15.550; -103.000;    3.000
249.802; -179.450;-1303.000;-1189.000
249.945;  -70.600; -612.000; -540.000
250.087; -113.275; -834.000; -768.000
250.229;  -53.650; -362.000; -480.000
250.371;  -89.450; -494.000; -439.000
250.514;  -39.825; -310.000; -244.000
250.656;    5.375;   69.000;  102.000
250.798; -125.000; -849.000; -800.000
250.940;  -60.025; -322.000; -322.000
251.083;  -29.675; -335.000; -111.000
251.225;   59.125;  338.000;  310.000
251.367;  -53.150; -274.000; -373.000
251.509;  -32.800; -265.000; -210.000
251.651;  -96.050; -731.000; -671.000
251.794;   57.200;  538.000;  632.000
251.936; -112.100; -821.000; -747.000
252.078;  -73.000; -540.000; -461.000
252.220;  -70.100; -645.000; -477.000
252.362;   94.425;  344.000;  462.000
252.504;  -60.550; -677.000; -584.000
252.646; -107.225; -875.000; -722.000
252.788;   -0.275;   14.000; -128.000
252.931;  -36.100; -257.000; -253.000
253.073;  -35.975; -376.000; -317.000
253.215;   -4.325;  141.000;  122.000
253.357;  -18.525;   82.000; -153.000
253.499;  -49.550; -374.000; -234.000
253.641;  -91.175; -749.000; -594.000
253.783;  -97.575; -609.000; -527.000
253.925;  -91.325; -586.000; -591.000
254.067; -111.150; -744.000; -667.000
254.209;  -38.175; -391.000; -259.000
254.351; -140.875; -865.000; -883.000
254.493;  -50.050; -441.000; -417.000
254.635; -127.875; -936.000; -818.000
254.777;  -96.600; -752.000; -687.000
254.918;  -61.600; -512.000; -430.000
255.060;  -52.525; -551.000; -395.000
255.202;  -66.250; -473.000; -261.000
255.344;  -91.625; -658.000; -455.000
255.486;  -75.825; -471.000; -406.000
255.628; -118.675; -780.000; -781.000
255.770; -100.525; -676.000; -536.000
255.912;  -73.375; -559.000; -468.000
256.053;  -84.300; -730.000; -508.000
256.195;  154.325; 1008.000;  903.000
256.337;  -97.800; -861.000; -595.000
256.479;   49.950;  532.000;  416.000
256.621;  -40.475; -394.000; -212.000
256.762;  -95.625; -789.000; -742.000
256.904;   69.300;  485.000;  487.000
257.046;  -53.650; -381.000; -271.000
257.188;  -44.775; -351.000; -264.000
257.329;  -83.275; -525.000; -464.000
257.471; -129.550; -939.000; -807.000
257.613;  -62.525; -584.000; -498.000
257.755; -152.800;-1073.000; -982.000
257.896;   24.300;  286.000;  392.000
258.038;  -67.600; -403.000; -352.000
258.180;  -52.225; -354.000; -279.000
258.321;  -78.050; -581.000; -457.000
258.463;   -2.600;  -71.000;  133.000
258.605;  -81.550; -562.000; -570.000
258.746; -118.700; -886.000; -772.000
258.888; -149.400;-1026.000;-1020.000
259.029;   10.375;  121.000;   -8.000
259.171;  -92.575; -614.000; -550.000
259.313;    2.375;  -49.000;  -47.000
259.454;  -78.625; -536.000; -414.000
259.596;  -67.025; -483.000; -390.000
259.737;  -64.500; -590.000; -474.000
259.879;   27.800;  217.000;  311.000
260.020;   88.400;  901.000;  636.000
260.162;  -39.900; -146.000; -253.000
260.303; -125.400; -768.000; -687.000
260.445;  -89.250; -609.000; -613.000
260.586;   18.000;  392.000;  157.000
260.728;  -38.875; -360.000; -248.000
260.869; -113.875; -350.000; -343.000
261.011;   75.225;  706.000;  537.000
261.152;  -60.225; -479.000; -319.000
261.293;  -88.150; -576.000; -595.000
261.435;  -47.650; -219.000; -184.000
261.576;  -64.575; -455.000; -325.000
261.718;   56.175;  420.000;  470.000
261.859; -139.325; -940.000; -949.000
262.000; -139.150; -951.000;-1016.000
262.142;  -24.750;  -52.000;  -60.000
262.283; -112.975; -808.000; -691.000
262.424; -110.200; -666.000; -625.000
262.566; -157.450;-1161.000; -983.000
262.707; -129.675; -840.000; -830.000
262.848; -114.125; -769.000; -726.000
262.990;  -60.450; -362.000; -345.000
263.131;   86.475;  650.000;  681.000
263.272;   -9.725;  -61.000;  -41.000
263.413; -101.700; -589.000; -561.000
263.555;  -51.825; -669.000; -143.000
263.696;  -81.900; -550.000; -641.000
263.837;  -59.850; -449.000; -551.000
263.978;    8.725;   -5.000;  -77.000
264.119;  -53.000; -283.000; -264.000
264.261; -120.150; -847.000; -630.000
264.402;   -1.000;   33.000;   40.000
264.543;  -83.275; -509.000; -524.000
264.684;  -14.375;   61.000;  -50.000
264.825;  -80.725; -816.000; -538.000
264.966;  -19.250;  -84.000;  -67.000
265.107; -118.525; -646.000; -670.000
265.248; -127.000; -825.000; -812.000
265.390;  -11.500;  152.000;   -9.000
265.531;  -38.425; -238.000; -107.000
265.672;  -98.050; -557.000; -630.000
265.813;   63.175;  563.000;  439.000
265.954; -147.225; -959.000; -940.000
266.095;  -13.525; -372.000; -322.000
266.236; -102.200; -686.000; -548.000
266.377;  -46.475; -243.000; -297.000
266.518;  -70.250; -619.000; -547.000
266.659;   14.325;  170.000;  268.000
266.800;   13.025;   83.000;   85.000
266.941;  -90.175; -487.000; -478.000
267.082;   24.800;  354.000;   99.000
267.223;  -58.325; -344.000; -273.000
267.364; -123.050; -892.000; -686.000
267.504;  -17.000;    3.000;  135.000
267.645;  -16.425;  160.000;   67.000
267.786;  -44.550; -147.000;  -86.000
267.927;  -87.475; -473.000; -379.000
268.068;  -17.700; -186.000;  -61.000
268.209;  -43.000; -175.000; -413.000
268.350;  -60.800; -388.000; -532.000
268.490;  -94.400; -648.000; -521.000
268.631;   17.025;  127.000;  225.000
268.772; -120.100; -874.000; -647.000
268.913;  -51.200; -328.000; -476.000
269.054;   -5.250; -117.000;   12.000
269.194;  -44.700; -418.000; -402.000
269.335; -163.175;-1137.000;-1074.000
269.476;  -14.225;   33.000;  -35.000
269.617;  -44.925; -347.000; -392.000
269.757;  -90.650; -713.000; -646.000
269.898; -100.350; -856.000; -613.000
270.039;  -60.100; -415.000; -405.000
270.180; -128.125; -952.000; -816.000
270.320;  -39.675; -190.000; -250.000
270.461;  -38.875; -277.000; -249.000
270.602;   -9.575; -186.000; -156.000
270.742; -125.650; -868.000; -943.000
270.883;  -58.425; -442.000; -390.000
271.023;  -54.225; -358.000; -357.000
271.164;  -72.900; -607.000; -528.000
271.305;  -88.250; -666.000; -654.000
271.445;  -97.700; -722.000; -683.000
271.586;  -71.350; -462.000; -283.000
271.726;  -48.500; -397.000; -322.000
271.867;  -54.050; -594.000; -534.000
272.008;  197.725; -473.000; -285.000
272.148;  149.825;  462.000;  468.000
272.289;    9.975; -113.000; -181.000
272.429;   14.325;   19.000;  185.000
272.570;  -95.500; -633.000; -737.000
272.710;  -97.875; -825.000; -775.000
272.851;  -28.150;  113.000; -130.000
272.991; -160.025;-1173.000;-1077.000
273.131;  -71.900; -419.000; -459.000
273.272; -107.625; -683.000; -723.000
273.412;   11.600; -143.000;  -31.000
273.553;  -52.525; -488.000; -507.000
273.693;  143.125;  913.000;  858.000
273.834;  -78.625; -894.000; -692.000
273.974;  -76.725; -664.000; -615.000
274.114; -100.200; -772.000; -560.000
274.255;   79.625;  414.000;  373.000
274.395;   17.125; -180.000; -125.000
274.535;   43.950;  199.000;  350.000
274.676;   32.700;  225.000;   94.000
274.816;  -10.075;  110.000;   34.000
274.956;  -78.950; -624.000; -690.000
275.097;  -55.950;-1014.000; -922.000
275.237; -115.725; -913.000; -803.000
275.377; -105.350; -778.000; -689.000
275.517; -155.500; -878.000; -937.000
275.658;  -48.550; -590.000; -555.000
275.798;  -63.950; -606.000; -413.000
275.938;    7.550;  215.000;  323.000
276.078;  -98.975; -626.000; -395.000
276.218;    2.900;   99.000;  104.000
276.359; -131.175;-1026.000;-1024.000
276.499;  -78.300; -605.000; -446.000
276.639;  -24.125; -305.000; -151.000
276.779;  -50.475; -475.000; -357.000
276.919; -108.025; -783.000; -624.000
277.059;  -23.575; -261.000; -212.000
277.199;  -32.875; -357.000; -259.000
277.340;   56.625;  287.000;  175.000
277.480; -104.300; -840.000; -693.000
277.620;   21.025;  192.000;   16.000
277.760; -198.625;-1533.000;-1294.000
277.900;   12.175;  113.000;   33.000
278.040;   19.850;  137.000;  159.000
278.180;   40.875;  270.000;  170.000
278.320;   18.000;   21.000;   56.000
278.460;  -68.275; -443.000; -469.000
278.600;  -94.000; -708.000; -598.000
278.740;   55.650;  448.000;  224.000
278.880;  -36.200; -768.000; -791.000
279.020;   -0.475; -194.000; -144.000
279.160;  -91.925; -672.000; -595.000
279.300; -115.325; -926.000; -873.000
279.440;  -84.275; -709.000; -622.000
279.579;  -12.400;-1014.000; -929.000
279.719;  -55.275; -410.000; -394.000
279.859;   85.575;   -4.000;   41.000
279.999;   35.725; -208.000;  101.000
280.139;  -31.325; -435.000; -387.000
280.279;  -56.650; -708.000; -745.000
280.419;  -17.575; -229.000; -147.000
280.559;  -33.025; -259.000; -180.000
280.698;  -85.675; -790.000; -639.000
280.838;  -87.350; -778.000; -800.000
280.978; -106.900; -846.000; -790.000
281.118; -117.275; -811.000; -704.000
281.257;    6.075;   24.000;    6.000
281.397; -115.825;-1094.000; -960.000
281.537;  -83.650; -599.000; -712.000
281.677;  -28.425; -150.000; -101.000
281.816;  -81.775; -700.000; -630.000
281.956;  -21.425; -193.000; -257.000
282.096;  -76.450; -539.000; -396.000
282.235; -111.225; -672.000; -638.000
282.375;  -20.800; -243.000;  -98.000
282.515; -102.050; -715.000; -707.000
282.654;   37.800;   29.000;  106.000
282.794;   35.000;  388.000;  244.000
282.934;  -59.975; -530.000; -491.000
283.073; -129.775;-1030.000; -857.000
283.213;  -54.875; -460.000; -467.000
283.353;  -28.025; -408.000; -349.000
283.492;  -34.675; -264.000; -296.000
283.632;  -43.100; -254.000; -168.000
283.771; -103.500; -859.000; -730.000
283.911;  -52.925; -369.000; -260.000
284.050; -118.200; -794.000; -748.000
284.190; -167.150;-1229.000;-1096.000
284.329; -140.500;-1055.000; -964.000
284.469;  -52.425; -516.000; -591.000
284.608;  -62.800; -559.000; -598.000
284.748;  -87.100; -614.000; -570.000
284.887;    1.375;  -87.000;  -20.000
285.027; -134.175; -844.000; -892.000
285.166;  -35.450; -192.000; -249.000
285.306;   10.900; -116.000;  -33.000
285.445;  -38.000; -229.000; -343.000
285.584;  -91.900; -630.000; -494.000
285.724;  -46.900; -282.000; -322.000
285.863; -122.050; -857.000; -507.000
286.002;  -66.500; -366.000; -276.000
286.142; -105.525; -715.000; -622.000
286.281;  -79.200; -525.000; -493.000
286.420;  -77.950; -554.000; -417.000
286.560;   92.825;  653.000;  623.000
286.699; -143.425; -958.000; -912.000
286.838;  -79.600; -590.000; -591.000
286.978;  -90.200; -533.000; -537.000
287.117; -143.275;-1085.000; -950.000
287.256;  -24.800; -228.000; -211.000
287.395;  -43.850; -197.000; -378.000
287.535;  -50.825; -370.000; -298.000
287.674;  -79.125; -509.000; -484.000
287.813;   63.300;  661.000;  533.000
287.952; -126.175;-1010.000; -871.000
288.091; -153.975;-1049.000; -915.000
288.231;    8.875;   13.000;   15.000
288.370; -172.675;-1217.000;-1200.000
288.509;  -97.600; -728.000; -645.000
288.648;  -91.850; -770.000; -548.000
288.787;  -36.625; -243.000;  -87.000
288.926;  -60.300; -454.000; -475.000
289.065;  116.075;  859.000;  672.000
289.204;  -51.625; -377.000; -217.000
289.344;  -89.575; -791.000; -690.000
289.483;   22.400;  416.000;  304.000
289.622;  -28.175; -291.000; -149.000
289.761;  -13.125; -309.000; -166.000
289.900; -112.575; -785.000; -626.000
290.039;   -1.575;  -12.000;  -95.000
290.178;  -42.325; -274.000; -180.000
290.317;  -95.850; -618.000; -479.000
290.456;  -64.975; -463.000; -451.000
290.595; -129.600; -961.000; -833.000
290.734; -144.850; -904.000; -891.000
290.873;  -85.150; -456.000; -420.000
291.011; -121.125; -833.000; -843.000
291.150; -106.750; -770.000; -682.000
291.289;  -16.700; -343.000; -110.000
291.428; -103.100; -599.000; -480.000
291.567;  -58.250; -370.000; -442.000
291.706;   -5.675;  109.000;  154.000
291.845;  -89.675; -597.000; -505.000
291.984; -171.000;-1234.000;-1061.000
292.122;   74.500;  602.000;  582.000
292.261;   41.150;  620.000;  463.000
292.400;   15.100; -144.000;  211.000
292.539; -123.825; -959.000; -813.000
292.678;  -38.975; -325.000; -300.000
292.816; -155.450;-1136.000; -965.000
292.955;  -89.950; -844.000; -684.000
293.094;  -34.100; -173.000; -337.000
293.233;  -53.075; -556.000; -400.000
293.371;  -41.675; -225.000;  -84.000
293.510; -109.425; -866.000; -780.000
293.649; -128.175; -959.000; -924.000
293.787;  -51.325;-1083.000;-1012.000
293.926;   -2.325; -113.000;  -32.000
294.065;  -51.300; -379.000; -290.000
294.203;   61.250;  298.000;  406.000
294.342;   29.325;   74.000;  156.000
294.481; 6974.425;51180.000; -836.000
294.619;  -25.825; -425.000; -582.000
294.758; -144.175;-1230.000;-1137.000
294.896;   85.250; -125.000;    5.000
295.035; -115.300;-1040.000;-1006.000
295.174; -130.400;-1082.000; -954.000
295.312;  -37.725; -323.000; -203.000
295.451;   -2.475; -307.000; -428.000
295.589;  -36.825; -389.000; -518.000
295.728;   20.500; -292.000; -165.000
295.866;   12.050;  -36.000;  -51.000
296.005;  -56.600; -584.000; -341.000
296.143;  -55.325; -558.000; -596.000
296.282; -109.300; -957.000; -881.000
296.420;  -96.425; -657.000; -557.000
296.559;  -80.350; -892.000; -633.000
296.697;   42.950; -847.000; -665.000
296.835;  103.575;-1141.000;-1002.000
296.974;   63.700;  -23.000;   39.000
297.112;   27.100; -443.000; -504.000
297.251;  -65.275; -815.000; -755.000
297.389;  122.775; -576.000; -438.000
297.527;   58.425; -145.000;  -83.000
297.666;  -45.450; -486.000; -438.000
297.804;  -43.750; -404.000; -264.000
297.942;   -9.850; -136.000; -161.000
298.081;    6.225; -183.000;   63.000
298.219;   79.700;  -17.000;  -19.000
298.357;   59.725; -144.000;  -71.000
298.495;   64.500; -810.000; -812.000
298.634;   93.475;  245.000;  219.000
298.772;   88.850; -220.000; -338.000
298.910;  -19.275; -309.000; -182.000
299.048;   -9.800; -130.000; -153.000
299.187;  -31.825; -350.000; -250.000
299.325;   14.375;   52.000;  122.000
299.463;   75.775; -389.000; -299.000
299.601;  147.150; -327.000; -271.000
299.739;  -90.950; -908.000; -883.000
299.877;  -86.025; -791.000; -703.000
300.016;  -35.150;-1095.000; -935.000
300.154;  187.775;  -19.000; -161.000
300.292;   78.500; -428.000; -348.000
300.430;   43.450; -408.000; -291.000
300.568;  -89.875; -940.000; -874.000
300.706;  -55.200; -366.000; -469.000
300.844;  -61.025;-1108.000; -979.000
300.982;  133.800;  246.000;  282.000
301.120; -110.725; -965.000; -866.000
301.258;  -62.775; -812.000; -705.000
301.396;   31.525;  104.000;  -41.000
301.534;  107.450; -218.000; -293.000
301.672;    6.575; -664.000; -521.000
301.810;   58.800; -613.000; -545.000
301.948;  142.625;   53.000;  149.000
302.086;  718.750; -250.000;  -32.000
302.224; 1161.175; -610.000; -585.000
302.362;   69.225; -558.000; -622.000
302.500;   11.625; -923.000; -893.000
302.638;  122.850;  128.000;  245.000
302.776;   14.475; -352.000; -408.000
302.913;   37.075;  447.000;  236.000
303.051;    6.850;  -86.000;  -23.000
303.189;   60.900;   90.000;  118.000
303.327;  -33.525; -341.000; -256.000
303.465;  -82.375; -832.000; -588.000
303.603;  -87.800; -805.000; -604.000
303.740;  119.725;  417.000;  241.000
303.878;   47.775; -800.000; -759.000
304.016;  -84.100; -915.000; -790.000
304.154; -111.275;-1123.000;-1152.000
304.291;  -48.125; -505.000; -554.000
304.429;   15.775;  102.000;   74.000
304.567; -130.250; -908.000; -893.000
304.705;  -65.250; -408.000; -515.000
304.842;  118.400; -616.000; -540.000
304.980;   56.625;  215.000;   35.000
305.118;   62.800; -367.000; -365.000
305.255;  -60.725; -945.000; -927.000
305.393;   59.575;  178.000;  239.000
305.531;  -87.675;-1173.000; -956.000
305.668;  -69.950; -663.000; -582.000
305.806;  125.000; -358.000; -439.000
305.943;  129.225; -629.000; -637.000
306.081;   78.300; -378.000; -267.000
306.219;  -98.600; -863.000; -748.000
306.356;    6.050;  158.000;   27.000
306.494;  111.000;  981.000;  761.000
306.631;    9.950;  -11.000;  -55.000
306.769;    2.775; -613.000; -485.000
306.906;   -4.900; -284.000; -258.000
307.044;  -53.925; -473.000; -488.000
307.181;  -73.100; -410.000; -332.000
307.319;    8.825;  112.000;   87.000
307.456; -171.475;-1191.000;-1153.000
307.594; -108.000; -980.000; -727.000
307.731;   -2.375; -371.000; -164.000
307.868;   -6.000;  -15.000;   20.000
308.006; -133.925; -961.000; -847.000
308.143;  -71.025; -618.000; -330.000
308.281;  160.975;  -37.000; -254.000
308.418;   -7.175; -748.000; -640.000
308.555;  -70.375; -400.000; -250.000
308.693;  -68.450; -577.000; -573.000
308.830; -117.675; -712.000; -657.000
308.967;   -9.975; -215.000;  -95.000
309.105;  -46.050; -507.000; -396.000
309.242;   14.075; -468.000; -367.000
309.379;  285.675; -577.000; -655.000
309.517;  -63.875; -936.000; -948.000
309.654; -105.850; -910.000; -734.000
309.791;  -64.650; -662.000; -580.000
309.928; -127.400; -977.000; -914.000
310.065;  200.900;  819.000;  697.000
310.203;   22.675; -825.000; -850.000
310.340;    1.400; -465.000; -321.000
310.477;  -76.600; -412.000; -516.000
310.614;  -59.375; -383.000; -473.000
310.751;  -78.250; -427.000; -518.000
310.889;  -16.600;    1.000;   11.000
311.026; -149.675;-1161.000; -939.000
311.163;  -53.175; -386.000; -380.000
311.300;  -81.175; -512.000; -479.000
311.437;  -73.875; -658.000; -619.000
311.574; -155.550;-1226.000; -985.000
311.711;  -53.100; -595.000; -433.000
311.848;  -24.550; -380.000; -388.000
311.985;   22.725;  270.000;   93.000
312.122; -125.800; -932.000; -762.000
312.259; -121.125; -941.000; -994.000
312.396;  -78.250; -508.000; -551.000
312.533;  -92.950; -812.000; -790.000
312.670; -132.375;-1070.000; -898.000
312.807;  -30.850; -352.000; -367.000
312.944;  -77.025; -513.000; -611.000
313.081;  -41.325; -150.000; -415.000
313.218; -108.775;-1111.000; -867.000
313.355;   18.125; -531.000; -449.000
313.492;   19.300; -455.000; -292.000
313.629;  146.075;  815.000;  735.000
313.766; -160.250;-1176.000;-1008.000
313.902;  -19.425; -186.000;   21.000
314.039;  -46.600; -372.000; -289.000
314.176;   27.550;  286.000;  192.000
314.313;  -67.225; -569.000; -473.000
314.450;  -83.175; -788.000; -684.000
314.587;  -55.775; -468.000; -480.000
314.723;    3.100;  -78.000;  130.000
314.860;   35.025;  318.000;  332.000
314.997;   37.100;  223.000;  142.000
315.134;  -39.350; -385.000; -368.000
315.270;  -24.500; -480.000; -496.000
315.407; -112.925;-1094.000; -967.000
315.544;  -60.775; -657.000; -538.000
315.681;  -71.600; -681.000; -565.000
315.817;   37.475; -133.000; -176.000
315.954;   27.875; -613.000; -392.000
316.091; -122.275;-1045.000;-1023.000
316.227;  -30.025;  -71.000; -179.000
316.364;    8.125;   23.000;    6.000
316.500;  -50.125; -113.000; -300.000
316.637;  -47.975; -181.000; -302.000
316.774;  -92.675; -625.000; -358.000
316.910;  -95.500; -598.000; -629.000
317.047;  -71.825; -487.000; -351.000
317.183;  -51.975; -435.000; -566.000
317.320;  -20.250; -367.000; -321.000
317.456;  -69.600; -733.000; -805.000
317.593;  -89.425; -598.000; -641.000
317.729;   -1.400;  168.000;  -67.000
317.866; -186.400;-1434.000;-1285.000
318.002;  -89.800; -708.000; -948.000
318.139;  -97.450; -883.000; -867.000
318.275; -107.400;-1003.000; -738.000
318.412;  -75.175; -517.000; -336.000
318.548;  -21.950; -751.000; -720.000
318.685;  -85.550; -985.000; -888.000
318.821;  -96.425; -762.000; -735.000
318.957;   -7.100;   34.000;  -23.000
319.094;   44.400;  297.000;  154.000
319.230;  -40.700; -756.000; -742.000
319.367;  177.725; -471.000; -520.000
319.503;   81.950; -538.000; -436.000
319.639;  -78.525; -877.000; -793.000
319.775;  -52.650; -750.000; -685.000
319.912;  -53.150; -424.000; -519.000
320.048;  -83.400;-1184.000;-1184.000
320.184;   76.775;   59.000;   70.000
320.321;  -66.300; -497.000; -467.000
320.457;   63.400;  475.000;  662.000
320.593;  -65.200; -375.000; -382.000
320.729;  -93.175; -732.000; -734.000
320.866;  -63.500; -577.000; -635.000
321.002;  -64.600; -759.000; -809.000
321.138;   -2.450; -135.000; -211.000
321.274;   78.125; -148.000; -115.000
321.410;  -17.175; -585.000; -353.000
321.546;  -21.275;-1011.000; -911.000
321.683;   74.100;  400.000;  185.000
321.819;   10.675;  -48.000; -117.000
321.955; -106.150; -743.000; -722.000
322.091;  -44.625; -585.000; -540.000
322.227;   -4.425; -382.000; -202.000
322.363;   -3.000; -320.000; -215.000
322.499;  -45.700; -343.000; -331.000
322.635;  162.850;  636.000;  443.000
322.771;   37.025; -139.000;   12.000
322.907;  101.125;  129.000;  327.000
323.043;  -15.325; -115.000; -206.000
323.179;  -21.650; -394.000; -363.000
323.315;   38.750; -401.000; -371.000
323.451;  124.725; -328.000; -236.000
323.587;   68.275;  -60.000;  -77.000
323.723;   38.050; -682.000; -601.000
323.859;    0.850; -258.000;  -76.000
323.995;  -34.975; -467.000; -409.000
324.131; -135.225; -967.000; -892.000
324.267;  -37.650; -254.000; -276.000
324.402; -117.025; -960.000; -983.000
324.538;   -8.200; -279.000; -104.000
324.674;   21.725;  164.000;   77.000
324.810;  158.325;  226.000;  308.000
324.946;   41.175; -810.000; -658.000
325.082;  -72.000; -568.000; -475.000
325.217;  -19.600;  -62.000;   16.000
325.353; -103.875; -764.000; -659.000
325.489;  -84.725; -540.000; -506.000
325.625;  -82.350; -579.000; -525.000
325.760;   54.375;  517.000;  376.000
325.896;  -39.550; -515.000; -702.000
326.032;  -50.125; -403.000; -352.000
326.168;  -66.450; -462.000; -369.000
326.303;  -60.275; -352.000; -461.000
326.439;  -33.775; -336.000; -276.000
326.575;   11.575; -190.000;  -29.000
326.710;  -10.125; -156.000;  -30.000
326.846;  -10.925;  146.000;  103.000
326.982;  -88.725; -530.000; -548.000
327.117;  -71.575; -481.000; -442.000
327.253;  -86.675; -745.000; -742.000
327.388; -164.450;-1137.000;-1153.000
327.524;  -38.100; -811.000; -578.000
327.659;  -20.825;  -58.000;  -22.000
327.795;  -26.975;   69.000;   45.000
327.931;  -89.975; -723.000; -499.000
328.066;  -29.050; -417.000; -276.000
328.202;  -23.275;   12.000; -129.000
328.337;  117.925;  957.000;  713.000
328.473;   42.775;  -12.000;  -74.000
328.608;  -25.975; -256.000; -267.000
328.743;  -76.350; -799.000; -664.000
328.879;    4.200;  214.000;  114.000
329.014;  -24.025; -102.000; -122.000
329.150;  -80.200; -358.000; -483.000
329.285;  -73.725; -465.000; -466.000
329.421;  -69.825; -548.000; -246.000
329.556;  -14.475;  -36.000;   85.000
329.691; -105.325; -633.000; -615.000
329.827;  -83.950; -626.000; -480.000
329.962;  -34.175;  131.000; -301.000
330.097;  -97.100; -673.000; -585.000
330.233;  -54.525; -410.000; -223.000
330.368; -127.225; -839.000; -628.000
330.503;  -17.500;    3.000;   98.000
330.638;   11.850;  -93.000; -125.000
330.774;  -54.600; -609.000; -530.000
330.909;  -37.275; -434.000; -244.000
331.044;  -92.100; -714.000; -708.000
331.179; -167.350;-1217.000;-1109.000
331.315;   19.325;   77.000;   20.000
331.450;   10.875;  157.000;  285.000
331.585;  -87.475; -805.000; -706.000
331.720;  -89.275; -510.000; -460.000
331.855;   -6.450;  -35.000; -102.000
331.990;  225.700;   62.000;  138.000
332.126;  105.475; -110.000;   71.000
332.261;  -19.275; -379.000; -265.000
332.396;    2.325; -135.000; -242.000
332.531; -110.275;-1074.000;-1031.000
332.666;   13.925; -519.000; -363.000
332.801;  -94.525; -726.000; -807.000
332.936;  -32.375; -192.000; -122.000
333.071; -133.125; -870.000; -817.000
333.206;   16.450;  307.000;  379.000
333.341;   27.650;  344.000;  418.000
333.476;  -88.375; -627.000; -623.000
333.611;  -31.575; -251.000; -173.000
333.746;  -43.100; -381.000; -464.000
333.881;  -93.175; -973.000; -935.000
334.016; -124.625; -936.000; -917.000
334.151; -114.850; -746.000; -702.000
334.286;   32.625;  152.000;  186.000
334.421;  -10.625; -125.000; -178.000
334.556;  -82.200; -611.000; -567.000
334.690;  -70.300; -631.000; -577.000
334.825;   64.500;  381.000;   83.000
334.960;  -59.075; -285.000; -413.000
335.095;    9.025;  135.000;  -91.000
335.230; -103.925; -722.000; -738.000
335.365; -136.400;-1084.000; -990.000
335.499; -122.750;-1108.000;-1037.000
335.634;   28.125;    9.000;  534.000
335.769;  -94.500; -755.000; -720.000
335.904;  -47.725; -603.000; -561.000
336.038;  -43.350; -735.000; -657.000
336.173; -109.550;-1206.000;-1194.000
336.308;   10.175; -116.000; -189.000
336.443;  -10.175; -544.000; -634.000
336.577;  -49.325; -936.000; -787.000
336.712;   79.025;   -4.000;  -12.000
336.847;  -19.250; -724.000; -607.000
336.981;   87.475; -272.000; -208.000
337.116;  340.400;  615.000;  501.000
337.250;  219.725; -434.000; -421.000
337.385;  214.800; -297.000; -208.000
337.520;   61.475; -632.000; -603.000
337.654;  -47.425; -215.000; -126.000
337.789; -131.750; -989.000; -933.000
337.923;   -9.075; -104.000; -205.000
338.058;  -78.900; -673.000; -738.000
338.192;   -4.775; -611.000; -488.000
338.327;   -3.350;  -18.000; -155.000
338.461;  -57.775; -299.000; -469.000
338.596;  -90.225; -780.000; -638.000
338.730; -106.200; -767.000; -803.000
338.865;   63.350;  -46.000; -140.000
338.999;  -72.625; -846.000; -702.000
339.134;  -24.525; -634.000; -536.000
339.268;   22.750; -741.000; -603.000
339.403;  345.800; -740.000; -775.000
339.537;   82.375; -894.000; -820.000
339.671; -127.225; -829.000; -813.000
339.806;  -63.925; -556.000; -512.000
339.940;   -1.575; -261.000; -235.000
340.074;  -90.525; -685.000; -510.000
340.209;  -51.300; -351.000; -230.000
340.343;  -95.725; -517.000; -573.000
340.477;  164.500;  998.000; 1036.000
340.612;  -67.800;-1033.000; -900.000
340.746;  131.825; -199.000; -243.000
340.880;  -52.400; -924.000; -785.000
341.014;  -31.800;  -45.000; -154.000
341.149; -117.225; -756.000; -718.000
341.283; -107.150; -839.000; -754.000
341.417;  -77.375;-1124.000; -938.000
341.551;  172.975; -768.000; -708.000
341.685;  -21.250; -633.000; -611.000
341.820;  -61.600; -562.000; -493.000
341.954;  -52.400; -218.000; -349.000
342.088; -163.800;-1102.000;-1019.000
342.222;   48.450;  565.000;  618.000
342.356;  -47.950; -395.000; -335.000
342.490;  -78.300; -880.000; -841.000
342.624;  -49.000; -339.000; -242.000
342.758;   12.425; -364.000; -312.000
342.892;  -66.925; -710.000; -585.000
343.026;  -37.600;  -58.000; -116.000
343.160;  -65.050; -426.000; -376.000
343.294;  -81.050; -474.000; -337.000
343.428;  -13.450; -488.000; -448.000
343.562;    0.950; -172.000;  -23.000
343.696;  -27.475; -385.000; -314.000
343.830;   -8.000; -362.000; -356.000
343.964;   12.325; -231.000; -168.000
344.098; 1131.450;  199.000;   70.000
344.232;  938.575; -266.000; -127.000
344.366;   90.775; -567.000; -453.000
344.500;   77.875; -665.000; -744.000
344.634;   47.650; -324.000; -164.000
344.768;   12.500; -531.000; -341.000
344.902;   26.975;  278.000;  256.000
345.035;  -67.075; -556.000; -496.000
345.169; -131.250; -933.000; -656.000
345.303;   -8.575; -308.000; -482.000
345.437;  -67.350; -826.000; -717.000
345.571;  -68.225; -675.000; -594.000
345.704;  -67.725; -309.000; -532.000
345.838;  -32.700; -331.000; -284.000
345.972;  -35.500; -543.000; -495.000
346.106;  154.000; -179.000; -190.000
346.239;  456.675; -312.000; -243.000
346.373;    8.825; -343.000; -302.000
346.507; -138.100; -950.000; -962.000
346.640;  177.000;  -30.000;   13.000
346.774;  -15.750; -650.000; -797.000
346.908;  -17.800; -138.000;  -11.000
347.041;  -91.275; -646.000; -593.000
347.175;   -2.500;  259.000;   27.000
347.309;  -54.400; -698.000; -628.000
347.442; -101.650; -883.000; -732.000
347.576;  318.225;  670.000;  668.000
347.709;  260.150; -123.000;  -52.000
347.843;  -91.450; -933.000; -825.000
347.976;   40.450;  235.000;  294.000
348.110; -185.750;-1268.000;-1186.000
348.243; -104.575; -679.000; -772.000
348.377;   -0.225;  -26.000;   60.000
348.510;   46.900;  403.000;  540.000
348.644;  -26.650;  -37.000; -159.000
348.777;    1.175;  180.000;  191.000
348.911;  -30.025; -142.000; -112.000
349.044;  200.550;  471.000;  448.000
349.178;  224.675;-1069.000;-1006.000
349.311;  125.750;  141.000;  255.000
349.444;   -6.100; -927.000; -813.000
349.578;   -4.650; -347.000; -200.000
349.711;  -96.475; -959.000; -862.000
349.845;   25.525; -661.000; -591.000
349.978; -134.675;-1224.000;-1137.000
350.111;  -84.775; -546.000; -612.000
350.244;  -61.300; -596.000; -700.000
350.378;   23.950; -392.000; -393.000
350.511;  -54.925; -393.000; -426.000
350.644;  -93.475; -808.000; -806.000
350.778;    4.550;  168.000;  104.000
350.911;    9.200;  134.000;  140.000
351.044;  -87.950; -685.000; -615.000
351.177;  -29.100; -321.000; -281.000
351.310;   -3.075;    3.000; -131.000
351.444;  -72.525; -888.000; -788.000
351.577;  157.675;  140.000;   90.000
351.710;   94.975;  593.000;  417.000
351.843;  -29.575; -165.000;  -77.000
351.976;   -1.575;  149.000;  -79.000
352.109;  -77.850; -621.000; -612.000
352.242;   -6.700; -464.000; -419.000
352.376;  -44.500; -580.000; -636.000
352.509;  241.950; -437.000; -356.000
352.642;   31.475; -654.000; -604.000
352.775;   76.200; -141.000;  -98.000
352.908; -107.025; -933.000; -904.000
353.041;  -93.225; -814.000; -824.000
353.174;  -61.475; -551.000; -424.000
353.307;  -77.950; -753.000; -764.000
353.440;   66.100;  541.000;  453.000
353.573;  -97.950; -957.000;-1008.000
353.706;  -39.350; -384.000; -558.000
353.839;   -9.800; -264.000; -220.000
353.971;  -98.375; -657.000; -512.000
354.104;  -83.425; -896.000; -835.000
354.237;  -28.925; -627.000; -662.000
354.370;  -81.200; -846.000; -879.000
354.503; -179.125;-1231.000;-1308.000
354.636;  -30.375; -529.000; -348.000
354.769; -126.550; -937.000; -860.000
354.902;  -10.075; -230.000; -139.000
355.034;  -11.975; -164.000; -220.000
355.167;  -13.250; -262.000; -162.000
355.300;  -88.625;-1061.000; -880.000
355.433;  917.775;  -71.000;  -14.000
355.565; 1395.475; -402.000; -384.000
355.698;  352.625; -356.000; -296.000
355.831;   22.475; -882.000; -801.000
355.964;   99.825; -285.000; -170.000
356.096;  -72.675; -856.000; -843.000
356.229;   10.250; -523.000; -530.000
356.362;  312.675; -373.000; -266.000
356.494;  564.550; -229.000; -162.000
356.627;  566.700;  269.000;  377.000
356.760;  641.825;  120.000;   53.000
356.892;  885.325; -286.000; -601.000
357.025;  776.550;  403.000;  389.000
357.157;  727.475; -167.000; -179.000
357.290;  592.500; -856.000; -713.000
357.423;  181.900; -667.000; -556.000
357.555;  130.275; -217.000; -228.000
357.688;  165.200; -483.000; -364.000
357.820;  538.025; -870.000; -877.000
357.953; 4281.300; -563.000; -589.000
358.085;  976.325; -632.000; -612.000
358.218; 1531.050;-1131.000; -932.000
358.350;  251.325;  -58.000;  312.000
358.483; -105.275;-1300.000;-1187.000
358.615;   11.675;-1182.000;-1078.000
358.747;  -33.000;-1187.000;-1058.000
358.880;   51.975; -810.000; -744.000
359.012;    0.000; -376.000; -202.000
359.145;  -36.400; -480.000; -511.000
359.277;   97.950; -962.000; -913.000
359.409; 3629.800;  536.000;  231.000
359.542;  949.250; -738.000; -688.000
359.674;   74.225;   46.000;   13.000
359.806;  -65.575; -565.000; -438.000
359.939;  -55.625; -617.000; -516.000
360.071;  -18.800; -583.000; -579.000
360.203;  -13.350; -411.000; -364.000
360.335;   64.050;  164.000;  -16.000
360.468;  223.675; -249.000; -307.000
360.600; 2808.550; -547.000; -454.000
360.732; 2642.600; -546.000; -423.000
360.864;  360.575;-1216.000;-1044.000
360.996;  351.900; -516.000; -554.000
361.129;   66.575; -389.000; -598.000
361.261;   27.650;  110.000; -113.000
361.393;  -19.100; -252.000; -214.000
361.525;   37.200;   94.000;  244.000
361.657;  -18.025; -821.000; -703.000
361.789;   23.725; -139.000; -155.000
361.921;  308.725; -642.000; -593.000
362.053;  305.075;  524.000;  541.000
362.185;   57.325;  288.000;   72.000
362.318;  -60.575; -709.000; -705.000
362.450;  163.600;  294.000;  444.000
362.582;  188.250; -913.000; -870.000
362.714;  -18.425; -353.000; -332.000
362.846;  -79.300; -606.000; -490.000
362.978; -134.275; -941.000; -811.000
363.109;   67.200; -161.000; -260.000
363.241;  555.275; -739.000; -749.000
363.373;  407.900; -649.000; -564.000
363.505;  616.350; -186.000;  -91.000
363.637;  131.975; -787.000; -601.000
363.769; -107.600;-1067.000;-1080.000
363.901;  -57.275; -596.000; -654.000
364.033; -105.175;-1103.000;-1062.000
364.165;   -1.200; -283.000; -283.000
364.296;   63.900; -316.000; -177.000
364.428;   41.000;-1344.000;-1220.000
364.560;  -75.375; -679.000; -661.000
364.692;  -54.600; -738.000; -835.000
364.824;  372.175; -588.000; -456.000
364.955;  447.975; -402.000; -564.000
365.087;  805.800;-1097.000; -852.000
365.219;   32.675; -686.000; -816.000
365.351;  -60.825; -526.000; -572.000
365.482;   54.800;  300.000;  240.000
365.614;  -32.150; -402.000; -314.000
365.746; -107.075; -729.000; -752.000
365.877; -105.775; -706.000; -672.000
366.009;  220.050;  -35.000;  -62.000
366.141;  -99.075;-1249.000;-1134.000
366.272; -112.250; -803.000; -719.000
366.404; -106.000;-1005.000; -874.000
366.535;  -16.925; -139.000;  -12.000
366.667;  -90.650; -644.000; -649.000
366.799;   39.200;  353.000;  203.000
366.930; -101.000; -862.000; -996.000
367.062;  128.175; -639.000; -613.000
367.193;  123.875; -872.000; -842.000
367.325;  -61.100; -580.000; -684.000
367.456;  100.525; -246.000;   31.000
367.588;  156.825; -371.000; -318.000
367.719;   16.425;  -44.000;  -45.000
367.851;  -19.675; -222.000; -241.000
367.982;  -25.300; -875.000; -732.000
368.113;  149.675; -475.000; -358.000
368.245; -122.000; -960.000; -841.000
368.376;  -19.775; -254.000; -302.000
368.508;  -23.875; -188.000; -263.000
368.639; -131.875;-1166.000;-1034.000
368.770;    1.325; -670.000; -589.000
368.902;  -51.475; -836.000; -926.000
369.033;  -95.950; -906.000; -855.000
369.164;  -31.200; -720.000; -653.000
369.296; -113.600; -452.000; -601.000
369.427;    1.525; -209.000; -144.000
369.558;  -42.350; -593.000; -377.000
369.689;  -73.025; -721.000; -569.000
369.821; -143.575; -951.000; -845.000
369.952;  -25.500;   42.000; -108.000
370.083;  -44.925; -229.000; -108.000
370.214;  -74.775; -735.000; -650.000
370.345;    1.650;   65.000;   81.000
370.477;  -72.925; -810.000; -790.000
370.608;  305.625; -328.000; -264.000
370.739;  -28.425;-1233.000;-1292.000
370.870;  -27.625;-1102.000; -923.000
371.001;  124.575; -378.000; -467.000
371.132;  -75.325; -754.000; -735.000
371.263;  -24.300;  -42.000; -148.000
371.394; -135.200; -841.000; -748.000
371.525;   31.600;  345.000;  225.000
371.657;  -82.800; -808.000; -670.000
371.788;   83.875;  103.000;  199.000
371.919;  235.175; -384.000; -304.000
372.050; 4402.550;  -91.000; -156.000
372.181; 1285.675; -188.000; -294.000
372.311;  466.150;   42.000; -127.000
372.442;   58.450; -457.000; -451.000
372.573;   -9.200; -444.000; -340.000
372.704; -117.800;-1008.000; -980.000
372.835;  116.675; -228.000; -289.000
372.966;  -42.400; -646.000; -554.000
373.097;  -62.875; -575.000; -711.000
373.228;  -18.850; -717.000; -542.000
373.359;  194.525; -824.000; -536.000
373.490; 1185.600; -881.000; -727.000
373.620; 1423.700;-1001.000; -803.000
373.751; 2244.600; -332.000; -396.000
373.882;  973.225; -663.000; -733.000
374.013;   97.950; -449.000; -262.000
374.143;  -31.100; -581.000; -659.000
374.274;  -97.025; -987.000; -908.000
374.405;  215.250; -388.000; -276.000
374.536;  556.950; -526.000; -387.000
374.666; 1405.350; -759.000; -807.000
374.797;  324.725; -817.000; -868.000
374.928; 1094.675; -710.000; -560.000
375.058; 1124.550; -535.000; -500.000
375.189;  101.750;  -59.000;  -93.000
375.320;  -95.550; -928.000;-1034.000
375.450;  -50.600; -625.000; -616.000
375.581;  -41.300; -526.000; -436.000
375.712;  -25.050; -574.000; -250.000
375.842;  396.400; -438.000; -415.000
375.973;  279.400; -554.000; -513.000
376.103;  -20.625; -665.000; -648.000
376.234;  -75.750; -531.000; -552.000
376.364;    1.125; -944.000; -867.000
376.495;  380.225;  925.000;  529.000
376.625;   14.675; -472.000; -485.000
376.756;   95.800; -709.000; -678.000
376.886;  -62.050;-1178.000;-1026.000
377.017;   28.425;-1048.000;-1061.000
377.147;  286.450; -786.000; -782.000
377.278;   60.875;  174.000;  228.000
377.408; -120.400; -801.000; -815.000
377.538; -126.000; -707.000; -693.000
377.669;  -67.125; -537.000; -613.000
377.799;  -87.700; -645.000; -635.000
377.929;  -51.650; -610.000; -428.000
378.060; -130.200; -781.000; -847.000
378.190;  -48.825; -726.000; -531.000
378.320;  -48.425; -401.000; -406.000
378.451;    3.200; -131.000;  -22.000
378.581;   -4.125;  -67.000; -110.000
378.711;  180.900; 1035.000;  866.000
378.841;   -1.275; -533.000; -675.000
378.972;  -58.375; -871.000; -751.000
379.102;   19.225; -652.000; -579.000
379.232;  -15.225; -126.000;  -73.000
379.362;  -83.325;-1001.000; -885.000
379.492;   40.175; -373.000; -424.000
379.623;  128.650;    0.000;  111.000
379.753;  -86.375;-1107.000; -974.000
379.883;  237.525;   59.000;  156.000
380.013;   50.900;-1081.000;-1017.000
380.143; -111.700;-1097.000;-1056.000
380.273;  -88.375; -985.000; -861.000
380.403;   13.275; -344.000; -257.000
380.533;  -18.150; -651.000; -664.000
380.663;   91.325;  173.000;  128.000
380.793;  -71.500;-1027.000;-1074.000
380.923;  -24.900; -103.000;  -34.000
381.053;  -84.675; -613.000; -623.000
381.183;  -29.400; -106.000; -248.000
381.313;   68.400; -656.000; -470.000
381.443;   54.225; -692.000; -473.000
381.573;  278.925; -402.000; -409.000
381.703;  393.400;-1249.000;-1095.000
381.833; -122.650;-1454.000;-1336.000
381.963;  117.900; -134.000;  -87.000
382.093; 1668.500; -925.000; -909.000
382.223;  511.825; -713.000; -602.000
382.353;    5.350; -801.000; -608.000
382.482;  493.350;-1091.000; -964.000
382.612;  959.100; -872.000; -644.000
382.742;  539.025; -695.000; -622.000
382.872;  358.250; -565.000; -551.000
383.002;   75.900;  347.000; -132.000
383.131;  -11.250; -226.000; -160.000
383.261;  -47.300; -706.000; -768.000
383.391;  309.950; -552.000; -377.000
383.521; 2955.775;  451.000;  263.000
383.650;  641.825; -947.000; -904.000
383.780;  -30.025; -783.000; -656.000
383.910;  112.250;  880.000;  802.000
384.039;   54.225; -794.000; -656.000
384.169;  302.000;-1205.000;-1017.000
384.299;   -8.075; -650.000; -662.000
384.428;  -88.325; -764.000; -680.000
384.558;  -59.675; -308.000; -275.000
384.687;  -26.675; -414.000; -334.000
384.817;    4.150;   75.000;   -2.000
384.947;   53.150; -234.000; -141.000
385.076;  323.300;  982.000;  912.000
385.206;  123.000;  369.000;  480.000
385.335;  -39.075; -549.000; -417.000
385.465;  -59.725; -655.000; -663.000
385.594;  164.250;  -53.000;  -44.000
385.724;  567.450; -868.000; -838.000
385.853;  160.875; -296.000; -270.000
385.982; 1676.175; -743.000; -787.000
386.112; 2609.975;-1052.000; -871.000
386.241;  183.200; -307.000; -312.000
386.371;   27.450; -174.000;  -87.000
386.500;   21.775; -825.000; -789.000
386.629;   35.300; -874.000; -817.000
386.759;   66.275;  -43.000;   68.000
386.888;  -18.125; -170.000; -250.000
387.017;  -64.325; -648.000; -620.000
387.147;  -81.550; -771.000; -798.000
387.276;   30.500; -410.000; -397.000
387.405;   22.250; -398.000; -342.000
387.535;  -32.250; -452.000; -361.000
387.664;  -63.450; -692.000; -620.000
387.793;   77.575; -198.000; -113.000
387.922;  648.850;  255.000;  200.000
388.052;   45.650; -576.000; -423.000
388.181;   37.050; -342.000; -472.000
388.310;   41.875; -889.000; -710.000
388.439;  -26.725; -749.000; -742.000
388.568;  235.275;  365.000;  244.000
388.697; 1334.075; -756.000; -653.000
388.826;  279.525; -768.000; -666.000
388.956;   82.000; -285.000; -307.000
389.085;  -30.625; -347.000; -287.000
389.214; -120.200; -842.000; -872.000
389.343;  -58.700; -645.000; -413.000
389.472;  375.875;  126.000;  149.000
389.601;  516.425;   91.000;    0.000
389.730;   31.175; -568.000; -687.000
389.859;   79.925;  226.000;   46.000
389.988;  243.850; -423.000; -408.000
390.117;  196.275; -168.000; -146.000
390.246;    0.750; -331.000; -320.000
390.375;  155.800; -673.000; -626.000
390.504;  -58.425; -703.000; -621.000
390.633;  -84.175; -672.000; -726.000
390.761;  -56.925; -732.000; -645.000
390.890;   48.650;   -4.000; -130.000
391.019;  -26.550; -421.000; -441.000
391.148; -130.775; -826.000; -855.000
391.277;  -68.850; -576.000; -493.000
391.406;  -61.775; -821.000; -805.000
391.534;   20.125;  574.000; -301.000
391.663;  -52.850; -583.000; -645.000
391.792;  -88.250; -673.000; -701.000
391.921;  132.150;   -3.000;   15.000
392.050;  258.200; -287.000; -228.000
392.178;  -16.500;-1206.000;-1061.000
392.307;  219.225; -758.000; -712.000
392.436;   99.925; -427.000; -641.000
392.564;   25.200;  166.000;   -6.000
392.693;  -91.000; -860.000; -682.000
392.822;  281.550; -529.000; -534.000
392.950;  141.950; -880.000; -714.000
393.079;  395.650; -188.000; -328.000
393.208;   48.400; -488.000; -511.000
393.336;  -25.125; -170.000; -145.000
393.465;  -48.975; -317.000; -199.000
393.593;    1.700;   62.000;   79.000
393.722; -156.625;-1121.000; -916.000
393.850;  -39.050; -188.000;  -61.000
393.979; -160.000; -926.000; -805.000
394.107;  -70.875; -517.000; -537.000
394.236;  -14.575; -570.000; -507.000
394.364;  202.475;  383.000;  206.000
394.493;  303.500; -911.000; -767.000
394.621;  -34.900; -955.000; -916.000
394.750;  666.875; -873.000; -923.000
394.878; 2750.325; -247.000; -149.000
395.007; 3695.450; -721.000; -807.000
395.135;  270.150; -790.000; -721.000
395.263;  -83.425;-1038.000;-1040.000
395.392;   10.225;  -25.000; -107.000
395.520; -134.925; -818.000; -679.000
395.648;  -82.150; -865.000; -915.000
395.777;   12.300; -366.000; -405.000
395.905;  -55.875; -449.000; -564.000
396.033;   18.300;  217.000;  172.000
396.162;  551.500; -399.000; -453.000
396.290;  470.225;  -17.000;   -2.000
396.418;  148.675; -555.000; -514.000
396.546;  -72.600; -571.000; -466.000
396.674;  -97.350; -850.000; -878.000
396.803;    8.700;  -72.000;  -23.000
396.931;  130.475; -179.000; -199.000
397.059;   97.475;-1026.000; -989.000
397.187; -102.950;-1026.000; -975.000
397.315; -140.625; -884.000; -649.000
397.443; -103.700; -592.000; -443.000
397.572;  -94.600; -578.000; -424.000
397.700;   17.000; -607.000; -614.000
397.828;   32.250;  120.000;  -90.000
397.956;  -50.950; -508.000; -478.000
398.084;  -69.450; -767.000; -626.000
398.212;   37.350;  137.000;  124.000
398.340;   21.375;  -56.000;  159.000
398.468;   46.750; -390.000; -169.000
398.596; -113.925; -993.000; -953.000
398.724; -112.625; -762.000; -767.000
398.852; -162.700;-1024.000; -976.000
398.980;  -50.025; -560.000; -560.000
399.108;  -35.700; -982.000; -735.000
399.236;   36.800;   13.000;    8.000
399.363;   20.900;  222.000;  196.000
399.491;  -67.300; -404.000; -398.000
399.619; -127.025; -829.000; -800.000
399.747; -103.700; -859.000; -771.000
399.875;   91.825;  220.000;  234.000
400.003;  -45.275; -359.000; -284.000
400.130;  -92.100; -421.000; -341.000
400.258;  -56.050;  -83.000;   38.000
400.386;  -67.350; -352.000; -168.000
400.514;  -41.050; -526.000; -587.000
400.641;  -70.050; -928.000; -802.000
400.769; -147.325; -979.000; -888.000
400.897; -105.250; -838.000; -793.000
401.025;  -25.125; -166.000; -152.000
401.152;   10.175;  220.000;   38.000
401.280;  -85.125; -430.000; -429.000
401.408; -115.125; -712.000; -576.000
401.535; -110.475; -735.000; -758.000
401.663; -194.300;-1134.000;-1054.000
401.790;  -91.175; -514.000; -525.000
401.918;   35.125;  436.000;  405.000
402.046;  -22.675;  134.000;  122.000
402.173;  -27.875;  -18.000;    7.000
402.301;  -76.475; -519.000; -397.000
402.428;   30.725;  528.000;  383.000
402.556; -149.625;-1188.000; -913.000
402.683;  -38.475;  -20.000;   -1.000
402.811;  -24.725;  -37.000; -206.000
402.938;  -13.350;   20.000;   27.000
403.066;  251.900; -574.000; -558.000
403.193;  400.125;  299.000;  239.000
403.321;  334.075; -396.000; -574.000
403.448;  393.450;   83.000;   27.000
403.575;  182.050;  -90.000;  -46.000
403.703;  -92.900; -732.000; -557.000
403.830;  -65.700; -531.000; -496.000
403.957; -136.800;-1117.000;-1023.000
404.085;    8.350;  -61.000; -172.000
404.212;  118.250;  -50.000;   63.000
404.339;  247.075; -566.000; -306.000
404.467; 5428.325; -612.000; -524.000
404.594; 3764.675; -287.000; -227.000
404.721;  954.500; -869.000; -764.000
404.848;   85.150; -113.000; -202.000
404.976; -114.700; -856.000; -783.000
405.103;   -7.375;  -14.000;  -82.000
405.230;   10.700;  190.000;  226.000
405.357;   36.925;  117.000;   44.000
405.484;  241.650;  -49.000;    5.000
405.612;   38.625; -548.000; -563.000
405.739;  -40.575; -488.000; -243.000
405.866;   81.400;  669.000;  385.000
405.993;  -40.150; -398.000; -102.000
406.120; -133.500; -801.000; -887.000
406.247;  -60.750; -323.000; -342.000
406.374;  559.400;  540.000;  629.000
406.501;  160.675; -632.000; -702.000
406.628;  -79.425; -621.000; -589.000
406.755;  -88.350; -803.000; -620.000
406.882;  -42.925; -228.000; -277.000
407.009; -108.800; -719.000; -628.000
407.136;   91.050; -480.000; -401.000
407.263;  184.625; -939.000; -829.000
407.390;  -80.550; -692.000; -614.000
407.517; -163.175;-1139.000;-1187.000
407.644;  -75.850; -332.000; -256.000
407.771;  -55.225; -249.000; -287.000
407.898;    9.250;  168.000;  328.000
408.025;  -76.350; -421.000; -313.000
408.151;   -7.350;   82.000;  153.000
408.278;  -74.675; -267.000; -216.000
408.405; -121.250; -931.000; -899.000
408.532;  -72.800; -549.000; -542.000
408.659; -124.975; -677.000; -648.000
408.785; -206.025;-1298.000;-1170.000
408.912;  -69.750; -412.000; -296.000
409.039;  -97.000; -610.000; -686.000
409.166; -111.875; -591.000; -555.000
409.292; -101.725; -571.000; -534.000
409.419; -131.350; -665.000; -649.000
409.546;  -95.350; -431.000; -192.000
409.672; -113.575; -713.000; -545.000
409.799;  -25.475;  -36.000;   34.000
409.926;  -51.875; -180.000; -179.000
410.052; -170.050;-1127.000;-1091.000
410.179;  -61.175; -368.000; -392.000
410.305;  -79.175; -375.000; -493.000
410.432;  -52.900; -220.000; -333.000
410.558;  -92.525; -305.000; -380.000
410.685; -113.850; -688.000; -431.000
410.812; -105.850; -409.000; -588.000
410.938; -134.300; -964.000; -808.000
411.065; -100.675; -671.000; -645.000
411.191;  -18.125; -189.000; -174.000
411.317; -108.600; -823.000; -742.000
411.444;  -72.525; -317.000; -246.000
411.570;  -65.375; -339.000; -294.000
411.697; -133.975; -758.000; -752.000
411.823; -168.525; -989.000; -999.000
411.949;  -28.875;  -56.000;   17.000
412.076; -111.375; -539.000; -519.000
412.202; -123.825; -758.000; -757.000
412.329; -125.875; -798.000; -752.000
412.455; -115.075; -821.000; -657.000
412.581;  -18.325;  -15.000;  172.000
412.707;  -59.800; -540.000; -457.000
412.834;   19.125;  156.000;  219.000
412.960;  -92.275; -785.000; -784.000
413.086; -103.650; -743.000; -701.000
413.212;  166.875;  604.000;  578.000
413.339;  -61.900; -685.000; -701.000
413.465;   13.900; -364.000; -310.000
413.591;  -77.150; -757.000; -474.000
413.717;  -72.000; -358.000; -366.000
413.843; -132.275; -839.000; -861.000
413.969;  -56.150;  -47.000; -292.000
414.096; -101.350; -679.000; -679.000
414.222;   -7.875;  -33.000;   85.000
414.348;  -14.450; -652.000; -385.000
414.474;  129.650;   38.000;  -52.000
414.600;  -13.800; -126.000; -144.000
414.726;  -26.525;  -96.000;  -55.000
414.852;  -68.500; -365.000; -342.000
414.978;   36.175;  104.000;  -18.000
415.104;   43.400;   38.000;   80.000
415.230;   29.975; -329.000; -330.000
415.356;   53.300; -409.000; -514.000
415.482;  199.050;   13.000;  -35.000
415.608;  252.900; -247.000; -323.000
415.734;  938.475;   67.000;   38.000
415.860;19451.450; -875.000; -767.000
415.986;13727.675; -685.000; -607.000
416.111; 1156.725; -798.000; -652.000
416.237;  228.225; -424.000; -571.000
416.363; 1080.975; -765.000; -733.000
416.489; 3874.575; -324.000; -251.000
416.615;  383.375; -707.000; -742.000
416.741;  -33.775; -677.000; -784.000
416.866; -108.650; -673.000; -736.000
416.992; -137.725; -801.000; -818.000
417.118;  -44.050;  -41.000;  -80.000
417.244;  -57.775; -798.000; -531.000
417.369;  -79.625; -801.000; -612.000
417.495;    3.050; -325.000; -254.000
417.621;  -74.750;-1015.000; -803.000
417.746;   -7.800; -579.000; -572.000
417.872;   46.525; -254.000; -144.000
417.998;   45.200; -515.000; -530.000
418.123; 1000.925;-1073.000; -845.000
418.249; 5083.825; -512.000; -601.000
418.374;  664.375; -916.000; -824.000
418.500;   99.750; -383.000; -482.000
418.626;  102.250;   70.000;  -59.000
418.751;  108.200; -549.000; -448.000
418.877;  188.400; -637.000; -643.000
419.002; 1719.050; -688.000; -560.000
419.128;11851.200; -930.000; -721.000
419.253; 2785.225; -967.000; -837.000
419.379;  353.500; -391.000; -338.000
419.504;  372.325;  325.000;  415.000
419.629;  483.875; -393.000; -212.000
419.755; 3357.775; -317.000; -254.000
419.880;19349.425;  -98.000;   67.000
420.006;10831.400; -280.000; -221.000
420.131;27734.350; -662.000; -775.000
420.256; 3926.775; -315.000; -316.000
420.382;  507.925; -665.000; -687.000
420.507;   61.200; -649.000; -778.000
420.632;  180.125; -337.000; -339.000
420.758;  320.425; -251.000; -425.000
420.883;  -80.625; -876.000; -672.000
421.008; -101.925; -775.000; -619.000
421.133;  -79.275; -509.000; -467.000
421.259;  -53.800; -325.000; -259.000
421.384; -110.475; -834.000; -693.000
421.509;  -28.750;-1052.000; -862.000
421.634; 1538.450; -936.000; -820.000
421.759;  636.575; -359.000; -327.000
421.885;  -27.100; -717.000; -656.000
422.010;  -82.850; -673.000; -542.000
422.135; -136.400; -695.000; -727.000
422.260;   47.100;  340.000;  280.000
422.385;  -32.000;   12.000;  -98.000
422.510;    3.950;  151.000;  -26.000
422.635;   18.450;  -87.000;  -43.000
422.760;  128.550; -766.000; -791.000
422.885;   57.375;  -57.000;  -80.000
423.010;  -33.425; -112.000; -169.000
423.135; -102.175; -481.000; -561.000
423.260;  -20.775; -150.000; -245.000
423.385;   80.550;  476.000;  222.000
423.510;   39.075;   71.000;  -22.000
423.635;  111.325;  133.000;   45.000
423.760;   49.625;  383.000;  328.000
423.885;   60.500;  336.000;  391.000
424.010;   23.550;  -68.000;  -13.000
424.135;  -27.800;    5.000;  -33.000
424.259;  -83.200; -654.000; -457.000
424.384;  -57.000; -279.000; -272.000
424.509;  -37.325; -260.000; -186.000
424.634;  -89.800; -761.000; -623.000
424.759;  -27.025; -688.000; -544.000
424.883;   -9.575; -506.000; -527.000
425.008;  174.025; -502.000; -410.000
425.133; 1911.050; -679.000; -653.000
425.258;  864.375; -517.000; -381.000
425.382; 1255.200; -867.000; -774.000
425.507; 3132.525; -487.000; -543.000
425.632;  462.075; -802.000; -663.000
425.756;  448.750; -256.000; -146.000
425.881; 6035.075; -831.000; -857.000
426.006;15805.825; -604.000; -355.000
426.130; 2496.925; -696.000; -508.000
426.255;  308.675; -611.000; -491.000
426.379;  151.700; -189.000; -577.000
426.504;  361.300;  660.000;  544.000
426.629; 3955.675; -519.000; -466.000
426.753; 2645.550;   64.000;  -46.000
426.878;  311.675; -252.000; -288.000
427.002;  164.825; -651.000; -668.000
427.127; 1585.800;  -35.000; -158.000
427.251;10774.800;  372.000;  401.000
427.375; 3015.000; -191.000; -173.000
427.500; 2678.000; -616.000; -610.000
427.624;  907.300; -234.000; -400.000
427.749;  117.000; -216.000; -225.000
427.873;  -42.625; -499.000; -412.000
427.997;  -37.225; -222.000; -230.000
428.122;   74.975;  795.000;  703.000
428.246;   70.000;  433.000;  434.000
428.371; -115.950; -869.000; -773.000
428.495; -109.525; -624.000; -646.000
428.619;  -35.050; -186.000; -117.000
428.743;   28.825;   65.000;  132.000
428.868;   45.925; -732.000; -643.000
428.992; 1712.875; -219.000; -326.000
429.116;  700.825; -329.000; -357.000
429.240;  332.250;  419.000;  426.000
429.365;    1.550; -454.000; -574.000
429.489;  -40.325; -638.000; -647.000
429.613;    7.525; -236.000; -177.000
429.737;   29.275; -563.000; -432.000
429.861;  268.050; -247.000; -133.000
429.985; 5388.900; -425.000; -305.000
430.109; 5728.975; -770.000; -908.000
430.234;  650.725;   76.000;  -50.000
430.358;   54.900; -250.000; -160.000
430.482;  -83.375; -672.000; -564.000
430.606;  -70.525; -655.000; -375.000
430.730;   48.050; -437.000; -388.000
430.854;  182.925; -909.000; -835.000
430.978;  -65.600; -795.000; -764.000
431.102;  -86.175; -499.000; -422.000
431.226; -116.675; -874.000; -815.000
431.350;   16.400;  345.000;  422.000
431.474;  -67.550; -661.000; -373.000
431.597; -149.150;-1060.000; -848.000
431.721;  -92.150; -276.000; -267.000
431.845; -120.250; -704.000; -472.000
431.969;  -85.900; -304.000; -349.000
432.093;  -90.375; -395.000; -317.000
432.217;  -18.925;   32.000;   82.000
432.341;  -97.975; -523.000; -518.000
432.464;    2.600;   96.000;   40.000
432.588;  268.425; -401.000; -329.000
432.712;  103.600;  -52.000;  -52.000
432.836;   52.300;  213.000;  263.000
432.959;  -33.700; -372.000; -311.000
433.083;   59.550;   11.000;    2.000
433.207;  338.325;  285.000;  930.000
433.330; 4812.750; -391.000; -200.000
433.454; 5745.925; -654.000; -638.000
433.578; 3376.200;  583.000;  278.000
433.701;  612.800; -623.000; -675.000
433.825;  169.675; -292.000; -299.000
433.949;  238.525;   28.000;  -72.000
434.072;   65.050; -410.000; -323.000
434.196;  -13.950; -309.000; -117.000
434.319; 3789.575;25482.000;25124.000
434.443;  737.175; -656.000; -603.000
434.566; 2533.950;  281.000;   62.000
434.690;  382.975; -637.000; -383.000
434.813;   28.425; -251.000; -173.000
434.937;  -81.150; -569.000; -696.000
435.060;  -20.075; -423.000; -332.000
435.184;  453.700; -492.000; -217.000
435.307;  225.200;  159.000;  102.000
435.431;  -16.600;  -40.000;   24.000
435.554;  -85.350; -399.000; -240.000
435.677;  -89.150; -350.000; -258.000
435.801;  -44.950;  -25.000;   49.000
435.924;  -10.600;    1.000;  -67.000
436.048;  -95.550;-1019.000; -732.000
436.171;  -58.700; -240.000;  -66.000
436.294;  -40.875; -248.000; -229.000
436.417;   75.975; -963.000; -849.000
436.541;  -89.400; -814.000; -840.000
436.664;  -47.300; -242.000; -316.000
436.787;  -30.900;   13.000;  113.000
436.910; -117.700; -792.000; -422.000
437.034;   17.100;  142.000;  143.000
437.157;   79.250;  -11.000;    0.000
437.280;  -31.500; -392.000; -292.000
437.403;  -75.075; -982.000; -869.000
437.526;  884.150; -903.000; -865.000
437.649; 2980.075; -505.000; -332.000
437.772;  464.000; -692.000; -540.000
437.896;  135.850;  700.000;  544.000
438.019; -102.700; -758.000; -503.000
438.142;  -81.600; -596.000; -506.000
438.265;    9.600; -639.000; -670.000
438.388;  721.625; -520.000; -410.000
438.511;  142.350; -597.000; -394.000
438.634;  -39.325; -247.000; -125.000
438.757; -146.250; -693.000; -619.000
438.880;  -18.775;  -34.000;  -57.000
439.003;  -77.625; -417.000; -437.000
439.126;  -60.050; -287.000; -167.000
439.248;  -67.400;  -98.000; -139.000
439.371;  -40.250;    9.000;  -53.000
439.494;   25.325;  510.000;  439.000
439.617;  -63.025;   65.000;  -88.000
439.740; -185.300; -968.000; -816.000
439.863; -146.575; -755.000; -595.000
439.986; -130.650; -476.000; -431.000
440.108;  -52.300; -161.000; -112.000
440.231; -159.800; -950.000; -836.000
440.354;  -20.350;  -64.000; -150.000
440.477;   72.425; -566.000; -542.000
440.599;    0.625; -200.000; -225.000
440.722; -124.375; -709.000; -586.000
440.845;   53.375;  751.000;  928.000
440.968; -114.000; -415.000; -311.000
441.090;  -75.500; -199.000;  -33.000
441.213; -173.100;-1021.000; -825.000
441.336;  -61.500; -159.000;   -5.000
441.458;  -70.475; -549.000; -396.000
441.581;  -73.100; -628.000; -629.000
441.703;  -67.350; -152.000;   13.000
441.826; -121.025; -557.000; -400.000
441.948;  -55.375;   56.000;   51.000
442.071;   18.250;  555.000;  424.000
442.193; -113.425; -531.000; -485.000
442.316;   17.850;  152.000;   97.000
442.438;   43.150; -233.000;  -10.000
442.561;   76.525;  272.000;  262.000
442.683;  750.825; -809.000; -522.000
442.806; 1509.825;   -8.000;   74.000
442.928;   66.675; -859.000; -604.000
443.051;  -55.225; -577.000; -373.000
443.173;  -93.575; -341.000; -339.000
443.295; -102.350; -263.000; -371.000
443.418;  -70.875; -321.000;  -29.000
443.540;   -2.625; -106.000;   -4.000
443.662; -113.675; -563.000; -465.000
443.785;  -10.150;  335.000;  199.000
443.907;  -92.375; -362.000; -208.000
444.029; -137.425; -767.000; -494.000
444.152; -145.175; -644.000; -554.000
444.274;  -40.375;  -18.000;  -24.000
444.396;  -96.000; -461.000; -221.000
444.518; -139.925; -691.000; -454.000
444.640; -130.075; -268.000; -111.000
444.763;  -24.225;  388.000;  249.000
444.885; -119.100; -432.000; -392.000
445.007;  -36.900;   35.000;   86.000
445.129; -132.450; -610.000; -515.000
445.251; -112.625; -372.000; -439.000
445.373; -153.025; -537.000; -386.000
445.495;    0.750;  242.000;  350.000
445.617;   55.650;  853.000;  753.000
445.739;  -63.325; -215.000;  -97.000
445.861;  -21.550; -245.000; -112.000
445.984;  -26.400; -267.000; -101.000
446.105;  287.850; -418.000; -251.000
446.227;  772.975; -176.000;  -19.000
446.349;   26.775; -358.000; -249.000
446.471; -105.950; -615.000; -448.000
446.593;  -57.550; -316.000;   19.000
446.715;    6.275;  -67.000;   41.000
446.837;   64.875;  697.000;  832.000
446.959;  -94.775; -457.000; -478.000
447.081; -131.825; -628.000; -518.000
447.203;   45.675;  862.000;  834.000
447.325; -101.700; -270.000;   42.000
447.446;  -22.700;  286.000;  530.000
447.568; -153.575; -921.000; -803.000
447.690;  -91.100; -236.000; -245.000
447.812; -151.625; -798.000; -519.000
447.933;  -36.800;  155.000;  127.000
448.055;  -63.575; -306.000; -261.000
448.177;  183.325;   31.000;   79.000
448.299;  141.775; -935.000; -727.000
448.420;   21.525;  -25.000;  159.000
448.542;  -38.400;   -3.000;   33.000
448.664;  -29.475;  109.000;  322.000
448.785;  -45.225;  265.000;   83.000
448.907;  -88.250; -614.000; -353.000
449.028;  -11.575; -771.000; -471.000
449.150;   59.375;  492.000;  589.000
449.272; -173.675;-1044.000; -913.000
449.393;   21.475;  612.000;  694.000
449.515; -161.675; -634.000; -581.000
449.636;  -56.500; -264.000; -155.000
449.758;   89.550;  763.000;  622.000
449.879; -102.925; -498.000; -396.000
450.001;  -71.425; -149.000;  -49.000
450.122;  -51.750;  -95.000;  162.000
450.244;  -48.200;   37.000;  364.000
450.365; -111.325; -495.000; -301.000
450.486;  -40.025;   80.000;  268.000
450.608;   18.850;  393.000;  326.000
450.729;   62.375;  578.000;  645.000
450.850;  -11.525; -574.000; -466.000
450.972;  674.725; -552.000; -389.000
451.093; 4515.475;  190.000;  588.000
451.214; 1909.525; -516.000; -337.000
451.336;  301.025;  773.000;  579.000
451.457;   45.300;  264.000;  393.000
451.578;  -54.425; -118.000;  -74.000
451.699; -145.550; -546.000; -540.000
451.821;  -67.925; -284.000;  -50.000
451.942;    0.025;  278.000;  285.000
452.063;   26.075;  228.000;  419.000
452.184;  531.050;  -54.000;  -49.000
452.305; 1028.250;  103.000;  170.000
452.427;   94.325; -549.000; -301.000
452.548;  -29.025;   23.000;   79.000
452.669;  -40.675; -257.000;  -89.000
452.790;  -47.475;    3.000;  -18.000
452.911;   -8.325;  195.000;  259.000
453.032;  -71.675; -289.000;  -60.000
453.153;  -32.275;  -29.000;   81.000
453.274;   58.975;  737.000;  868.000
453.395;  -52.200;  -51.000;  175.000
453.516;  143.925; 1317.000; 1388.000
453.637;  -64.675; -205.000; -150.000
453.758;  -81.325;   15.000;   69.000
453.879; -123.750; -462.000; -250.000
454.000;   72.625; 1086.000;  948.000
454.121; -129.725; -554.000; -326.000
454.242; -129.425; -599.000; -383.000
454.362;  -58.075;  -99.000;  114.000
454.483;  -51.500; -309.000; -229.000
454.604;   65.950;  512.000;  580.000
454.725; -132.750; -627.000; -555.000
454.846; -128.525; -474.000; -406.000
454.967;  -22.150;  230.000;  539.000
455.087;  -44.050;  179.000;  153.000
455.208;    6.950;  554.000;  856.000
455.329;  -60.825;  -22.000;   82.000
455.450;   20.725;  473.000;  633.000
455.570;  -92.750; -234.000; -211.000
455.691;  -49.975;  201.000;  407.000
455.812; -120.000; -270.000;  -92.000
455.932;  -53.475;  107.000;  -97.000
456.053;  -79.275;   36.000;   24.000
456.173; -120.975; -433.000; -355.000
456.294; -147.950; -476.000; -303.000
456.415;  -76.800;  -73.000;   70.000
456.535;  -37.625;  297.000;  273.000
456.656;  -48.125;  132.000;  240.000
456.776;  -74.300;    3.000;  298.000
456.897;    4.500;  308.000;  513.000
457.017;  -86.950; -153.000;   -3.000
457.138; -113.650; -402.000; -249.000
457.258;  -21.625;  263.000;  224.000
457.379;  -22.850;  509.000;  521.000
457.499;  -30.225;  443.000;  432.000
457.620; -124.675; -407.000; -231.000
457.740;  -88.100; -132.000;  -11.000
457.860;  -70.250;   87.000;   44.000
457.981;  -42.425;  132.000;  124.000
458.101;  -87.400;  -89.000;   40.000
458.221;  -28.100;  336.000;  402.000
458.342;  -64.325;   -4.000;  -37.000
458.462;   14.725;  617.000;  352.000
458.582;  -55.400; -302.000; -294.000
458.703;   -7.300;  303.000;  154.000
458.823;  -47.950;   22.000;  163.000
458.943;    2.325;  341.000;  467.000
459.063;  -21.050; 1124.000;  192.000
459.183;  -18.100;  328.000;  313.000
459.304;   -5.950;  315.000;  517.000
459.424;  -63.600; -246.000;  -89.000
459.544;  295.400;  388.000;  764.000
459.664;  746.625;  499.000;  506.000
459.784;  287.425; 1004.000; 1175.000
459.904;   31.175;  867.000;  744.000
460.024;   71.425;  867.000;  684.000
460.144;   14.325;  449.000;  554.000
460.264;   -7.175;  515.000;  327.000
460.385;  -97.700; -145.000; -119.000
460.505;   28.600;  905.000;  858.000
460.625;  -95.350;  -17.000;  -68.000
460.745;  -33.375;  396.000;  541.000
460.864;  -59.500;  153.000;  469.000
460.984;   10.275;  499.000;  573.000
461.104;  126.975; 1656.000; 1775.000
461.224;   11.925;  657.000;  650.000
461.344;  -36.325;  431.000;  360.000
461.464;  -47.800;  258.000;  513.000
461.584;   -0.275;  283.000;  466.000
461.704;  -44.725;   58.000;  108.000
461.824;  -64.450;  238.000;  259.000
461.943;  -55.250;  191.000;  130.000
462.063;  -78.600;    2.000;  324.000
462.183;   28.625;  639.000;  717.000
462.303;   84.275; 1678.000; 1230.000
462.422;   16.350;  781.000;  840.000
462.542;  -49.225;  271.000;  391.000
462.662;   26.325;  353.000;  380.000
462.782;  234.750;  833.000;  572.000
462.901;  452.675;  545.000;  717.000
463.021;  254.425; 1702.000; 1638.000
463.141;   -8.400;  337.000;  770.000
463.260;  -18.225;  614.000;  474.000
463.380;    0.000;  902.000;  884.000
463.499;  -52.650;  342.000;  332.000
463.619;  -46.000;  581.000;  559.000
463.738;  124.450; 1644.000;  903.000
463.858;   18.050;  657.000;  811.000
463.978;  -38.800;  542.000;  396.000
464.097;   36.400;  921.000; 1114.000
464.217;  108.550; 1196.000; 1143.000
464.336;  101.025; 1068.000; 1130.000
464.455;  -45.100;  328.000;  659.000
464.575;   42.600;  597.000;  602.000
464.694;  195.175; 1204.000; 1179.000
464.814;  129.500; 1190.000; 1138.000
464.933;   63.525; 1095.000; 1027.000
465.052;   82.725; 1412.000; 1054.000
465.172;   85.250;  922.000;  799.000
465.291;  130.425; 1376.000; 1320.000
465.410;    9.750;  462.000;  735.000
465.530;   80.975; 1355.000; 1310.000
465.649;   62.850; 1209.000; 1273.000
465.768;  138.175; 1673.000; 1508.000
465.888;   42.200;  941.000; 1174.000
466.007;   84.500; 1335.000; 1440.000
466.126;    1.650;  721.000;  641.000
466.245;   35.250; 1176.000; 1187.000
466.364;    5.550;  950.000; 1060.000
466.484;   57.325; 1024.000; 1213.000
466.603;   35.300; 1101.000; 1222.000
466.722;  115.725; 1490.000; 1769.000
466.841;   71.600; 1151.000; 1401.000
466.960;   32.050; 1069.000;  972.000
467.079;  123.850; 1971.000; 1786.000
467.198;   52.725; 1238.000; 1181.000
467.317;   97.400; 1768.000; 1162.000
467.436;   74.375; 1709.000; 1261.000
467.555;  111.725; 1796.000; 1746.000
467.674;   51.875; 1227.000; 1329.000
467.793;   34.050; 1376.000; 1374.000
467.912;   75.825; 1658.000; 1539.000
468.031;  125.575; 2038.000; 1930.000
468.150;  138.550; 1842.000; 1837.000
468.269;  186.575; 2313.000; 2090.000
468.388;  172.700; 2168.000; 2339.000
468.507;  256.875; 2884.000; 2903.000
468.626;  236.075; 2555.000; 2541.000
468.744;  125.125; 2018.000; 2174.000
468.863;  180.875; 2312.000; 2523.000
468.982;   95.750; 1503.000; 1555.000
469.101;  211.150; 2788.000; 2692.000
469.220;  152.900; 2333.000; 2176.000
469.338;  244.450; 2935.000; 3051.000
469.457;  195.325; 2719.000; 2545.000
469.576;  338.825; 3953.000; 3784.000
469.695;  251.775; 2877.000; 3066.000
469.813;  408.350; 4148.000; 4192.000
469.932;  397.950; 4255.000; 4485.000
470.051;  419.950; 4075.000; 4161.000
470.169;  833.950; 4470.000; 4338.000
470.288; 1419.700; 4700.000; 4809.000
470.406;  822.775; 5059.000; 5194.000
470.525;  642.375; 6101.000; 5787.000
470.644;  653.550; 6847.000; 6794.000
470.762;  810.425; 8397.000; 7873.000
470.881;  923.750; 8651.000; 8464.000
470.999; 1033.300; 9685.000; 9151.000
471.118; 1091.775;11174.000;10711.000

