
Integration time [ms]: 100.000
Averaging Nr. [scans]: 40
Smoothing Nr. [pixels]: 0
Data measured with spectrometer [name]: 2101012U2
Wave   ;Sample   ;Dark     ;Reference
[nm]   ;[counts] ;[counts] ;[counts] 

197.733;   55.150;  516.000;  404.000
197.879;  -84.175; -610.000; -634.000
198.025;  -58.900; -475.000; -420.000
198.171;  -74.600; -602.000; -612.000
198.317;  -34.250; -401.000; -316.000
198.463;  -61.475; -655.000; -404.000
198.609;   24.825;  181.000; -137.000
198.755;  -80.150; -644.000; -410.000
198.901;  -58.075; -505.000; -424.000
199.047;  -74.825; -615.000; -488.000
199.193;  -52.525; -230.000; -468.000
199.339;  -33.675; -222.000; -369.000
199.485;   41.850;  330.000;  271.000
199.631;   24.700;  227.000;  310.000
199.777;  -54.300; -466.000; -398.000
199.923;  -63.425; -610.000; -424.000
200.069;   -3.500; -141.000;  -58.000
200.215;   59.800;  128.000;  453.000
200.361;   36.825;  243.000;  477.000
200.507;  -67.250; -600.000; -373.000
200.653;  -24.975; -371.000; -194.000
200.798;  -47.900; -215.000; -125.000
200.944;  -18.300; -146.000;  -41.000
201.090;   39.875;   61.000;  222.000
201.236;   -2.875; -116.000; -158.000
201.382;  130.275;  874.000;  903.000
201.528;    6.475;  -58.000;  -48.000
201.674;  -59.550; -386.000; -293.000
201.819;  -65.475; -540.000; -439.000
201.965;  -81.625; -699.000; -447.000
202.111;  -26.350; -273.000; -226.000
202.257;  -37.425; -250.000; -238.000
202.402;    4.875;   13.000;  -36.000
202.548;  -26.325; -169.000; -116.000
202.694;   80.275;  410.000; -183.000
202.840;  -74.150; -603.000; -531.000
202.985;  -73.775; -681.000; -639.000
203.131; -109.900; -832.000; -666.000
203.277;  -27.550; -199.000; -262.000
203.423;  -55.375; -434.000; -520.000
203.568;  -50.700; -462.000; -237.000
203.714;  -57.825; -535.000; -542.000
203.860;  -82.875; -682.000; -641.000
204.005;   20.000;  112.000;  167.000
204.151;   74.300;  561.000;  556.000
204.296;  -58.525; -354.000; -221.000
204.442;  -89.575; -600.000; -547.000
204.588;  -80.650; -592.000; -579.000
204.733;   12.650;  178.000;  168.000
204.879; -123.800;-1018.000; -822.000
205.025;   10.150;  -99.000;  126.000
205.170;   12.675;  -17.000;   94.000
205.316;   85.600;  438.000;  661.000
205.461;  -80.075; -698.000; -554.000
205.607;   81.550;  609.000;  665.000
205.752;  -78.450; -626.000; -551.000
205.898;  -58.250; -501.000; -391.000
206.043;  -50.650; -578.000; -506.000
206.189;  -43.450; -243.000; -285.000
206.334;   78.450;  554.000;  606.000
206.480;   87.250;  409.000;  239.000
206.625;  -90.725; -529.000; -552.000
206.771;  -34.750; -451.000; -373.000
206.916;  -22.000; -210.000; -537.000
207.062;  -89.400; -545.000; -591.000
207.207;  -66.525; -546.000; -443.000
207.353;   51.225;  185.000;  460.000
207.498;   15.475;  196.000;   85.000
207.643;  -61.325; -501.000; -370.000
207.789; -125.275;-1069.000; -910.000
207.934;  -96.525; -665.000; -713.000
208.080;  -25.800; -154.000;   66.000
208.225;  -10.800;  -22.000;  -57.000
208.370;  -73.500; -727.000; -619.000
208.516;  -77.300; -741.000; -487.000
208.661;  -34.000; -127.000;  -69.000
208.806;  -44.675; -165.000; -171.000
208.952; -122.325;-1044.000; -731.000
209.097;   79.725;  378.000;  349.000
209.242;  -39.175; -307.000; -382.000
209.387;   70.750;  392.000;  350.000
209.533;  -43.225; -321.000; -350.000
209.678;   84.150;  472.000;  543.000
209.823;  -62.450; -408.000; -310.000
209.969; -108.450; -860.000; -757.000
210.114; -106.575; -907.000; -719.000
210.259; -105.275; -939.000; -889.000
210.404;  -11.600; -171.000;  103.000
210.549;    9.425;  108.000;    3.000
210.695;  -22.500;   -3.000;  -95.000
210.840;   24.550;   94.000;   67.000
210.985;  -66.925; -484.000; -303.000
211.130;   79.900;  268.000;  406.000
211.275;   13.350;  207.000;  199.000
211.420;  -52.675; -300.000; -289.000
211.566;  -76.600; -536.000; -489.000
211.711;   24.000;  218.000;  157.000
211.856;  -73.275; -545.000; -519.000
212.001;   12.125;  151.000;   44.000
212.146;   26.300;  153.000;   49.000
212.291;  -25.325; -210.000; -186.000
212.436;  -26.025; -280.000;   -6.000
212.581;  -97.725; -685.000; -653.000
212.726;  -79.275; -487.000; -538.000
212.871;  -43.525; -552.000; -217.000
213.016; -166.275;-1172.000;-1029.000
213.161;   59.925;  406.000;  291.000
213.306;  -87.500; -435.000; -577.000
213.451;  -97.575; -778.000; -689.000
213.596;  -49.975; -455.000; -347.000
213.741;  -51.450; -448.000; -538.000
213.886;  -89.350; -498.000; -517.000
214.031;  -17.850; -294.000; -124.000
214.176;  -49.125; -408.000; -341.000
214.321;  -25.650; -296.000; -157.000
214.466;  -29.425; -163.000;  -43.000
214.611;   -2.950;  -61.000;  -10.000
214.756; -127.275; -948.000; -858.000
214.901;  -33.400; -388.000; -226.000
215.046; -119.625; -797.000; -825.000
215.191;   24.825;  128.000;   35.000
215.336;   -9.525; -157.000;  -19.000
215.480;  -75.100; -684.000; -505.000
215.625;  -16.575; -175.000;  -19.000
215.770;  -89.225; -757.000; -662.000
215.915;    0.075;   -5.000;  -97.000
216.060;   -1.200; -113.000;  -21.000
216.205; -113.875; -731.000; -779.000
216.349;  -67.450; -470.000; -533.000
216.494; -130.700; -939.000; -867.000
216.639; -122.200; -823.000; -888.000
216.784;  -86.025; -577.000; -525.000
216.929;   51.900;  392.000;  281.000
217.073;   -9.850; -244.000;  -31.000
217.218;   -2.975;   78.000;  -47.000
217.363;  -84.900; -656.000; -618.000
217.507;  -92.150; -623.000; -588.000
217.652; -118.900; -845.000; -874.000
217.797; -101.175; -708.000; -659.000
217.942; -117.100; -856.000; -720.000
218.086;   79.675;  608.000;  539.000
218.231;  -16.600; -174.000;  -26.000
218.376;  -29.250; -337.000; -229.000
218.520;   -3.800;  -41.000;   96.000
218.665;  -40.225; -338.000; -204.000
218.810;  -42.575; -275.000; -233.000
218.954;   20.150;  201.000;   35.000
219.099; -127.250; -713.000; -963.000
219.243;  -61.725; -589.000; -554.000
219.388;  -40.125; -264.000; -136.000
219.532;   -8.625; -116.000; -116.000
219.677;  -68.125; -564.000; -521.000
219.822;   13.125;   33.000;   89.000
219.966;    8.000;   17.000;  -99.000
220.111;  -30.500; -328.000;  -40.000
220.255; -107.525; -797.000; -750.000
220.400;  -18.500; -180.000; -146.000
220.544;  -70.975; -516.000; -450.000
220.689;  -56.750; -422.000; -451.000
220.833;  -20.050; -123.000;  -58.000
220.978;  -39.625; -393.000; -563.000
221.122;   16.975;  319.000;  307.000
221.267; -123.675; -906.000; -837.000
221.411;  -64.300; -478.000; -394.000
221.555;   -9.650; -104.000;  -23.000
221.700;  -46.600; -329.000; -222.000
221.844;   27.775;  255.000;  272.000
221.989;  -48.150; -328.000; -311.000
222.133;  -32.200; -289.000; -307.000
222.277;  -14.450;    5.000;   78.000
222.422;   20.200;  227.000;  113.000
222.566;  -41.400; -381.000; -214.000
222.711;  -63.775; -414.000; -479.000
222.855;  -71.075; -643.000; -586.000
222.999;  -89.150; -642.000; -717.000
223.144;  -26.900; -195.000; -194.000
223.288;   37.325;  423.000;  251.000
223.432;   21.675;  184.000;  230.000
223.576;   17.600;  152.000;  -21.000
223.721;   46.700;  364.000;  273.000
223.865;  -72.425; -472.000; -475.000
224.009;  287.825; 1673.000; 1631.000
224.153;  -84.400; -660.000; -671.000
224.298;  -76.450; -531.000; -489.000
224.442;  -25.325;  -74.000;  -33.000
224.586;  -10.400; -169.000; -106.000
224.730;  -99.425; -858.000; -670.000
224.875; -112.350; -739.000; -688.000
225.019;   15.175;  102.000;  188.000
225.163;   68.225;  208.000;  341.000
225.307;   13.800;   97.000;  -91.000
225.451;   59.350;  360.000;  481.000
225.595;   32.000;  264.000;  176.000
225.739;  -19.725; -170.000;  -94.000
225.884;    4.275;   86.000;    5.000
226.028;  -94.850; -760.000; -626.000
226.172;  -38.300; -260.000; -273.000
226.316; -129.150; -941.000; -902.000
226.460;  -78.150; -645.000; -493.000
226.604;  -47.950; -406.000; -400.000
226.748;  -91.950; -836.000; -733.000
226.892;  -36.450; -227.000; -181.000
227.036;  -53.550; -537.000; -447.000
227.180;  -58.950; -551.000; -375.000
227.324;  -59.000; -561.000; -580.000
227.468; -127.450; -819.000; -717.000
227.612;    9.150;  242.000;  -28.000
227.756; -106.825; -845.000; -698.000
227.900;   43.975;  342.000;  441.000
228.044;  -55.950; -509.000; -290.000
228.188;   63.875;  448.000;  568.000
228.332;  -91.825; -546.000; -472.000
228.476;  -37.250; -223.000; -149.000
228.620;  -34.950; -210.000; -150.000
228.764;   75.075;  431.000;  349.000
228.908;  -21.900; -155.000;   30.000
229.052;  -70.975; -615.000; -528.000
229.195;  -24.325; -172.000;   13.000
229.339;  -15.875; -235.000; -305.000
229.483;  -25.200;    5.000; -162.000
229.627;    7.700; -156.000;  139.000
229.771;  -54.125; -218.000; -294.000
229.915;   15.650;  230.000;   79.000
230.059;  -87.775; -648.000; -663.000
230.202;  -38.900; -370.000; -317.000
230.346;   -1.275; -107.000;  107.000
230.490;  -64.050; -489.000; -521.000
230.634; -108.675; -736.000; -553.000
230.777;   72.600;  478.000;  509.000
230.921;  -61.300; -450.000; -359.000
231.065;  -44.075; -246.000; -286.000
231.209;   33.275;  261.000;  265.000
231.352;    9.900;   54.000;   40.000
231.496;   16.775;  568.000;  188.000
231.640;  -81.650; -693.000; -621.000
231.783;   72.050;  546.000;  525.000
231.927;  -39.550; -294.000; -365.000
232.071; -127.775; -962.000; -736.000
232.214; -114.425; -980.000; -764.000
232.358; -109.925; -683.000; -599.000
232.502;   -3.825;  -19.000;    7.000
232.645; -139.050;-1090.000; -927.000
232.789;  -39.975; -257.000; -218.000
232.933;  -45.225; -407.000; -224.000
233.076; -145.050;-1038.000; -897.000
233.220; -114.550; -752.000; -777.000
233.363;  -86.175; -669.000; -477.000
233.507;   58.150;  371.000;  129.000
233.650; -106.875; -764.000; -834.000
233.794;   52.600;  438.000;  461.000
233.938;  -64.325; -530.000; -362.000
234.081;  -26.125;  -93.000;   31.000
234.225;  -77.650; -631.000; -539.000
234.368; -114.550; -773.000; -723.000
234.512;  -36.600; -385.000; -299.000
234.655;  -84.825; -582.000; -555.000
234.798;  -77.525; -493.000; -466.000
234.942; -122.525; -884.000;-1002.000
235.085;  -80.775; -651.000; -443.000
235.229;  -75.100; -405.000; -410.000
235.372;  -49.125; -247.000; -191.000
235.516;  -55.550; -397.000; -321.000
235.659;   22.750;   92.000;  121.000
235.802;  -21.750;  -38.000;  -22.000
235.946;   27.250;  335.000;  215.000
236.089;   27.925;  126.000;  250.000
236.233;   55.700;  275.000;  298.000
236.376;  -50.900; -235.000; -378.000
236.519;  -42.150; -297.000; -319.000
236.663;  -20.175; -215.000; -117.000
236.806; -151.575;-1029.000; -999.000
236.949;   61.400;  543.000;  431.000
237.092;   57.325;  412.000;  391.000
237.236;  -82.225; -589.000; -502.000
237.379;   67.100;  352.000;  428.000
237.522; -123.450; -879.000; -768.000
237.666;  -17.975; -271.000;   18.000
237.809; -136.050; -851.000; -823.000
237.952;   36.075;  469.000;  271.000
238.095;  -73.500; -447.000; -442.000
238.238;   86.300;  688.000;  700.000
238.382;    2.550;  166.000;  103.000
238.525;  -70.150; -598.000; -511.000
238.668; -143.050;-1060.000; -985.000
238.811;  -86.700; -638.000; -643.000
238.954;  -66.950; -483.000; -334.000
239.097;   95.750;  617.000;  664.000
239.241;   25.600;  394.000;  326.000
239.384;  -36.450; -254.000; -214.000
239.527;  -60.675; -424.000; -224.000
239.670; -153.675; -994.000;-1091.000
239.813; -106.700; -696.000; -658.000
239.956;   87.625;  579.000;  473.000
240.099; -115.925; -778.000; -725.000
240.242;   72.800;  428.000;  432.000
240.385;   47.625;  466.000;  450.000
240.528;  -81.700; -706.000; -473.000
240.671;   15.500;  189.000;  134.000
240.814;  -45.550; -441.000; -158.000
240.957; -112.875; -767.000; -578.000
241.100; -106.025; -779.000; -755.000
241.243; -147.350;-1234.000; -893.000
241.386;  -73.600; -508.000; -379.000
241.529;  -81.150; -735.000; -547.000
241.672;  -69.500; -566.000; -495.000
241.815; -124.375; -832.000; -808.000
241.958;  -19.500; -125.000; -182.000
242.101;  -68.925; -545.000; -390.000
242.244;  -33.200; -270.000; -325.000
242.387;  -39.325; -304.000; -246.000
242.530;   61.800;  470.000;  134.000
242.673;  -54.300; -381.000; -309.000
242.815; -126.175; -925.000; -899.000
242.958;  -63.225; -482.000; -381.000
243.101;    2.450;  132.000;  187.000
243.244;  -82.375; -564.000; -521.000
243.387;  -50.850; -313.000; -316.000
243.530; -109.625; -657.000; -674.000
243.672;    1.575;   43.000;  -92.000
243.815;  -54.125; -355.000; -283.000
243.958;   12.725;   98.000;  -26.000
244.101;    5.600;   59.000;  -16.000
244.243;  -16.725;  -47.000;  101.000
244.386; -107.325; -761.000; -630.000
244.529;  -23.725; -132.000; -139.000
244.672; -156.600;-1154.000; -951.000
244.814; -100.000; -621.000; -794.000
244.957;  -62.800; -380.000; -304.000
245.100;  -83.950; -489.000; -489.000
245.242;  -72.950; -387.000; -374.000
245.385;   -5.325;  -59.000;  -39.000
245.528; -125.100; -871.000; -705.000
245.670;   86.675;  612.000;  634.000
245.813;  -96.325; -599.000; -547.000
245.956;  -41.850; -324.000; -275.000
246.098;  -82.450; -508.000; -650.000
246.241;    6.050;  194.000;   48.000
246.383;  -21.175; -119.000;  -73.000
246.526;  -89.425; -454.000; -525.000
246.669; -118.000; -889.000; -780.000
246.811;   14.300;  172.000;   -1.000
246.954;  -47.600; -512.000; -426.000
247.096;  -15.100;  -84.000;   -6.000
247.239;  -73.550; -482.000; -445.000
247.381;  -84.250; -647.000; -488.000
247.524;   84.625;  645.000;  679.000
247.666;  -11.325;   58.000;   11.000
247.809; -124.150; -887.000; -691.000
247.951;  -15.925;  -75.000;  138.000
248.094;   22.000;  432.000;  308.000
248.236; -164.200;-1262.000;-1238.000
248.378;  -43.125; -356.000;  -81.000
248.521;  -61.125; -334.000; -337.000
248.663;  -28.325; -236.000; -267.000
248.806;  -34.275; -300.000; -266.000
248.948; -120.825; -886.000; -763.000
249.090;  -70.150; -428.000; -398.000
249.233;  -79.400; -344.000; -381.000
249.375;  -80.775; -474.000; -451.000
249.518;  -20.350;  -83.000; -133.000
249.660;  -23.925; -103.000;    3.000
249.802; -190.325;-1303.000;-1189.000
249.945;  -84.475; -612.000; -540.000
250.087; -132.400; -834.000; -768.000
250.229;  -58.300; -362.000; -480.000
250.371;  -89.375; -494.000; -439.000
250.514;  -56.200; -310.000; -244.000
250.656;  -48.050;   69.000;  102.000
250.798; -125.625; -849.000; -800.000
250.940;  -75.925; -322.000; -322.000
251.083;  -31.200; -335.000; -111.000
251.225;   61.900;  338.000;  310.000
251.367;  -51.050; -274.000; -373.000
251.509;  -42.825; -265.000; -210.000
251.651; -101.425; -731.000; -671.000
251.794;   45.050;  538.000;  632.000
251.936; -120.250; -821.000; -747.000
252.078;  -86.125; -540.000; -461.000
252.220;  -80.775; -645.000; -477.000
252.362;   26.400;  344.000;  462.000
252.504;  -97.200; -677.000; -584.000
252.646; -128.475; -875.000; -722.000
252.788;  -22.925;   14.000; -128.000
252.931;  -57.325; -257.000; -253.000
253.073;  -52.025; -376.000; -317.000
253.215;  -13.550;  141.000;  122.000
253.357;  -22.925;   82.000; -153.000
253.499;  -54.575; -374.000; -234.000
253.641;  -97.550; -749.000; -594.000
253.783; -108.825; -609.000; -527.000
253.925;  -97.500; -586.000; -591.000
254.067; -120.200; -744.000; -667.000
254.209;  -55.000; -391.000; -259.000
254.351; -148.000; -865.000; -883.000
254.493;  -79.475; -441.000; -417.000
254.635; -145.700; -936.000; -818.000
254.777; -103.475; -752.000; -687.000
254.918;  -61.075; -512.000; -430.000
255.060;  -66.825; -551.000; -395.000
255.202;  -68.125; -473.000; -261.000
255.344;  -82.675; -658.000; -455.000
255.486;  -75.975; -471.000; -406.000
255.628; -108.625; -780.000; -781.000
255.770;  -99.525; -676.000; -536.000
255.912;  -74.675; -559.000; -468.000
256.053;  -91.600; -730.000; -508.000
256.195;  150.150; 1008.000;  903.000
256.337; -102.100; -861.000; -595.000
256.479;   41.000;  532.000;  416.000
256.621;  -54.425; -394.000; -212.000
256.762;  -98.650; -789.000; -742.000
256.904;   47.125;  485.000;  487.000
257.046;  -56.175; -381.000; -271.000
257.188;  -58.025; -351.000; -264.000
257.329;  -87.225; -525.000; -464.000
257.471; -118.525; -939.000; -807.000
257.613;  -72.575; -584.000; -498.000
257.755; -154.425;-1073.000; -982.000
257.896;   23.625;  286.000;  392.000
258.038;  -70.575; -403.000; -352.000
258.180;  -39.575; -354.000; -279.000
258.321;  -92.675; -581.000; -457.000
258.463;   -9.650;  -71.000;  133.000
258.605; -109.625; -562.000; -570.000
258.746; -118.150; -886.000; -772.000
258.888; -153.025;-1026.000;-1020.000
259.029;   22.050;  121.000;   -8.000
259.171;  -84.050; -614.000; -550.000
259.313;   -5.725;  -49.000;  -47.000
259.454;  -88.450; -536.000; -414.000
259.596;  -64.900; -483.000; -390.000
259.737;  -82.250; -590.000; -474.000
259.879;   32.550;  217.000;  311.000
260.020;   76.050;  901.000;  636.000
260.162;  -30.600; -146.000; -253.000
260.303; -135.300; -768.000; -687.000
260.445;  -92.500; -609.000; -613.000
260.586;   17.475;  392.000;  157.000
260.728;  -47.400; -360.000; -248.000
260.869; -129.475; -350.000; -343.000
261.011;   76.350;  706.000;  537.000
261.152;  -80.475; -479.000; -319.000
261.293;  -87.300; -576.000; -595.000
261.435;  -32.775; -219.000; -184.000
261.576;  -56.675; -455.000; -325.000
261.718;   52.175;  420.000;  470.000
261.859; -145.175; -940.000; -949.000
262.000; -138.900; -951.000;-1016.000
262.142;  -36.475;  -52.000;  -60.000
262.283; -130.525; -808.000; -691.000
262.424;  -93.600; -666.000; -625.000
262.566; -167.525;-1161.000; -983.000
262.707; -125.350; -840.000; -830.000
262.848; -127.500; -769.000; -726.000
262.990;  -53.150; -362.000; -345.000
263.131;   78.875;  650.000;  681.000
263.272;  -14.850;  -61.000;  -41.000
263.413; -101.675; -589.000; -561.000
263.555;  -71.750; -669.000; -143.000
263.696;  -86.800; -550.000; -641.000
263.837;  -68.500; -449.000; -551.000
263.978;   -2.750;   -5.000;  -77.000
264.119;  -69.475; -283.000; -264.000
264.261; -129.700; -847.000; -630.000
264.402;  -13.775;   33.000;   40.000
264.543;  -82.600; -509.000; -524.000
264.684;  -18.000;   61.000;  -50.000
264.825;  -81.050; -816.000; -538.000
264.966;   -5.650;  -84.000;  -67.000
265.107; -117.900; -646.000; -670.000
265.248; -123.450; -825.000; -812.000
265.390;  -35.325;  152.000;   -9.000
265.531;  -31.300; -238.000; -107.000
265.672;  -90.625; -557.000; -630.000
265.813;   59.725;  563.000;  439.000
265.954; -148.175; -959.000; -940.000
266.095;  -23.925; -372.000; -322.000
266.236; -119.650; -686.000; -548.000
266.377;  -56.600; -243.000; -297.000
266.518;  -83.950; -619.000; -547.000
266.659;   20.825;  170.000;  268.000
266.800;    4.425;   83.000;   85.000
266.941;  -82.475; -487.000; -478.000
267.082;    1.225;  354.000;   99.000
267.223;  -65.125; -344.000; -273.000
267.364; -124.925; -892.000; -686.000
267.504;  -23.025;    3.000;  135.000
267.645;    0.000;  160.000;   67.000
267.786;  -43.450; -147.000;  -86.000
267.927;  -95.650; -473.000; -379.000
268.068;  -31.150; -186.000;  -61.000
268.209;  -58.225; -175.000; -413.000
268.350;  -62.600; -388.000; -532.000
268.490;  -88.850; -648.000; -521.000
268.631;   19.100;  127.000;  225.000
268.772; -111.350; -874.000; -647.000
268.913;  -58.100; -328.000; -476.000
269.054;  -30.400; -117.000;   12.000
269.194;  -58.550; -418.000; -402.000
269.335; -158.800;-1137.000;-1074.000
269.476;  -45.675;   33.000;  -35.000
269.617;  -65.600; -347.000; -392.000
269.757; -104.375; -713.000; -646.000
269.898; -123.800; -856.000; -613.000
270.039;  -73.825; -415.000; -405.000
270.180; -145.825; -952.000; -816.000
270.320;  -28.150; -190.000; -250.000
270.461;  -46.075; -277.000; -249.000
270.602;  -25.100; -186.000; -156.000
270.742; -147.250; -868.000; -943.000
270.883;  -67.925; -442.000; -390.000
271.023;  -64.000; -358.000; -357.000
271.164;  -89.350; -607.000; -528.000
271.305; -111.900; -666.000; -654.000
271.445; -117.150; -722.000; -683.000
271.586;  -71.825; -462.000; -283.000
271.726;  -50.125; -397.000; -322.000
271.867;  -97.475; -594.000; -534.000
272.008;  -59.700; -473.000; -285.000
272.148;   41.425;  462.000;  468.000
272.289;  -35.850; -113.000; -181.000
272.429;  -12.375;   19.000;  185.000
272.570; -127.475; -633.000; -737.000
272.710; -123.775; -825.000; -775.000
272.851;  -29.225;  113.000; -130.000
272.991; -184.350;-1173.000;-1077.000
273.131;  -73.025; -419.000; -459.000
273.272; -118.525; -683.000; -723.000
273.412;  -39.150; -143.000;  -31.000
273.553;  -81.525; -488.000; -507.000
273.693;  105.975;  913.000;  858.000
273.834; -142.525; -894.000; -692.000
273.974;  -94.050; -664.000; -615.000
274.114; -124.725; -772.000; -560.000
274.255;   30.450;  414.000;  373.000
274.395;  -39.350; -180.000; -125.000
274.535;   19.600;  199.000;  350.000
274.676;    6.000;  225.000;   94.000
274.816;   -9.875;  110.000;   34.000
274.956; -110.050; -624.000; -690.000
275.097; -144.875;-1014.000; -922.000
275.237; -136.025; -913.000; -803.000
275.377; -111.775; -778.000; -689.000
275.517; -164.450; -878.000; -937.000
275.658;  -86.500; -590.000; -555.000
275.798;  -81.750; -606.000; -413.000
275.938;    4.400;  215.000;  323.000
276.078;  -87.300; -626.000; -395.000
276.218;  -12.700;   99.000;  104.000
276.359; -140.825;-1026.000;-1024.000
276.499;  -97.900; -605.000; -446.000
276.639;  -47.575; -305.000; -151.000
276.779;  -70.300; -475.000; -357.000
276.919; -123.250; -783.000; -624.000
277.059;  -48.875; -261.000; -212.000
277.199;  -53.475; -357.000; -259.000
277.340;   20.875;  287.000;  175.000
277.480; -122.725; -840.000; -693.000
277.620;   11.475;  192.000;   16.000
277.760; -218.325;-1533.000;-1294.000
277.900;   -4.775;  113.000;   33.000
278.040;  -10.275;  137.000;  159.000
278.180;    8.725;  270.000;  170.000
278.320;   -2.675;   21.000;   56.000
278.460;  -84.425; -443.000; -469.000
278.600; -103.450; -708.000; -598.000
278.740;   29.275;  448.000;  224.000
278.880; -132.950; -768.000; -791.000
279.020;  -47.700; -194.000; -144.000
279.160; -101.425; -672.000; -595.000
279.300; -135.750; -926.000; -873.000
279.440; -109.050; -709.000; -622.000
279.579; -157.500;-1014.000; -929.000
279.719;  -79.100; -410.000; -394.000
279.859;    0.875;   -4.000;   41.000
279.999;  -39.325; -208.000;  101.000
280.139;  -87.450; -435.000; -387.000
280.279; -118.250; -708.000; -745.000
280.419;  -22.775; -229.000; -147.000
280.559;  -63.425; -259.000; -180.000
280.698; -114.650; -790.000; -639.000
280.838; -117.625; -778.000; -800.000
280.978; -121.800; -846.000; -790.000
281.118; -127.075; -811.000; -704.000
281.257;   -8.950;   24.000;    6.000
281.397; -172.125;-1094.000; -960.000
281.537; -116.600; -599.000; -712.000
281.677;  -45.300; -150.000; -101.000
281.816; -107.350; -700.000; -630.000
281.956;  -36.400; -193.000; -257.000
282.096;  -76.400; -539.000; -396.000
282.235; -114.175; -672.000; -638.000
282.375;  -39.650; -243.000;  -98.000
282.515; -122.575; -715.000; -707.000
282.654;  -10.325;   29.000;  106.000
282.794;   12.175;  388.000;  244.000
282.934;  -73.375; -530.000; -491.000
283.073; -159.600;-1030.000; -857.000
283.213;  -60.550; -460.000; -467.000
283.353;  -58.250; -408.000; -349.000
283.492;  -56.950; -264.000; -296.000
283.632;  -63.450; -254.000; -168.000
283.771; -118.450; -859.000; -730.000
283.911;  -59.125; -369.000; -260.000
284.050; -124.275; -794.000; -748.000
284.190; -175.700;-1229.000;-1096.000
284.329; -155.125;-1055.000; -964.000
284.469; -113.550; -516.000; -591.000
284.608;  -78.525; -559.000; -598.000
284.748;  -93.725; -614.000; -570.000
284.887;  -15.125;  -87.000;  -20.000
285.027; -146.725; -844.000; -892.000
285.166;  -45.950; -192.000; -249.000
285.306;  -31.250; -116.000;  -33.000
285.445;  -68.650; -229.000; -343.000
285.584; -107.400; -630.000; -494.000
285.724;  -60.200; -282.000; -322.000
285.863; -120.250; -857.000; -507.000
286.002;  -52.850; -366.000; -276.000
286.142; -126.000; -715.000; -622.000
286.281;  -89.125; -525.000; -493.000
286.420;  -90.800; -554.000; -417.000
286.560;   81.450;  653.000;  623.000
286.699; -156.875; -958.000; -912.000
286.838;  -91.600; -590.000; -591.000
286.978;  -97.650; -533.000; -537.000
287.117; -154.875;-1085.000; -950.000
287.256;  -45.275; -228.000; -211.000
287.395;  -68.300; -197.000; -378.000
287.535;  -64.450; -370.000; -298.000
287.674;  -92.725; -509.000; -484.000
287.813;   46.975;  661.000;  533.000
287.952; -142.975;-1010.000; -871.000
288.091; -159.825;-1049.000; -915.000
288.231;   -6.425;   13.000;   15.000
288.370; -203.500;-1217.000;-1200.000
288.509; -115.425; -728.000; -645.000
288.648; -108.575; -770.000; -548.000
288.787;  -43.550; -243.000;  -87.000
288.926;  -93.225; -454.000; -475.000
289.065;   92.800;  859.000;  672.000
289.204;  -64.675; -377.000; -217.000
289.344; -104.975; -791.000; -690.000
289.483;   -5.175;  416.000;  304.000
289.622;  -38.200; -291.000; -149.000
289.761;  -32.625; -309.000; -166.000
289.900; -121.350; -785.000; -626.000
290.039;  -28.675;  -12.000;  -95.000
290.178;  -60.350; -274.000; -180.000
290.317; -107.200; -618.000; -479.000
290.456;  -76.250; -463.000; -451.000
290.595; -160.000; -961.000; -833.000
290.734; -159.550; -904.000; -891.000
290.873;  -74.850; -456.000; -420.000
291.011; -131.225; -833.000; -843.000
291.150; -122.075; -770.000; -682.000
291.289;  -47.350; -343.000; -110.000
291.428; -103.050; -599.000; -480.000
291.567;  -66.500; -370.000; -442.000
291.706;  -20.875;  109.000;  154.000
291.845; -109.250; -597.000; -505.000
291.984; -180.525;-1234.000;-1061.000
292.122;   63.325;  602.000;  582.000
292.261;   30.350;  620.000;  463.000
292.400;   -7.950; -144.000;  211.000
292.539; -128.650; -959.000; -813.000
292.678;  -45.325; -325.000; -300.000
292.816; -173.675;-1136.000; -965.000
292.955; -124.925; -844.000; -684.000
293.094;  -37.750; -173.000; -337.000
293.233;  -64.775; -556.000; -400.000
293.371;  -58.275; -225.000;  -84.000
293.510; -112.075; -866.000; -780.000
293.649; -151.875; -959.000; -924.000
293.787; -151.650;-1083.000;-1012.000
293.926;  -32.975; -113.000;  -32.000
294.065;  -71.825; -379.000; -290.000
294.203;   12.300;  298.000;  406.000
294.342;  -10.650;   74.000;  156.000
294.481; 5384.300;51180.000; -836.000
294.619;  -62.975; -425.000; -582.000
294.758; -171.350;-1230.000;-1137.000
294.896;  -20.850; -125.000;    5.000
295.035; -153.750;-1040.000;-1006.000
295.174; -156.850;-1082.000; -954.000
295.312;  -54.225; -323.000; -203.000
295.451;  -70.525; -307.000; -428.000
295.589;  -86.200; -389.000; -518.000
295.728;  -12.575; -292.000; -165.000
295.866;  -32.200;  -36.000;  -51.000
296.005;  -96.675; -584.000; -341.000
296.143; -100.700; -558.000; -596.000
296.282; -142.450; -957.000; -881.000
296.420; -101.525; -657.000; -557.000
296.559; -120.625; -892.000; -633.000
296.697; -126.025; -847.000; -665.000
296.835; -178.675;-1141.000;-1002.000
296.974;  -19.875;  -23.000;   39.000
297.112;  -95.900; -443.000; -504.000
297.251; -137.775; -815.000; -755.000
297.389;  -90.475; -576.000; -438.000
297.527;  -28.100; -145.000;  -83.000
297.666;  -79.175; -486.000; -438.000
297.804;  -78.575; -404.000; -264.000
297.942;  -26.300; -136.000; -161.000
298.081;  -32.700; -183.000;   63.000
298.219;  -28.400;  -17.000;  -19.000
298.357;  -57.950; -144.000;  -71.000
298.495; -143.975; -810.000; -812.000
298.634;   -8.075;  245.000;  219.000
298.772;  -66.700; -220.000; -338.000
298.910;  -70.750; -309.000; -182.000
299.048;  -39.375; -130.000; -153.000
299.187;  -64.500; -350.000; -250.000
299.325;  -15.350;   52.000;  122.000
299.463;  -61.725; -389.000; -299.000
299.601;  -59.925; -327.000; -271.000
299.739; -143.500; -908.000; -883.000
299.877; -115.000; -791.000; -703.000
300.016; -169.875;-1095.000; -935.000
300.154;  -17.075;  -19.000; -161.000
300.292;  -89.175; -428.000; -348.000
300.430;  -69.650; -408.000; -291.000
300.568; -155.075; -940.000; -874.000
300.706;  -91.700; -366.000; -469.000
300.844; -170.425;-1108.000; -979.000
300.982;   35.800;  246.000;  282.000
301.120; -156.800; -965.000; -866.000
301.258; -124.725; -812.000; -705.000
301.396;  -13.225;  104.000;  -41.000
301.534;  -54.175; -218.000; -293.000
301.672; -110.250; -664.000; -521.000
301.810; -117.200; -613.000; -545.000
301.948;  -40.200;   53.000;  149.000
302.086;  -34.450; -250.000;  -32.000
302.224; -116.225; -610.000; -585.000
302.362; -116.850; -558.000; -622.000
302.500; -151.025; -923.000; -893.000
302.638;  -10.025;  128.000;  245.000
302.776;  -76.075; -352.000; -408.000
302.913;   24.375;  447.000;  236.000
303.051;  -51.025;  -86.000;  -23.000
303.189;   -0.225;   90.000;  118.000
303.327;  -60.150; -341.000; -256.000
303.465; -111.775; -832.000; -588.000
303.603; -119.375; -805.000; -604.000
303.740;   34.975;  417.000;  241.000
303.878; -119.150; -800.000; -759.000
304.016; -135.875; -915.000; -790.000
304.154; -191.875;-1123.000;-1152.000
304.291;  -97.950; -505.000; -554.000
304.429;  -13.500;  102.000;   74.000
304.567; -155.225; -908.000; -893.000
304.705;  -76.700; -408.000; -515.000
304.842; -109.925; -616.000; -540.000
304.980;   -3.000;  215.000;   35.000
305.118;  -76.750; -367.000; -365.000
305.255; -160.950; -945.000; -927.000
305.393;   22.900;  178.000;  239.000
305.531; -176.500;-1173.000; -956.000
305.668; -103.650; -663.000; -582.000
305.806;  -85.500; -358.000; -439.000
305.943;  -93.000; -629.000; -637.000
306.081;  -58.425; -378.000; -267.000
306.219; -142.150; -863.000; -748.000
306.356;  -19.750;  158.000;   27.000
306.494;   54.650;  981.000;  761.000
306.631;  -35.675;  -11.000;  -55.000
306.769;  -79.925; -613.000; -485.000
306.906;  -78.700; -284.000; -258.000
307.044;  -91.900; -473.000; -488.000
307.181;  -93.025; -410.000; -332.000
307.319;  -12.750;  112.000;   87.000
307.456; -192.850;-1191.000;-1153.000
307.594; -152.300; -980.000; -727.000
307.731;  -62.825; -371.000; -164.000
307.868;  -20.325;  -15.000;   20.000
308.006; -157.800; -961.000; -847.000
308.143; -105.250; -618.000; -330.000
308.281;  -38.750;  -37.000; -254.000
308.418; -102.200; -748.000; -640.000
308.555;  -95.925; -400.000; -250.000
308.693; -101.850; -577.000; -573.000
308.830; -141.275; -712.000; -657.000
308.967;  -29.350; -215.000;  -95.000
309.105;  -84.250; -507.000; -396.000
309.242;  -92.000; -468.000; -367.000
309.379; -117.475; -577.000; -655.000
309.517; -147.275; -936.000; -948.000
309.654; -152.100; -910.000; -734.000
309.791; -105.225; -662.000; -580.000
309.928; -153.075; -977.000; -914.000
310.065;   74.025;  819.000;  697.000
310.203; -139.125; -825.000; -850.000
310.340;  -81.950; -465.000; -321.000
310.477; -100.925; -412.000; -516.000
310.614;  -81.925; -383.000; -473.000
310.751; -102.150; -427.000; -518.000
310.889;  -61.975;    1.000;   11.000
311.026; -165.875;-1161.000; -939.000
311.163;  -75.925; -386.000; -380.000
311.300;  -93.150; -512.000; -479.000
311.437;  -97.550; -658.000; -619.000
311.574; -185.850;-1226.000; -985.000
311.711;  -92.300; -595.000; -433.000
311.848;  -73.150; -380.000; -388.000
311.985;  -16.275;  270.000;   93.000
312.122; -157.175; -932.000; -762.000
312.259; -151.975; -941.000; -994.000
312.396; -104.150; -508.000; -551.000
312.533; -128.825; -812.000; -790.000
312.670; -172.575;-1070.000; -898.000
312.807;  -70.050; -352.000; -367.000
312.944; -118.975; -513.000; -611.000
313.081;  -69.525; -150.000; -415.000
313.218; -163.025;-1111.000; -867.000
313.355;  -67.425; -531.000; -449.000
313.492;  -65.375; -455.000; -292.000
313.629;   78.000;  815.000;  735.000
313.766; -198.525;-1176.000;-1008.000
313.902;  -28.000; -186.000;   21.000
314.039;  -85.275; -372.000; -289.000
314.176;    7.525;  286.000;  192.000
314.313; -113.700; -569.000; -473.000
314.450; -130.975; -788.000; -684.000
314.587;  -96.100; -468.000; -480.000
314.723;  -32.650;  -78.000;  130.000
314.860;    3.625;  318.000;  332.000
314.997;  -13.225;  223.000;  142.000
315.134;  -76.300; -385.000; -368.000
315.270;  -83.625; -480.000; -496.000
315.407; -188.200;-1094.000; -967.000
315.544; -106.750; -657.000; -538.000
315.681; -118.825; -681.000; -565.000
315.817;  -48.200; -133.000; -176.000
315.954;  -98.075; -613.000; -392.000
316.091; -167.600;-1045.000;-1023.000
316.227;  -56.600;  -71.000; -179.000
316.364;  -21.550;   23.000;    6.000
316.500;  -62.525; -113.000; -300.000
316.637;  -61.025; -181.000; -302.000
316.774; -111.975; -625.000; -358.000
316.910; -109.575; -598.000; -629.000
317.047; -105.850; -487.000; -351.000
317.183;  -97.300; -435.000; -566.000
317.320;  -80.625; -367.000; -321.000
317.456; -135.100; -733.000; -805.000
317.593; -113.600; -598.000; -641.000
317.729;  -14.200;  168.000;  -67.000
317.866; -226.325;-1434.000;-1285.000
318.002; -116.275; -708.000; -948.000
318.139; -151.325; -883.000; -867.000
318.275; -134.150;-1003.000; -738.000
318.412;  -86.800; -517.000; -336.000
318.548; -114.250; -751.000; -720.000
318.685; -158.575; -985.000; -888.000
318.821; -133.150; -762.000; -735.000
318.957;  -41.650;   34.000;  -23.000
319.094;   19.525;  297.000;  154.000
319.230; -138.275; -756.000; -742.000
319.367;  -98.975; -471.000; -520.000
319.503;  -83.100; -538.000; -436.000
319.639; -145.125; -877.000; -793.000
319.775; -128.450; -750.000; -685.000
319.912;  -96.750; -424.000; -519.000
320.048; -186.650;-1184.000;-1184.000
320.184;   -6.125;   59.000;   70.000
320.321; -105.575; -497.000; -467.000
320.457;   17.450;  475.000;  662.000
320.593; -101.375; -375.000; -382.000
320.729; -125.075; -732.000; -734.000
320.866; -109.150; -577.000; -635.000
321.002; -136.625; -759.000; -809.000
321.138;  -76.850; -135.000; -211.000
321.274;  -40.825; -148.000; -115.000
321.410;  -98.850; -585.000; -353.000
321.546; -159.475;-1011.000; -911.000
321.683;   -3.950;  400.000;  185.000
321.819;  -46.200;  -48.000; -117.000
321.955; -126.475; -743.000; -722.000
322.091; -102.150; -585.000; -540.000
322.227;  -68.150; -382.000; -202.000
322.363;  -74.425; -320.000; -215.000
322.499;  -78.600; -343.000; -331.000
322.635;   47.350;  636.000;  443.000
322.771;  -59.200; -139.000;   12.000
322.907;   34.600;  129.000;  327.000
323.043;  -63.850; -115.000; -206.000
323.179;  -75.175; -394.000; -363.000
323.315;  -85.250; -401.000; -371.000
323.451;  -73.250; -328.000; -236.000
323.587;  -58.425;  -60.000;  -77.000
323.723; -123.500; -682.000; -601.000
323.859;  -49.025; -258.000;  -76.000
323.995;  -88.950; -467.000; -409.000
324.131; -159.950; -967.000; -892.000
324.267;  -56.375; -254.000; -276.000
324.402; -160.050; -960.000; -983.000
324.538;  -61.975; -279.000; -104.000
324.674;  -17.700;  164.000;   77.000
324.810;  -24.650;  226.000;  308.000
324.946;  -82.675; -810.000; -658.000
325.082;  -95.650; -568.000; -475.000
325.217;  -37.625;  -62.000;   16.000
325.353; -137.850; -764.000; -659.000
325.489;  -92.775; -540.000; -506.000
325.625; -103.200; -579.000; -525.000
325.760;   18.350;  517.000;  376.000
325.896; -112.900; -515.000; -702.000
326.032;  -67.875; -403.000; -352.000
326.168;  -83.675; -462.000; -369.000
326.303;  -82.475; -352.000; -461.000
326.439;  -58.000; -336.000; -276.000
326.575;  -46.225; -190.000;  -29.000
326.710;  -29.000; -156.000;  -30.000
326.846;  -29.100;  146.000;  103.000
326.982; -111.675; -530.000; -548.000
327.117;  -96.675; -481.000; -442.000
327.253; -129.150; -745.000; -742.000
327.388; -168.175;-1137.000;-1153.000
327.524; -120.525; -811.000; -578.000
327.659;  -38.550;  -58.000;  -22.000
327.795;  -27.600;   69.000;   45.000
327.931; -114.225; -723.000; -499.000
328.066;  -66.550; -417.000; -276.000
328.202;  -44.600;   12.000; -129.000
328.337;   82.575;  957.000;  713.000
328.473;   18.850;  -12.000;  -74.000
328.608;  -44.175; -256.000; -267.000
328.743; -130.025; -799.000; -664.000
328.879;    4.425;  214.000;  114.000
329.014;  -36.500; -102.000; -122.000
329.150; -109.525; -358.000; -483.000
329.285; -107.700; -465.000; -466.000
329.421;  -72.325; -548.000; -246.000
329.556;  -36.475;  -36.000;   85.000
329.691; -118.525; -633.000; -615.000
329.827; -101.025; -626.000; -480.000
329.962;  -68.450;  131.000; -301.000
330.097; -113.250; -673.000; -585.000
330.233;  -69.750; -410.000; -223.000
330.368; -148.025; -839.000; -628.000
330.503;  -25.400;    3.000;   98.000
330.638;  -44.875;  -93.000; -125.000
330.774; -111.575; -609.000; -530.000
330.909;  -80.925; -434.000; -244.000
331.044; -107.050; -714.000; -708.000
331.179; -191.975;-1217.000;-1109.000
331.315;   -8.100;   77.000;   20.000
331.450;  -12.575;  157.000;  285.000
331.585; -124.725; -805.000; -706.000
331.720; -110.125; -510.000; -460.000
331.855;  -38.975;  -35.000; -102.000
331.990;  -25.750;   62.000;  138.000
332.126;  -36.550; -110.000;   71.000
332.261;  -91.450; -379.000; -265.000
332.396;  -83.775; -135.000; -242.000
332.531; -179.575;-1074.000;-1031.000
332.666;  -91.275; -519.000; -363.000
332.801; -131.875; -726.000; -807.000
332.936;  -53.925; -192.000; -122.000
333.071; -176.350; -870.000; -817.000
333.206;    3.475;  307.000;  379.000
333.341;   17.800;  344.000;  418.000
333.476; -108.000; -627.000; -623.000
333.611;  -54.300; -251.000; -173.000
333.746;  -77.950; -381.000; -464.000
333.881; -153.000; -973.000; -935.000
334.016; -167.175; -936.000; -917.000
334.151; -149.875; -746.000; -702.000
334.286;   -5.725;  152.000;  186.000
334.421;  -40.900; -125.000; -178.000
334.556; -115.550; -611.000; -567.000
334.690; -117.950; -631.000; -577.000
334.825;   27.450;  381.000;   83.000
334.960;  -83.550; -285.000; -413.000
335.095;  -23.525;  135.000;  -91.000
335.230; -137.400; -722.000; -738.000
335.365; -173.775;-1084.000; -990.000
335.499; -182.750;-1108.000;-1037.000
335.634;  -34.325;    9.000;  534.000
335.769; -148.175; -755.000; -720.000
335.904; -111.500; -603.000; -561.000
336.038; -145.450; -735.000; -657.000
336.173; -204.200;-1206.000;-1194.000
336.308;  -66.050; -116.000; -189.000
336.443;  -87.700; -544.000; -634.000
336.577; -164.900; -936.000; -787.000
336.712;  -26.850;   -4.000;  -12.000
336.847; -124.775; -724.000; -607.000
336.981;  -79.225; -272.000; -208.000
337.116;   30.500;  615.000;  501.000
337.250;  -92.025; -434.000; -421.000
337.385;  -75.800; -297.000; -208.000
337.520; -134.975; -632.000; -603.000
337.654;  -67.950; -215.000; -126.000
337.789; -152.100; -989.000; -933.000
337.923;  -59.575; -104.000; -205.000
338.058; -151.175; -673.000; -738.000
338.192; -110.025; -611.000; -488.000
338.327;  -58.925;  -18.000; -155.000
338.461; -121.500; -299.000; -469.000
338.596; -138.375; -780.000; -638.000
338.730; -131.275; -767.000; -803.000
338.865;  -32.350;  -46.000; -140.000
338.999; -153.800; -846.000; -702.000
339.134; -131.575; -634.000; -536.000
339.268; -123.275; -741.000; -603.000
339.403; -138.500; -740.000; -775.000
339.537; -137.225; -894.000; -820.000
339.671; -156.450; -829.000; -813.000
339.806; -121.500; -556.000; -512.000
339.940;  -65.275; -261.000; -235.000
340.074; -120.325; -685.000; -510.000
340.209;  -68.700; -351.000; -230.000
340.343; -113.700; -517.000; -573.000
340.477;  115.225;  998.000; 1036.000
340.612; -159.700;-1033.000; -900.000
340.746;  -78.050; -199.000; -243.000
340.880; -155.525; -924.000; -785.000
341.014;  -42.725;  -45.000; -154.000
341.149; -142.250; -756.000; -718.000
341.283; -134.150; -839.000; -754.000
341.417; -170.750;-1124.000; -938.000
341.551; -133.700; -768.000; -708.000
341.685; -123.275; -633.000; -611.000
341.820; -122.900; -562.000; -493.000
341.954;  -96.600; -218.000; -349.000
342.088; -180.300;-1102.000;-1019.000
342.222;   53.250;  565.000;  618.000
342.356;  -99.550; -395.000; -335.000
342.490; -147.025; -880.000; -841.000
342.624;  -70.975; -339.000; -242.000
342.758;  -76.775; -364.000; -312.000
342.892; -121.400; -710.000; -585.000
343.026;  -53.950;  -58.000; -116.000
343.160;  -73.250; -426.000; -376.000
343.294; -112.850; -474.000; -337.000
343.428; -111.000; -488.000; -448.000
343.562;  -50.575; -172.000;  -23.000
343.696;  -75.250; -385.000; -314.000
343.830;  -91.475; -362.000; -356.000
343.964;  -68.175; -231.000; -168.000
344.098;  -37.225;  199.000;   70.000
344.232;  -61.875; -266.000; -127.000
344.366; -112.550; -567.000; -453.000
344.500; -120.800; -665.000; -744.000
344.634;  -71.050; -324.000; -164.000
344.768; -104.350; -531.000; -341.000
344.902;  -15.025;  278.000;  256.000
345.035; -110.875; -556.000; -496.000
345.169; -163.725; -933.000; -656.000
345.303;  -88.750; -308.000; -482.000
345.437; -159.100; -826.000; -717.000
345.571; -114.525; -675.000; -594.000
345.704;  -94.550; -309.000; -532.000
345.838;  -73.225; -331.000; -284.000
345.972; -115.700; -543.000; -495.000
346.106;  -32.875; -179.000; -190.000
346.239;  -63.175; -312.000; -243.000
346.373;  -91.550; -343.000; -302.000
346.507; -174.800; -950.000; -962.000
346.640;  -55.750;  -30.000;   13.000
346.774; -135.550; -650.000; -797.000
346.908;  -47.650; -138.000;  -11.000
347.041; -118.200; -646.000; -593.000
347.175;  -26.550;  259.000;   27.000
347.309; -136.250; -698.000; -628.000
347.442; -145.425; -883.000; -732.000
347.576;   57.050;  670.000;  668.000
347.709;  -53.350; -123.000;  -52.000
347.843; -163.000; -933.000; -825.000
347.976;    4.875;  235.000;  294.000
348.110; -209.450;-1268.000;-1186.000
348.243; -120.975; -679.000; -772.000
348.377;  -34.050;  -26.000;   60.000
348.510;    8.200;  403.000;  540.000
348.644;  -76.425;  -37.000; -159.000
348.777;  -22.025;  180.000;  191.000
348.911;  -80.800; -142.000; -112.000
349.044;   23.425;  471.000;  448.000
349.178; -197.675;-1069.000;-1006.000
349.311;    9.100;  141.000;  255.000
349.444; -164.700; -927.000; -813.000
349.578;  -74.125; -347.000; -200.000
349.711; -152.775; -959.000; -862.000
349.845; -117.600; -661.000; -591.000
349.978; -202.475;-1224.000;-1137.000
350.111; -120.950; -546.000; -612.000
350.244; -137.175; -596.000; -700.000
350.378;  -96.475; -392.000; -393.000
350.511; -103.975; -393.000; -426.000
350.644; -152.400; -808.000; -806.000
350.778;  -43.750;  168.000;  104.000
350.911;  -17.575;  134.000;  140.000
351.044; -122.525; -685.000; -615.000
351.177;  -68.675; -321.000; -281.000
351.310;  -42.550;    3.000; -131.000
351.444; -144.800; -888.000; -788.000
351.577;  -29.575;  140.000;   90.000
351.710;   48.175;  593.000;  417.000
351.843;  -70.475; -165.000;  -77.000
351.976;  -16.900;  149.000;  -79.000
352.109; -133.825; -621.000; -612.000
352.242;  -90.200; -464.000; -419.000
352.376; -123.450; -580.000; -636.000
352.509;  -87.500; -437.000; -356.000
352.642; -191.050; -654.000; -604.000
352.775;  -49.150; -141.000;  -98.000
352.908; -162.375; -933.000; -904.000
353.041; -140.825; -814.000; -824.000
353.174; -105.900; -551.000; -424.000
353.307; -159.250; -753.000; -764.000
353.440;   20.500;  541.000;  453.000
353.573; -160.375; -957.000;-1008.000
353.706; -128.000; -384.000; -558.000
353.839;  -66.500; -264.000; -220.000
353.971; -131.300; -657.000; -512.000
354.104; -158.525; -896.000; -835.000
354.237; -136.050; -627.000; -662.000
354.370; -137.925; -846.000; -879.000
354.503; -220.525;-1231.000;-1308.000
354.636;  -80.775; -529.000; -348.000
354.769; -161.150; -937.000; -860.000
354.902;  -64.075; -230.000; -139.000
355.034;  -63.175; -164.000; -220.000
355.167;  -68.525; -262.000; -162.000
355.300; -181.025;-1061.000; -880.000
355.433;  -31.675;  -71.000;  -14.000
355.565;  -95.575; -402.000; -384.000
355.698;  -83.850; -356.000; -296.000
355.831; -151.400; -882.000; -801.000
355.964;  -58.775; -285.000; -170.000
356.096; -153.025; -856.000; -843.000
356.229; -114.625; -523.000; -530.000
356.362;  -88.600; -373.000; -266.000
356.494;  -69.875; -229.000; -162.000
356.627;   -2.775;  269.000;  377.000
356.760;  -23.200;  120.000;   53.000
356.892; -131.850; -286.000; -601.000
357.025;   21.875;  403.000;  389.000
357.157;  -61.525; -167.000; -179.000
357.290; -147.825; -856.000; -713.000
357.423; -119.075; -667.000; -556.000
357.555;  -55.775; -217.000; -228.000
357.688;  -98.650; -483.000; -364.000
357.820; -148.000; -870.000; -877.000
357.953; -113.125; -563.000; -589.000
358.085; -127.425; -632.000; -612.000
358.218; -184.725;-1131.000; -932.000
358.350;  -54.600;  -58.000;  312.000
358.483; -217.325;-1300.000;-1187.000
358.615; -187.075;-1182.000;-1078.000
358.747; -204.650;-1187.000;-1058.000
358.880; -138.350; -810.000; -744.000
359.012;  -82.100; -376.000; -202.000
359.145;  -96.525; -480.000; -511.000
359.277; -168.200; -962.000; -913.000
359.409;    7.650;  536.000;  231.000
359.542; -147.225; -738.000; -688.000
359.674;  -27.050;   46.000;   13.000
359.806; -122.350; -565.000; -438.000
359.939; -109.050; -617.000; -516.000
360.071; -121.300; -583.000; -579.000
360.203;  -86.325; -411.000; -364.000
360.335;  -30.925;  164.000;  -16.000
360.468;  -67.800; -249.000; -307.000
360.600; -117.550; -547.000; -454.000
360.732; -113.425; -546.000; -423.000
360.864; -203.775;-1216.000;-1044.000
360.996;  -92.525; -516.000; -554.000
361.129; -116.500; -389.000; -598.000
361.261;  -32.775;  110.000; -113.000
361.393;  -79.625; -252.000; -214.000
361.525;  -10.650;   94.000;  244.000
361.657; -149.725; -821.000; -703.000
361.789;  -58.175; -139.000; -155.000
361.921; -121.000; -642.000; -593.000
362.053;   35.475;  524.000;  541.000
362.185;  -35.875;  288.000;   72.000
362.318; -145.050; -709.000; -705.000
362.450;    1.675;  294.000;  444.000
362.582; -181.500; -913.000; -870.000
362.714;  -72.025; -353.000; -332.000
362.846; -115.175; -606.000; -490.000
362.978; -165.575; -941.000; -811.000
363.109;  -80.725; -161.000; -260.000
363.241; -146.650; -739.000; -749.000
363.373; -125.550; -649.000; -564.000
363.505;  -46.950; -186.000;  -91.000
363.637; -118.150; -787.000; -601.000
363.769; -188.350;-1067.000;-1080.000
363.901; -119.275; -596.000; -654.000
364.033; -197.450;-1103.000;-1062.000
364.165;  -73.900; -283.000; -283.000
364.296;  -85.475; -316.000; -177.000
364.428; -223.750;-1344.000;-1220.000
364.560; -135.925; -679.000; -661.000
364.692; -127.300; -738.000; -835.000
364.824; -124.575; -588.000; -456.000
364.955;  -86.750; -402.000; -564.000
365.087; -193.575;-1097.000; -852.000
365.219; -146.100; -686.000; -816.000
365.351; -121.175; -526.000; -572.000
365.482;  -11.875;  300.000;  240.000
365.614;  -83.300; -402.000; -314.000
365.746; -129.450; -729.000; -752.000
365.877; -141.400; -706.000; -672.000
366.009;  -44.150;  -35.000;  -62.000
366.141; -200.450;-1249.000;-1134.000
366.272; -148.825; -803.000; -719.000
366.404; -168.500;-1005.000; -874.000
366.535;  -34.250; -139.000;  -12.000
366.667; -135.925; -644.000; -649.000
366.799;   22.375;  353.000;  203.000
366.930; -170.975; -862.000; -996.000
367.062; -122.600; -639.000; -613.000
367.193; -171.875; -872.000; -842.000
367.325; -119.750; -580.000; -684.000
367.456;  -81.550; -246.000;   31.000
367.588;  -91.075; -371.000; -318.000
367.719;  -80.100;  -44.000;  -45.000
367.851;  -74.025; -222.000; -241.000
367.982; -163.300; -875.000; -732.000
368.113;  -99.625; -475.000; -358.000
368.245; -177.500; -960.000; -841.000
368.376;  -67.350; -254.000; -302.000
368.508;  -89.325; -188.000; -263.000
368.639; -180.825;-1166.000;-1034.000
368.770; -140.200; -670.000; -589.000
368.902; -152.050; -836.000; -926.000
369.033; -161.225; -906.000; -855.000
369.164; -126.775; -720.000; -653.000
369.296; -136.825; -452.000; -601.000
369.427;  -64.300; -209.000; -144.000
369.558; -110.225; -593.000; -377.000
369.689; -131.225; -721.000; -569.000
369.821; -163.600; -951.000; -845.000
369.952;  -50.725;   42.000; -108.000
370.083;  -79.725; -229.000; -108.000
370.214; -141.225; -735.000; -650.000
370.345;  -48.475;   65.000;   81.000
370.477; -152.250; -810.000; -790.000
370.608;  -79.975; -328.000; -264.000
370.739; -200.075;-1233.000;-1292.000
370.870; -174.800;-1102.000; -923.000
371.001;  -96.225; -378.000; -467.000
371.132; -137.250; -754.000; -735.000
371.263;  -64.700;  -42.000; -148.000
371.394; -164.175; -841.000; -748.000
371.525;   -2.125;  345.000;  225.000
371.657; -168.175; -808.000; -670.000
371.788;  -18.175;  103.000;  199.000
371.919;  -98.375; -384.000; -304.000
372.050;  -49.775;  -91.000; -156.000
372.181;  -52.550; -188.000; -294.000
372.311;  -38.275;   42.000; -127.000
372.442; -106.825; -457.000; -451.000
372.573;  -80.150; -444.000; -340.000
372.704; -186.725;-1008.000; -980.000
372.835;  -80.100; -228.000; -289.000
372.966; -132.325; -646.000; -554.000
373.097; -146.875; -575.000; -711.000
373.228; -121.975; -717.000; -542.000
373.359; -147.675; -824.000; -536.000
373.490; -162.225; -881.000; -727.000
373.620; -164.700;-1001.000; -803.000
373.751; -119.425; -332.000; -396.000
373.882; -126.650; -663.000; -733.000
374.013;  -78.350; -449.000; -262.000
374.143; -136.250; -581.000; -659.000
374.274; -176.925; -987.000; -908.000
374.405;  -85.875; -388.000; -276.000
374.536; -110.650; -526.000; -387.000
374.666; -149.450; -759.000; -807.000
374.797; -156.125; -817.000; -868.000
374.928; -138.600; -710.000; -560.000
375.058; -126.200; -535.000; -500.000
375.189;  -58.100;  -59.000;  -93.000
375.320; -183.675; -928.000;-1034.000
375.450; -124.100; -625.000; -616.000
375.581; -115.875; -526.000; -436.000
375.712;  -76.875; -574.000; -250.000
375.842; -111.500; -438.000; -415.000
375.973; -112.950; -554.000; -513.000
376.103; -148.550; -665.000; -648.000
376.234; -127.950; -531.000; -552.000
376.364; -175.275; -944.000; -867.000
376.495;   55.475;  925.000;  529.000
376.625; -120.425; -472.000; -485.000
376.756; -147.575; -709.000; -678.000
376.886; -209.825;-1178.000;-1026.000
377.017; -192.025;-1048.000;-1061.000
377.147; -166.200; -786.000; -782.000
377.278;  -28.775;  174.000;  228.000
377.408; -162.025; -801.000; -815.000
377.538; -142.725; -707.000; -693.000
377.669; -137.475; -537.000; -613.000
377.799; -146.450; -645.000; -635.000
377.929; -110.025; -610.000; -428.000
378.060; -161.425; -781.000; -847.000
378.190; -145.300; -726.000; -531.000
378.320;  -98.050; -401.000; -406.000
378.451;  -52.900; -131.000;  -22.000
378.581;  -48.350;  -67.000; -110.000
378.711;   60.675; 1035.000;  866.000
378.841; -124.125; -533.000; -675.000
378.972; -173.000; -871.000; -751.000
379.102; -115.750; -652.000; -579.000
379.232;  -83.700; -126.000;  -73.000
379.362; -181.575;-1001.000; -885.000
379.492; -120.750; -373.000; -424.000
379.623;  -22.450;    0.000;  111.000
379.753; -166.975;-1107.000; -974.000
379.883;  -22.050;   59.000;  156.000
380.013; -198.750;-1081.000;-1017.000
380.143; -185.550;-1097.000;-1056.000
380.273; -173.375; -985.000; -861.000
380.403;  -88.175; -344.000; -257.000
380.533; -146.925; -651.000; -664.000
380.663;  -26.675;  173.000;  128.000
380.793; -187.825;-1027.000;-1074.000
380.923;  -72.900; -103.000;  -34.000
381.053; -140.975; -613.000; -623.000
381.183;  -79.675; -106.000; -248.000
381.313; -131.600; -656.000; -470.000
381.443; -120.050; -692.000; -473.000
381.573;  -98.400; -402.000; -409.000
381.703; -196.925;-1249.000;-1095.000
381.833; -242.275;-1454.000;-1336.000
381.963;  -34.625; -134.000;  -87.000
382.093; -183.350; -925.000; -909.000
382.223; -125.975; -713.000; -602.000
382.353; -141.975; -801.000; -608.000
382.482; -185.900;-1091.000; -964.000
382.612; -148.175; -872.000; -644.000
382.742; -143.100; -695.000; -622.000
382.872; -123.425; -565.000; -551.000
383.002;  -37.175;  347.000; -132.000
383.131;  -86.500; -226.000; -160.000
383.261; -129.075; -706.000; -768.000
383.391; -121.350; -552.000; -377.000
383.521;    7.250;  451.000;  263.000
383.650; -183.475; -947.000; -904.000
383.780; -139.775; -783.000; -656.000
383.910;   52.825;  880.000;  802.000
384.039; -164.750; -794.000; -656.000
384.169; -211.725;-1205.000;-1017.000
384.299; -132.375; -650.000; -662.000
384.428; -150.200; -764.000; -680.000
384.558;  -75.275; -308.000; -275.000
384.687; -107.350; -414.000; -334.000
384.817;  -47.025;   75.000;   -2.000
384.947;  -55.950; -234.000; -141.000
385.076;   85.850;  982.000;  912.000
385.206;   16.375;  369.000;  480.000
385.335;  -85.850; -549.000; -417.000
385.465; -154.225; -655.000; -663.000
385.594;  -60.725;  -53.000;  -44.000
385.724; -180.400; -868.000; -838.000
385.853;  -77.450; -296.000; -270.000
385.982; -163.975; -743.000; -787.000
386.112; -178.100;-1052.000; -871.000
386.241;  -99.150; -307.000; -312.000
386.371;  -65.600; -174.000;  -87.000
386.500; -166.725; -825.000; -789.000
386.629; -146.675; -874.000; -817.000
386.759;  -52.600;  -43.000;   68.000
386.888;  -63.875; -170.000; -250.000
387.017; -142.975; -648.000; -620.000
387.147; -161.950; -771.000; -798.000
387.276; -114.275; -410.000; -397.000
387.405;  -81.950; -398.000; -342.000
387.535; -111.100; -452.000; -361.000
387.664; -131.775; -692.000; -620.000
387.793;  -74.100; -198.000; -113.000
387.922;  -13.150;  255.000;  200.000
388.052; -126.275; -576.000; -423.000
388.181; -107.000; -342.000; -472.000
388.310; -158.650; -889.000; -710.000
388.439; -160.550; -749.000; -742.000
388.568;  -29.175;  365.000;  244.000
388.697; -150.575; -756.000; -653.000
388.826; -138.775; -768.000; -666.000
388.956;  -84.900; -285.000; -307.000
389.085;  -98.775; -347.000; -287.000
389.214; -163.775; -842.000; -872.000
389.343; -131.700; -645.000; -413.000
389.472;  -21.525;  126.000;  149.000
389.601;  -40.125;   91.000;    0.000
389.730; -127.450; -568.000; -687.000
389.859;  -12.025;  226.000;   46.000
389.988;  -80.200; -423.000; -408.000
390.117;  -86.375; -168.000; -146.000
390.246;  -90.475; -331.000; -320.000
390.375; -144.975; -673.000; -626.000
390.504; -127.850; -703.000; -621.000
390.633; -160.725; -672.000; -726.000
390.761; -152.300; -732.000; -645.000
390.890;  -61.075;   -4.000; -130.000
391.019; -109.900; -421.000; -441.000
391.148; -173.925; -826.000; -855.000
391.277; -130.125; -576.000; -493.000
391.406; -155.550; -821.000; -805.000
391.534;  -28.125;  574.000; -301.000
391.663; -134.100; -583.000; -645.000
391.792; -152.075; -673.000; -701.000
391.921;  -40.025;   -3.000;   15.000
392.050;  -89.600; -287.000; -228.000
392.178; -204.525;-1206.000;-1061.000
392.307; -148.750; -758.000; -712.000
392.436; -131.575; -427.000; -641.000
392.564;  -42.600;  166.000;   -6.000
392.693; -154.475; -860.000; -682.000
392.822; -128.225; -529.000; -534.000
392.950; -156.750; -880.000; -714.000
393.079;  -88.200; -188.000; -328.000
393.208; -128.650; -488.000; -511.000
393.336;  -69.175; -170.000; -145.000
393.465;  -82.675; -317.000; -199.000
393.593;  -31.625;   62.000;   79.000
393.722; -195.650;-1121.000; -916.000
393.850;  -87.375; -188.000;  -61.000
393.979; -199.250; -926.000; -805.000
394.107; -110.000; -517.000; -537.000
394.236; -136.475; -570.000; -507.000
394.364;  -15.600;  383.000;  206.000
394.493; -169.600; -911.000; -767.000
394.621; -179.875; -955.000; -916.000
394.750; -174.075; -873.000; -923.000
394.878;  -75.600; -247.000; -149.000
395.007; -169.325; -721.000; -807.000
395.135; -145.775; -790.000; -721.000
395.263; -178.200;-1038.000;-1040.000
395.392;  -41.675;  -25.000; -107.000
395.520; -168.400; -818.000; -679.000
395.648; -162.450; -865.000; -915.000
395.777; -120.475; -366.000; -405.000
395.905; -113.275; -449.000; -564.000
396.033;  -33.400;  217.000;  172.000
396.162;  -91.925; -399.000; -453.000
396.290;  -78.250;  -17.000;   -2.000
396.418; -130.625; -555.000; -514.000
396.546; -151.650; -571.000; -466.000
396.674; -159.950; -850.000; -878.000
396.803;  -49.200;  -72.000;  -23.000
396.931;  -81.350; -179.000; -199.000
397.059; -195.875;-1026.000; -989.000
397.187; -174.700;-1026.000; -975.000
397.315; -171.625; -884.000; -649.000
397.443; -129.850; -592.000; -443.000
397.572; -130.000; -578.000; -424.000
397.700; -132.000; -607.000; -614.000
397.828;  -65.725;  120.000;  -90.000
397.956; -104.350; -508.000; -478.000
398.084; -145.475; -767.000; -626.000
398.212;  -27.850;  137.000;  124.000
398.340;  -57.350;  -56.000;  159.000
398.468;  -93.650; -390.000; -169.000
398.596; -175.575; -993.000; -953.000
398.724; -168.875; -762.000; -767.000
398.852; -193.875;-1024.000; -976.000
398.980; -119.000; -560.000; -560.000
399.108; -152.800; -982.000; -735.000
399.236;  -53.175;   13.000;    8.000
399.363;  -36.250;  222.000;  196.000
399.491; -116.600; -404.000; -398.000
399.619; -168.900; -829.000; -800.000
399.747; -154.500; -859.000; -771.000
399.875;  -20.550;  220.000;  234.000
400.003;  -95.600; -359.000; -284.000
400.130; -119.750; -421.000; -341.000
400.258;  -50.575;  -83.000;   38.000
400.386;  -86.075; -352.000; -168.000
400.514; -127.475; -526.000; -587.000
400.641; -184.450; -928.000; -802.000
400.769; -184.800; -979.000; -888.000
400.897; -154.200; -838.000; -793.000
401.025;  -64.725; -166.000; -152.000
401.152;  -32.875;  220.000;   38.000
401.280; -113.725; -430.000; -429.000
401.408; -144.500; -712.000; -576.000
401.535; -136.175; -735.000; -758.000
401.663; -218.900;-1134.000;-1054.000
401.790; -125.075; -514.000; -525.000
401.918;    7.900;  436.000;  405.000
402.046;  -43.450;  134.000;  122.000
402.173;  -78.925;  -18.000;    7.000
402.301;  -96.300; -519.000; -397.000
402.428;   -1.900;  528.000;  383.000
402.556; -191.850;-1188.000; -913.000
402.683;  -77.825;  -20.000;   -1.000
402.811;  -64.950;  -37.000; -206.000
402.938;  -70.625;   20.000;   27.000
403.066; -134.525; -574.000; -558.000
403.193;  -39.300;  299.000;  239.000
403.321; -110.925; -396.000; -574.000
403.448;  -33.350;   83.000;   27.000
403.575;  -61.325;  -90.000;  -46.000
403.703; -156.850; -732.000; -557.000
403.830; -125.625; -531.000; -496.000
403.957; -197.150;-1117.000;-1023.000
404.085;  -78.175;  -61.000; -172.000
404.212;  -52.250;  -50.000;   63.000
404.339;  -99.200; -566.000; -306.000
404.467; -115.050; -612.000; -524.000
404.594;  -68.475; -287.000; -227.000
404.721; -162.450; -869.000; -764.000
404.848;  -72.550; -113.000; -202.000
404.976; -177.625; -856.000; -783.000
405.103;  -51.500;  -14.000;  -82.000
405.230;  -45.075;  190.000;  226.000
405.357;  -42.775;  117.000;   44.000
405.484;  -69.900;  -49.000;    5.000
405.612; -128.900; -548.000; -563.000
405.739; -119.600; -488.000; -243.000
405.866;   27.000;  669.000;  385.000
405.993;  -99.625; -398.000; -102.000
406.120; -175.350; -801.000; -887.000
406.247; -106.500; -323.000; -342.000
406.374;   29.575;  540.000;  629.000
406.501; -152.150; -632.000; -702.000
406.628; -125.875; -621.000; -589.000
406.755; -145.850; -803.000; -620.000
406.882;  -92.925; -228.000; -277.000
407.009; -153.400; -719.000; -628.000
407.136; -104.400; -480.000; -401.000
407.263; -175.100; -939.000; -829.000
407.390; -142.125; -692.000; -614.000
407.517; -227.025;-1139.000;-1187.000
407.644; -117.500; -332.000; -256.000
407.771; -107.675; -249.000; -287.000
407.898;  -29.350;  168.000;  328.000
408.025; -122.600; -421.000; -313.000
408.151;  -43.500;   82.000;  153.000
408.278;  -95.925; -267.000; -216.000
408.405; -178.225; -931.000; -899.000
408.532; -145.100; -549.000; -542.000
408.659; -136.650; -677.000; -648.000
408.785; -223.350;-1298.000;-1170.000
408.912;  -94.300; -412.000; -296.000
409.039; -142.625; -610.000; -686.000
409.166; -121.500; -591.000; -555.000
409.292; -124.525; -571.000; -534.000
409.419; -139.875; -665.000; -649.000
409.546; -119.200; -431.000; -192.000
409.672; -137.525; -713.000; -545.000
409.799;  -59.100;  -36.000;   34.000
409.926;  -68.500; -180.000; -179.000
410.052; -208.650;-1127.000;-1091.000
410.179; -106.475; -368.000; -392.000
410.305; -106.600; -375.000; -493.000
410.432;  -94.050; -220.000; -333.000
410.558; -117.925; -305.000; -380.000
410.685; -135.025; -688.000; -431.000
410.812; -132.925; -409.000; -588.000
410.938; -168.825; -964.000; -808.000
411.065; -145.750; -671.000; -645.000
411.191;  -77.125; -189.000; -174.000
411.317; -170.525; -823.000; -742.000
411.444;  -95.775; -317.000; -246.000
411.570; -101.700; -339.000; -294.000
411.697; -143.750; -758.000; -752.000
411.823; -206.350; -989.000; -999.000
411.949;  -83.850;  -56.000;   17.000
412.076; -138.450; -539.000; -519.000
412.202; -151.950; -758.000; -757.000
412.329; -169.075; -798.000; -752.000
412.455; -152.800; -821.000; -657.000
412.581;  -43.200;  -15.000;  172.000
412.707; -147.950; -540.000; -457.000
412.834;  -17.550;  156.000;  219.000
412.960; -160.975; -785.000; -784.000
413.086; -155.675; -743.000; -701.000
413.212;   26.800;  604.000;  578.000
413.339; -163.775; -685.000; -701.000
413.465;  -98.525; -364.000; -310.000
413.591; -161.100; -757.000; -474.000
413.717;  -95.200; -358.000; -366.000
413.843; -182.750; -839.000; -861.000
413.969; -105.900;  -47.000; -292.000
414.096; -165.275; -679.000; -679.000
414.222;  -61.725;  -33.000;   85.000
414.348; -150.500; -652.000; -385.000
414.474;  -59.325;   38.000;  -52.000
414.600;  -67.700; -126.000; -144.000
414.726;  -71.100;  -96.000;  -55.000
414.852; -110.325; -365.000; -342.000
414.978;  -35.800;  104.000;  -18.000
415.104;  -58.000;   38.000;   80.000
415.230; -109.500; -329.000; -330.000
415.356; -123.725; -409.000; -514.000
415.482;  -63.425;   13.000;  -35.000
415.608;  -92.725; -247.000; -323.000
415.734;  -44.175;   67.000;   38.000
415.860; -154.400; -875.000; -767.000
415.986; -153.350; -685.000; -607.000
416.111; -151.175; -798.000; -652.000
416.237; -118.350; -424.000; -571.000
416.363; -159.325; -765.000; -733.000
416.489; -109.075; -324.000; -251.000
416.615; -177.400; -707.000; -742.000
416.741; -148.050; -677.000; -784.000
416.866; -171.050; -673.000; -736.000
416.992; -175.025; -801.000; -818.000
417.118;  -85.475;  -41.000;  -80.000
417.244; -145.500; -798.000; -531.000
417.369; -173.450; -801.000; -612.000
417.495; -107.200; -325.000; -254.000
417.621; -203.425;-1015.000; -803.000
417.746; -125.550; -579.000; -572.000
417.872;  -85.125; -254.000; -144.000
417.998; -129.075; -515.000; -530.000
418.123; -192.050;-1073.000; -845.000
418.249; -133.475; -512.000; -601.000
418.374; -182.250; -916.000; -824.000
418.500; -113.950; -383.000; -482.000
418.626;  -32.200;   70.000;  -59.000
418.751; -121.325; -549.000; -448.000
418.877; -152.825; -637.000; -643.000
419.002; -141.150; -688.000; -560.000
419.128; -162.550; -930.000; -721.000
419.253; -185.700; -967.000; -837.000
419.379; -120.075; -391.000; -338.000
419.504;    1.325;  325.000;  415.000
419.629;  -99.200; -393.000; -212.000
419.755;  -94.275; -317.000; -254.000
419.880;  -99.600;  -98.000;   67.000
420.006; -106.750; -280.000; -221.000
420.131; -146.700; -662.000; -775.000
420.256; -107.525; -315.000; -316.000
420.382; -148.350; -665.000; -687.000
420.507; -155.650; -649.000; -778.000
420.632; -111.900; -337.000; -339.000
420.758;  -81.900; -251.000; -425.000
420.883; -157.925; -876.000; -672.000
421.008; -155.650; -775.000; -619.000
421.133; -126.350; -509.000; -467.000
421.259;  -88.150; -325.000; -259.000
421.384; -172.950; -834.000; -693.000
421.509; -157.725;-1052.000; -862.000
421.634; -187.700; -936.000; -820.000
421.759; -107.400; -359.000; -327.000
421.885; -152.100; -717.000; -656.000
422.010; -117.975; -673.000; -542.000
422.135; -172.000; -695.000; -727.000
422.260;   -7.925;  340.000;  280.000
422.385;  -79.625;   12.000;  -98.000
422.510;  -38.350;  151.000;  -26.000
422.635;  -64.200;  -87.000;  -43.000
422.760; -150.600; -766.000; -791.000
422.885;  -67.300;  -57.000;  -80.000
423.010;  -65.325; -112.000; -169.000
423.135; -144.275; -481.000; -561.000
423.260;  -76.700; -150.000; -245.000
423.385;  -19.550;  476.000;  222.000
423.510;  -43.700;   71.000;  -22.000
423.635;  -59.000;  133.000;   45.000
423.760;  -15.000;  383.000;  328.000
423.885;  -14.075;  336.000;  391.000
424.010;  -66.925;  -68.000;  -13.000
424.135;  -72.075;    5.000;  -33.000
424.259; -140.025; -654.000; -457.000
424.384; -121.975; -279.000; -272.000
424.509;  -75.400; -260.000; -186.000
424.634; -159.950; -761.000; -623.000
424.759; -142.475; -688.000; -544.000
424.883; -139.775; -506.000; -527.000
425.008; -134.375; -502.000; -410.000
425.133; -154.375; -679.000; -653.000
425.258; -128.350; -517.000; -381.000
425.382; -166.450; -867.000; -774.000
425.507; -132.725; -487.000; -543.000
425.632; -160.725; -802.000; -663.000
425.756;  -91.925; -256.000; -146.000
425.881; -154.800; -831.000; -857.000
426.006; -121.750; -604.000; -355.000
426.130; -157.650; -696.000; -508.000
426.255; -139.675; -611.000; -491.000
426.379;  -89.075; -189.000; -577.000
426.504;    9.100;  660.000;  544.000
426.629; -141.900; -519.000; -466.000
426.753;  -79.825;   64.000;  -46.000
426.878; -105.500; -252.000; -288.000
427.002; -176.750; -651.000; -668.000
427.127;  -89.875;  -35.000; -158.000
427.251;  -10.875;  372.000;  401.000
427.375; -100.100; -191.000; -173.000
427.500; -140.050; -616.000; -610.000
427.624; -107.600; -234.000; -400.000
427.749;  -99.175; -216.000; -225.000
427.873; -121.325; -499.000; -412.000
427.997;  -90.925; -222.000; -230.000
428.122;   25.200;  795.000;  703.000
428.246;  -14.600;  433.000;  434.000
428.371; -176.900; -869.000; -773.000
428.495; -160.175; -624.000; -646.000
428.619;  -86.500; -186.000; -117.000
428.743;  -51.225;   65.000;  132.000
428.868; -168.550; -732.000; -643.000
428.992; -107.075; -219.000; -326.000
429.116; -135.550; -329.000; -357.000
429.240;  -19.150;  419.000;  426.000
429.365; -129.350; -454.000; -574.000
429.489; -140.050; -638.000; -647.000
429.613;  -76.325; -236.000; -177.000
429.737; -135.900; -563.000; -432.000
429.861; -114.375; -247.000; -133.000
429.985; -121.725; -425.000; -305.000
430.109; -187.625; -770.000; -908.000
430.234;  -40.175;   76.000;  -50.000
430.358; -104.600; -250.000; -160.000
430.482; -163.525; -672.000; -564.000
430.606; -144.500; -655.000; -375.000
430.730; -127.025; -437.000; -388.000
430.854; -188.750; -909.000; -835.000
430.978; -171.975; -795.000; -764.000
431.102; -148.250; -499.000; -422.000
431.226; -178.125; -874.000; -815.000
431.350;  -17.275;  345.000;  422.000
431.474; -127.025; -661.000; -373.000
431.597; -198.250;-1060.000; -848.000
431.721; -101.075; -276.000; -267.000
431.845; -156.000; -704.000; -472.000
431.969; -124.900; -304.000; -349.000
432.093; -130.500; -395.000; -317.000
432.217;  -44.050;   32.000;   82.000
432.341; -132.500; -523.000; -518.000
432.464;  -59.650;   96.000;   40.000
432.588; -132.400; -401.000; -329.000
432.712;  -82.950;  -52.000;  -52.000
432.836;  -20.850;  213.000;  263.000
432.959;  -96.850; -372.000; -311.000
433.083;  -74.850;   11.000;    2.000
433.207;    5.750;  285.000;  930.000
433.330;  -99.650; -391.000; -200.000
433.454; -152.025; -654.000; -638.000
433.578;    6.650;  583.000;  278.000
433.701; -161.675; -623.000; -675.000
433.825; -114.150; -292.000; -299.000
433.949;  -85.075;   28.000;  -72.000
434.072; -107.525; -410.000; -323.000
434.196;  -91.375; -309.000; -117.000
434.319; 3681.150;25482.000;25124.000
434.443; -165.600; -656.000; -603.000
434.566;  -39.900;  281.000;   62.000
434.690; -153.050; -637.000; -383.000
434.813;  -92.550; -251.000; -173.000
434.937; -143.500; -569.000; -696.000
435.060; -121.375; -423.000; -332.000
435.184; -109.850; -492.000; -217.000
435.307;  -63.775;  159.000;  102.000
435.431;  -63.800;  -40.000;   24.000
435.554; -109.125; -399.000; -240.000
435.677; -112.750; -350.000; -258.000
435.801;  -68.875;  -25.000;   49.000
435.924;  -82.600;    1.000;  -67.000
436.048; -192.975;-1019.000; -732.000
436.171;  -96.125; -240.000;  -66.000
436.294; -122.975; -248.000; -229.000
436.417; -191.225; -963.000; -849.000
436.541; -179.550; -814.000; -840.000
436.664;  -90.075; -242.000; -316.000
436.787;  -59.125;   13.000;  113.000
436.910; -163.075; -792.000; -422.000
437.034;  -64.900;  142.000;  143.000
437.157;  -59.275;  -11.000;    0.000
437.280; -126.050; -392.000; -292.000
437.403; -183.150; -982.000; -869.000
437.526; -194.975; -903.000; -865.000
437.649; -128.700; -505.000; -332.000
437.772; -156.400; -692.000; -540.000
437.896;   19.100;  700.000;  544.000
438.019; -146.450; -758.000; -503.000
438.142; -119.025; -596.000; -506.000
438.265; -165.150; -639.000; -670.000
438.388; -115.275; -520.000; -410.000
438.511; -133.350; -597.000; -394.000
438.634; -108.925; -247.000; -125.000
438.757; -171.300; -693.000; -619.000
438.880;  -75.900;  -34.000;  -57.000
439.003; -133.000; -417.000; -437.000
439.126;  -92.350; -287.000; -167.000
439.248;  -88.900;  -98.000; -139.000
439.371;  -52.800;    9.000;  -53.000
439.494;   17.325;  510.000;  439.000
439.617;  -63.325;   65.000;  -88.000
439.740; -205.700; -968.000; -816.000
439.863; -161.450; -755.000; -595.000
439.986; -151.550; -476.000; -431.000
440.108;  -96.750; -161.000; -112.000
440.231; -199.225; -950.000; -836.000
440.354;  -80.650;  -64.000; -150.000
440.477; -142.525; -566.000; -542.000
440.599; -126.175; -200.000; -225.000
440.722; -159.225; -709.000; -586.000
440.845;   48.375;  751.000;  928.000
440.968; -128.225; -415.000; -311.000
441.090;  -91.375; -199.000;  -33.000
441.213; -212.500;-1021.000; -825.000
441.336;  -69.425; -159.000;   -5.000
441.458; -120.150; -549.000; -396.000
441.581; -166.800; -628.000; -629.000
441.703;  -94.400; -152.000;   13.000
441.826; -146.850; -557.000; -400.000
441.948;  -69.525;   56.000;   51.000
442.071;   11.150;  555.000;  424.000
442.193; -130.300; -531.000; -485.000
442.316;  -62.975;  152.000;   97.000
442.438; -104.225; -233.000;  -10.000
442.561;  -29.275;  272.000;  262.000
442.683; -150.550; -809.000; -522.000
442.806;  -65.050;   -8.000;   74.000
442.928; -183.050; -859.000; -604.000
443.051; -129.300; -577.000; -373.000
443.173; -124.800; -341.000; -339.000
443.295; -121.450; -263.000; -371.000
443.418; -110.800; -321.000;  -29.000
443.540;  -83.200; -106.000;   -4.000
443.662; -161.125; -563.000; -465.000
443.785;  -26.150;  335.000;  199.000
443.907; -137.500; -362.000; -208.000
444.029; -157.300; -767.000; -494.000
444.152; -167.250; -644.000; -554.000
444.274;  -68.950;  -18.000;  -24.000
444.396; -134.000; -461.000; -221.000
444.518; -152.100; -691.000; -454.000
444.640; -133.150; -268.000; -111.000
444.763;  -47.400;  388.000;  249.000
444.885; -145.725; -432.000; -392.000
445.007;  -60.950;   35.000;   86.000
445.129; -140.400; -610.000; -515.000
445.251; -140.175; -372.000; -439.000
445.373; -163.100; -537.000; -386.000
445.495;  -17.225;  242.000;  350.000
445.617;   24.200;  853.000;  753.000
445.739; -105.000; -215.000;  -97.000
445.861;  -82.225; -245.000; -112.000
445.984; -115.950; -267.000; -101.000
446.105; -119.225; -418.000; -251.000
446.227;  -97.700; -176.000;  -19.000
446.349; -139.000; -358.000; -249.000
446.471; -158.450; -615.000; -448.000
446.593; -122.325; -316.000;   19.000
446.715;  -74.375;  -67.000;   41.000
446.837;   35.925;  697.000;  832.000
446.959; -138.850; -457.000; -478.000
447.081; -154.425; -628.000; -518.000
447.203;   48.800;  862.000;  834.000
447.325; -113.625; -270.000;   42.000
447.446;  -36.150;  286.000;  530.000
447.568; -211.350; -921.000; -803.000
447.690; -113.350; -236.000; -245.000
447.812; -181.175; -798.000; -519.000
447.933;  -50.550;  155.000;  127.000
448.055; -111.575; -306.000; -261.000
448.177;  -61.525;   31.000;   79.000
448.299; -214.600; -935.000; -727.000
448.420;  -58.400;  -25.000;  159.000
448.542;  -76.675;   -3.000;   33.000
448.664;  -46.600;  109.000;  322.000
448.785;  -53.500;  265.000;   83.000
448.907; -144.425; -614.000; -353.000
449.028; -166.725; -771.000; -471.000
449.150;   -0.125;  492.000;  589.000
449.272; -215.300;-1044.000; -913.000
449.393;   -1.675;  612.000;  694.000
449.515; -187.400; -634.000; -581.000
449.636; -118.075; -264.000; -155.000
449.758;    9.575;  763.000;  622.000
449.879; -120.325; -498.000; -396.000
450.001; -104.650; -149.000;  -49.000
450.122;  -70.675;  -95.000;  162.000
450.244;  -53.175;   37.000;  364.000
450.365; -137.375; -495.000; -301.000
450.486;  -81.800;   80.000;  268.000
450.608;  -49.600;  393.000;  326.000
450.729;  -11.200;  578.000;  645.000
450.850; -148.450; -574.000; -466.000
450.972; -162.275; -552.000; -389.000
451.093;  -33.975;  190.000;  588.000
451.214; -135.775; -516.000; -337.000
451.336;   33.050;  773.000;  579.000
451.457;  -34.675;  264.000;  393.000
451.578;  -65.650; -118.000;  -74.000
451.699; -154.900; -546.000; -540.000
451.821;  -97.375; -284.000;  -50.000
451.942;  -47.100;  278.000;  285.000
452.063;  -25.950;  228.000;  419.000
452.184;  -96.800;  -54.000;  -49.000
452.305;  -27.275;  103.000;  170.000
452.427; -139.875; -549.000; -301.000
452.548;  -82.325;   23.000;   79.000
452.669; -113.750; -257.000;  -89.000
452.790;  -83.950;    3.000;  -18.000
452.911;  -53.525;  195.000;  259.000
453.032; -107.875; -289.000;  -60.000
453.153;  -82.900;  -29.000;   81.000
453.274;   36.575;  737.000;  868.000
453.395;  -93.150;  -51.000;  175.000
453.516;   81.700; 1317.000; 1388.000
453.637; -108.750; -205.000; -150.000
453.758;  -70.025;   15.000;   69.000
453.879; -140.050; -462.000; -250.000
454.000;   42.675; 1086.000;  948.000
454.121; -158.675; -554.000; -326.000
454.242; -155.825; -599.000; -383.000
454.362;  -68.175;  -99.000;  114.000
454.483; -121.800; -309.000; -229.000
454.604;  -21.325;  512.000;  580.000
454.725; -151.550; -627.000; -555.000
454.846; -146.150; -474.000; -406.000
454.967;  -44.825;  230.000;  539.000
455.087;  -60.800;  179.000;  153.000
455.208;    4.525;  554.000;  856.000
455.329;  -83.200;  -22.000;   82.000
455.450;   -0.925;  473.000;  633.000
455.570; -120.725; -234.000; -211.000
455.691;  -65.925;  201.000;  407.000
455.812; -117.175; -270.000;  -92.000
455.932;  -75.150;  107.000;  -97.000
456.053;  -89.050;   36.000;   24.000
456.173; -123.800; -433.000; -355.000
456.294; -154.100; -476.000; -303.000
456.415;  -79.725;  -73.000;   70.000
456.535;  -43.225;  297.000;  273.000
456.656;  -63.825;  132.000;  240.000
456.776;  -88.425;    3.000;  298.000
456.897;  -39.525;  308.000;  513.000
457.017;  -98.925; -153.000;   -3.000
457.138; -145.675; -402.000; -249.000
457.258;  -56.125;  263.000;  224.000
457.379;  -36.575;  509.000;  521.000
457.499;  -43.725;  443.000;  432.000
457.620; -135.650; -407.000; -231.000
457.740; -116.325; -132.000;  -11.000
457.860;  -80.225;   87.000;   44.000
457.981;  -96.300;  132.000;  124.000
458.101; -100.225;  -89.000;   40.000
458.221;  -35.125;  336.000;  402.000
458.342;  -84.525;   -4.000;  -37.000
458.462;  -34.625;  617.000;  352.000
458.582; -119.475; -302.000; -294.000
458.703;  -75.650;  303.000;  154.000
458.823;  -87.525;   22.000;  163.000
458.943;  -50.975;  341.000;  467.000
459.063;  -73.475; 1124.000;  192.000
459.183;  -67.550;  328.000;  313.000
459.304;  -34.325;  315.000;  517.000
459.424; -108.275; -246.000;  -89.000
459.544;  -13.850;  388.000;  764.000
459.664;  -29.975;  499.000;  506.000
459.784;   34.800; 1004.000; 1175.000
459.904;   -0.575;  867.000;  744.000
460.024;   29.100;  867.000;  684.000
460.144;  -24.275;  449.000;  554.000
460.264;  -25.225;  515.000;  327.000
460.385; -105.625; -145.000; -119.000
460.505;   29.900;  905.000;  858.000
460.625;  -94.975;  -17.000;  -68.000
460.745;  -50.500;  396.000;  541.000
460.864;  -60.625;  153.000;  469.000
460.984;  -13.475;  499.000;  573.000
461.104;  103.625; 1656.000; 1775.000
461.224;    2.750;  657.000;  650.000
461.344;  -57.700;  431.000;  360.000
461.464;  -56.350;  258.000;  513.000
461.584;  -42.525;  283.000;  466.000
461.704;  -85.925;   58.000;  108.000
461.824;  -70.850;  238.000;  259.000
461.943;  -56.850;  191.000;  130.000
462.063; -104.175;    2.000;  324.000
462.183;   -4.600;  639.000;  717.000
462.303;   85.975; 1678.000; 1230.000
462.422;    0.675;  781.000;  840.000
462.542;  -61.300;  271.000;  391.000
462.662;  -37.775;  353.000;  380.000
462.782;  -23.350;  833.000;  572.000
462.901;  -30.300;  545.000;  717.000
463.021;  114.050; 1702.000; 1638.000
463.141;  -56.425;  337.000;  770.000
463.260;  -43.025;  614.000;  474.000
463.380;  -11.375;  902.000;  884.000
463.499;  -50.250;  342.000;  332.000
463.619;  -50.400;  581.000;  559.000
463.738;  104.050; 1644.000;  903.000
463.858;  -19.825;  657.000;  811.000
463.978;  -49.600;  542.000;  396.000
464.097;   23.475;  921.000; 1114.000
464.217;   46.950; 1196.000; 1143.000
464.336;   53.075; 1068.000; 1130.000
464.455;  -54.425;  328.000;  659.000
464.575;  -20.975;  597.000;  602.000
464.694;   44.325; 1204.000; 1179.000
464.814;   20.600; 1190.000; 1138.000
464.933;   37.850; 1095.000; 1027.000
465.052;   49.500; 1412.000; 1054.000
465.172;   -6.875;  922.000;  799.000
465.291;   70.650; 1376.000; 1320.000
465.410;  -28.850;  462.000;  735.000
465.530;   50.650; 1355.000; 1310.000
465.649;   40.650; 1209.000; 1273.000
465.768;  101.975; 1673.000; 1508.000
465.888;   22.850;  941.000; 1174.000
466.007;   74.525; 1335.000; 1440.000
466.126;  -26.000;  721.000;  641.000
466.245;   26.775; 1176.000; 1187.000
466.364;  -10.200;  950.000; 1060.000
466.484;   43.225; 1024.000; 1213.000
466.603;   11.125; 1101.000; 1222.000
466.722;   89.825; 1490.000; 1769.000
466.841;   48.750; 1151.000; 1401.000
466.960;   11.325; 1069.000;  972.000
467.079;  131.325; 1971.000; 1786.000
467.198;   34.975; 1238.000; 1181.000
467.317;   74.875; 1768.000; 1162.000
467.436;   55.675; 1709.000; 1261.000
467.555;  105.600; 1796.000; 1746.000
467.674;   42.825; 1227.000; 1329.000
467.793;   38.700; 1376.000; 1374.000
467.912;   74.250; 1658.000; 1539.000
468.031;  116.125; 2038.000; 1930.000
468.150;  121.075; 1842.000; 1837.000
468.269;  168.025; 2313.000; 2090.000
468.388;  171.275; 2168.000; 2339.000
468.507;  258.025; 2884.000; 2903.000
468.626;  222.725; 2555.000; 2541.000
468.744;  130.900; 2018.000; 2174.000
468.863;  187.975; 2312.000; 2523.000
468.982;   84.050; 1503.000; 1555.000
469.101;  212.575; 2788.000; 2692.000
469.220;  141.575; 2333.000; 2176.000
469.338;  244.325; 2935.000; 3051.000
469.457;  174.950; 2719.000; 2545.000
469.576;  325.050; 3953.000; 3784.000
469.695;  216.675; 2877.000; 3066.000
469.813;  404.375; 4148.000; 4192.000
469.932;  381.825; 4255.000; 4485.000
470.051;  346.350; 4075.000; 4161.000
470.169;  388.350; 4470.000; 4338.000
470.288;  404.050; 4700.000; 4809.000
470.406;  462.500; 5059.000; 5194.000
470.525;  561.850; 6101.000; 5787.000
470.644;  606.225; 6847.000; 6794.000
470.762;  775.775; 8397.000; 7873.000
470.881;  847.700; 8651.000; 8464.000
470.999;  955.850; 9685.000; 9151.000
471.118; 1091.325;11174.000;10711.000

