
Integration time [ms]: 100.000
Averaging Nr. [scans]: 40
Smoothing Nr. [pixels]: 0
Data measured with spectrometer [name]: 2101012U2
Wave   ;Sample   ;Dark     ;Reference
[nm]   ;[counts] ;[counts] ;[counts] 

197.733;   67.425;  516.000;  404.000
197.879;  -79.750; -610.000; -634.000
198.025;  -44.575; -475.000; -420.000
198.171;  -80.275; -602.000; -612.000
198.317;  -42.675; -401.000; -316.000
198.463;  -67.850; -655.000; -404.000
198.609;   23.625;  181.000; -137.000
198.755;  -83.000; -644.000; -410.000
198.901;  -70.700; -505.000; -424.000
199.047;  -74.300; -615.000; -488.000
199.193;  -36.525; -230.000; -468.000
199.339;  -43.975; -222.000; -369.000
199.485;   45.575;  330.000;  271.000
199.631;    9.325;  227.000;  310.000
199.777;  -52.700; -466.000; -398.000
199.923;  -63.025; -610.000; -424.000
200.069;   -5.650; -141.000;  -58.000
200.215;   54.025;  128.000;  453.000
200.361;   59.000;  243.000;  477.000
200.507;  -57.350; -600.000; -373.000
200.653;  -24.425; -371.000; -194.000
200.798;  -16.475; -215.000; -125.000
200.944;   -0.900; -146.000;  -41.000
201.090;   33.450;   61.000;  222.000
201.236;   -0.825; -116.000; -158.000
201.382;  123.900;  874.000;  903.000
201.528;   16.300;  -58.000;  -48.000
201.674;  -42.525; -386.000; -293.000
201.819;  -70.275; -540.000; -439.000
201.965;  -83.725; -699.000; -447.000
202.111;  -29.825; -273.000; -226.000
202.257;  -32.375; -250.000; -238.000
202.402;   -8.050;   13.000;  -36.000
202.548;  -25.775; -169.000; -116.000
202.694;   97.650;  410.000; -183.000
202.840;  -75.450; -603.000; -531.000
202.985;  -75.300; -681.000; -639.000
203.131; -113.450; -832.000; -666.000
203.277;  -23.900; -199.000; -262.000
203.423;  -33.225; -434.000; -520.000
203.568;  -55.250; -462.000; -237.000
203.714;  -65.700; -535.000; -542.000
203.860;  -77.625; -682.000; -641.000
204.005;   23.675;  112.000;  167.000
204.151;   76.275;  561.000;  556.000
204.296;  -57.275; -354.000; -221.000
204.442;  -76.175; -600.000; -547.000
204.588;  -78.200; -592.000; -579.000
204.733;   28.125;  178.000;  168.000
204.879; -127.200;-1018.000; -822.000
205.025;   11.350;  -99.000;  126.000
205.170;    0.075;  -17.000;   94.000
205.316;   69.875;  438.000;  661.000
205.461;  -84.300; -698.000; -554.000
205.607;   88.950;  609.000;  665.000
205.752;  -79.950; -626.000; -551.000
205.898;  -62.500; -501.000; -391.000
206.043;  -69.550; -578.000; -506.000
206.189;  -52.750; -243.000; -285.000
206.334;   68.450;  554.000;  606.000
206.480;   80.025;  409.000;  239.000
206.625;  -77.125; -529.000; -552.000
206.771;  -49.275; -451.000; -373.000
206.916;  -33.100; -210.000; -537.000
207.062;  -88.525; -545.000; -591.000
207.207;  -60.075; -546.000; -443.000
207.353;   52.850;  185.000;  460.000
207.498;   18.100;  196.000;   85.000
207.643;  -45.875; -501.000; -370.000
207.789; -132.775;-1069.000; -910.000
207.934; -109.725; -665.000; -713.000
208.080;  -27.375; -154.000;   66.000
208.225;  -20.125;  -22.000;  -57.000
208.370;  -81.750; -727.000; -619.000
208.516;  -75.550; -741.000; -487.000
208.661;  -31.950; -127.000;  -69.000
208.806;  -20.200; -165.000; -171.000
208.952; -129.725;-1044.000; -731.000
209.097;   84.475;  378.000;  349.000
209.242;  -42.350; -307.000; -382.000
209.387;   67.425;  392.000;  350.000
209.533;  -50.700; -321.000; -350.000
209.678;   84.400;  472.000;  543.000
209.823;  -47.075; -408.000; -310.000
209.969;  -97.550; -860.000; -757.000
210.114; -118.875; -907.000; -719.000
210.259; -114.625; -939.000; -889.000
210.404;  -15.350; -171.000;  103.000
210.549;   12.425;  108.000;    3.000
210.695;  -22.225;   -3.000;  -95.000
210.840;   30.625;   94.000;   67.000
210.985;  -66.375; -484.000; -303.000
211.130;   65.000;  268.000;  406.000
211.275;   21.200;  207.000;  199.000
211.420;  -55.175; -300.000; -289.000
211.566;  -74.825; -536.000; -489.000
211.711;   20.650;  218.000;  157.000
211.856;  -76.675; -545.000; -519.000
212.001;    8.525;  151.000;   44.000
212.146;   31.775;  153.000;   49.000
212.291;  -12.150; -210.000; -186.000
212.436;  -23.050; -280.000;   -6.000
212.581;  -81.675; -685.000; -653.000
212.726;  -71.875; -487.000; -538.000
212.871;  -47.525; -552.000; -217.000
213.016; -156.850;-1172.000;-1029.000
213.161;   72.125;  406.000;  291.000
213.306;  -80.525; -435.000; -577.000
213.451;  -93.225; -778.000; -689.000
213.596;  -47.700; -455.000; -347.000
213.741;  -62.125; -448.000; -538.000
213.886;  -90.700; -498.000; -517.000
214.031;  -27.200; -294.000; -124.000
214.176;  -53.600; -408.000; -341.000
214.321;  -18.250; -296.000; -157.000
214.466;  -31.775; -163.000;  -43.000
214.611;  -12.075;  -61.000;  -10.000
214.756; -120.775; -948.000; -858.000
214.901;  -20.675; -388.000; -226.000
215.046; -122.000; -797.000; -825.000
215.191;   20.575;  128.000;   35.000
215.336;  -23.375; -157.000;  -19.000
215.480;  -59.500; -684.000; -505.000
215.625;   -9.625; -175.000;  -19.000
215.770;  -83.725; -757.000; -662.000
215.915;   -2.975;   -5.000;  -97.000
216.060;   -9.350; -113.000;  -21.000
216.205; -126.475; -731.000; -779.000
216.349;  -74.375; -470.000; -533.000
216.494; -135.950; -939.000; -867.000
216.639; -119.200; -823.000; -888.000
216.784;  -89.225; -577.000; -525.000
216.929;   61.125;  392.000;  281.000
217.073;  -13.175; -244.000;  -31.000
217.218;    7.075;   78.000;  -47.000
217.363;  -89.025; -656.000; -618.000
217.507;  -79.725; -623.000; -588.000
217.652; -129.075; -845.000; -874.000
217.797;  -84.200; -708.000; -659.000
217.942; -120.725; -856.000; -720.000
218.086;   72.125;  608.000;  539.000
218.231;  -21.425; -174.000;  -26.000
218.376;  -37.925; -337.000; -229.000
218.520;   -9.700;  -41.000;   96.000
218.665;  -37.975; -338.000; -204.000
218.810;  -45.250; -275.000; -233.000
218.954;    8.275;  201.000;   35.000
219.099; -117.375; -713.000; -963.000
219.243;  -75.650; -589.000; -554.000
219.388;  -38.150; -264.000; -136.000
219.532;  -10.325; -116.000; -116.000
219.677;  -88.300; -564.000; -521.000
219.822;    6.900;   33.000;   89.000
219.966;    5.850;   17.000;  -99.000
220.111;  -41.600; -328.000;  -40.000
220.255; -107.275; -797.000; -750.000
220.400;  -26.675; -180.000; -146.000
220.544;  -67.250; -516.000; -450.000
220.689;  -59.375; -422.000; -451.000
220.833;  -26.750; -123.000;  -58.000
220.978;  -34.750; -393.000; -563.000
221.122;   27.100;  319.000;  307.000
221.267; -113.525; -906.000; -837.000
221.411;  -57.025; -478.000; -394.000
221.555;  -11.475; -104.000;  -23.000
221.700;  -40.525; -329.000; -222.000
221.844;   33.925;  255.000;  272.000
221.989;  -47.325; -328.000; -311.000
222.133;  -43.300; -289.000; -307.000
222.277;   -9.700;    5.000;   78.000
222.422;   22.975;  227.000;  113.000
222.566;  -32.675; -381.000; -214.000
222.711;  -69.225; -414.000; -479.000
222.855;  -90.650; -643.000; -586.000
222.999;  -90.625; -642.000; -717.000
223.144;  -38.975; -195.000; -194.000
223.288;   47.275;  423.000;  251.000
223.432;   47.325;  184.000;  230.000
223.576;   14.550;  152.000;  -21.000
223.721;   50.850;  364.000;  273.000
223.865;  -58.875; -472.000; -475.000
224.009;  234.125; 1673.000; 1631.000
224.153;  -90.025; -660.000; -671.000
224.298;  -58.375; -531.000; -489.000
224.442;  -17.400;  -74.000;  -33.000
224.586;  -17.375; -169.000; -106.000
224.730;  -94.750; -858.000; -670.000
224.875; -116.900; -739.000; -688.000
225.019;    3.175;  102.000;  188.000
225.163;   69.800;  208.000;  341.000
225.307;   19.700;   97.000;  -91.000
225.451;   49.675;  360.000;  481.000
225.595;   37.675;  264.000;  176.000
225.739;  -13.825; -170.000;  -94.000
225.884;    1.700;   86.000;    5.000
226.028;  -96.875; -760.000; -626.000
226.172;  -48.625; -260.000; -273.000
226.316; -129.250; -941.000; -902.000
226.460;  -66.850; -645.000; -493.000
226.604;  -55.950; -406.000; -400.000
226.748; -113.100; -836.000; -733.000
226.892;  -42.375; -227.000; -181.000
227.036;  -44.375; -537.000; -447.000
227.180;  -68.025; -551.000; -375.000
227.324;  -64.750; -561.000; -580.000
227.468; -115.900; -819.000; -717.000
227.612;   -1.950;  242.000;  -28.000
227.756; -101.100; -845.000; -698.000
227.900;   51.450;  342.000;  441.000
228.044;  -62.100; -509.000; -290.000
228.188;   60.975;  448.000;  568.000
228.332;  -89.750; -546.000; -472.000
228.476;  -30.075; -223.000; -149.000
228.620;  -28.000; -210.000; -150.000
228.764;   62.400;  431.000;  349.000
228.908;  -10.475; -155.000;   30.000
229.052;  -66.250; -615.000; -528.000
229.195;  -23.250; -172.000;   13.000
229.339;  -35.775; -235.000; -305.000
229.483;  -16.400;    5.000; -162.000
229.627;   -1.950; -156.000;  139.000
229.771;  -59.575; -218.000; -294.000
229.915;   12.725;  230.000;   79.000
230.059;  -87.475; -648.000; -663.000
230.202;  -54.350; -370.000; -317.000
230.346;  -11.675; -107.000;  107.000
230.490;  -59.100; -489.000; -521.000
230.634; -106.475; -736.000; -553.000
230.777;   87.650;  478.000;  509.000
230.921;  -52.050; -450.000; -359.000
231.065;  -47.575; -246.000; -286.000
231.209;   23.450;  261.000;  265.000
231.352;   31.750;   54.000;   40.000
231.496;    8.400;  568.000;  188.000
231.640;  -83.550; -693.000; -621.000
231.783;   57.825;  546.000;  525.000
231.927;  -39.925; -294.000; -365.000
232.071; -135.100; -962.000; -736.000
232.214; -107.225; -980.000; -764.000
232.358; -101.550; -683.000; -599.000
232.502;    4.425;  -19.000;    7.000
232.645; -136.000;-1090.000; -927.000
232.789;  -34.825; -257.000; -218.000
232.933;  -36.100; -407.000; -224.000
233.076; -133.350;-1038.000; -897.000
233.220; -112.025; -752.000; -777.000
233.363;  -80.450; -669.000; -477.000
233.507;   52.550;  371.000;  129.000
233.650; -111.100; -764.000; -834.000
233.794;   60.325;  438.000;  461.000
233.938;  -67.000; -530.000; -362.000
234.081;  -29.250;  -93.000;   31.000
234.225;  -88.625; -631.000; -539.000
234.368; -116.800; -773.000; -723.000
234.512;  -57.925; -385.000; -299.000
234.655;  -99.925; -582.000; -555.000
234.798;  -72.775; -493.000; -466.000
234.942; -132.025; -884.000;-1002.000
235.085;  -75.250; -651.000; -443.000
235.229;  -83.250; -405.000; -410.000
235.372;  -51.025; -247.000; -191.000
235.516;  -65.375; -397.000; -321.000
235.659;   23.000;   92.000;  121.000
235.802;  -21.275;  -38.000;  -22.000
235.946;   42.650;  335.000;  215.000
236.089;   35.725;  126.000;  250.000
236.233;   51.625;  275.000;  298.000
236.376;  -35.300; -235.000; -378.000
236.519;  -45.925; -297.000; -319.000
236.663;  -38.650; -215.000; -117.000
236.806; -144.650;-1029.000; -999.000
236.949;   46.925;  543.000;  431.000
237.092;   60.075;  412.000;  391.000
237.236;  -83.900; -589.000; -502.000
237.379;   56.125;  352.000;  428.000
237.522; -123.900; -879.000; -768.000
237.666;  -21.100; -271.000;   18.000
237.809; -125.450; -851.000; -823.000
237.952;   32.200;  469.000;  271.000
238.095;  -74.450; -447.000; -442.000
238.238;   81.950;  688.000;  700.000
238.382;   -2.675;  166.000;  103.000
238.525;  -62.525; -598.000; -511.000
238.668; -146.375;-1060.000; -985.000
238.811;  -89.425; -638.000; -643.000
238.954;  -63.400; -483.000; -334.000
239.097;  111.450;  617.000;  664.000
239.241;   27.375;  394.000;  326.000
239.384;  -21.975; -254.000; -214.000
239.527;  -60.950; -424.000; -224.000
239.670; -147.275; -994.000;-1091.000
239.813; -118.125; -696.000; -658.000
239.956;   57.525;  579.000;  473.000
240.099; -106.800; -778.000; -725.000
240.242;   63.600;  428.000;  432.000
240.385;   44.700;  466.000;  450.000
240.528;  -93.425; -706.000; -473.000
240.671;   17.925;  189.000;  134.000
240.814;  -44.525; -441.000; -158.000
240.957;  -99.875; -767.000; -578.000
241.100; -103.375; -779.000; -755.000
241.243; -147.950;-1234.000; -893.000
241.386;  -60.025; -508.000; -379.000
241.529;  -93.875; -735.000; -547.000
241.672;  -70.250; -566.000; -495.000
241.815; -128.775; -832.000; -808.000
241.958;  -30.525; -125.000; -182.000
242.101;  -79.325; -545.000; -390.000
242.244;  -50.850; -270.000; -325.000
242.387;  -29.350; -304.000; -246.000
242.530;   60.600;  470.000;  134.000
242.673;  -39.750; -381.000; -309.000
242.815; -127.325; -925.000; -899.000
242.958;  -69.300; -482.000; -381.000
243.101;   13.550;  132.000;  187.000
243.244;  -70.625; -564.000; -521.000
243.387;  -58.550; -313.000; -316.000
243.530;  -99.825; -657.000; -674.000
243.672;   -2.550;   43.000;  -92.000
243.815;  -65.825; -355.000; -283.000
243.958;   -7.000;   98.000;  -26.000
244.101;   -6.250;   59.000;  -16.000
244.243;  -19.925;  -47.000;  101.000
244.386; -111.975; -761.000; -630.000
244.529;  -28.275; -132.000; -139.000
244.672; -160.200;-1154.000; -951.000
244.814; -118.675; -621.000; -794.000
244.957;  -59.550; -380.000; -304.000
245.100;  -79.725; -489.000; -489.000
245.242;  -55.075; -387.000; -374.000
245.385;   -6.250;  -59.000;  -39.000
245.528; -127.825; -871.000; -705.000
245.670;  102.950;  612.000;  634.000
245.813;  -91.600; -599.000; -547.000
245.956;  -45.550; -324.000; -275.000
246.098;  -69.700; -508.000; -650.000
246.241;    6.025;  194.000;   48.000
246.383;  -13.350; -119.000;  -73.000
246.526;  -81.775; -454.000; -525.000
246.669; -125.325; -889.000; -780.000
246.811;   23.050;  172.000;   -1.000
246.954;  -67.275; -512.000; -426.000
247.096;  -28.300;  -84.000;   -6.000
247.239;  -74.650; -482.000; -445.000
247.381;  -75.975; -647.000; -488.000
247.524;   81.575;  645.000;  679.000
247.666;  -11.300;   58.000;   11.000
247.809; -114.275; -887.000; -691.000
247.951;  -20.625;  -75.000;  138.000
248.094;   35.025;  432.000;  308.000
248.236; -173.650;-1262.000;-1238.000
248.378;    5.800; -356.000;  -81.000
248.521;  -19.625; -334.000; -337.000
248.663;  -52.450; -236.000; -267.000
248.806;  -26.600; -300.000; -266.000
248.948; -100.100; -886.000; -763.000
249.090;  -56.350; -428.000; -398.000
249.233;  -66.350; -344.000; -381.000
249.375;  -73.300; -474.000; -451.000
249.518;  -24.000;  -83.000; -133.000
249.660;  -27.850; -103.000;    3.000
249.802; -176.700;-1303.000;-1189.000
249.945;  -73.825; -612.000; -540.000
250.087; -117.650; -834.000; -768.000
250.229;  -41.850; -362.000; -480.000
250.371;  -82.850; -494.000; -439.000
250.514;  -50.375; -310.000; -244.000
250.656;   -5.825;   69.000;  102.000
250.798; -118.325; -849.000; -800.000
250.940;  -75.550; -322.000; -322.000
251.083;  -32.275; -335.000; -111.000
251.225;   52.325;  338.000;  310.000
251.367;  -36.350; -274.000; -373.000
251.509;  -29.025; -265.000; -210.000
251.651;  -94.625; -731.000; -671.000
251.794;   50.550;  538.000;  632.000
251.936; -106.925; -821.000; -747.000
252.078;  -85.875; -540.000; -461.000
252.220;  -77.425; -645.000; -477.000
252.362;   85.050;  344.000;  462.000
252.504;  -89.025; -677.000; -584.000
252.646; -112.500; -875.000; -722.000
252.788;  -11.525;   14.000; -128.000
252.931;  -39.050; -257.000; -253.000
253.073;  -41.300; -376.000; -317.000
253.215;  -16.200;  141.000;  122.000
253.357;  -25.775;   82.000; -153.000
253.499;  -46.525; -374.000; -234.000
253.641;  -83.450; -749.000; -594.000
253.783;  -92.675; -609.000; -527.000
253.925;  -87.750; -586.000; -591.000
254.067; -108.325; -744.000; -667.000
254.209;  -30.325; -391.000; -259.000
254.351; -148.950; -865.000; -883.000
254.493;  -58.925; -441.000; -417.000
254.635; -124.600; -936.000; -818.000
254.777;  -93.375; -752.000; -687.000
254.918;  -71.150; -512.000; -430.000
255.060;  -55.525; -551.000; -395.000
255.202;  -57.300; -473.000; -261.000
255.344;  -86.050; -658.000; -455.000
255.486;  -74.825; -471.000; -406.000
255.628; -110.325; -780.000; -781.000
255.770; -117.825; -676.000; -536.000
255.912;  -57.400; -559.000; -468.000
256.053;  -84.375; -730.000; -508.000
256.195;  149.625; 1008.000;  903.000
256.337; -104.925; -861.000; -595.000
256.479;   67.100;  532.000;  416.000
256.621;  -54.025; -394.000; -212.000
256.762; -103.525; -789.000; -742.000
256.904;   54.000;  485.000;  487.000
257.046;  -47.050; -381.000; -271.000
257.188;  -45.675; -351.000; -264.000
257.329;  -71.025; -525.000; -464.000
257.471; -126.350; -939.000; -807.000
257.613;  -81.275; -584.000; -498.000
257.755; -141.825;-1073.000; -982.000
257.896;   31.050;  286.000;  392.000
258.038;  -77.875; -403.000; -352.000
258.180;  -45.050; -354.000; -279.000
258.321;  -78.375; -581.000; -457.000
258.463;  -17.025;  -71.000;  133.000
258.605;  -94.900; -562.000; -570.000
258.746; -109.050; -886.000; -772.000
258.888; -161.175;-1026.000;-1020.000
259.029;   18.700;  121.000;   -8.000
259.171;  -87.500; -614.000; -550.000
259.313;    6.675;  -49.000;  -47.000
259.454;  -82.625; -536.000; -414.000
259.596;  -75.600; -483.000; -390.000
259.737;  -93.250; -590.000; -474.000
259.879;   35.775;  217.000;  311.000
260.020;   80.200;  901.000;  636.000
260.162;  -41.100; -146.000; -253.000
260.303; -115.350; -768.000; -687.000
260.445;  -84.950; -609.000; -613.000
260.586;   23.050;  392.000;  157.000
260.728;  -49.275; -360.000; -248.000
260.869; -123.500; -350.000; -343.000
261.011;   76.225;  706.000;  537.000
261.152;  -61.850; -479.000; -319.000
261.293;  -77.000; -576.000; -595.000
261.435;  -37.675; -219.000; -184.000
261.576;  -61.625; -455.000; -325.000
261.718;   61.550;  420.000;  470.000
261.859; -132.800; -940.000; -949.000
262.000; -127.450; -951.000;-1016.000
262.142;  -26.175;  -52.000;  -60.000
262.283; -114.500; -808.000; -691.000
262.424; -112.975; -666.000; -625.000
262.566; -146.625;-1161.000; -983.000
262.707; -122.025; -840.000; -830.000
262.848; -138.975; -769.000; -726.000
262.990;  -49.225; -362.000; -345.000
263.131;   80.300;  650.000;  681.000
263.272;  -11.725;  -61.000;  -41.000
263.413;  -99.825; -589.000; -561.000
263.555;  -75.625; -669.000; -143.000
263.696;  -91.200; -550.000; -641.000
263.837;  -67.900; -449.000; -551.000
263.978;   -3.000;   -5.000;  -77.000
264.119;  -45.300; -283.000; -264.000
264.261; -116.675; -847.000; -630.000
264.402;   -1.375;   33.000;   40.000
264.543;  -71.750; -509.000; -524.000
264.684;  -15.150;   61.000;  -50.000
264.825;  -73.550; -816.000; -538.000
264.966;  -13.250;  -84.000;  -67.000
265.107; -113.675; -646.000; -670.000
265.248; -124.300; -825.000; -812.000
265.390;  -19.450;  152.000;   -9.000
265.531;  -20.800; -238.000; -107.000
265.672;  -88.650; -557.000; -630.000
265.813;   66.750;  563.000;  439.000
265.954; -142.900; -959.000; -940.000
266.095;  -13.975; -372.000; -322.000
266.236; -101.275; -686.000; -548.000
266.377;  -46.825; -243.000; -297.000
266.518;  -80.050; -619.000; -547.000
266.659;   16.700;  170.000;  268.000
266.800;    3.425;   83.000;   85.000
266.941;  -88.100; -487.000; -478.000
267.082;   34.925;  354.000;   99.000
267.223;  -40.125; -344.000; -273.000
267.364; -116.375; -892.000; -686.000
267.504;  -11.750;    3.000;  135.000
267.645;   -9.700;  160.000;   67.000
267.786;  -30.150; -147.000;  -86.000
267.927;  -75.275; -473.000; -379.000
268.068;  -26.175; -186.000;  -61.000
268.209;  -46.925; -175.000; -413.000
268.350;  -74.975; -388.000; -532.000
268.490;  -83.050; -648.000; -521.000
268.631;   20.250;  127.000;  225.000
268.772; -115.850; -874.000; -647.000
268.913;  -51.575; -328.000; -476.000
269.054;   -3.600; -117.000;   12.000
269.194;  -57.600; -418.000; -402.000
269.335; -159.475;-1137.000;-1074.000
269.476;   -9.850;   33.000;  -35.000
269.617;  -58.725; -347.000; -392.000
269.757;  -94.900; -713.000; -646.000
269.898; -113.400; -856.000; -613.000
270.039;  -71.825; -415.000; -405.000
270.180; -137.975; -952.000; -816.000
270.320;  -32.275; -190.000; -250.000
270.461;  -48.025; -277.000; -249.000
270.602;  -19.700; -186.000; -156.000
270.742; -131.975; -868.000; -943.000
270.883;  -61.050; -442.000; -390.000
271.023;  -60.575; -358.000; -357.000
271.164;  -74.100; -607.000; -528.000
271.305;  -95.275; -666.000; -654.000
271.445;  -99.325; -722.000; -683.000
271.586;  -74.725; -462.000; -283.000
271.726;  -55.550; -397.000; -322.000
271.867;  -71.075; -594.000; -534.000
272.008;  166.850; -473.000; -285.000
272.148;  115.600;  462.000;  468.000
272.289;    2.525; -113.000; -181.000
272.429;   14.050;   19.000;  185.000
272.570;  -98.175; -633.000; -737.000
272.710; -113.875; -825.000; -775.000
272.851;  -37.300;  113.000; -130.000
272.991; -163.450;-1173.000;-1077.000
273.131;  -63.175; -419.000; -459.000
273.272; -108.525; -683.000; -723.000
273.412;   -6.900; -143.000;  -31.000
273.553;  -65.450; -488.000; -507.000
273.693;  131.950;  913.000;  858.000
273.834; -105.650; -894.000; -692.000
273.974;  -92.150; -664.000; -615.000
274.114; -101.675; -772.000; -560.000
274.255;   69.950;  414.000;  373.000
274.395;   -3.725; -180.000; -125.000
274.535;   32.875;  199.000;  350.000
274.676;   22.925;  225.000;   94.000
274.816;   -2.750;  110.000;   34.000
274.956;  -82.650; -624.000; -690.000
275.097;  -78.700;-1014.000; -922.000
275.237; -119.500; -913.000; -803.000
275.377; -109.625; -778.000; -689.000
275.517; -158.350; -878.000; -937.000
275.658;  -80.000; -590.000; -555.000
275.798;  -90.300; -606.000; -413.000
275.938;   21.375;  215.000;  323.000
276.078; -108.475; -626.000; -395.000
276.218;    7.975;   99.000;  104.000
276.359; -131.425;-1026.000;-1024.000
276.499;  -85.675; -605.000; -446.000
276.639;  -23.625; -305.000; -151.000
276.779;  -58.550; -475.000; -357.000
276.919; -107.000; -783.000; -624.000
277.059;  -37.525; -261.000; -212.000
277.199;  -51.525; -357.000; -259.000
277.340;   34.425;  287.000;  175.000
277.480; -104.525; -840.000; -693.000
277.620;   24.675;  192.000;   16.000
277.760; -197.125;-1533.000;-1294.000
277.900;    8.300;  113.000;   33.000
278.040;    4.875;  137.000;  159.000
278.180;   32.100;  270.000;  170.000
278.320;   -5.800;   21.000;   56.000
278.460;  -74.450; -443.000; -469.000
278.600;  -97.850; -708.000; -598.000
278.740;   45.475;  448.000;  224.000
278.880;  -83.425; -768.000; -791.000
279.020;  -30.900; -194.000; -144.000
279.160; -100.525; -672.000; -595.000
279.300; -129.150; -926.000; -873.000
279.440;  -98.050; -709.000; -622.000
279.579;  -37.125;-1014.000; -929.000
279.719;  -61.000; -410.000; -394.000
279.859;   58.250;   -4.000;   41.000
279.999;   23.275; -208.000;  101.000
280.139;  -25.625; -435.000; -387.000
280.279;  -68.975; -708.000; -745.000
280.419;  -20.650; -229.000; -147.000
280.559;  -33.250; -259.000; -180.000
280.698; -104.625; -790.000; -639.000
280.838; -107.400; -778.000; -800.000
280.978; -116.150; -846.000; -790.000
281.118; -121.050; -811.000; -704.000
281.257;    0.200;   24.000;    6.000
281.397; -126.600;-1094.000; -960.000
281.537;  -99.550; -599.000; -712.000
281.677;  -38.700; -150.000; -101.000
281.816;  -83.650; -700.000; -630.000
281.956;  -41.525; -193.000; -257.000
282.096;  -68.725; -539.000; -396.000
282.235; -115.800; -672.000; -638.000
282.375;  -27.350; -243.000;  -98.000
282.515; -120.500; -715.000; -707.000
282.654;   13.275;   29.000;  106.000
282.794;   22.500;  388.000;  244.000
282.934;  -62.525; -530.000; -491.000
283.073; -143.150;-1030.000; -857.000
283.213;  -49.600; -460.000; -467.000
283.353;  -45.375; -408.000; -349.000
283.492;  -32.250; -264.000; -296.000
283.632;  -51.875; -254.000; -168.000
283.771;  -99.725; -859.000; -730.000
283.911;  -60.550; -369.000; -260.000
284.050; -115.175; -794.000; -748.000
284.190; -159.375;-1229.000;-1096.000
284.329; -155.925;-1055.000; -964.000
284.469;  -88.850; -516.000; -591.000
284.608;  -70.625; -559.000; -598.000
284.748;  -94.500; -614.000; -570.000
284.887;  -17.425;  -87.000;  -20.000
285.027; -132.175; -844.000; -892.000
285.166;  -41.200; -192.000; -249.000
285.306;    5.700; -116.000;  -33.000
285.445;  -52.400; -229.000; -343.000
285.584; -106.925; -630.000; -494.000
285.724;  -57.700; -282.000; -322.000
285.863; -121.600; -857.000; -507.000
286.002;  -54.400; -366.000; -276.000
286.142; -112.625; -715.000; -622.000
286.281;  -69.425; -525.000; -493.000
286.420;  -90.400; -554.000; -417.000
286.560;   79.575;  653.000;  623.000
286.699; -147.175; -958.000; -912.000
286.838;  -88.075; -590.000; -591.000
286.978;  -79.150; -533.000; -537.000
287.117; -149.725;-1085.000; -950.000
287.256;  -46.200; -228.000; -211.000
287.395;  -48.100; -197.000; -378.000
287.535;  -44.925; -370.000; -298.000
287.674;  -90.575; -509.000; -484.000
287.813;   53.275;  661.000;  533.000
287.952; -150.150;-1010.000; -871.000
288.091; -162.300;-1049.000; -915.000
288.231;    7.925;   13.000;   15.000
288.370; -172.775;-1217.000;-1200.000
288.509; -103.900; -728.000; -645.000
288.648;  -94.725; -770.000; -548.000
288.787;  -38.175; -243.000;  -87.000
288.926;  -68.800; -454.000; -475.000
289.065;  105.500;  859.000;  672.000
289.204;  -44.075; -377.000; -217.000
289.344; -101.000; -791.000; -690.000
289.483;   29.850;  416.000;  304.000
289.622;  -32.175; -291.000; -149.000
289.761;  -28.900; -309.000; -166.000
289.900; -122.300; -785.000; -626.000
290.039;  -15.375;  -12.000;  -95.000
290.178;  -56.975; -274.000; -180.000
290.317;  -81.825; -618.000; -479.000
290.456;  -66.075; -463.000; -451.000
290.595; -150.200; -961.000; -833.000
290.734; -144.150; -904.000; -891.000
290.873;  -81.525; -456.000; -420.000
291.011; -130.750; -833.000; -843.000
291.150; -103.075; -770.000; -682.000
291.289;  -43.875; -343.000; -110.000
291.428;  -97.325; -599.000; -480.000
291.567;  -42.925; -370.000; -442.000
291.706;   -4.050;  109.000;  154.000
291.845;  -95.725; -597.000; -505.000
291.984; -172.700;-1234.000;-1061.000
292.122;   50.200;  602.000;  582.000
292.261;   43.100;  620.000;  463.000
292.400;    8.725; -144.000;  211.000
292.539; -127.700; -959.000; -813.000
292.678;  -38.975; -325.000; -300.000
292.816; -161.350;-1136.000; -965.000
292.955; -100.825; -844.000; -684.000
293.094;  -40.250; -173.000; -337.000
293.233;  -65.550; -556.000; -400.000
293.371;  -56.025; -225.000;  -84.000
293.510; -120.925; -866.000; -780.000
293.649; -142.825; -959.000; -924.000
293.787;  -88.000;-1083.000;-1012.000
293.926;   -9.350; -113.000;  -32.000
294.065;  -43.225; -379.000; -290.000
294.203;   47.325;  298.000;  406.000
294.342;    8.525;   74.000;  156.000
294.481; 5074.675;51180.000; -836.000
294.619;  -54.275; -425.000; -582.000
294.758; -156.725;-1230.000;-1137.000
294.896;   32.275; -125.000;    5.000
295.035; -133.375;-1040.000;-1006.000
295.174; -130.325;-1082.000; -954.000
295.312;  -54.925; -323.000; -203.000
295.451;  -16.000; -307.000; -428.000
295.589;  -62.450; -389.000; -518.000
295.728;   21.350; -292.000; -165.000
295.866;   -4.425;  -36.000;  -51.000
296.005;  -74.550; -584.000; -341.000
296.143;  -79.075; -558.000; -596.000
296.282; -111.625; -957.000; -881.000
296.420;  -81.950; -657.000; -557.000
296.559;  -96.750; -892.000; -633.000
296.697;   -2.025; -847.000; -665.000
296.835;   17.500;-1141.000;-1002.000
296.974;   33.775;  -23.000;   39.000
297.112;   -2.275; -443.000; -504.000
297.251;  -99.075; -815.000; -755.000
297.389;   41.500; -576.000; -438.000
297.527;   11.400; -145.000;  -83.000
297.666;  -70.375; -486.000; -438.000
297.804;  -46.400; -404.000; -264.000
297.942;  -18.975; -136.000; -161.000
298.081;  -15.950; -183.000;   63.000
298.219;   47.125;  -17.000;  -19.000
298.357;   32.700; -144.000;  -71.000
298.495;    2.300; -810.000; -812.000
298.634;   61.975;  245.000;  219.000
298.772;   27.700; -220.000; -338.000
298.910;  -44.525; -309.000; -182.000
299.048;   -9.375; -130.000; -153.000
299.187;  -47.275; -350.000; -250.000
299.325;   17.775;   52.000;  122.000
299.463;   12.500; -389.000; -299.000
299.601;   79.400; -327.000; -271.000
299.739; -124.200; -908.000; -883.000
299.877;  -88.825; -791.000; -703.000
300.016;  -69.875;-1095.000; -935.000
300.154;  114.825;  -19.000; -161.000
300.292;   23.025; -428.000; -348.000
300.430;    3.600; -408.000; -291.000
300.568; -115.325; -940.000; -874.000
300.706;  -65.675; -366.000; -469.000
300.844;  -94.300;-1108.000; -979.000
300.982;  109.850;  246.000;  282.000
301.120; -131.375; -965.000; -866.000
301.258;  -76.500; -812.000; -705.000
301.396;   13.525;  104.000;  -41.000
301.534;   46.175; -218.000; -293.000
301.672;  -44.600; -664.000; -521.000
301.810;  -11.125; -613.000; -545.000
301.948;   94.825;   53.000;  149.000
302.086;  502.625; -250.000;  -32.000
302.224;  789.975; -610.000; -585.000
302.362;   -1.625; -558.000; -622.000
302.500;  -59.775; -923.000; -893.000
302.638;   79.800;  128.000;  245.000
302.776;  -27.125; -352.000; -408.000
302.913;   48.300;  447.000;  236.000
303.051;  -24.775;  -86.000;  -23.000
303.189;   29.250;   90.000;  118.000
303.327;  -55.050; -341.000; -256.000
303.465;  -88.400; -832.000; -588.000
303.603; -102.850; -805.000; -604.000
303.740;   85.275;  417.000;  241.000
303.878;   -6.900; -800.000; -759.000
304.016; -104.200; -915.000; -790.000
304.154; -145.000;-1123.000;-1152.000
304.291;  -58.225; -505.000; -554.000
304.429;  -11.875;  102.000;   74.000
304.567; -121.325; -908.000; -893.000
304.705;  -66.200; -408.000; -515.000
304.842;   71.425; -616.000; -540.000
304.980;   34.900;  215.000;   35.000
305.118;    5.350; -367.000; -365.000
305.255;  -89.700; -945.000; -927.000
305.393;   33.275;  178.000;  239.000
305.531; -126.650;-1173.000; -956.000
305.668;  -77.750; -663.000; -582.000
305.806;   85.350; -358.000; -439.000
305.943;   75.600; -629.000; -637.000
306.081;   49.825; -378.000; -267.000
306.219; -106.350; -863.000; -748.000
306.356;  -10.150;  158.000;   27.000
306.494;  110.350;  981.000;  761.000
306.631;  -11.200;  -11.000;  -55.000
306.769;  -23.600; -613.000; -485.000
306.906;  -38.500; -284.000; -258.000
307.044;  -75.025; -473.000; -488.000
307.181;  -84.775; -410.000; -332.000
307.319;    9.250;  112.000;   87.000
307.456; -177.475;-1191.000;-1153.000
307.594; -105.950; -980.000; -727.000
307.731;  -17.925; -371.000; -164.000
307.868;  -12.725;  -15.000;   20.000
308.006; -144.275; -961.000; -847.000
308.143;  -83.075; -618.000; -330.000
308.281;   95.175;  -37.000; -254.000
308.418;  -49.500; -748.000; -640.000
308.555;  -83.550; -400.000; -250.000
308.693;  -82.475; -577.000; -573.000
308.830; -119.825; -712.000; -657.000
308.967;  -29.175; -215.000;  -95.000
309.105;  -55.725; -507.000; -396.000
309.242;   -0.375; -468.000; -367.000
309.379;  170.650; -577.000; -655.000
309.517; -101.650; -936.000; -948.000
309.654; -120.050; -910.000; -734.000
309.791;  -84.175; -662.000; -580.000
309.928; -120.950; -977.000; -914.000
310.065;  153.200;  819.000;  697.000
310.203;  -31.525; -825.000; -850.000
310.340;  -28.225; -465.000; -321.000
310.477;  -93.550; -412.000; -516.000
310.614;  -74.050; -383.000; -473.000
310.751;  -85.325; -427.000; -518.000
310.889;  -31.975;    1.000;   11.000
311.026; -166.625;-1161.000; -939.000
311.163;  -54.975; -386.000; -380.000
311.300;  -83.350; -512.000; -479.000
311.437; -101.950; -658.000; -619.000
311.574; -174.225;-1226.000; -985.000
311.711;  -63.625; -595.000; -433.000
311.848;  -53.175; -380.000; -388.000
311.985;   13.350;  270.000;   93.000
312.122; -116.250; -932.000; -762.000
312.259; -134.875; -941.000; -994.000
312.396;  -90.925; -508.000; -551.000
312.533;  -94.050; -812.000; -790.000
312.670; -150.625;-1070.000; -898.000
312.807;  -40.300; -352.000; -367.000
312.944;  -94.050; -513.000; -611.000
313.081;  -45.325; -150.000; -415.000
313.218; -126.800;-1111.000; -867.000
313.355;  -11.400; -531.000; -449.000
313.492;   -2.700; -455.000; -292.000
313.629;  128.850;  815.000;  735.000
313.766; -170.500;-1176.000;-1008.000
313.902;  -27.150; -186.000;   21.000
314.039;  -60.375; -372.000; -289.000
314.176;   22.425;  286.000;  192.000
314.313;  -90.425; -569.000; -473.000
314.450;  -90.850; -788.000; -684.000
314.587;  -71.050; -468.000; -480.000
314.723;   -5.100;  -78.000;  130.000
314.860;   18.925;  318.000;  332.000
314.997;   16.750;  223.000;  142.000
315.134;  -50.325; -385.000; -368.000
315.270;  -29.325; -480.000; -496.000
315.407; -141.575;-1094.000; -967.000
315.544;  -57.275; -657.000; -538.000
315.681;  -68.300; -681.000; -565.000
315.817;    8.350; -133.000; -176.000
315.954;   -3.250; -613.000; -392.000
316.091; -144.075;-1045.000;-1023.000
316.227;  -33.150;  -71.000; -179.000
316.364;   -4.875;   23.000;    6.000
316.500;  -46.375; -113.000; -300.000
316.637;  -50.325; -181.000; -302.000
316.774; -103.500; -625.000; -358.000
316.910;  -99.125; -598.000; -629.000
317.047;  -79.425; -487.000; -351.000
317.183;  -54.950; -435.000; -566.000
317.320;  -29.175; -367.000; -321.000
317.456;  -74.150; -733.000; -805.000
317.593; -102.725; -598.000; -641.000
317.729;    3.600;  168.000;  -67.000
317.866; -217.725;-1434.000;-1285.000
318.002; -106.425; -708.000; -948.000
318.139; -122.475; -883.000; -867.000
318.275; -109.925;-1003.000; -738.000
318.412;  -82.375; -517.000; -336.000
318.548;  -48.075; -751.000; -720.000
318.685; -115.675; -985.000; -888.000
318.821; -111.150; -762.000; -735.000
318.957;  -24.325;   34.000;  -23.000
319.094;   31.100;  297.000;  154.000
319.230;  -82.250; -756.000; -742.000
319.367;   83.450; -471.000; -520.000
319.503;   28.650; -538.000; -436.000
319.639; -109.750; -877.000; -793.000
319.775;  -82.375; -750.000; -685.000
319.912;  -54.875; -424.000; -519.000
320.048; -104.700;-1184.000;-1184.000
320.184;   62.325;   59.000;   70.000
320.321;  -74.100; -497.000; -467.000
320.457;   54.450;  475.000;  662.000
320.593;  -81.575; -375.000; -382.000
320.729; -106.450; -732.000; -734.000
320.866;  -77.975; -577.000; -635.000
321.002; -100.525; -759.000; -809.000
321.138;  -30.125; -135.000; -211.000
321.274;   59.675; -148.000; -115.000
321.410;  -60.900; -585.000; -353.000
321.546;  -65.475;-1011.000; -911.000
321.683;   36.350;  400.000;  185.000
321.819;    0.950;  -48.000; -117.000
321.955; -113.150; -743.000; -722.000
322.091;  -53.650; -585.000; -540.000
322.227;  -24.600; -382.000; -202.000
322.363;  -33.500; -320.000; -215.000
322.499;  -55.300; -343.000; -331.000
322.635;  124.975;  636.000;  443.000
322.771;   15.425; -139.000;   12.000
322.907;   59.400;  129.000;  327.000
323.043;  -43.000; -115.000; -206.000
323.179;  -43.825; -394.000; -363.000
323.315;   -8.675; -401.000; -371.000
323.451;   50.975; -328.000; -236.000
323.587;   45.800;  -60.000;  -77.000
323.723;    5.375; -682.000; -601.000
323.859;  -18.525; -258.000;  -76.000
323.995;  -31.775; -467.000; -409.000
324.131; -125.975; -967.000; -892.000
324.267;  -50.775; -254.000; -276.000
324.402; -140.825; -960.000; -983.000
324.538;  -25.575; -279.000; -104.000
324.674;    1.775;  164.000;   77.000
324.810;   87.475;  226.000;  308.000
324.946;  -20.625; -810.000; -658.000
325.082;  -87.675; -568.000; -475.000
325.217;  -17.900;  -62.000;   16.000
325.353; -108.975; -764.000; -659.000
325.489;  -83.200; -540.000; -506.000
325.625;  -88.300; -579.000; -525.000
325.760;   55.875;  517.000;  376.000
325.896;  -32.575; -515.000; -702.000
326.032;  -45.725; -403.000; -352.000
326.168;  -79.875; -462.000; -369.000
326.303;  -69.625; -352.000; -461.000
326.439;  -33.100; -336.000; -276.000
326.575;    2.775; -190.000;  -29.000
326.710;  -20.175; -156.000;  -30.000
326.846;   -9.050;  146.000;  103.000
326.982;  -88.000; -530.000; -548.000
327.117;  -83.700; -481.000; -442.000
327.253;  -95.125; -745.000; -742.000
327.388; -152.950;-1137.000;-1153.000
327.524;  -69.525; -811.000; -578.000
327.659;  -26.000;  -58.000;  -22.000
327.795;  -18.575;   69.000;   45.000
327.931;  -85.550; -723.000; -499.000
328.066;  -47.175; -417.000; -276.000
328.202;  -32.375;   12.000; -129.000
328.337;   87.925;  957.000;  713.000
328.473;   31.175;  -12.000;  -74.000
328.608;  -29.925; -256.000; -267.000
328.743; -101.150; -799.000; -664.000
328.879;    2.650;  214.000;  114.000
329.014;  -45.975; -102.000; -122.000
329.150;  -93.075; -358.000; -483.000
329.285;  -85.350; -465.000; -466.000
329.421;  -60.100; -548.000; -246.000
329.556;  -28.600;  -36.000;   85.000
329.691; -102.075; -633.000; -615.000
329.827;  -95.950; -626.000; -480.000
329.962;  -47.700;  131.000; -301.000
330.097;  -93.325; -673.000; -585.000
330.233;  -57.100; -410.000; -223.000
330.368; -121.800; -839.000; -628.000
330.503;  -24.600;    3.000;   98.000
330.638;   -2.025;  -93.000; -125.000
330.774;  -71.550; -609.000; -530.000
330.909;  -46.825; -434.000; -244.000
331.044; -111.600; -714.000; -708.000
331.179; -178.150;-1217.000;-1109.000
331.315;    9.450;   77.000;   20.000
331.450;   17.100;  157.000;  285.000
331.585;  -97.325; -805.000; -706.000
331.720;  -93.175; -510.000; -460.000
331.855;   -7.950;  -35.000; -102.000
331.990;  249.900;   62.000;  138.000
332.126;  134.200; -110.000;   71.000
332.261;  -22.000; -379.000; -265.000
332.396;   -5.350; -135.000; -242.000
332.531;  -98.425;-1074.000;-1031.000
332.666;   29.900; -519.000; -363.000
332.801; -114.250; -726.000; -807.000
332.936;  -32.575; -192.000; -122.000
333.071; -154.950; -870.000; -817.000
333.206;    3.925;  307.000;  379.000
333.341;   10.200;  344.000;  418.000
333.476;  -88.000; -627.000; -623.000
333.611;  -53.875; -251.000; -173.000
333.746;  -52.675; -381.000; -464.000
333.881; -138.825; -973.000; -935.000
334.016; -135.800; -936.000; -917.000
334.151; -128.450; -746.000; -702.000
334.286;   13.100;  152.000;  186.000
334.421;  -16.750; -125.000; -178.000
334.556;  -86.250; -611.000; -567.000
334.690;  -91.725; -631.000; -577.000
334.825;   51.125;  381.000;   83.000
334.960;  -60.625; -285.000; -413.000
335.095;    0.950;  135.000;  -91.000
335.230; -106.050; -722.000; -738.000
335.365; -150.675;-1084.000; -990.000
335.499; -137.325;-1108.000;-1037.000
335.634;    6.725;    9.000;  534.000
335.769; -120.600; -755.000; -720.000
335.904;  -80.575; -603.000; -561.000
336.038;  -76.000; -735.000; -657.000
336.173; -144.650;-1206.000;-1194.000
336.308;   -5.225; -116.000; -189.000
336.443;   -2.925; -544.000; -634.000
336.577;  -97.350; -936.000; -787.000
336.712;   34.700;   -4.000;  -12.000
336.847;  -65.425; -724.000; -607.000
336.981;   49.500; -272.000; -208.000
337.116;  239.125;  615.000;  501.000
337.250;  105.950; -434.000; -421.000
337.385;  262.900; -297.000; -208.000
337.520;  104.175; -632.000; -603.000
337.654;  -39.875; -215.000; -126.000
337.789; -129.000; -989.000; -933.000
337.923;  -29.125; -104.000; -205.000
338.058;  -96.750; -673.000; -738.000
338.192;  -36.825; -611.000; -488.000
338.327;  -17.175;  -18.000; -155.000
338.461;  -73.425; -299.000; -469.000
338.596;  -94.200; -780.000; -638.000
338.730; -110.025; -767.000; -803.000
338.865;   81.625;  -46.000; -140.000
338.999;  -53.225; -846.000; -702.000
339.134;  -31.975; -634.000; -536.000
339.268;   -2.100; -741.000; -603.000
339.403;  351.600; -740.000; -775.000
339.537;  117.800; -894.000; -820.000
339.671; -118.600; -829.000; -813.000
339.806;  -61.350; -556.000; -512.000
339.940;    9.925; -261.000; -235.000
340.074;  -95.675; -685.000; -510.000
340.209;  -55.750; -351.000; -230.000
340.343; -107.200; -517.000; -573.000
340.477;  143.725;  998.000; 1036.000
340.612;  -51.575;-1033.000; -900.000
340.746;  154.425; -199.000; -243.000
340.880;  -83.750; -924.000; -785.000
341.014;  -28.500;  -45.000; -154.000
341.149; -116.225; -756.000; -718.000
341.283; -113.775; -839.000; -754.000
341.417; -118.625;-1124.000; -938.000
341.551;   77.750; -768.000; -708.000
341.685;  -52.300; -633.000; -611.000
341.820;  -62.975; -562.000; -493.000
341.954;  -61.175; -218.000; -349.000
342.088; -167.075;-1102.000;-1019.000
342.222;   38.275;  565.000;  618.000
342.356;  -79.050; -395.000; -335.000
342.490; -112.025; -880.000; -841.000
342.624;  -42.375; -339.000; -242.000
342.758;  -29.600; -364.000; -312.000
342.892;  -75.200; -710.000; -585.000
343.026;  -53.325;  -58.000; -116.000
343.160;  -63.275; -426.000; -376.000
343.294;  -92.525; -474.000; -337.000
343.428;  -39.075; -488.000; -448.000
343.562;  -31.875; -172.000;  -23.000
343.696;  -55.000; -385.000; -314.000
343.830;  -31.025; -362.000; -356.000
343.964;    0.800; -231.000; -168.000
344.098;  752.300;  199.000;   70.000
344.232;  623.150; -266.000; -127.000
344.366;   51.925; -567.000; -453.000
344.500;   13.900; -665.000; -744.000
344.634;    1.025; -324.000; -164.000
344.768;  -36.775; -531.000; -341.000
344.902;   11.225;  278.000;  256.000
345.035;  -78.050; -556.000; -496.000
345.169; -144.400; -933.000; -656.000
345.303;  -47.550; -308.000; -482.000
345.437;  -85.600; -826.000; -717.000
345.571;  -74.025; -675.000; -594.000
345.704;  -70.850; -309.000; -532.000
345.838;  -27.500; -331.000; -284.000
345.972;  -40.850; -543.000; -495.000
346.106;  159.750; -179.000; -190.000
346.239;  380.225; -312.000; -243.000
346.373;  -17.175; -343.000; -302.000
346.507; -153.200; -950.000; -962.000
346.640;  111.400;  -30.000;   13.000
346.774;  -66.550; -650.000; -797.000
346.908;  -23.400; -138.000;  -11.000
347.041; -109.250; -646.000; -593.000
347.175;  -15.150;  259.000;   27.000
347.309;  -85.925; -698.000; -628.000
347.442; -123.175; -883.000; -732.000
347.576;  231.425;  670.000;  668.000
347.709;  154.975; -123.000;  -52.000
347.843; -111.475; -933.000; -825.000
347.976;   12.100;  235.000;  294.000
348.110; -185.325;-1268.000;-1186.000
348.243; -122.400; -679.000; -772.000
348.377;   -2.250;  -26.000;   60.000
348.510;   40.900;  403.000;  540.000
348.644;  -49.750;  -37.000; -159.000
348.777;  -10.875;  180.000;  191.000
348.911;  -63.575; -142.000; -112.000
349.044;  127.225;  471.000;  448.000
349.178;   95.425;-1069.000;-1006.000
349.311;   89.350;  141.000;  255.000
349.444;  -19.250; -927.000; -813.000
349.578;  -27.650; -347.000; -200.000
349.711; -129.325; -959.000; -862.000
349.845;  -15.475; -661.000; -591.000
349.978; -166.950;-1224.000;-1137.000
350.111;  -96.525; -546.000; -612.000
350.244;  -73.825; -596.000; -700.000
350.378;  -15.750; -392.000; -393.000
350.511;  -72.825; -393.000; -426.000
350.644; -113.225; -808.000; -806.000
350.778;    1.000;  168.000;  104.000
350.911;  -13.100;  134.000;  140.000
351.044; -100.250; -685.000; -615.000
351.177;  -38.650; -321.000; -281.000
351.310;  -27.950;    3.000; -131.000
351.444;  -90.550; -888.000; -788.000
351.577;   83.350;  140.000;   90.000
351.710;   79.000;  593.000;  417.000
351.843;  -41.675; -165.000;  -77.000
351.976;   -8.550;  149.000;  -79.000
352.109;  -91.250; -621.000; -612.000
352.242;  -52.450; -464.000; -419.000
352.376;  -79.025; -580.000; -636.000
352.509;  116.100; -437.000; -356.000
352.642;  -31.675; -654.000; -604.000
352.775;   37.400; -141.000;  -98.000
352.908; -131.800; -933.000; -904.000
353.041; -123.375; -814.000; -824.000
353.174;  -74.000; -551.000; -424.000
353.307;  -96.925; -753.000; -764.000
353.440;   52.750;  541.000;  453.000
353.573; -117.075; -957.000;-1008.000
353.706;  -65.400; -384.000; -558.000
353.839;  -27.100; -264.000; -220.000
353.971; -108.725; -657.000; -512.000
354.104; -103.775; -896.000; -835.000
354.237;  -61.050; -627.000; -662.000
354.370;  -90.375; -846.000; -879.000
354.503; -190.300;-1231.000;-1308.000
354.636;  -44.225; -529.000; -348.000
354.769; -125.375; -937.000; -860.000
354.902;  -18.075; -230.000; -139.000
355.034;  -39.650; -164.000; -220.000
355.167;  -33.100; -262.000; -162.000
355.300; -108.225;-1061.000; -880.000
355.433;  983.225;  -71.000;  -14.000
355.565; 1532.925; -402.000; -384.000
355.698;  396.300; -356.000; -296.000
355.831;  -10.800; -882.000; -801.000
355.964;   55.225; -285.000; -170.000
356.096; -108.550; -856.000; -843.000
356.229;  -32.450; -523.000; -530.000
356.362;  319.725; -373.000; -266.000
356.494;  615.150; -229.000; -162.000
356.627;  406.575;  269.000;  377.000
356.760;  656.975;  120.000;   53.000
356.892;  981.600; -286.000; -601.000
357.025;  528.700;  403.000;  389.000
357.157;  481.550; -167.000; -179.000
357.290;  704.075; -856.000; -713.000
357.423;  194.775; -667.000; -556.000
357.555;   77.550; -217.000; -228.000
357.688;   96.550; -483.000; -364.000
357.820;  368.400; -870.000; -877.000
357.953; 3328.375; -563.000; -589.000
358.085;  656.500; -632.000; -612.000
358.218;  830.900;-1131.000; -932.000
358.350;  142.600;  -58.000;  312.000
358.483; -132.775;-1300.000;-1187.000
358.615;  -61.550;-1182.000;-1078.000
358.747;  -96.625;-1187.000;-1058.000
358.880;  -11.925; -810.000; -744.000
359.012;  -19.050; -376.000; -202.000
359.145;  -49.475; -480.000; -511.000
359.277;   26.900; -962.000; -913.000
359.409; 2718.875;  536.000;  231.000
359.542;  668.375; -738.000; -688.000
359.674;   49.675;   46.000;   13.000
359.806;  -68.150; -565.000; -438.000
359.939;  -45.700; -617.000; -516.000
360.071;  -21.625; -583.000; -579.000
360.203;  -33.350; -411.000; -364.000
360.335;   37.775;  164.000;  -16.000
360.468;  168.675; -249.000; -307.000
360.600; 2212.425; -547.000; -454.000
360.732; 2979.700; -546.000; -423.000
360.864;  373.425;-1216.000;-1044.000
360.996;  205.925; -516.000; -554.000
361.129;   12.500; -389.000; -598.000
361.261;   13.850;  110.000; -113.000
361.393;  -39.925; -252.000; -214.000
361.525;    1.825;   94.000;  244.000
361.657;  -61.725; -821.000; -703.000
361.789;   -7.675; -139.000; -155.000
361.921;  136.050; -642.000; -593.000
362.053;  213.925;  524.000;  541.000
362.185;   39.975;  288.000;   72.000
362.318;  -98.350; -709.000; -705.000
362.450;   78.150;  294.000;  444.000
362.582;   18.700; -913.000; -870.000
362.714;  -53.975; -353.000; -332.000
362.846;  -95.200; -606.000; -490.000
362.978; -138.850; -941.000; -811.000
363.109;   20.875; -161.000; -260.000
363.241;  328.475; -739.000; -749.000
363.373;  447.175; -649.000; -564.000
363.505;  703.725; -186.000;  -91.000
363.637;  150.200; -787.000; -601.000
363.769; -133.850;-1067.000;-1080.000
363.901;  -78.625; -596.000; -654.000
364.033; -146.150;-1103.000;-1062.000
364.165;  -14.750; -283.000; -283.000
364.296;   64.350; -316.000; -177.000
364.428;   61.250;-1344.000;-1220.000
364.560;  -74.325; -679.000; -661.000
364.692;  -78.725; -738.000; -835.000
364.824;  174.825; -588.000; -456.000
364.955;  416.675; -402.000; -564.000
365.087; 1003.450;-1097.000; -852.000
365.219;   19.975; -686.000; -816.000
365.351;  -74.675; -526.000; -572.000
365.482;   32.500;  300.000;  240.000
365.614;  -69.875; -402.000; -314.000
365.746; -107.725; -729.000; -752.000
365.877; -101.050; -706.000; -672.000
366.009;  269.875;  -35.000;  -62.000
366.141; -101.225;-1249.000;-1134.000
366.272; -113.200; -803.000; -719.000
366.404; -123.050;-1005.000; -874.000
366.535;  -15.050; -139.000;  -12.000
366.667; -121.325; -644.000; -649.000
366.799;   39.125;  353.000;  203.000
366.930; -134.500; -862.000; -996.000
367.062;  103.175; -639.000; -613.000
367.193;  162.875; -872.000; -842.000
367.325;  -71.575; -580.000; -684.000
367.456;   23.575; -246.000;   31.000
367.588;  147.050; -371.000; -318.000
367.719;   23.575;  -44.000;  -45.000
367.851;  -28.825; -222.000; -241.000
367.982;  -68.125; -875.000; -732.000
368.113;   64.625; -475.000; -358.000
368.245; -132.550; -960.000; -841.000
368.376;  -40.025; -254.000; -302.000
368.508;  -52.900; -188.000; -263.000
368.639; -156.225;-1166.000;-1034.000
368.770;  -39.400; -670.000; -589.000
368.902;  -89.525; -836.000; -926.000
369.033; -118.500; -906.000; -855.000
369.164;  -56.675; -720.000; -653.000
369.296; -122.675; -452.000; -601.000
369.427;  -19.450; -209.000; -144.000
369.558;  -82.125; -593.000; -377.000
369.689;  -91.400; -721.000; -569.000
369.821; -137.200; -951.000; -845.000
369.952;  -24.775;   42.000; -108.000
370.083;  -59.800; -229.000; -108.000
370.214;  -99.550; -735.000; -650.000
370.345;   -9.150;   65.000;   81.000
370.477; -104.350; -810.000; -790.000
370.608;  169.900; -328.000; -264.000
370.739;  -72.625;-1233.000;-1292.000
370.870;  -69.225;-1102.000; -923.000
371.001;   55.625; -378.000; -467.000
371.132;  -83.975; -754.000; -735.000
371.263;  -38.575;  -42.000; -148.000
371.394; -133.475; -841.000; -748.000
371.525;   22.550;  345.000;  225.000
371.657; -113.725; -808.000; -670.000
371.788;   60.350;  103.000;  199.000
371.919;  128.025; -384.000; -304.000
372.050; 3104.100;  -91.000; -156.000
372.181;  880.050; -188.000; -294.000
372.311;  291.425;   42.000; -127.000
372.442;    0.000; -457.000; -451.000
372.573;  -33.100; -444.000; -340.000
372.704; -126.800;-1008.000; -980.000
372.835;   65.125; -228.000; -289.000
372.966;  -89.200; -646.000; -554.000
373.097;  -80.275; -575.000; -711.000
373.228;  -54.175; -717.000; -542.000
373.359;   86.775; -824.000; -536.000
373.490;  720.400; -881.000; -727.000
373.620;  915.400;-1001.000; -803.000
373.751; 1451.725; -332.000; -396.000
373.882;  616.250; -663.000; -733.000
374.013;   28.300; -449.000; -262.000
374.143;  -54.875; -581.000; -659.000
374.274; -118.200; -987.000; -908.000
374.405;  133.250; -388.000; -276.000
374.536;  347.000; -526.000; -387.000
374.666;  869.100; -759.000; -807.000
374.797;  143.775; -817.000; -868.000
374.928;  658.900; -710.000; -560.000
375.058;  682.050; -535.000; -500.000
375.189;   30.925;  -59.000;  -93.000
375.320; -119.950; -928.000;-1034.000
375.450;  -62.825; -625.000; -616.000
375.581;  -58.325; -526.000; -436.000
375.712;  -52.850; -574.000; -250.000
375.842;  209.550; -438.000; -415.000
375.973;  140.000; -554.000; -513.000
376.103;  -74.250; -665.000; -648.000
376.234;  -94.850; -531.000; -552.000
376.364;  -68.425; -944.000; -867.000
376.495;  280.600;  925.000;  529.000
376.625;  -36.500; -472.000; -485.000
376.756;   17.975; -709.000; -678.000
376.886; -100.900;-1178.000;-1026.000
377.017;   47.225;-1048.000;-1061.000
377.147;  376.150; -786.000; -782.000
377.278;   46.875;  174.000;  228.000
377.408; -149.425; -801.000; -815.000
377.538; -113.825; -707.000; -693.000
377.669;  -91.975; -537.000; -613.000
377.799; -103.975; -645.000; -635.000
377.929;  -76.750; -610.000; -428.000
378.060; -136.025; -781.000; -847.000
378.190;  -68.200; -726.000; -531.000
378.320;  -59.600; -401.000; -406.000
378.451;  -21.800; -131.000;  -22.000
378.581;  -21.425;  -67.000; -110.000
378.711;  139.625; 1035.000;  866.000
378.841;  -37.250; -533.000; -675.000
378.972;  -87.950; -871.000; -751.000
379.102;  -40.225; -652.000; -579.000
379.232;  -42.425; -126.000;  -73.000
379.362; -123.425;-1001.000; -885.000
379.492;  -14.300; -373.000; -424.000
379.623;   77.775;    0.000;  111.000
379.753; -118.150;-1107.000; -974.000
379.883;  144.900;   59.000;  156.000
380.013;  -42.125;-1081.000;-1017.000
380.143; -129.500;-1097.000;-1056.000
380.273; -113.550; -985.000; -861.000
380.403;  -23.650; -344.000; -257.000
380.533;  -65.400; -651.000; -664.000
380.663;   41.625;  173.000;  128.000
380.793; -134.675;-1027.000;-1074.000
380.923;  -39.025; -103.000;  -34.000
381.053; -103.175; -613.000; -623.000
381.183;  -46.025; -106.000; -248.000
381.313;   -3.575; -656.000; -470.000
381.443;    0.000; -692.000; -473.000
381.573;  131.375; -402.000; -409.000
381.703;  162.925;-1249.000;-1095.000
381.833; -173.075;-1454.000;-1336.000
381.963;   85.725; -134.000;  -87.000
382.093; 1198.325; -925.000; -909.000
382.223;  350.000; -713.000; -602.000
382.353;  -39.225; -801.000; -608.000
382.482;  245.675;-1091.000; -964.000
382.612;  626.775; -872.000; -644.000
382.742;  334.025; -695.000; -622.000
382.872;  175.200; -565.000; -551.000
383.002;   36.025;  347.000; -132.000
383.131;  -43.650; -226.000; -160.000
383.261;  -70.100; -706.000; -768.000
383.391;  259.000; -552.000; -377.000
383.521; 3431.900;  451.000;  263.000
383.650;  781.075; -947.000; -904.000
383.780;  -31.600; -783.000; -656.000
383.910;   98.350;  880.000;  802.000
384.039;  -27.025; -794.000; -656.000
384.169;  117.150;-1205.000;-1017.000
384.299;  -50.450; -650.000; -662.000
384.428; -104.550; -764.000; -680.000
384.558;  -44.825; -308.000; -275.000
384.687;  -48.975; -414.000; -334.000
384.817;   -9.025;   75.000;   -2.000
384.947;   -4.600; -234.000; -141.000
385.076;  255.000;  982.000;  912.000
385.206;   76.550;  369.000;  480.000
385.335;  -53.725; -549.000; -417.000
385.465;  -95.425; -655.000; -663.000
385.594;  101.175;  -53.000;  -44.000
385.724;  289.675; -868.000; -838.000
385.853;   92.725; -296.000; -270.000
385.982; 1116.525; -743.000; -787.000
386.112; 1740.175;-1052.000; -871.000
386.241;   90.625; -307.000; -312.000
386.371;  -11.625; -174.000;  -87.000
386.500;  -23.325; -825.000; -789.000
386.629;    1.375; -874.000; -817.000
386.759;   43.100;  -43.000;   68.000
386.888;  -40.375; -170.000; -250.000
387.017; -109.200; -648.000; -620.000
387.147; -106.975; -771.000; -798.000
387.276;  -26.425; -410.000; -397.000
387.405;  -24.300; -398.000; -342.000
387.535;  -74.125; -452.000; -361.000
387.664;  -67.800; -692.000; -620.000
387.793;   32.175; -198.000; -113.000
387.922;  392.600;  255.000;  200.000
388.052;  -20.725; -576.000; -423.000
388.181;  -22.350; -342.000; -472.000
388.310;  -44.325; -889.000; -710.000
388.439;  -84.550; -749.000; -742.000
388.568;  137.900;  365.000;  244.000
388.697;  840.125; -756.000; -653.000
388.826;  133.750; -768.000; -666.000
388.956;   48.825; -285.000; -307.000
389.085;  -48.400; -347.000; -287.000
389.214; -138.075; -842.000; -872.000
389.343;  -81.650; -645.000; -413.000
389.472;  412.825;  126.000;  149.000
389.601;  510.975;   91.000;    0.000
389.730;   -6.475; -568.000; -687.000
389.859;   41.825;  226.000;   46.000
389.988;  125.700; -423.000; -408.000
390.117;  100.000; -168.000; -146.000
390.246;  -19.825; -331.000; -320.000
390.375;   50.000; -673.000; -626.000
390.504;  -79.750; -703.000; -621.000
390.633; -108.275; -672.000; -726.000
390.761;  -83.150; -732.000; -645.000
390.890;   -0.125;   -4.000; -130.000
391.019;  -54.050; -421.000; -441.000
391.148; -140.325; -826.000; -855.000
391.277;  -82.350; -576.000; -493.000
391.406; -113.100; -821.000; -805.000
391.534;    4.825;  574.000; -301.000
391.663;  -87.600; -583.000; -645.000
391.792; -103.450; -673.000; -701.000
391.921;   53.375;   -3.000;   15.000
392.050;  128.300; -287.000; -228.000
392.178;  -71.625;-1206.000;-1061.000
392.307;   88.450; -758.000; -712.000
392.436;   29.350; -427.000; -641.000
392.564;    7.350;  166.000;   -6.000
392.693;  -96.350; -860.000; -682.000
392.822;  136.500; -529.000; -534.000
392.950;   31.775; -880.000; -714.000
393.079;  234.375; -188.000; -328.000
393.208;    8.900; -488.000; -511.000
393.336;  -32.475; -170.000; -145.000
393.465;  -64.300; -317.000; -199.000
393.593;    5.625;   62.000;   79.000
393.722; -162.675;-1121.000; -916.000
393.850;  -50.850; -188.000;  -61.000
393.979; -156.125; -926.000; -805.000
394.107;  -71.050; -517.000; -537.000
394.236;  -52.600; -570.000; -507.000
394.364;  136.975;  383.000;  206.000
394.493;  185.300; -911.000; -767.000
394.621;  -38.725; -955.000; -916.000
394.750;  753.550; -873.000; -923.000
394.878; 3066.125; -247.000; -149.000
395.007; 4134.675; -721.000; -807.000
395.135;  291.800; -790.000; -721.000
395.263;  -96.600;-1038.000;-1040.000
395.392;   -5.100;  -25.000; -107.000
395.520; -143.700; -818.000; -679.000
395.648; -100.725; -865.000; -915.000
395.777;  -38.125; -366.000; -405.000
395.905;  -68.200; -449.000; -564.000
396.033;   -1.400;  217.000;  172.000
396.162;  368.525; -399.000; -453.000
396.290;  309.375;  -17.000;   -2.000
396.418;   60.450; -555.000; -514.000
396.546;  -88.050; -571.000; -466.000
396.674; -112.125; -850.000; -878.000
396.803;   -5.600;  -72.000;  -23.000
396.931;   46.200; -179.000; -199.000
397.059;   -3.200;-1026.000; -989.000
397.187; -123.825;-1026.000; -975.000
397.315; -148.400; -884.000; -649.000
397.443;  -89.400; -592.000; -443.000
397.572;  -99.375; -578.000; -424.000
397.700;  -45.300; -607.000; -614.000
397.828;  -16.450;  120.000;  -90.000
397.956;  -45.875; -508.000; -478.000
398.084;  -74.475; -767.000; -626.000
398.212;   15.600;  137.000;  124.000
398.340;  -18.600;  -56.000;  159.000
398.468;   -7.600; -390.000; -169.000
398.596; -164.025; -993.000; -953.000
398.724; -128.075; -762.000; -767.000
398.852; -164.425;-1024.000; -976.000
398.980;  -75.125; -560.000; -560.000
399.108;  -72.875; -982.000; -735.000
399.236;    9.175;   13.000;    8.000
399.363;   -1.925;  222.000;  196.000
399.491;  -79.675; -404.000; -398.000
399.619; -134.300; -829.000; -800.000
399.747; -102.725; -859.000; -771.000
399.875;   43.975;  220.000;  234.000
400.003;  -53.800; -359.000; -284.000
400.130;  -98.000; -421.000; -341.000
400.258;  -40.225;  -83.000;   38.000
400.386;  -66.500; -352.000; -168.000
400.514;  -69.475; -526.000; -587.000
400.641; -125.450; -928.000; -802.000
400.769; -156.375; -979.000; -888.000
400.897; -139.925; -838.000; -793.000
401.025;  -48.175; -166.000; -152.000
401.152;   -6.425;  220.000;   38.000
401.280;  -83.550; -430.000; -429.000
401.408; -121.925; -712.000; -576.000
401.535; -115.850; -735.000; -758.000
401.663; -198.375;-1134.000;-1054.000
401.790;  -99.425; -514.000; -525.000
401.918;   29.150;  436.000;  405.000
402.046;  -29.675;  134.000;  122.000
402.173;  -65.600;  -18.000;    7.000
402.301;  -86.275; -519.000; -397.000
402.428;   18.325;  528.000;  383.000
402.556; -157.625;-1188.000; -913.000
402.683;  -49.750;  -20.000;   -1.000
402.811;  -28.875;  -37.000; -206.000
402.938;  -14.875;   20.000;   27.000
403.066;  123.775; -574.000; -558.000
403.193;  262.500;  299.000;  239.000
403.321;  198.350; -396.000; -574.000
403.448;  259.375;   83.000;   27.000
403.575;   92.100;  -90.000;  -46.000
403.703; -113.650; -732.000; -557.000
403.830;  -75.400; -531.000; -496.000
403.957; -156.450;-1117.000;-1023.000
404.085;    6.550;  -61.000; -172.000
404.212;   86.450;  -50.000;   63.000
404.339;  275.600; -566.000; -306.000
404.467; 6081.925; -612.000; -524.000
404.594; 3694.125; -287.000; -227.000
404.721;  777.950; -869.000; -764.000
404.848;   61.225; -113.000; -202.000
404.976; -110.725; -856.000; -783.000
405.103;   -7.850;  -14.000;  -82.000
405.230;   -8.450;  190.000;  226.000
405.357;   20.750;  117.000;   44.000
405.484;  273.175;  -49.000;    5.000
405.612;   34.025; -548.000; -563.000
405.739;  -70.150; -488.000; -243.000
405.866;   72.150;  669.000;  385.000
405.993;  -63.625; -398.000; -102.000
406.120; -146.050; -801.000; -887.000
406.247;  -85.200; -323.000; -342.000
406.374;  337.325;  540.000;  629.000
406.501;   30.100; -632.000; -702.000
406.628;  -80.550; -621.000; -589.000
406.755; -116.850; -803.000; -620.000
406.882;  -55.425; -228.000; -277.000
407.009; -120.950; -719.000; -628.000
407.136;    7.825; -480.000; -401.000
407.263;   46.675; -939.000; -829.000
407.390;  -95.400; -692.000; -614.000
407.517; -176.400;-1139.000;-1187.000
407.644;  -64.175; -332.000; -256.000
407.771; -133.700; -249.000; -287.000
407.898;   -3.775;  168.000;  328.000
408.025;  -77.775; -421.000; -313.000
408.151;  -17.500;   82.000;  153.000
408.278;  -76.925; -267.000; -216.000
408.405; -135.800; -931.000; -899.000
408.532;  -80.650; -549.000; -542.000
408.659; -123.550; -677.000; -648.000
408.785; -206.100;-1298.000;-1170.000
408.912;  -68.975; -412.000; -296.000
409.039; -115.000; -610.000; -686.000
409.166; -120.725; -591.000; -555.000
409.292; -116.250; -571.000; -534.000
409.419; -139.525; -665.000; -649.000
409.546;  -94.025; -431.000; -192.000
409.672; -126.050; -713.000; -545.000
409.799;  -30.150;  -36.000;   34.000
409.926;  -47.700; -180.000; -179.000
410.052; -182.950;-1127.000;-1091.000
410.179;  -71.975; -368.000; -392.000
410.305;  -98.975; -375.000; -493.000
410.432;  -57.675; -220.000; -333.000
410.558; -106.350; -305.000; -380.000
410.685; -121.400; -688.000; -431.000
410.812; -104.650; -409.000; -588.000
410.938; -139.725; -964.000; -808.000
411.065; -107.200; -671.000; -645.000
411.191;  -32.800; -189.000; -174.000
411.317; -134.200; -823.000; -742.000
411.444;  -59.050; -317.000; -246.000
411.570;  -84.550; -339.000; -294.000
411.697; -128.250; -758.000; -752.000
411.823; -179.250; -989.000; -999.000
411.949;  -41.000;  -56.000;   17.000
412.076; -124.575; -539.000; -519.000
412.202; -123.600; -758.000; -757.000
412.329; -144.600; -798.000; -752.000
412.455; -114.825; -821.000; -657.000
412.581;  -16.725;  -15.000;  172.000
412.707;  -76.300; -540.000; -457.000
412.834;    6.700;  156.000;  219.000
412.960; -103.400; -785.000; -784.000
413.086; -109.675; -743.000; -701.000
413.212;  122.550;  604.000;  578.000
413.339;  -89.375; -685.000; -701.000
413.465;  -26.100; -364.000; -310.000
413.591; -112.275; -757.000; -474.000
413.717;  -55.050; -358.000; -366.000
413.843; -151.000; -839.000; -861.000
413.969;  -70.975;  -47.000; -292.000
414.096; -108.725; -679.000; -679.000
414.222;  -15.825;  -33.000;   85.000
414.348;  -70.250; -652.000; -385.000
414.474;   45.875;   38.000;  -52.000
414.600;  -27.600; -126.000; -144.000
414.726;  -20.025;  -96.000;  -55.000
414.852;  -70.075; -365.000; -342.000
414.978;   26.775;  104.000;  -18.000
415.104;   27.000;   38.000;   80.000
415.230;   10.325; -329.000; -330.000
415.356;   27.225; -409.000; -514.000
415.482;  181.975;   13.000;  -35.000
415.608;  283.125; -247.000; -323.000
415.734;  999.800;   67.000;   38.000
415.860;20668.325; -875.000; -767.000
415.986;14429.475; -685.000; -607.000
416.111; 1235.475; -798.000; -652.000
416.237;  249.450; -424.000; -571.000
416.363; 1230.925; -765.000; -733.000
416.489; 4353.550; -324.000; -251.000
416.615;  451.200; -707.000; -742.000
416.741;  -22.625; -677.000; -784.000
416.866; -105.625; -673.000; -736.000
416.992; -126.850; -801.000; -818.000
417.118;  -38.025;  -41.000;  -80.000
417.244;  -78.775; -798.000; -531.000
417.369; -103.075; -801.000; -612.000
417.495;  -30.000; -325.000; -254.000
417.621; -108.250;-1015.000; -803.000
417.746;   -6.650; -579.000; -572.000
417.872;   37.925; -254.000; -144.000
417.998;   48.675; -515.000; -530.000
418.123; 1136.150;-1073.000; -845.000
418.249; 5578.500; -512.000; -601.000
418.374;  745.150; -916.000; -824.000
418.500;  104.550; -383.000; -482.000
418.626;  107.950;   70.000;  -59.000
418.751;   96.375; -549.000; -448.000
418.877;  196.675; -637.000; -643.000
419.002; 1907.150; -688.000; -560.000
419.128;13169.200; -930.000; -721.000
419.253; 3064.900; -967.000; -837.000
419.379;  413.750; -391.000; -338.000
419.504;  403.925;  325.000;  415.000
419.629;  532.175; -393.000; -212.000
419.755; 3888.975; -317.000; -254.000
419.880;22497.550;  -98.000;   67.000
420.006;11998.775; -280.000; -221.000
420.131;30227.325; -662.000; -775.000
420.256; 4221.300; -315.000; -316.000
420.382;  547.825; -665.000; -687.000
420.507;   57.700; -649.000; -778.000
420.632;   81.475; -337.000; -339.000
420.758;  169.650; -251.000; -425.000
420.883; -102.850; -876.000; -672.000
421.008; -115.800; -775.000; -619.000
421.133;  -94.875; -509.000; -467.000
421.259;  -55.175; -325.000; -259.000
421.384; -132.950; -834.000; -693.000
421.509;  -81.050;-1052.000; -862.000
421.634;  868.875; -936.000; -820.000
421.759;  350.775; -359.000; -327.000
421.885;  -75.225; -717.000; -656.000
422.010;  -86.450; -673.000; -542.000
422.135; -154.550; -695.000; -727.000
422.260;   17.200;  340.000;  280.000
422.385;  -59.825;   12.000;  -98.000
422.510;   -2.550;  151.000;  -26.000
422.635;   -1.025;  -87.000;  -43.000
422.760;   62.375; -766.000; -791.000
422.885;   38.550;  -57.000;  -80.000
423.010;  -34.775; -112.000; -169.000
423.135; -107.300; -481.000; -561.000
423.260;  -44.300; -150.000; -245.000
423.385;   44.575;  476.000;  222.000
423.510;   20.900;   71.000;  -22.000
423.635;   52.650;  133.000;   45.000
423.760;   37.200;  383.000;  328.000
423.885;   47.775;  336.000;  391.000
424.010;    2.050;  -68.000;  -13.000
424.135;  -22.850;    5.000;  -33.000
424.259;  -91.400; -654.000; -457.000
424.384;  -80.050; -279.000; -272.000
424.509;  -33.400; -260.000; -186.000
424.634; -110.675; -761.000; -623.000
424.759;  -41.250; -688.000; -544.000
424.883;  -16.125; -506.000; -527.000
425.008;  148.000; -502.000; -410.000
425.133; 2101.525; -679.000; -653.000
425.258;  947.675; -517.000; -381.000
425.382;  905.075; -867.000; -774.000
425.507; 2252.025; -487.000; -543.000
425.632;  371.100; -802.000; -663.000
425.756;  465.225; -256.000; -146.000
425.881; 7282.525; -831.000; -857.000
426.006;19014.275; -604.000; -355.000
426.130; 2803.100; -696.000; -508.000
426.255;  354.225; -611.000; -491.000
426.379;  146.950; -189.000; -577.000
426.504;  374.100;  660.000;  544.000
426.629; 4172.975; -519.000; -466.000
426.753; 2741.375;   64.000;  -46.000
426.878;  290.550; -252.000; -288.000
427.002;  182.350; -651.000; -668.000
427.127; 1653.300;  -35.000; -158.000
427.251;11963.775;  372.000;  401.000
427.375; 3242.675; -191.000; -173.000
427.500; 2027.525; -616.000; -610.000
427.624;  636.725; -234.000; -400.000
427.749;   61.600; -216.000; -225.000
427.873;  -61.375; -499.000; -412.000
427.997;  -46.875; -222.000; -230.000
428.122;   59.375;  795.000;  703.000
428.246;   57.375;  433.000;  434.000
428.371; -134.875; -869.000; -773.000
428.495; -120.625; -624.000; -646.000
428.619;  -46.050; -186.000; -117.000
428.743;    4.100;   65.000;  132.000
428.868;  -26.475; -732.000; -643.000
428.992; 1197.825; -219.000; -326.000
429.116;  425.525; -329.000; -357.000
429.240;  206.675;  419.000;  426.000
429.365;  -39.950; -454.000; -574.000
429.489;  -71.950; -638.000; -647.000
429.613;    5.100; -236.000; -177.000
429.737;   24.700; -563.000; -432.000
429.861;  260.125; -247.000; -133.000
429.985; 5865.700; -425.000; -305.000
430.109; 6199.175; -770.000; -908.000
430.234;  691.350;   76.000;  -50.000
430.358;   55.050; -250.000; -160.000
430.482;  -91.400; -672.000; -564.000
430.606;  -86.050; -655.000; -375.000
430.730;   -9.675; -437.000; -388.000
430.854;   36.775; -909.000; -835.000
430.978; -100.975; -795.000; -764.000
431.102;  -83.850; -499.000; -422.000
431.226; -145.325; -874.000; -815.000
431.350;   16.425;  345.000;  422.000
431.474; -103.200; -661.000; -373.000
431.597; -161.250;-1060.000; -848.000
431.721;  -76.800; -276.000; -267.000
431.845; -139.975; -704.000; -472.000
431.969;  -86.025; -304.000; -349.000
432.093; -101.375; -395.000; -317.000
432.217;  -21.800;   32.000;   82.000
432.341;  -94.525; -523.000; -518.000
432.464;   -5.625;   96.000;   40.000
432.588;  133.175; -401.000; -329.000
432.712;   65.025;  -52.000;  -52.000
432.836;   47.775;  213.000;  263.000
432.959;  -20.100; -372.000; -311.000
433.083;   77.700;   11.000;    2.000
433.207;  390.700;  285.000;  930.000
433.330; 5396.800; -391.000; -200.000
433.454; 6442.200; -654.000; -638.000
433.578; 3728.875;  583.000;  278.000
433.701;  665.350; -623.000; -675.000
433.825;  105.325; -292.000; -299.000
433.949;  117.575;   28.000;  -72.000
434.072;   -2.450; -410.000; -323.000
434.196;  -10.925; -309.000; -117.000
434.319; 3884.425;25482.000;25124.000
434.443;  725.500; -656.000; -603.000
434.566; 2754.625;  281.000;   62.000
434.690;  438.100; -637.000; -383.000
434.813;   38.525; -251.000; -173.000
434.937;  -72.600; -569.000; -696.000
435.060;  -55.450; -423.000; -332.000
435.184;  183.875; -492.000; -217.000
435.307;   87.925;  159.000;  102.000
435.431;  -28.425;  -40.000;   24.000
435.554;  -91.700; -399.000; -240.000
435.677;  -97.450; -350.000; -258.000
435.801;  -48.525;  -25.000;   49.000
435.924;  -26.550;    1.000;  -67.000
436.048; -146.650;-1019.000; -732.000
436.171;  -74.225; -240.000;  -66.000
436.294;  -35.075; -248.000; -229.000
436.417;   98.775; -963.000; -849.000
436.541;  -94.975; -814.000; -840.000
436.664;  -62.925; -242.000; -316.000
436.787;  -47.600;   13.000;  113.000
436.910; -134.875; -792.000; -422.000
437.034;  -16.400;  142.000;  143.000
437.157;   26.375;  -11.000;    0.000
437.280;  -77.850; -392.000; -292.000
437.403; -104.900; -982.000; -869.000
437.526;  418.075; -903.000; -865.000
437.649; 1605.850; -505.000; -332.000
437.772;  179.000; -692.000; -540.000
437.896;   90.075;  700.000;  544.000
438.019; -115.975; -758.000; -503.000
438.142;  -87.750; -596.000; -506.000
438.265;  -63.475; -639.000; -670.000
438.388;  390.150; -520.000; -410.000
438.511;   17.800; -597.000; -394.000
438.634;  -60.525; -247.000; -125.000
438.757; -150.700; -693.000; -619.000
438.880;  -26.425;  -34.000;  -57.000
439.003;  -89.325; -417.000; -437.000
439.126;  -82.200; -287.000; -167.000
439.248;  -68.500;  -98.000; -139.000
439.371;  -51.525;    9.000;  -53.000
439.494;   21.575;  510.000;  439.000
439.617;  -68.425;   65.000;  -88.000
439.740; -196.225; -968.000; -816.000
439.863; -156.200; -755.000; -595.000
439.986; -121.725; -476.000; -431.000
440.108;  -50.825; -161.000; -112.000
440.231; -183.200; -950.000; -836.000
440.354;  -45.925;  -64.000; -150.000
440.477;  -26.200; -566.000; -542.000
440.599;  -41.275; -200.000; -225.000
440.722; -129.075; -709.000; -586.000
440.845;   66.075;  751.000;  928.000
440.968; -126.050; -415.000; -311.000
441.090;  -75.050; -199.000;  -33.000
441.213; -176.000;-1021.000; -825.000
441.336;  -67.025; -159.000;   -5.000
441.458;  -82.750; -549.000; -396.000
441.581; -107.750; -628.000; -629.000
441.703;  -77.450; -152.000;   13.000
441.826; -126.825; -557.000; -400.000
441.948;  -53.675;   56.000;   51.000
442.071;   32.675;  555.000;  424.000
442.193; -119.425; -531.000; -485.000
442.316;   20.400;  152.000;   97.000
442.438;   28.400; -233.000;  -10.000
442.561;   57.350;  272.000;  262.000
442.683;  353.300; -809.000; -522.000
442.806;  839.575;   -8.000;   74.000
442.928;  -37.300; -859.000; -604.000
443.051;  -89.975; -577.000; -373.000
443.173;  -97.375; -341.000; -339.000
443.295;  -94.450; -263.000; -371.000
443.418;  -84.400; -321.000;  -29.000
443.540;  -16.050; -106.000;   -4.000
443.662; -114.125; -563.000; -465.000
443.785;   -6.350;  335.000;  199.000
443.907; -127.975; -362.000; -208.000
444.029; -138.500; -767.000; -494.000
444.152; -139.050; -644.000; -554.000
444.274;  -39.275;  -18.000;  -24.000
444.396; -119.775; -461.000; -221.000
444.518; -140.700; -691.000; -454.000
444.640;  -99.425; -268.000; -111.000
444.763;  -26.000;  388.000;  249.000
444.885; -129.750; -432.000; -392.000
445.007;  -37.850;   35.000;   86.000
445.129; -117.275; -610.000; -515.000
445.251; -110.600; -372.000; -439.000
445.373; -148.750; -537.000; -386.000
445.495;   -6.150;  242.000;  350.000
445.617;   37.750;  853.000;  753.000
445.739;  -75.200; -215.000;  -97.000
445.861;  -46.450; -245.000; -112.000
445.984;  -50.275; -267.000; -101.000
446.105;  123.725; -418.000; -251.000
446.227;  447.150; -176.000;  -19.000
446.349;  -41.825; -358.000; -249.000
446.471; -105.525; -615.000; -448.000
446.593;  -90.625; -316.000;   19.000
446.715;  -22.700;  -67.000;   41.000
446.837;   62.800;  697.000;  832.000
446.959; -117.875; -457.000; -478.000
447.081; -141.975; -628.000; -518.000
447.203;   50.775;  862.000;  834.000
447.325;  -97.600; -270.000;   42.000
447.446;  -13.150;  286.000;  530.000
447.568; -176.600; -921.000; -803.000
447.690;  -96.400; -236.000; -245.000
447.812; -172.125; -798.000; -519.000
447.933;  -35.475;  155.000;  127.000
448.055;  -64.850; -306.000; -261.000
448.177;  111.400;   31.000;   79.000
448.299;   22.850; -935.000; -727.000
448.420;    5.625;  -25.000;  159.000
448.542;  -62.800;   -3.000;   33.000
448.664;  -26.200;  109.000;  322.000
448.785;  -51.425;  265.000;   83.000
448.907;  -82.025; -614.000; -353.000
449.028;  -64.150; -771.000; -471.000
449.150;   53.675;  492.000;  589.000
449.272; -200.975;-1044.000; -913.000
449.393;   29.650;  612.000;  694.000
449.515; -133.225; -634.000; -581.000
449.636;  -78.875; -264.000; -155.000
449.758;   58.775;  763.000;  622.000
449.879; -111.100; -498.000; -396.000
450.001;  -87.525; -149.000;  -49.000
450.122;  -40.650;  -95.000;  162.000
450.244;  -26.425;   37.000;  364.000
450.365; -105.675; -495.000; -301.000
450.486;  -25.525;   80.000;  268.000
450.608;    9.000;  393.000;  326.000
450.729;   76.150;  578.000;  645.000
450.850;   -8.350; -574.000; -466.000
450.972;  823.675; -552.000; -389.000
451.093; 5303.100;  190.000;  588.000
451.214; 2195.050; -516.000; -337.000
451.336;  397.475;  773.000;  579.000
451.457;   67.050;  264.000;  393.000
451.578;  -42.850; -118.000;  -74.000
451.699; -119.550; -546.000; -540.000
451.821;  -66.225; -284.000;  -50.000
451.942;  -18.650;  278.000;  285.000
452.063;   35.325;  228.000;  419.000
452.184;  589.250;  -54.000;  -49.000
452.305; 1119.975;  103.000;  170.000
452.427;  131.925; -549.000; -301.000
452.548;  -20.500;   23.000;   79.000
452.669;  -72.600; -257.000;  -89.000
452.790;  -54.850;    3.000;  -18.000
452.911;   -6.475;  195.000;  259.000
453.032;  -73.825; -289.000;  -60.000
453.153;  -58.225;  -29.000;   81.000
453.274;   58.600;  737.000;  868.000
453.395;  -58.025;  -51.000;  175.000
453.516;  102.100; 1317.000; 1388.000
453.637;  -80.975; -205.000; -150.000
453.758;  -65.975;   15.000;   69.000
453.879; -126.700; -462.000; -250.000
454.000;   66.025; 1086.000;  948.000
454.121; -125.700; -554.000; -326.000
454.242; -126.825; -599.000; -383.000
454.362;  -67.175;  -99.000;  114.000
454.483;  -45.850; -309.000; -229.000
454.604;   45.450;  512.000;  580.000
454.725; -137.450; -627.000; -555.000
454.846; -140.525; -474.000; -406.000
454.967;  -38.900;  230.000;  539.000
455.087;  -43.850;  179.000;  153.000
455.208;    0.075;  554.000;  856.000
455.329;  -79.475;  -22.000;   82.000
455.450;   38.800;  473.000;  633.000
455.570;  -97.875; -234.000; -211.000
455.691;  -55.250;  201.000;  407.000
455.812; -111.525; -270.000;  -92.000
455.932;  -62.700;  107.000;  -97.000
456.053;  -94.050;   36.000;   24.000
456.173; -131.000; -433.000; -355.000
456.294; -124.775; -476.000; -303.000
456.415;  -68.525;  -73.000;   70.000
456.535;  -40.700;  297.000;  273.000
456.656;  -47.075;  132.000;  240.000
456.776;  -85.125;    3.000;  298.000
456.897;  -15.250;  308.000;  513.000
457.017;  -77.950; -153.000;   -3.000
457.138; -127.025; -402.000; -249.000
457.258;  -32.675;  263.000;  224.000
457.379;  -15.000;  509.000;  521.000
457.499;  -45.025;  443.000;  432.000
457.620; -128.375; -407.000; -231.000
457.740; -104.300; -132.000;  -11.000
457.860;  -63.325;   87.000;   44.000
457.981;  -42.325;  132.000;  124.000
458.101;  -82.475;  -89.000;   40.000
458.221;  -22.050;  336.000;  402.000
458.342;  -70.000;   -4.000;  -37.000
458.462;   36.325;  617.000;  352.000
458.582;  -41.500; -302.000; -294.000
458.703;    8.800;  303.000;  154.000
458.823;  -31.050;   22.000;  163.000
458.943;   18.575;  341.000;  467.000
459.063;  -22.700; 1124.000;  192.000
459.183;  -34.550;  328.000;  313.000
459.304;  -10.975;  315.000;  517.000
459.424;  -69.300; -246.000;  -89.000
459.544;  332.475;  388.000;  764.000
459.664;  860.075;  499.000;  506.000
459.784;  314.875; 1004.000; 1175.000
459.904;   55.825;  867.000;  744.000
460.024;   59.075;  867.000;  684.000
460.144;   11.450;  449.000;  554.000
460.264;  -19.325;  515.000;  327.000
460.385; -114.950; -145.000; -119.000
460.505;   32.625;  905.000;  858.000
460.625;  -95.150;  -17.000;  -68.000
460.745;  -30.100;  396.000;  541.000
460.864;  -43.375;  153.000;  469.000
460.984;    5.900;  499.000;  573.000
461.104;  140.750; 1656.000; 1775.000
461.224;   19.975;  657.000;  650.000
461.344;  -33.400;  431.000;  360.000
461.464;  -48.900;  258.000;  513.000
461.584;  -32.125;  283.000;  466.000
461.704;  -53.325;   58.000;  108.000
461.824;  -67.650;  238.000;  259.000
461.943;  -36.375;  191.000;  130.000
462.063;  -75.250;    2.000;  324.000
462.183;   16.000;  639.000;  717.000
462.303;  100.700; 1678.000; 1230.000
462.422;   25.000;  781.000;  840.000
462.542;  -43.150;  271.000;  391.000
462.662;   27.575;  353.000;  380.000
462.782;  244.025;  833.000;  572.000
462.901;  508.325;  545.000;  717.000
463.021;  276.875; 1702.000; 1638.000
463.141;  -16.250;  337.000;  770.000
463.260;  -16.625;  614.000;  474.000
463.380;    5.075;  902.000;  884.000
463.499;  -45.450;  342.000;  332.000
463.619;  -48.325;  581.000;  559.000
463.738;  108.350; 1644.000;  903.000
463.858;    8.575;  657.000;  811.000
463.978;  -30.500;  542.000;  396.000
464.097;   45.225;  921.000; 1114.000
464.217;  115.850; 1196.000; 1143.000
464.336;  111.100; 1068.000; 1130.000
464.455;  -42.250;  328.000;  659.000
464.575;   24.875;  597.000;  602.000
464.694;  146.975; 1204.000; 1179.000
464.814;  120.775; 1190.000; 1138.000
464.933;   82.525; 1095.000; 1027.000
465.052;   81.575; 1412.000; 1054.000
465.172;   67.500;  922.000;  799.000
465.291;  124.500; 1376.000; 1320.000
465.410;   -2.575;  462.000;  735.000
465.530;   83.700; 1355.000; 1310.000
465.649;   60.250; 1209.000; 1273.000
465.768;  125.200; 1673.000; 1508.000
465.888;   29.500;  941.000; 1174.000
466.007;   88.775; 1335.000; 1440.000
466.126;  -15.500;  721.000;  641.000
466.245;   35.075; 1176.000; 1187.000
466.364;   17.475;  950.000; 1060.000
466.484;   63.950; 1024.000; 1213.000
466.603;   41.225; 1101.000; 1222.000
466.722;  124.200; 1490.000; 1769.000
466.841;   73.825; 1151.000; 1401.000
466.960;   24.025; 1069.000;  972.000
467.079;  135.675; 1971.000; 1786.000
467.198;   44.500; 1238.000; 1181.000
467.317;   69.025; 1768.000; 1162.000
467.436;   78.950; 1709.000; 1261.000
467.555;  126.900; 1796.000; 1746.000
467.674;   52.175; 1227.000; 1329.000
467.793;   42.575; 1376.000; 1374.000
467.912;   91.200; 1658.000; 1539.000
468.031;  134.200; 2038.000; 1930.000
468.150;  126.825; 1842.000; 1837.000
468.269;  197.400; 2313.000; 2090.000
468.388;  175.850; 2168.000; 2339.000
468.507;  252.000; 2884.000; 2903.000
468.626;  223.350; 2555.000; 2541.000
468.744;  154.250; 2018.000; 2174.000
468.863;  197.400; 2312.000; 2523.000
468.982;   87.650; 1503.000; 1555.000
469.101;  225.925; 2788.000; 2692.000
469.220;  152.850; 2333.000; 2176.000
469.338;  249.850; 2935.000; 3051.000
469.457;  189.625; 2719.000; 2545.000
469.576;  349.075; 3953.000; 3784.000
469.695;  223.525; 2877.000; 3066.000
469.813;  412.400; 4148.000; 4192.000
469.932;  407.450; 4255.000; 4485.000
470.051;  420.800; 4075.000; 4161.000
470.169;  876.350; 4470.000; 4338.000
470.288; 1485.425; 4700.000; 4809.000
470.406;  882.075; 5059.000; 5194.000
470.525;  632.875; 6101.000; 5787.000
470.644;  647.475; 6847.000; 6794.000
470.762;  820.325; 8397.000; 7873.000
470.881;  894.650; 8651.000; 8464.000
470.999; 1051.575; 9685.000; 9151.000
471.118; 1122.725;11174.000;10711.000

