
Integration time [ms]: 100.000
Averaging Nr. [scans]: 40
Smoothing Nr. [pixels]: 0
Data measured with spectrometer [name]: 2101012U2
Wave   ;Sample   ;Dark     ;Reference
[nm]   ;[counts] ;[counts] ;[counts] 

197.733;   49.975;  516.000;  404.000
197.879;  -68.550; -610.000; -634.000
198.025;  -61.375; -475.000; -420.000
198.171;  -74.850; -602.000; -612.000
198.317;  -28.900; -401.000; -316.000
198.463;  -74.350; -655.000; -404.000
198.609;   18.325;  181.000; -137.000
198.755;  -70.350; -644.000; -410.000
198.901;  -60.150; -505.000; -424.000
199.047;  -62.050; -615.000; -488.000
199.193;  -42.675; -230.000; -468.000
199.339;  -52.150; -222.000; -369.000
199.485;   32.975;  330.000;  271.000
199.631;   11.625;  227.000;  310.000
199.777;  -49.675; -466.000; -398.000
199.923;  -54.325; -610.000; -424.000
200.069;   -5.200; -141.000;  -58.000
200.215;   45.425;  128.000;  453.000
200.361;   36.425;  243.000;  477.000
200.507;  -54.125; -600.000; -373.000
200.653;  -36.325; -371.000; -194.000
200.798;  -48.400; -215.000; -125.000
200.944;   -6.900; -146.000;  -41.000
201.090;   37.800;   61.000;  222.000
201.236;   -3.650; -116.000; -158.000
201.382;  104.825;  874.000;  903.000
201.528;   -4.400;  -58.000;  -48.000
201.674;  -54.425; -386.000; -293.000
201.819;  -49.875; -540.000; -439.000
201.965;  -86.200; -699.000; -447.000
202.111;  -19.000; -273.000; -226.000
202.257;  -27.225; -250.000; -238.000
202.402;    3.975;   13.000;  -36.000
202.548;  -28.500; -169.000; -116.000
202.694;   74.975;  410.000; -183.000
202.840;  -71.850; -603.000; -531.000
202.985;  -67.425; -681.000; -639.000
203.131; -100.600; -832.000; -666.000
203.277;  -18.525; -199.000; -262.000
203.423;  -44.700; -434.000; -520.000
203.568;  -34.100; -462.000; -237.000
203.714;  -63.975; -535.000; -542.000
203.860;  -62.200; -682.000; -641.000
204.005;    2.525;  112.000;  167.000
204.151;   61.975;  561.000;  556.000
204.296;  -50.725; -354.000; -221.000
204.442;  -77.500; -600.000; -547.000
204.588;  -75.525; -592.000; -579.000
204.733;   12.700;  178.000;  168.000
204.879; -129.175;-1018.000; -822.000
205.025;   18.200;  -99.000;  126.000
205.170;  -11.900;  -17.000;   94.000
205.316;   72.375;  438.000;  661.000
205.461;  -74.600; -698.000; -554.000
205.607;   77.775;  609.000;  665.000
205.752;  -82.500; -626.000; -551.000
205.898;  -42.600; -501.000; -391.000
206.043;  -61.675; -578.000; -506.000
206.189;  -38.425; -243.000; -285.000
206.334;   68.425;  554.000;  606.000
206.480;   85.025;  409.000;  239.000
206.625;  -77.475; -529.000; -552.000
206.771;  -59.350; -451.000; -373.000
206.916;  -38.750; -210.000; -537.000
207.062;  -64.250; -545.000; -591.000
207.207;  -57.675; -546.000; -443.000
207.353;   54.450;  185.000;  460.000
207.498;   13.375;  196.000;   85.000
207.643;  -54.775; -501.000; -370.000
207.789; -128.150;-1069.000; -910.000
207.934;  -89.625; -665.000; -713.000
208.080;  -37.925; -154.000;   66.000
208.225;   -5.875;  -22.000;  -57.000
208.370;  -79.100; -727.000; -619.000
208.516;  -72.200; -741.000; -487.000
208.661;  -40.150; -127.000;  -69.000
208.806;  -15.825; -165.000; -171.000
208.952; -125.625;-1044.000; -731.000
209.097;   76.750;  378.000;  349.000
209.242;  -40.800; -307.000; -382.000
209.387;   77.175;  392.000;  350.000
209.533;  -52.725; -321.000; -350.000
209.678;   75.550;  472.000;  543.000
209.823;  -58.750; -408.000; -310.000
209.969; -105.625; -860.000; -757.000
210.114; -104.775; -907.000; -719.000
210.259; -100.025; -939.000; -889.000
210.404;   -3.775; -171.000;  103.000
210.549;    9.350;  108.000;    3.000
210.695;  -24.125;   -3.000;  -95.000
210.840;   30.050;   94.000;   67.000
210.985;  -67.050; -484.000; -303.000
211.130;   70.800;  268.000;  406.000
211.275;    5.200;  207.000;  199.000
211.420;  -48.475; -300.000; -289.000
211.566;  -60.875; -536.000; -489.000
211.711;   22.175;  218.000;  157.000
211.856;  -71.525; -545.000; -519.000
212.001;    1.675;  151.000;   44.000
212.146;   18.525;  153.000;   49.000
212.291;  -18.600; -210.000; -186.000
212.436;  -39.675; -280.000;   -6.000
212.581;  -64.950; -685.000; -653.000
212.726;  -77.725; -487.000; -538.000
212.871;  -48.000; -552.000; -217.000
213.016; -138.625;-1172.000;-1029.000
213.161;   54.650;  406.000;  291.000
213.306;  -65.675; -435.000; -577.000
213.451;  -84.325; -778.000; -689.000
213.596;  -41.400; -455.000; -347.000
213.741;  -50.175; -448.000; -538.000
213.886;  -72.750; -498.000; -517.000
214.031;  -33.125; -294.000; -124.000
214.176;  -43.400; -408.000; -341.000
214.321;  -25.025; -296.000; -157.000
214.466;  -28.600; -163.000;  -43.000
214.611;    0.425;  -61.000;  -10.000
214.756; -122.275; -948.000; -858.000
214.901;  -27.625; -388.000; -226.000
215.046; -113.900; -797.000; -825.000
215.191;   24.900;  128.000;   35.000
215.336;   -6.600; -157.000;  -19.000
215.480;  -52.325; -684.000; -505.000
215.625;   -9.600; -175.000;  -19.000
215.770;  -81.325; -757.000; -662.000
215.915;    0.875;   -5.000;  -97.000
216.060;   -4.175; -113.000;  -21.000
216.205; -103.325; -731.000; -779.000
216.349;  -68.775; -470.000; -533.000
216.494; -137.075; -939.000; -867.000
216.639;  -93.000; -823.000; -888.000
216.784;  -78.800; -577.000; -525.000
216.929;   49.600;  392.000;  281.000
217.073;  -15.225; -244.000;  -31.000
217.218;  -12.225;   78.000;  -47.000
217.363;  -88.475; -656.000; -618.000
217.507;  -82.425; -623.000; -588.000
217.652; -114.125; -845.000; -874.000
217.797;  -84.675; -708.000; -659.000
217.942; -107.900; -856.000; -720.000
218.086;   55.775;  608.000;  539.000
218.231;  -28.475; -174.000;  -26.000
218.376;  -27.925; -337.000; -229.000
218.520;   -0.575;  -41.000;   96.000
218.665;  -31.875; -338.000; -204.000
218.810;  -37.300; -275.000; -233.000
218.954;   25.475;  201.000;   35.000
219.099; -102.000; -713.000; -963.000
219.243;  -75.825; -589.000; -554.000
219.388;  -28.550; -264.000; -136.000
219.532;    2.650; -116.000; -116.000
219.677;  -73.300; -564.000; -521.000
219.822;   11.825;   33.000;   89.000
219.966;   -3.525;   17.000;  -99.000
220.111;  -31.425; -328.000;  -40.000
220.255;  -97.475; -797.000; -750.000
220.400;  -24.475; -180.000; -146.000
220.544;  -66.175; -516.000; -450.000
220.689;  -53.000; -422.000; -451.000
220.833;  -30.650; -123.000;  -58.000
220.978;  -45.700; -393.000; -563.000
221.122;   21.425;  319.000;  307.000
221.267; -116.150; -906.000; -837.000
221.411;  -63.800; -478.000; -394.000
221.555;  -14.875; -104.000;  -23.000
221.700;  -72.750; -329.000; -222.000
221.844;   34.950;  255.000;  272.000
221.989;  -52.775; -328.000; -311.000
222.133;  -32.500; -289.000; -307.000
222.277;  -11.225;    5.000;   78.000
222.422;   14.775;  227.000;  113.000
222.566;  -42.675; -381.000; -214.000
222.711;  -52.450; -414.000; -479.000
222.855;  -79.125; -643.000; -586.000
222.999;  -80.025; -642.000; -717.000
223.144;  -34.075; -195.000; -194.000
223.288;   45.675;  423.000;  251.000
223.432;   15.100;  184.000;  230.000
223.576;   12.700;  152.000;  -21.000
223.721;   33.200;  364.000;  273.000
223.865;  -50.975; -472.000; -475.000
224.009;  212.675; 1673.000; 1631.000
224.153;  -78.425; -660.000; -671.000
224.298;  -68.425; -531.000; -489.000
224.442;   -2.350;  -74.000;  -33.000
224.586;  -11.100; -169.000; -106.000
224.730;  -90.600; -858.000; -670.000
224.875; -104.550; -739.000; -688.000
225.019;   13.450;  102.000;  188.000
225.163;   51.400;  208.000;  341.000
225.307;   13.250;   97.000;  -91.000
225.451;   48.475;  360.000;  481.000
225.595;   22.700;  264.000;  176.000
225.739;  -29.825; -170.000;  -94.000
225.884;   -3.025;   86.000;    5.000
226.028; -102.250; -760.000; -626.000
226.172;  -32.050; -260.000; -273.000
226.316; -121.525; -941.000; -902.000
226.460;  -64.150; -645.000; -493.000
226.604;  -47.425; -406.000; -400.000
226.748; -100.375; -836.000; -733.000
226.892;  -50.475; -227.000; -181.000
227.036;  -53.275; -537.000; -447.000
227.180;  -55.675; -551.000; -375.000
227.324;  -55.275; -561.000; -580.000
227.468; -117.850; -819.000; -717.000
227.612;    6.375;  242.000;  -28.000
227.756;  -90.025; -845.000; -698.000
227.900;   46.925;  342.000;  441.000
228.044;  -69.000; -509.000; -290.000
228.188;   50.650;  448.000;  568.000
228.332;  -85.000; -546.000; -472.000
228.476;  -18.050; -223.000; -149.000
228.620;  -35.625; -210.000; -150.000
228.764;   78.650;  431.000;  349.000
228.908;  -26.825; -155.000;   30.000
229.052;  -57.900; -615.000; -528.000
229.195;  -22.300; -172.000;   13.000
229.339;  -28.225; -235.000; -305.000
229.483;  -30.650;    5.000; -162.000
229.627;  -11.150; -156.000;  139.000
229.771;  -44.675; -218.000; -294.000
229.915;    7.700;  230.000;   79.000
230.059;  -99.525; -648.000; -663.000
230.202;  -26.100; -370.000; -317.000
230.346;  -31.950; -107.000;  107.000
230.490;  -61.650; -489.000; -521.000
230.634; -103.575; -736.000; -553.000
230.777;   60.550;  478.000;  509.000
230.921;  -55.800; -450.000; -359.000
231.065;  -27.475; -246.000; -286.000
231.209;   22.075;  261.000;  265.000
231.352;   26.125;   54.000;   40.000
231.496;   21.725;  568.000;  188.000
231.640;  -67.550; -693.000; -621.000
231.783;   53.225;  546.000;  525.000
231.927;  -55.000; -294.000; -365.000
232.071; -123.375; -962.000; -736.000
232.214; -104.275; -980.000; -764.000
232.358;  -89.500; -683.000; -599.000
232.502;   12.100;  -19.000;    7.000
232.645; -134.100;-1090.000; -927.000
232.789;  -20.250; -257.000; -218.000
232.933;  -54.150; -407.000; -224.000
233.076; -131.200;-1038.000; -897.000
233.220; -102.525; -752.000; -777.000
233.363;  -61.175; -669.000; -477.000
233.507;   44.900;  371.000;  129.000
233.650;  -89.325; -764.000; -834.000
233.794;   41.325;  438.000;  461.000
233.938;  -55.150; -530.000; -362.000
234.081;  -16.900;  -93.000;   31.000
234.225;  -77.300; -631.000; -539.000
234.368; -109.975; -773.000; -723.000
234.512;  -54.575; -385.000; -299.000
234.655;  -95.050; -582.000; -555.000
234.798;  -55.525; -493.000; -466.000
234.942; -136.550; -884.000;-1002.000
235.085;  -69.525; -651.000; -443.000
235.229;  -76.525; -405.000; -410.000
235.372;  -38.000; -247.000; -191.000
235.516;  -74.200; -397.000; -321.000
235.659;   26.975;   92.000;  121.000
235.802;   -9.625;  -38.000;  -22.000
235.946;   31.950;  335.000;  215.000
236.089;   13.800;  126.000;  250.000
236.233;   43.650;  275.000;  298.000
236.376;  -49.425; -235.000; -378.000
236.519;  -44.525; -297.000; -319.000
236.663;  -25.400; -215.000; -117.000
236.806; -129.150;-1029.000; -999.000
236.949;   41.600;  543.000;  431.000
237.092;   43.800;  412.000;  391.000
237.236;  -86.225; -589.000; -502.000
237.379;   55.425;  352.000;  428.000
237.522; -119.375; -879.000; -768.000
237.666;  -15.475; -271.000;   18.000
237.809; -117.250; -851.000; -823.000
237.952;   28.750;  469.000;  271.000
238.095;  -62.075; -447.000; -442.000
238.238;   82.325;  688.000;  700.000
238.382;   -1.950;  166.000;  103.000
238.525;  -60.800; -598.000; -511.000
238.668; -127.975;-1060.000; -985.000
238.811;  -76.900; -638.000; -643.000
238.954;  -52.225; -483.000; -334.000
239.097;   82.400;  617.000;  664.000
239.241;   30.825;  394.000;  326.000
239.384;  -35.175; -254.000; -214.000
239.527;  -53.925; -424.000; -224.000
239.670; -129.875; -994.000;-1091.000
239.813; -106.850; -696.000; -658.000
239.956;   67.975;  579.000;  473.000
240.099; -105.575; -778.000; -725.000
240.242;   63.900;  428.000;  432.000
240.385;   36.525;  466.000;  450.000
240.528;  -76.125; -706.000; -473.000
240.671;   18.125;  189.000;  134.000
240.814;  -54.500; -441.000; -158.000
240.957;  -94.875; -767.000; -578.000
241.100;  -95.775; -779.000; -755.000
241.243; -129.600;-1234.000; -893.000
241.386;  -61.825; -508.000; -379.000
241.529;  -69.400; -735.000; -547.000
241.672;  -69.125; -566.000; -495.000
241.815; -108.700; -832.000; -808.000
241.958;  -33.550; -125.000; -182.000
242.101;  -74.975; -545.000; -390.000
242.244;  -37.625; -270.000; -325.000
242.387;  -43.425; -304.000; -246.000
242.530;   65.950;  470.000;  134.000
242.673;  -46.725; -381.000; -309.000
242.815; -103.400; -925.000; -899.000
242.958;  -87.725; -482.000; -381.000
243.101;   -1.650;  132.000;  187.000
243.244;  -66.600; -564.000; -521.000
243.387;  -56.000; -313.000; -316.000
243.530;  -89.550; -657.000; -674.000
243.672;    2.600;   43.000;  -92.000
243.815;  -49.675; -355.000; -283.000
243.958;   -0.025;   98.000;  -26.000
244.101;    8.150;   59.000;  -16.000
244.243;  -20.550;  -47.000;  101.000
244.386; -101.900; -761.000; -630.000
244.529;  -25.250; -132.000; -139.000
244.672; -157.125;-1154.000; -951.000
244.814; -100.075; -621.000; -794.000
244.957;  -41.625; -380.000; -304.000
245.100;  -67.850; -489.000; -489.000
245.242;  -55.050; -387.000; -374.000
245.385;    3.975;  -59.000;  -39.000
245.528; -132.475; -871.000; -705.000
245.670;   88.375;  612.000;  634.000
245.813;  -86.400; -599.000; -547.000
245.956;  -37.875; -324.000; -275.000
246.098;  -73.075; -508.000; -650.000
246.241;    3.275;  194.000;   48.000
246.383;  -29.200; -119.000;  -73.000
246.526;  -75.975; -454.000; -525.000
246.669; -115.000; -889.000; -780.000
246.811;   27.350;  172.000;   -1.000
246.954;  -67.525; -512.000; -426.000
247.096;  -17.575;  -84.000;   -6.000
247.239;  -65.450; -482.000; -445.000
247.381;  -59.775; -647.000; -488.000
247.524;   75.025;  645.000;  679.000
247.666;   -3.950;   58.000;   11.000
247.809; -122.675; -887.000; -691.000
247.951;   -5.775;  -75.000;  138.000
248.094;    7.875;  432.000;  308.000
248.236; -148.575;-1262.000;-1238.000
248.378;  -31.075; -356.000;  -81.000
248.521;  -30.950; -334.000; -337.000
248.663;  -45.525; -236.000; -267.000
248.806;  -40.575; -300.000; -266.000
248.948; -102.075; -886.000; -763.000
249.090;  -59.300; -428.000; -398.000
249.233;  -55.850; -344.000; -381.000
249.375;  -82.275; -474.000; -451.000
249.518;  -30.925;  -83.000; -133.000
249.660;  -17.000; -103.000;    3.000
249.802; -169.275;-1303.000;-1189.000
249.945;  -80.300; -612.000; -540.000
250.087; -118.700; -834.000; -768.000
250.229;  -57.675; -362.000; -480.000
250.371;  -75.850; -494.000; -439.000
250.514;  -42.250; -310.000; -244.000
250.656;   -9.200;   69.000;  102.000
250.798; -106.150; -849.000; -800.000
250.940;  -58.750; -322.000; -322.000
251.083;  -28.300; -335.000; -111.000
251.225;   45.525;  338.000;  310.000
251.367;  -51.200; -274.000; -373.000
251.509;  -46.600; -265.000; -210.000
251.651;  -80.725; -731.000; -671.000
251.794;   41.200;  538.000;  632.000
251.936; -101.300; -821.000; -747.000
252.078;  -80.875; -540.000; -461.000
252.220;  -70.575; -645.000; -477.000
252.362;   49.825;  344.000;  462.000
252.504;  -75.200; -677.000; -584.000
252.646; -113.075; -875.000; -722.000
252.788;  -22.050;   14.000; -128.000
252.931;  -45.450; -257.000; -253.000
253.073;  -41.825; -376.000; -317.000
253.215;  -17.000;  141.000;  122.000
253.357;   -7.150;   82.000; -153.000
253.499;  -54.350; -374.000; -234.000
253.641;  -86.400; -749.000; -594.000
253.783; -104.375; -609.000; -527.000
253.925;  -90.650; -586.000; -591.000
254.067; -115.400; -744.000; -667.000
254.209;  -34.900; -391.000; -259.000
254.351; -136.725; -865.000; -883.000
254.493;  -63.250; -441.000; -417.000
254.635; -117.500; -936.000; -818.000
254.777;  -90.000; -752.000; -687.000
254.918;  -70.500; -512.000; -430.000
255.060;  -61.350; -551.000; -395.000
255.202;  -58.200; -473.000; -261.000
255.344;  -72.375; -658.000; -455.000
255.486;  -69.025; -471.000; -406.000
255.628; -111.625; -780.000; -781.000
255.770;  -79.650; -676.000; -536.000
255.912;  -60.525; -559.000; -468.000
256.053;  -94.250; -730.000; -508.000
256.195;  146.150; 1008.000;  903.000
256.337;  -97.450; -861.000; -595.000
256.479;   59.300;  532.000;  416.000
256.621;  -48.625; -394.000; -212.000
256.762;  -93.400; -789.000; -742.000
256.904;   38.675;  485.000;  487.000
257.046;  -40.950; -381.000; -271.000
257.188;  -47.950; -351.000; -264.000
257.329;  -66.975; -525.000; -464.000
257.471; -116.125; -939.000; -807.000
257.613;  -68.750; -584.000; -498.000
257.755; -134.150;-1073.000; -982.000
257.896;   28.075;  286.000;  392.000
258.038;  -78.000; -403.000; -352.000
258.180;  -50.850; -354.000; -279.000
258.321;  -85.150; -581.000; -457.000
258.463;    2.925;  -71.000;  133.000
258.605; -102.125; -562.000; -570.000
258.746;  -91.375; -886.000; -772.000
258.888; -155.075;-1026.000;-1020.000
259.029;   16.100;  121.000;   -8.000
259.171;  -85.175; -614.000; -550.000
259.313;   -5.700;  -49.000;  -47.000
259.454;  -77.525; -536.000; -414.000
259.596;  -48.850; -483.000; -390.000
259.737;  -77.825; -590.000; -474.000
259.879;   23.350;  217.000;  311.000
260.020;   51.775;  901.000;  636.000
260.162;  -28.775; -146.000; -253.000
260.303; -110.700; -768.000; -687.000
260.445;  -78.800; -609.000; -613.000
260.586;   12.225;  392.000;  157.000
260.728;  -47.400; -360.000; -248.000
260.869;  -67.375; -350.000; -343.000
261.011;   65.750;  706.000;  537.000
261.152;  -52.950; -479.000; -319.000
261.293;  -74.950; -576.000; -595.000
261.435;  -52.625; -219.000; -184.000
261.576;  -41.725; -455.000; -325.000
261.718;   34.475;  420.000;  470.000
261.859; -122.225; -940.000; -949.000
262.000; -126.200; -951.000;-1016.000
262.142;  -22.125;  -52.000;  -60.000
262.283; -116.350; -808.000; -691.000
262.424;  -94.625; -666.000; -625.000
262.566; -140.975;-1161.000; -983.000
262.707; -110.925; -840.000; -830.000
262.848; -126.125; -769.000; -726.000
262.990;  -37.975; -362.000; -345.000
263.131;   72.225;  650.000;  681.000
263.272;  -27.950;  -61.000;  -41.000
263.413;  -94.900; -589.000; -561.000
263.555;  -64.575; -669.000; -143.000
263.696;  -96.200; -550.000; -641.000
263.837;  -59.200; -449.000; -551.000
263.978;  -19.825;   -5.000;  -77.000
264.119;  -44.425; -283.000; -264.000
264.261; -118.300; -847.000; -630.000
264.402;  -10.775;   33.000;   40.000
264.543;  -82.775; -509.000; -524.000
264.684;   -8.625;   61.000;  -50.000
264.825;  -94.875; -816.000; -538.000
264.966;   -9.150;  -84.000;  -67.000
265.107; -109.325; -646.000; -670.000
265.248; -117.300; -825.000; -812.000
265.390;  -16.475;  152.000;   -9.000
265.531;  -40.175; -238.000; -107.000
265.672;  -92.700; -557.000; -630.000
265.813;   55.575;  563.000;  439.000
265.954; -120.350; -959.000; -940.000
266.095;  -18.950; -372.000; -322.000
266.236; -102.200; -686.000; -548.000
266.377;  -41.475; -243.000; -297.000
266.518;  -84.625; -619.000; -547.000
266.659;   16.350;  170.000;  268.000
266.800;   -4.650;   83.000;   85.000
266.941;  -79.800; -487.000; -478.000
267.082;   15.650;  354.000;   99.000
267.223;  -49.125; -344.000; -273.000
267.364; -112.450; -892.000; -686.000
267.504;  -20.250;    3.000;  135.000
267.645;  -17.200;  160.000;   67.000
267.786;  -37.575; -147.000;  -86.000
267.927;  -74.100; -473.000; -379.000
268.068;  -29.825; -186.000;  -61.000
268.209;  -41.350; -175.000; -413.000
268.350;  -60.575; -388.000; -532.000
268.490;  -90.175; -648.000; -521.000
268.631;   25.750;  127.000;  225.000
268.772; -114.500; -874.000; -647.000
268.913;  -52.150; -328.000; -476.000
269.054;  -24.975; -117.000;   12.000
269.194;  -46.950; -418.000; -402.000
269.335; -154.175;-1137.000;-1074.000
269.476;  -11.275;   33.000;  -35.000
269.617;  -56.225; -347.000; -392.000
269.757;  -97.700; -713.000; -646.000
269.898; -107.025; -856.000; -613.000
270.039;  -61.525; -415.000; -405.000
270.180; -140.150; -952.000; -816.000
270.320;  -35.425; -190.000; -250.000
270.461;  -43.900; -277.000; -249.000
270.602;  -13.000; -186.000; -156.000
270.742; -133.925; -868.000; -943.000
270.883;  -57.825; -442.000; -390.000
271.023;  -53.350; -358.000; -357.000
271.164;  -76.975; -607.000; -528.000
271.305; -102.325; -666.000; -654.000
271.445;  -88.275; -722.000; -683.000
271.586;  -74.450; -462.000; -283.000
271.726;  -64.350; -397.000; -322.000
271.867;  -90.275; -594.000; -534.000
272.008;   38.225; -473.000; -285.000
272.148;   58.075;  462.000;  468.000
272.289;    2.900; -113.000; -181.000
272.429;   -7.325;   19.000;  185.000
272.570;  -83.500; -633.000; -737.000
272.710; -100.375; -825.000; -775.000
272.851;  -30.825;  113.000; -130.000
272.991; -158.200;-1173.000;-1077.000
273.131;  -48.500; -419.000; -459.000
273.272; -101.950; -683.000; -723.000
273.412;  -10.150; -143.000;  -31.000
273.553;  -74.125; -488.000; -507.000
273.693;  103.050;  913.000;  858.000
273.834; -110.250; -894.000; -692.000
273.974;  -78.025; -664.000; -615.000
274.114; -105.300; -772.000; -560.000
274.255;   49.400;  414.000;  373.000
274.395;  -20.150; -180.000; -125.000
274.535;   35.225;  199.000;  350.000
274.676;   18.875;  225.000;   94.000
274.816;   -2.825;  110.000;   34.000
274.956;  -74.100; -624.000; -690.000
275.097;  -92.675;-1014.000; -922.000
275.237; -112.275; -913.000; -803.000
275.377;  -96.175; -778.000; -689.000
275.517; -150.300; -878.000; -937.000
275.658;  -70.025; -590.000; -555.000
275.798;  -66.925; -606.000; -413.000
275.938;   17.100;  215.000;  323.000
276.078;  -92.650; -626.000; -395.000
276.218;    0.825;   99.000;  104.000
276.359; -143.225;-1026.000;-1024.000
276.499;  -75.600; -605.000; -446.000
276.639;  -43.675; -305.000; -151.000
276.779;  -58.050; -475.000; -357.000
276.919;  -96.550; -783.000; -624.000
277.059;  -27.600; -261.000; -212.000
277.199;  -54.850; -357.000; -259.000
277.340;   50.300;  287.000;  175.000
277.480; -115.825; -840.000; -693.000
277.620;   31.775;  192.000;   16.000
277.760; -178.425;-1533.000;-1294.000
277.900;  -10.575;  113.000;   33.000
278.040;  -10.575;  137.000;  159.000
278.180;   19.050;  270.000;  170.000
278.320;    0.100;   21.000;   56.000
278.460;  -69.825; -443.000; -469.000
278.600;  -96.125; -708.000; -598.000
278.740;   44.150;  448.000;  224.000
278.880; -113.200; -768.000; -791.000
279.020;  -17.850; -194.000; -144.000
279.160;  -87.275; -672.000; -595.000
279.300; -118.200; -926.000; -873.000
279.440;  -84.025; -709.000; -622.000
279.579;  -77.450;-1014.000; -929.000
279.719;  -75.050; -410.000; -394.000
279.859;   28.825;   -4.000;   41.000
279.999;  -12.300; -208.000;  101.000
280.139;  -50.925; -435.000; -387.000
280.279;  -92.950; -708.000; -745.000
280.419;  -21.950; -229.000; -147.000
280.559;  -31.875; -259.000; -180.000
280.698;  -88.975; -790.000; -639.000
280.838; -105.375; -778.000; -800.000
280.978;  -97.550; -846.000; -790.000
281.118; -115.750; -811.000; -704.000
281.257;    5.925;   24.000;    6.000
281.397; -135.125;-1094.000; -960.000
281.537;  -75.000; -599.000; -712.000
281.677;  -23.225; -150.000; -101.000
281.816;  -84.100; -700.000; -630.000
281.956;  -32.275; -193.000; -257.000
282.096;  -56.425; -539.000; -396.000
282.235;  -87.675; -672.000; -638.000
282.375;   -8.900; -243.000;  -98.000
282.515;  -86.175; -715.000; -707.000
282.654;   20.175;   29.000;  106.000
282.794;   26.800;  388.000;  244.000
282.934;  -50.150; -530.000; -491.000
283.073; -114.700;-1030.000; -857.000
283.213;  -43.625; -460.000; -467.000
283.353;  -34.225; -408.000; -349.000
283.492;  -31.800; -264.000; -296.000
283.632;  -52.350; -254.000; -168.000
283.771;  -77.625; -859.000; -730.000
283.911;  -49.525; -369.000; -260.000
284.050; -102.925; -794.000; -748.000
284.190; -148.675;-1229.000;-1096.000
284.329; -129.450;-1055.000; -964.000
284.469;  -85.025; -516.000; -591.000
284.608;  -55.050; -559.000; -598.000
284.748;  -75.450; -614.000; -570.000
284.887;    0.925;  -87.000;  -20.000
285.027; -123.875; -844.000; -892.000
285.166;  -45.000; -192.000; -249.000
285.306;  -22.025; -116.000;  -33.000
285.445;  -51.675; -229.000; -343.000
285.584;  -99.850; -630.000; -494.000
285.724;  -34.100; -282.000; -322.000
285.863; -107.800; -857.000; -507.000
286.002;  -54.825; -366.000; -276.000
286.142; -107.075; -715.000; -622.000
286.281;  -67.725; -525.000; -493.000
286.420;  -89.125; -554.000; -417.000
286.560;   93.100;  653.000;  623.000
286.699; -132.025; -958.000; -912.000
286.838;  -86.350; -590.000; -591.000
286.978;  -82.675; -533.000; -537.000
287.117; -130.225;-1085.000; -950.000
287.256;  -34.800; -228.000; -211.000
287.395;  -35.175; -197.000; -378.000
287.535;  -54.350; -370.000; -298.000
287.674;  -70.575; -509.000; -484.000
287.813;   64.450;  661.000;  533.000
287.952; -116.800;-1010.000; -871.000
288.091; -147.175;-1049.000; -915.000
288.231;    4.800;   13.000;   15.000
288.370; -146.200;-1217.000;-1200.000
288.509;  -90.000; -728.000; -645.000
288.648;  -86.650; -770.000; -548.000
288.787;  -45.325; -243.000;  -87.000
288.926;  -69.525; -454.000; -475.000
289.065;  111.925;  859.000;  672.000
289.204;  -56.625; -377.000; -217.000
289.344; -100.925; -791.000; -690.000
289.483;    3.650;  416.000;  304.000
289.622;  -52.975; -291.000; -149.000
289.761;  -13.400; -309.000; -166.000
289.900;  -93.125; -785.000; -626.000
290.039;  -21.275;  -12.000;  -95.000
290.178;  -37.300; -274.000; -180.000
290.317;  -86.650; -618.000; -479.000
290.456;  -56.750; -463.000; -451.000
290.595; -113.975; -961.000; -833.000
290.734; -128.825; -904.000; -891.000
290.873;  -72.625; -456.000; -420.000
291.011; -108.000; -833.000; -843.000
291.150; -112.150; -770.000; -682.000
291.289;  -41.050; -343.000; -110.000
291.428;  -94.550; -599.000; -480.000
291.567;  -55.125; -370.000; -442.000
291.706;    0.900;  109.000;  154.000
291.845;  -68.375; -597.000; -505.000
291.984; -171.875;-1234.000;-1061.000
292.122;   57.325;  602.000;  582.000
292.261;   34.100;  620.000;  463.000
292.400;    0.700; -144.000;  211.000
292.539; -117.825; -959.000; -813.000
292.678;  -34.550; -325.000; -300.000
292.816; -143.725;-1136.000; -965.000
292.955;  -95.575; -844.000; -684.000
293.094;  -31.400; -173.000; -337.000
293.233;  -48.900; -556.000; -400.000
293.371;  -35.825; -225.000;  -84.000
293.510;  -96.825; -866.000; -780.000
293.649; -120.875; -959.000; -924.000
293.787; -112.375;-1083.000;-1012.000
293.926;  -25.875; -113.000;  -32.000
294.065;  -49.975; -379.000; -290.000
294.203;   36.675;  298.000;  406.000
294.342;   28.725;   74.000;  156.000
294.481; 4983.100;51180.000; -836.000
294.619;  -40.575; -425.000; -582.000
294.758; -149.400;-1230.000;-1137.000
294.896;   30.025; -125.000;    5.000
295.035; -140.300;-1040.000;-1006.000
295.174; -128.775;-1082.000; -954.000
295.312;  -44.475; -323.000; -203.000
295.451;  -34.325; -307.000; -428.000
295.589;  -53.800; -389.000; -518.000
295.728;   11.150; -292.000; -165.000
295.866;  -29.825;  -36.000;  -51.000
296.005;  -57.850; -584.000; -341.000
296.143;  -72.200; -558.000; -596.000
296.282;  -95.475; -957.000; -881.000
296.420;  -86.350; -657.000; -557.000
296.559;  -88.925; -892.000; -633.000
296.697;  -43.675; -847.000; -665.000
296.835;  -55.250;-1141.000;-1002.000
296.974;   25.000;  -23.000;   39.000
297.112;  -38.800; -443.000; -504.000
297.251;  -70.800; -815.000; -755.000
297.389;    2.300; -576.000; -438.000
297.527;    1.225; -145.000;  -83.000
297.666;  -43.950; -486.000; -438.000
297.804;  -53.825; -404.000; -264.000
297.942;    1.125; -136.000; -161.000
298.081;  -15.825; -183.000;   63.000
298.219;    4.875;  -17.000;  -19.000
298.357;   -3.600; -144.000;  -71.000
298.495;  -63.375; -810.000; -812.000
298.634;    8.675;  245.000;  219.000
298.772;  -18.575; -220.000; -338.000
298.910;  -48.100; -309.000; -182.000
299.048;  -11.750; -130.000; -153.000
299.187;  -46.800; -350.000; -250.000
299.325;    4.850;   52.000;  122.000
299.463;  -32.200; -389.000; -299.000
299.601;   17.025; -327.000; -271.000
299.739; -128.900; -908.000; -883.000
299.877;  -93.850; -791.000; -703.000
300.016;  -92.925;-1095.000; -935.000
300.154;   51.025;  -19.000; -161.000
300.292;  -29.600; -428.000; -348.000
300.430;  -12.500; -408.000; -291.000
300.568; -118.625; -940.000; -874.000
300.706;  -51.700; -366.000; -469.000
300.844; -116.225;-1108.000; -979.000
300.982;   73.350;  246.000;  282.000
301.120; -121.425; -965.000; -866.000
301.258;  -88.350; -812.000; -705.000
301.396;    4.625;  104.000;  -41.000
301.534;   -4.000; -218.000; -293.000
301.672;  -65.650; -664.000; -521.000
301.810;  -44.525; -613.000; -545.000
301.948;   54.925;   53.000;  149.000
302.086;  229.125; -250.000;  -32.000
302.224;  260.125; -610.000; -585.000
302.362;  -59.850; -558.000; -622.000
302.500;  -91.450; -923.000; -893.000
302.638;   41.325;  128.000;  245.000
302.776;  -30.700; -352.000; -408.000
302.913;   36.050;  447.000;  236.000
303.051;  -31.150;  -86.000;  -23.000
303.189;   25.625;   90.000;  118.000
303.327;  -54.700; -341.000; -256.000
303.465;  -74.875; -832.000; -588.000
303.603;  -98.000; -805.000; -604.000
303.740;   56.500;  417.000;  241.000
303.878;  -58.625; -800.000; -759.000
304.016; -103.525; -915.000; -790.000
304.154; -141.525;-1123.000;-1152.000
304.291;  -53.525; -505.000; -554.000
304.429;    4.125;  102.000;   74.000
304.567; -125.775; -908.000; -893.000
304.705;  -74.100; -408.000; -515.000
304.842;  -29.750; -616.000; -540.000
304.980;   16.925;  215.000;   35.000
305.118;  -17.075; -367.000; -365.000
305.255; -113.550; -945.000; -927.000
305.393;   36.125;  178.000;  239.000
305.531; -122.125;-1173.000; -956.000
305.668;  -88.050; -663.000; -582.000
305.806;   30.600; -358.000; -439.000
305.943;    1.050; -629.000; -637.000
306.081;   -8.575; -378.000; -267.000
306.219;  -99.125; -863.000; -748.000
306.356;    3.200;  158.000;   27.000
306.494;  155.375;  981.000;  761.000
306.631;    7.925;  -11.000;  -55.000
306.769;   42.450; -613.000; -485.000
306.906;    1.150; -284.000; -258.000
307.044;  -39.825; -473.000; -488.000
307.181;  -36.875; -410.000; -332.000
307.319;   13.650;  112.000;   87.000
307.456; -159.550;-1191.000;-1153.000
307.594;  -97.700; -980.000; -727.000
307.731;  -26.425; -371.000; -164.000
307.868;   -1.225;  -15.000;   20.000
308.006; -108.850; -961.000; -847.000
308.143;  -67.575; -618.000; -330.000
308.281;   47.150;  -37.000; -254.000
308.418;  -37.350; -748.000; -640.000
308.555;  -65.650; -400.000; -250.000
308.693;  -48.800; -577.000; -573.000
308.830;  -92.175; -712.000; -657.000
308.967;   -2.175; -215.000;  -95.000
309.105;  -10.925; -507.000; -396.000
309.242;   21.225; -468.000; -367.000
309.379;   90.450; -577.000; -655.000
309.517;  -76.200; -936.000; -948.000
309.654;  -87.950; -910.000; -734.000
309.791;  -38.550; -662.000; -580.000
309.928;  -97.875; -977.000; -914.000
310.065;  156.400;  819.000;  697.000
310.203;  -55.275; -825.000; -850.000
310.340;   -0.400; -465.000; -321.000
310.477;  -63.475; -412.000; -516.000
310.614;  -42.125; -383.000; -473.000
310.751;  -38.875; -427.000; -518.000
310.889;   -3.525;    1.000;   11.000
311.026; -127.400;-1161.000; -939.000
311.163;  -26.450; -386.000; -380.000
311.300;  -50.525; -512.000; -479.000
311.437;  -44.850; -658.000; -619.000
311.574; -128.975;-1226.000; -985.000
311.711;  -43.950; -595.000; -433.000
311.848;  -11.825; -380.000; -388.000
311.985;   13.175;  270.000;   93.000
312.122;  -87.975; -932.000; -762.000
312.259;  -81.450; -941.000; -994.000
312.396;  -34.125; -508.000; -551.000
312.533;  -48.925; -812.000; -790.000
312.670; -115.125;-1070.000; -898.000
312.807;   -1.400; -352.000; -367.000
312.944;  -45.325; -513.000; -611.000
313.081;    1.250; -150.000; -415.000
313.218;  -78.775;-1111.000; -867.000
313.355;   16.725; -531.000; -449.000
313.492;   -4.875; -455.000; -292.000
313.629;  146.250;  815.000;  735.000
313.766; -124.925;-1176.000;-1008.000
313.902;    7.450; -186.000;   21.000
314.039;  -38.525; -372.000; -289.000
314.176;   46.525;  286.000;  192.000
314.313;  -58.700; -569.000; -473.000
314.450;  -69.500; -788.000; -684.000
314.587;  -45.975; -468.000; -480.000
314.723;   14.975;  -78.000;  130.000
314.860;   60.975;  318.000;  332.000
314.997;   41.050;  223.000;  142.000
315.134;   -7.875; -385.000; -368.000
315.270;  -11.275; -480.000; -496.000
315.407;  -88.850;-1094.000; -967.000
315.544;  -22.450; -657.000; -538.000
315.681;  -45.275; -681.000; -565.000
315.817;   68.225; -133.000; -176.000
315.954;   42.700; -613.000; -392.000
316.091; -103.525;-1045.000;-1023.000
316.227;  -14.525;  -71.000; -179.000
316.364;    5.400;   23.000;    6.000
316.500;  -20.025; -113.000; -300.000
316.637;  -29.475; -181.000; -302.000
316.774;  -89.700; -625.000; -358.000
316.910;  -84.875; -598.000; -629.000
317.047;  -56.075; -487.000; -351.000
317.183;  -59.350; -435.000; -566.000
317.320;   30.100; -367.000; -321.000
317.456;  -37.525; -733.000; -805.000
317.593;  -84.250; -598.000; -641.000
317.729;   -4.275;  168.000;  -67.000
317.866; -179.725;-1434.000;-1285.000
318.002; -103.325; -708.000; -948.000
318.139; -117.850; -883.000; -867.000
318.275; -116.050;-1003.000; -738.000
318.412;  -60.400; -517.000; -336.000
318.548;  -62.325; -751.000; -720.000
318.685; -101.550; -985.000; -888.000
318.821;  -86.325; -762.000; -735.000
318.957;  -33.200;   34.000;  -23.000
319.094;   43.650;  297.000;  154.000
319.230;  -93.800; -756.000; -742.000
319.367;   16.800; -471.000; -520.000
319.503;  -26.400; -538.000; -436.000
319.639;  -97.550; -877.000; -793.000
319.775; -105.150; -750.000; -685.000
319.912;  -59.750; -424.000; -519.000
320.048;  -90.100;-1184.000;-1184.000
320.184;   88.150;   59.000;   70.000
320.321;  -47.575; -497.000; -467.000
320.457;   76.000;  475.000;  662.000
320.593;  -71.300; -375.000; -382.000
320.729;  -97.225; -732.000; -734.000
320.866;  -51.800; -577.000; -635.000
321.002;  -94.675; -759.000; -809.000
321.138;  -35.725; -135.000; -211.000
321.274;   19.475; -148.000; -115.000
321.410;  -43.925; -585.000; -353.000
321.546;  -98.275;-1011.000; -911.000
321.683;   27.800;  400.000;  185.000
321.819;  -33.175;  -48.000; -117.000
321.955; -107.775; -743.000; -722.000
322.091;  -68.000; -585.000; -540.000
322.227;  -37.875; -382.000; -202.000
322.363;  -36.250; -320.000; -215.000
322.499;  -67.050; -343.000; -331.000
322.635;  104.900;  636.000;  443.000
322.771;  -13.850; -139.000;   12.000
322.907;   35.350;  129.000;  327.000
323.043;  -40.450; -115.000; -206.000
323.179;  -41.550; -394.000; -363.000
323.315;  -23.125; -401.000; -371.000
323.451;   28.050; -328.000; -236.000
323.587;   58.450;  -60.000;  -77.000
323.723;  -43.950; -682.000; -601.000
323.859;  -23.550; -258.000;  -76.000
323.995;  -55.575; -467.000; -409.000
324.131; -125.200; -967.000; -892.000
324.267;  -38.075; -254.000; -276.000
324.402; -129.550; -960.000; -983.000
324.538;  -36.900; -279.000; -104.000
324.674;   -5.675;  164.000;   77.000
324.810;   52.550;  226.000;  308.000
324.946;  -30.750; -810.000; -658.000
325.082;  -69.000; -568.000; -475.000
325.217;  -33.500;  -62.000;   16.000
325.353;  -98.425; -764.000; -659.000
325.489;  -82.100; -540.000; -506.000
325.625;  -74.775; -579.000; -525.000
325.760;   71.400;  517.000;  376.000
325.896;    9.600; -515.000; -702.000
326.032;  -58.500; -403.000; -352.000
326.168;  -58.900; -462.000; -369.000
326.303;  -61.025; -352.000; -461.000
326.439;   -0.850; -336.000; -276.000
326.575;  -13.550; -190.000;  -29.000
326.710;  -27.625; -156.000;  -30.000
326.846;  -18.400;  146.000;  103.000
326.982;  -86.575; -530.000; -548.000
327.117;  -70.350; -481.000; -442.000
327.253;  -77.325; -745.000; -742.000
327.388; -151.725;-1137.000;-1153.000
327.524;  -78.600; -811.000; -578.000
327.659;  -32.500;  -58.000;  -22.000
327.795;  -11.100;   69.000;   45.000
327.931;  -71.750; -723.000; -499.000
328.066;  -21.775; -417.000; -276.000
328.202;  -26.550;   12.000; -129.000
328.337;   98.525;  957.000;  713.000
328.473;   21.650;  -12.000;  -74.000
328.608;  -11.725; -256.000; -267.000
328.743; -103.875; -799.000; -664.000
328.879;   12.000;  214.000;  114.000
329.014;  -40.225; -102.000; -122.000
329.150;  -82.750; -358.000; -483.000
329.285;  -70.625; -465.000; -466.000
329.421;  -56.850; -548.000; -246.000
329.556;  -21.550;  -36.000;   85.000
329.691;  -79.000; -633.000; -615.000
329.827;  -67.650; -626.000; -480.000
329.962;  -39.325;  131.000; -301.000
330.097;  -77.675; -673.000; -585.000
330.233;  -40.225; -410.000; -223.000
330.368; -114.650; -839.000; -628.000
330.503;  -13.800;    3.000;   98.000
330.638;  -16.975;  -93.000; -125.000
330.774;  -84.025; -609.000; -530.000
330.909;  -56.300; -434.000; -244.000
331.044;  -84.375; -714.000; -708.000
331.179; -164.700;-1217.000;-1109.000
331.315;    7.375;   77.000;   20.000
331.450;    7.375;  157.000;  285.000
331.585;  -83.275; -805.000; -706.000
331.720;  -87.600; -510.000; -460.000
331.855;  -14.650;  -35.000; -102.000
331.990;  378.950;   62.000;  138.000
332.126;  196.025; -110.000;   71.000
332.261;   13.025; -379.000; -265.000
332.396;   29.025; -135.000; -242.000
332.531;  -57.750;-1074.000;-1031.000
332.666;   85.725; -519.000; -363.000
332.801;  -95.350; -726.000; -807.000
332.936;  -23.225; -192.000; -122.000
333.071; -132.575; -870.000; -817.000
333.206;   35.475;  307.000;  379.000
333.341;   28.325;  344.000;  418.000
333.476;  -81.575; -627.000; -623.000
333.611;  -44.100; -251.000; -173.000
333.746;  -43.725; -381.000; -464.000
333.881; -117.150; -973.000; -935.000
334.016; -107.650; -936.000; -917.000
334.151; -123.725; -746.000; -702.000
334.286;   14.725;  152.000;  186.000
334.421;  -14.250; -125.000; -178.000
334.556;  -69.625; -611.000; -567.000
334.690;  -94.725; -631.000; -577.000
334.825;   51.525;  381.000;   83.000
334.960;  -48.975; -285.000; -413.000
335.095;   16.175;  135.000;  -91.000
335.230;  -78.425; -722.000; -738.000
335.365; -116.775;-1084.000; -990.000
335.499; -120.425;-1108.000;-1037.000
335.634;   30.000;    9.000;  534.000
335.769;  -80.275; -755.000; -720.000
335.904;  -43.425; -603.000; -561.000
336.038;  -17.650; -735.000; -657.000
336.173;  -92.075;-1206.000;-1194.000
336.308;   34.650; -116.000; -189.000
336.443;   80.700; -544.000; -634.000
336.577;  -33.225; -936.000; -787.000
336.712;  101.350;   -4.000;  -12.000
336.847;   14.725; -724.000; -607.000
336.981;   81.350; -272.000; -208.000
337.116;  352.550;  615.000;  501.000
337.250;  163.525; -434.000; -421.000
337.385;  415.700; -297.000; -208.000
337.520;  193.500; -632.000; -603.000
337.654;  -38.700; -215.000; -126.000
337.789; -118.225; -989.000; -933.000
337.923;  -47.900; -104.000; -205.000
338.058; -103.150; -673.000; -738.000
338.192;  -59.450; -611.000; -488.000
338.327;   -4.400;  -18.000; -155.000
338.461;  -70.000; -299.000; -469.000
338.596;  -90.725; -780.000; -638.000
338.730;  -74.350; -767.000; -803.000
338.865;  140.850;  -46.000; -140.000
338.999;   12.850; -846.000; -702.000
339.134;    5.800; -634.000; -536.000
339.268;   21.725; -741.000; -603.000
339.403;  528.100; -740.000; -775.000
339.537;  252.050; -894.000; -820.000
339.671;  -87.150; -829.000; -813.000
339.806;  -37.575; -556.000; -512.000
339.940;   33.875; -261.000; -235.000
340.074; -100.950; -685.000; -510.000
340.209;  -46.350; -351.000; -230.000
340.343; -102.600; -517.000; -573.000
340.477;  126.800;  998.000; 1036.000
340.612;   -1.975;-1033.000; -900.000
340.746;  210.375; -199.000; -243.000
340.880; -102.950; -924.000; -785.000
341.014;  -21.000;  -45.000; -154.000
341.149; -125.175; -756.000; -718.000
341.283; -114.250; -839.000; -754.000
341.417; -124.100;-1124.000; -938.000
341.551;  -19.825; -768.000; -708.000
341.685;  -65.700; -633.000; -611.000
341.820;  -61.150; -562.000; -493.000
341.954;  -54.625; -218.000; -349.000
342.088; -133.750;-1102.000;-1019.000
342.222;   34.175;  565.000;  618.000
342.356;  -83.450; -395.000; -335.000
342.490; -119.050; -880.000; -841.000
342.624;  -59.475; -339.000; -242.000
342.758;  -49.025; -364.000; -312.000
342.892;  -89.175; -710.000; -585.000
343.026;  -49.600;  -58.000; -116.000
343.160;  -55.175; -426.000; -376.000
343.294;  -82.025; -474.000; -337.000
343.428;  -69.650; -488.000; -448.000
343.562;  -28.875; -172.000;  -23.000
343.696;  -43.525; -385.000; -314.000
343.830;  -65.200; -362.000; -356.000
343.964;  -10.525; -231.000; -168.000
344.098;  353.000;  199.000;   70.000
344.232;  296.200; -266.000; -127.000
344.366;   53.300; -567.000; -453.000
344.500;  -24.000; -665.000; -744.000
344.634;  -26.300; -324.000; -164.000
344.768;  -59.850; -531.000; -341.000
344.902;    3.100;  278.000;  256.000
345.035;  -71.750; -556.000; -496.000
345.169; -123.375; -933.000; -656.000
345.303;  -47.275; -308.000; -482.000
345.437;  -99.750; -826.000; -717.000
345.571;  -62.600; -675.000; -594.000
345.704;  -60.525; -309.000; -532.000
345.838;  -23.275; -331.000; -284.000
345.972;  -70.525; -543.000; -495.000
346.106;  242.350; -179.000; -190.000
346.239;  452.900; -312.000; -243.000
346.373;   -1.550; -343.000; -302.000
346.507; -144.000; -950.000; -962.000
346.640;   43.300;  -30.000;   13.000
346.774;  -92.400; -650.000; -797.000
346.908;  -30.350; -138.000;  -11.000
347.041;  -97.725; -646.000; -593.000
347.175;    0.300;  259.000;   27.000
347.309; -103.225; -698.000; -628.000
347.442; -112.700; -883.000; -732.000
347.576;  138.100;  670.000;  668.000
347.709;   69.550; -123.000;  -52.000
347.843; -119.050; -933.000; -825.000
347.976;   35.150;  235.000;  294.000
348.110; -170.525;-1268.000;-1186.000
348.243;  -78.625; -679.000; -772.000
348.377;    6.450;  -26.000;   60.000
348.510;   43.075;  403.000;  540.000
348.644;  -55.750;  -37.000; -159.000
348.777;   -8.675;  180.000;  191.000
348.911;  -53.975; -142.000; -112.000
349.044;  101.325;  471.000;  448.000
349.178;   -8.625;-1069.000;-1006.000
349.311;  100.275;  141.000;  255.000
349.444;   21.850; -927.000; -813.000
349.578;  -16.200; -347.000; -200.000
349.711; -121.650; -959.000; -862.000
349.845;  -54.500; -661.000; -591.000
349.978; -156.975;-1224.000;-1137.000
350.111;  -77.500; -546.000; -612.000
350.244; -103.125; -596.000; -700.000
350.378;  -50.175; -392.000; -393.000
350.511;  -72.050; -393.000; -426.000
350.644;  -96.725; -808.000; -806.000
350.778;   13.550;  168.000;  104.000
350.911;  -16.050;  134.000;  140.000
351.044;  -88.775; -685.000; -615.000
351.177;  -32.575; -321.000; -281.000
351.310;  -21.800;    3.000; -131.000
351.444;  -90.050; -888.000; -788.000
351.577;   35.625;  140.000;   90.000
351.710;   78.925;  593.000;  417.000
351.843;  -38.300; -165.000;  -77.000
351.976;    5.025;  149.000;  -79.000
352.109;  -90.600; -621.000; -612.000
352.242;  -43.300; -464.000; -419.000
352.376;  -76.625; -580.000; -636.000
352.509;   16.225; -437.000; -356.000
352.642;  -85.125; -654.000; -604.000
352.775;    3.850; -141.000;  -98.000
352.908; -114.975; -933.000; -904.000
353.041;  -92.150; -814.000; -824.000
353.174;  -62.325; -551.000; -424.000
353.307;  -74.250; -753.000; -764.000
353.440;   60.800;  541.000;  453.000
353.573;  -80.850; -957.000;-1008.000
353.706;  -45.425; -384.000; -558.000
353.839;  -27.200; -264.000; -220.000
353.971;  -79.200; -657.000; -512.000
354.104;  -99.625; -896.000; -835.000
354.237;  -71.250; -627.000; -662.000
354.370; -100.075; -846.000; -879.000
354.503; -167.750;-1231.000;-1308.000
354.636;    5.325; -529.000; -348.000
354.769; -113.650; -937.000; -860.000
354.902;   -5.150; -230.000; -139.000
355.034;  -21.825; -164.000; -220.000
355.167;    4.350; -262.000; -162.000
355.300;  -58.000;-1061.000; -880.000
355.433; 1430.825;  -71.000;  -14.000
355.565; 2284.525; -402.000; -384.000
355.698;  567.625; -356.000; -296.000
355.831;    0.900; -882.000; -801.000
355.964;   41.525; -285.000; -170.000
356.096;  -60.325; -856.000; -843.000
356.229;   19.825; -523.000; -530.000
356.362;  502.550; -373.000; -266.000
356.494;  912.225; -229.000; -162.000
356.627;  349.425;  269.000;  377.000
356.760;  869.200;  120.000;   53.000
356.892; 1445.700; -286.000; -601.000
357.025;  388.900;  403.000;  389.000
357.157;  271.850; -167.000; -179.000
357.290; 1077.125; -856.000; -713.000
357.423;  352.425; -667.000; -556.000
357.555;  106.175; -217.000; -228.000
357.688;  155.375; -483.000; -364.000
357.820;  206.700; -870.000; -877.000
357.953; 1646.000; -563.000; -589.000
358.085;  284.900; -632.000; -612.000
358.218;  201.200;-1131.000; -932.000
358.350;   57.300;  -58.000;  312.000
358.483; -156.425;-1300.000;-1187.000
358.615; -114.625;-1182.000;-1078.000
358.747; -141.375;-1187.000;-1058.000
358.880;  -39.750; -810.000; -744.000
359.012;  -34.700; -376.000; -202.000
359.145;  -60.975; -480.000; -511.000
359.277;  -44.075; -962.000; -913.000
359.409; 1380.250;  536.000;  231.000
359.542;  306.300; -738.000; -688.000
359.674;   28.300;   46.000;   13.000
359.806;  -72.625; -565.000; -438.000
359.939;  -35.275; -617.000; -516.000
360.071;   35.250; -583.000; -579.000
360.203;  -18.425; -411.000; -364.000
360.335;   23.425;  164.000;  -16.000
360.468;  108.625; -249.000; -307.000
360.600; 1376.900; -547.000; -454.000
360.732; 3903.975; -546.000; -423.000
360.864;  590.475;-1216.000;-1044.000
360.996;  108.075; -516.000; -554.000
361.129;  -19.700; -389.000; -598.000
361.261;  -10.100;  110.000; -113.000
361.393;  -58.125; -252.000; -214.000
361.525;   -1.225;   94.000;  244.000
361.657; -108.225; -821.000; -703.000
361.789;  -23.725; -139.000; -155.000
361.921;  -23.175; -642.000; -593.000
362.053;  113.900;  524.000;  541.000
362.185;   -4.625;  288.000;   72.000
362.318;  -90.450; -709.000; -705.000
362.450;   43.125;  294.000;  444.000
362.582;  -59.875; -913.000; -870.000
362.714;  -54.725; -353.000; -332.000
362.846;  -91.475; -606.000; -490.000
362.978; -143.100; -941.000; -811.000
363.109;  -13.700; -161.000; -260.000
363.241;  186.450; -739.000; -749.000
363.373;  618.625; -649.000; -564.000
363.505;  982.725; -186.000;  -91.000
363.637;  236.600; -787.000; -601.000
363.769; -139.200;-1067.000;-1080.000
363.901;  -77.625; -596.000; -654.000
364.033; -142.975;-1103.000;-1062.000
364.165;  -29.275; -283.000; -283.000
364.296;   75.150; -316.000; -177.000
364.428;  194.625;-1344.000;-1220.000
364.560;  -58.975; -679.000; -661.000
364.692;  -80.150; -738.000; -835.000
364.824;   14.550; -588.000; -456.000
364.955;  458.875; -402.000; -564.000
365.087; 1506.500;-1097.000; -852.000
365.219;   83.825; -686.000; -816.000
365.351;  -61.975; -526.000; -572.000
365.482;   26.100;  300.000;  240.000
365.614;  -48.475; -402.000; -314.000
365.746; -111.600; -729.000; -752.000
365.877;  -96.475; -706.000; -672.000
366.009;  414.075;  -35.000;  -62.000
366.141;  -40.325;-1249.000;-1134.000
366.272;  -96.175; -803.000; -719.000
366.404; -117.825;-1005.000; -874.000
366.535;  -21.250; -139.000;  -12.000
366.667;  -99.975; -644.000; -649.000
366.799;   46.800;  353.000;  203.000
366.930; -123.825; -862.000; -996.000
367.062;  172.225; -639.000; -613.000
367.193;  331.775; -872.000; -842.000
367.325;  -31.600; -580.000; -684.000
367.456;    7.900; -246.000;   31.000
367.588;  257.100; -371.000; -318.000
367.719;   41.925;  -44.000;  -45.000
367.851;  -48.900; -222.000; -241.000
367.982; -108.050; -875.000; -732.000
368.113;   -6.825; -475.000; -358.000
368.245; -141.550; -960.000; -841.000
368.376;  -49.300; -254.000; -302.000
368.508;  -50.050; -188.000; -263.000
368.639; -151.625;-1166.000;-1034.000
368.770;  -79.175; -670.000; -589.000
368.902; -107.400; -836.000; -926.000
369.033; -133.925; -906.000; -855.000
369.164;  -29.800; -720.000; -653.000
369.296;  -92.150; -452.000; -601.000
369.427;  -26.375; -209.000; -144.000
369.558;  -86.650; -593.000; -377.000
369.689;  -76.325; -721.000; -569.000
369.821; -130.875; -951.000; -845.000
369.952;  -25.500;   42.000; -108.000
370.083;  -53.775; -229.000; -108.000
370.214;  -85.925; -735.000; -650.000
370.345;  -20.025;   65.000;   81.000
370.477; -108.225; -810.000; -790.000
370.608;   47.575; -328.000; -264.000
370.739; -119.650;-1233.000;-1292.000
370.870;  -97.300;-1102.000; -923.000
371.001;  -11.500; -378.000; -467.000
371.132;  -95.150; -754.000; -735.000
371.263;  -33.250;  -42.000; -148.000
371.394; -142.825; -841.000; -748.000
371.525;   14.225;  345.000;  225.000
371.657; -115.375; -808.000; -670.000
371.788;   34.450;  103.000;  199.000
371.919;   17.400; -384.000; -304.000
372.050; 1446.525;  -91.000; -156.000
372.181;  452.300; -188.000; -294.000
372.311;  137.200;   42.000; -127.000
372.442;  -43.650; -457.000; -451.000
372.573;  -44.475; -444.000; -340.000
372.704; -141.250;-1008.000; -980.000
372.835;   -8.550; -228.000; -289.000
372.966;  -83.700; -646.000; -554.000
373.097;  -79.250; -575.000; -711.000
373.228;  -82.675; -717.000; -542.000
373.359;  -19.500; -824.000; -536.000
373.490;  217.700; -881.000; -727.000
373.620;  328.025;-1001.000; -803.000
373.751;  645.575; -332.000; -396.000
373.882;  280.075; -663.000; -733.000
374.013;   -5.350; -449.000; -262.000
374.143;  -70.600; -581.000; -659.000
374.274; -116.775; -987.000; -908.000
374.405;   54.575; -388.000; -276.000
374.536;  140.175; -526.000; -387.000
374.666;  392.175; -759.000; -807.000
374.797;   13.875; -817.000; -868.000
374.928;  255.950; -710.000; -560.000
375.058;  263.450; -535.000; -500.000
375.189;   12.800;  -59.000;  -93.000
375.320; -127.075; -928.000;-1034.000
375.450;  -44.125; -625.000; -616.000
375.581;  -42.400; -526.000; -436.000
375.712;  -40.200; -574.000; -250.000
375.842;   25.225; -438.000; -415.000
375.973;    7.700; -554.000; -513.000
376.103;  -95.875; -665.000; -648.000
376.234;  -89.300; -531.000; -552.000
376.364; -115.250; -944.000; -867.000
376.495;  149.700;  925.000;  529.000
376.625;  -61.225; -472.000; -485.000
376.756;  -36.975; -709.000; -678.000
376.886; -124.025;-1178.000;-1026.000
377.017;  146.175;-1048.000;-1061.000
377.147;  649.800; -786.000; -782.000
377.278;   71.325;  174.000;  228.000
377.408; -111.025; -801.000; -815.000
377.538; -103.300; -707.000; -693.000
377.669;  -70.400; -537.000; -613.000
377.799;  -93.425; -645.000; -635.000
377.929;  -85.525; -610.000; -428.000
378.060; -124.225; -781.000; -847.000
378.190;  -47.375; -726.000; -531.000
378.320;  -39.075; -401.000; -406.000
378.451;  -13.950; -131.000;  -22.000
378.581;  -20.325;  -67.000; -110.000
378.711;   97.000; 1035.000;  866.000
378.841;  -61.000; -533.000; -675.000
378.972; -111.975; -871.000; -751.000
379.102;  -48.875; -652.000; -579.000
379.232;  -36.050; -126.000;  -73.000
379.362; -112.025;-1001.000; -885.000
379.492;  -56.375; -373.000; -424.000
379.623;   49.625;    0.000;  111.000
379.753; -106.825;-1107.000; -974.000
379.883;   99.850;   59.000;  156.000
380.013;  -85.025;-1081.000;-1017.000
380.143; -113.350;-1097.000;-1056.000
380.273; -103.350; -985.000; -861.000
380.403;   23.150; -344.000; -257.000
380.533;  -30.825; -651.000; -664.000
380.663;   32.950;  173.000;  128.000
380.793; -143.075;-1027.000;-1074.000
380.923;  -45.875; -103.000;  -34.000
381.053;  -91.850; -613.000; -623.000
381.183;  -46.150; -106.000; -248.000
381.313;  -62.075; -656.000; -470.000
381.443;  -32.050; -692.000; -473.000
381.573;   -7.725; -402.000; -409.000
381.703;  -50.250;-1249.000;-1095.000
381.833; -183.500;-1454.000;-1336.000
381.963;   23.625; -134.000;  -87.000
382.093;  428.500; -925.000; -909.000
382.223;  115.050; -713.000; -602.000
382.353;  -95.400; -801.000; -608.000
382.482;   36.375;-1091.000; -964.000
382.612;  222.700; -872.000; -644.000
382.742;  108.175; -695.000; -622.000
382.872;    2.550; -565.000; -551.000
383.002;   39.225;  347.000; -132.000
383.131;  -40.450; -226.000; -160.000
383.261;  -38.125; -706.000; -768.000
383.391;  300.425; -552.000; -377.000
383.521; 4596.400;  451.000;  263.000
383.650; 1416.525; -947.000; -904.000
383.780;   55.700; -783.000; -656.000
383.910;   88.700;  880.000;  802.000
384.039;  -68.675; -794.000; -656.000
384.169;  -65.800;-1205.000;-1017.000
384.299;  -72.450; -650.000; -662.000
384.428; -111.125; -764.000; -680.000
384.558;  -53.125; -308.000; -275.000
384.687;  -71.800; -414.000; -334.000
384.817;   -6.300;   75.000;   -2.000
384.947;  -37.900; -234.000; -141.000
385.076;  179.550;  982.000;  912.000
385.206;   66.425;  369.000;  480.000
385.335;  -66.375; -549.000; -417.000
385.465; -108.700; -655.000; -663.000
385.594;   34.225;  -53.000;  -44.000
385.724;   76.325; -868.000; -838.000
385.853;    9.975; -296.000; -270.000
385.982;  411.125; -743.000; -787.000
386.112;  789.325;-1052.000; -871.000
386.241;   30.350; -307.000; -312.000
386.371;  -22.200; -174.000;  -87.000
386.500;  -50.450; -825.000; -789.000
386.629;  -22.775; -874.000; -817.000
386.759;   72.000;  -43.000;   68.000
386.888;   -0.800; -170.000; -250.000
387.017;  -96.750; -648.000; -620.000
387.147;  -90.800; -771.000; -798.000
387.276;  -63.300; -410.000; -397.000
387.405;  -38.275; -398.000; -342.000
387.535;  -78.650; -452.000; -361.000
387.664;  -56.025; -692.000; -620.000
387.793;   17.025; -198.000; -113.000
387.922;  187.000;  255.000;  200.000
388.052;  -49.075; -576.000; -423.000
388.181;  -35.475; -342.000; -472.000
388.310;  -73.600; -889.000; -710.000
388.439;  -89.300; -749.000; -742.000
388.568;   68.800;  365.000;  244.000
388.697;  319.525; -756.000; -653.000
388.826;   22.150; -768.000; -666.000
388.956;  -22.200; -285.000; -307.000
389.085;  -56.675; -347.000; -287.000
389.214; -102.525; -842.000; -872.000
389.343;  -65.225; -645.000; -413.000
389.472;  540.775;  126.000;  149.000
389.601;  622.400;   91.000;    0.000
389.730;   -9.650; -568.000; -687.000
389.859;   34.475;  226.000;   46.000
389.988;   44.750; -423.000; -408.000
390.117;   51.450; -168.000; -146.000
390.246;  -54.025; -331.000; -320.000
390.375;  -51.500; -673.000; -626.000
390.504;  -79.775; -703.000; -621.000
390.633; -114.100; -672.000; -726.000
390.761;  -96.400; -732.000; -645.000
390.890;  -31.850;   -4.000; -130.000
391.019;  -72.750; -421.000; -441.000
391.148; -129.250; -826.000; -855.000
391.277;  -77.825; -576.000; -493.000
391.406; -109.025; -821.000; -805.000
391.534;    8.525;  574.000; -301.000
391.663;  -90.750; -583.000; -645.000
391.792;  -99.100; -673.000; -701.000
391.921;   10.800;   -3.000;   15.000
392.050;   23.025; -287.000; -228.000
392.178; -120.675;-1206.000;-1061.000
392.307;  -29.400; -758.000; -712.000
392.436;  -30.525; -427.000; -641.000
392.564;    1.675;  166.000;   -6.000
392.693; -117.850; -860.000; -682.000
392.822;   19.750; -529.000; -534.000
392.950;  -24.700; -880.000; -714.000
393.079;   89.400; -188.000; -328.000
393.208;  -36.200; -488.000; -511.000
393.336;   -8.775; -170.000; -145.000
393.465;  -48.775; -317.000; -199.000
393.593;    0.950;   62.000;   79.000
393.722; -139.325;-1121.000; -916.000
393.850;  -36.250; -188.000;  -61.000
393.979; -141.950; -926.000; -805.000
394.107;  -47.125; -517.000; -537.000
394.236;  -36.175; -570.000; -507.000
394.364;  116.025;  383.000;  206.000
394.493;   90.025; -911.000; -767.000
394.621;   -5.375; -955.000; -916.000
394.750; 1122.275; -873.000; -923.000
394.878; 4402.925; -247.000; -149.000
395.007; 6498.775; -721.000; -807.000
395.135;  618.800; -790.000; -721.000
395.263;  -53.850;-1038.000;-1040.000
395.392;   13.600;  -25.000; -107.000
395.520; -129.100; -818.000; -679.000
395.648; -122.525; -865.000; -915.000
395.777;  -68.825; -366.000; -405.000
395.905;  -67.100; -449.000; -564.000
396.033;  -14.450;  217.000;  172.000
396.162;  136.675; -399.000; -453.000
396.290;  144.325;  -17.000;   -2.000
396.418;  -43.650; -555.000; -514.000
396.546;  -91.900; -571.000; -466.000
396.674; -124.925; -850.000; -878.000
396.803;  -30.500;  -72.000;  -23.000
396.931;  -11.200; -179.000; -199.000
397.059; -122.125;-1026.000; -989.000
397.187; -134.425;-1026.000; -975.000
397.315; -137.100; -884.000; -649.000
397.443;  -96.250; -592.000; -443.000
397.572; -100.750; -578.000; -424.000
397.700;  -79.300; -607.000; -614.000
397.828;  -29.900;  120.000;  -90.000
397.956;  -24.725; -508.000; -478.000
398.084;  -25.825; -767.000; -626.000
398.212;   14.825;  137.000;  124.000
398.340;  -19.800;  -56.000;  159.000
398.468;  -40.575; -390.000; -169.000
398.596; -134.525; -993.000; -953.000
398.724; -109.350; -762.000; -767.000
398.852; -154.675;-1024.000; -976.000
398.980;  -90.100; -560.000; -560.000
399.108;  -97.475; -982.000; -735.000
399.236;    1.550;   13.000;    8.000
399.363;   -0.375;  222.000;  196.000
399.491;  -60.100; -404.000; -398.000
399.619; -118.900; -829.000; -800.000
399.747; -111.250; -859.000; -771.000
399.875;   23.900;  220.000;  234.000
400.003;  -57.075; -359.000; -284.000
400.130;  -98.100; -421.000; -341.000
400.258;  -40.875;  -83.000;   38.000
400.386;  -74.475; -352.000; -168.000
400.514;  -77.950; -526.000; -587.000
400.641; -145.700; -928.000; -802.000
400.769; -141.225; -979.000; -888.000
400.897; -121.575; -838.000; -793.000
401.025;  -44.225; -166.000; -152.000
401.152;  -15.075;  220.000;   38.000
401.280;  -87.500; -430.000; -429.000
401.408; -117.600; -712.000; -576.000
401.535; -107.600; -735.000; -758.000
401.663; -178.500;-1134.000;-1054.000
401.790;  -87.925; -514.000; -525.000
401.918;   38.975;  436.000;  405.000
402.046;  -29.025;  134.000;  122.000
402.173;  -31.925;  -18.000;    7.000
402.301;  -60.325; -519.000; -397.000
402.428;   25.200;  528.000;  383.000
402.556; -139.775;-1188.000; -913.000
402.683;  -29.250;  -20.000;   -1.000
402.811;  -26.025;  -37.000; -206.000
402.938;  -23.300;   20.000;   27.000
403.066;    2.025; -574.000; -558.000
403.193;  121.600;  299.000;  239.000
403.321;   77.600; -396.000; -574.000
403.448;  153.325;   83.000;   27.000
403.575;   59.250;  -90.000;  -46.000
403.703;  -92.975; -732.000; -557.000
403.830;  -53.825; -531.000; -496.000
403.957; -114.150;-1117.000;-1023.000
404.085;   35.075;  -61.000; -172.000
404.212;  112.225;  -50.000;   63.000
404.339;  437.425; -566.000; -306.000
404.467; 8782.150; -612.000; -524.000
404.594; 5489.075; -287.000; -227.000
404.721;  992.075; -869.000; -764.000
404.848;  116.125; -113.000; -202.000
404.976;  -99.750; -856.000; -783.000
405.103;    6.700;  -14.000;  -82.000
405.230;    9.675;  190.000;  226.000
405.357;   57.150;  117.000;   44.000
405.484;  413.925;  -49.000;    5.000
405.612;  104.875; -548.000; -563.000
405.739;  -52.075; -488.000; -243.000
405.866;   68.825;  669.000;  385.000
405.993;  -54.875; -398.000; -102.000
406.120; -128.400; -801.000; -887.000
406.247;  -81.200; -323.000; -342.000
406.374;  135.700;  540.000;  629.000
406.501;  -65.325; -632.000; -702.000
406.628;  -91.050; -621.000; -589.000
406.755; -114.350; -803.000; -620.000
406.882;  -51.450; -228.000; -277.000
407.009; -110.100; -719.000; -628.000
407.136;  -38.275; -480.000; -401.000
407.263;  -17.025; -939.000; -829.000
407.390;  -92.200; -692.000; -614.000
407.517; -182.400;-1139.000;-1187.000
407.644;  -60.425; -332.000; -256.000
407.771; -141.325; -249.000; -287.000
407.898;    4.625;  168.000;  328.000
408.025;  -84.900; -421.000; -313.000
408.151;   -3.450;   82.000;  153.000
408.278;  -64.425; -267.000; -216.000
408.405; -132.700; -931.000; -899.000
408.532;  -97.125; -549.000; -542.000
408.659; -106.150; -677.000; -648.000
408.785; -191.850;-1298.000;-1170.000
408.912;  -63.525; -412.000; -296.000
409.039; -113.475; -610.000; -686.000
409.166;  -91.675; -591.000; -555.000
409.292; -117.875; -571.000; -534.000
409.419; -114.550; -665.000; -649.000
409.546;  -88.200; -431.000; -192.000
409.672; -109.775; -713.000; -545.000
409.799;  -37.750;  -36.000;   34.000
409.926;  -58.575; -180.000; -179.000
410.052; -173.225;-1127.000;-1091.000
410.179;  -76.600; -368.000; -392.000
410.305;  -84.075; -375.000; -493.000
410.432;  -32.100; -220.000; -333.000
410.558;  -96.625; -305.000; -380.000
410.685; -102.925; -688.000; -431.000
410.812; -110.175; -409.000; -588.000
410.938; -145.775; -964.000; -808.000
411.065;  -98.850; -671.000; -645.000
411.191;  -29.600; -189.000; -174.000
411.317; -137.475; -823.000; -742.000
411.444;  -64.475; -317.000; -246.000
411.570;  -60.400; -339.000; -294.000
411.697; -113.500; -758.000; -752.000
411.823; -182.875; -989.000; -999.000
411.949;  -45.775;  -56.000;   17.000
412.076; -123.000; -539.000; -519.000
412.202; -119.325; -758.000; -757.000
412.329; -140.975; -798.000; -752.000
412.455; -115.600; -821.000; -657.000
412.581;  -42.550;  -15.000;  172.000
412.707;  -80.025; -540.000; -457.000
412.834;   -3.950;  156.000;  219.000
412.960; -106.350; -785.000; -784.000
413.086; -115.200; -743.000; -701.000
413.212;  104.975;  604.000;  578.000
413.339; -102.975; -685.000; -701.000
413.465;  -55.650; -364.000; -310.000
413.591;  -96.725; -757.000; -474.000
413.717;  -50.650; -358.000; -366.000
413.843; -130.125; -839.000; -861.000
413.969;  -51.975;  -47.000; -292.000
414.096;  -96.700; -679.000; -679.000
414.222;   -9.325;  -33.000;   85.000
414.348;  -72.250; -652.000; -385.000
414.474;   16.675;   38.000;  -52.000
414.600;   -9.100; -126.000; -144.000
414.726;   -0.975;  -96.000;  -55.000
414.852;  -41.200; -365.000; -342.000
414.978;   40.750;  104.000;  -18.000
415.104;   58.750;   38.000;   80.000
415.230;   50.250; -329.000; -330.000
415.356;   65.975; -409.000; -514.000
415.482;  245.800;   13.000;  -35.000
415.608;  410.650; -247.000; -323.000
415.734; 1372.150;   67.000;   38.000
415.860;28002.575; -875.000; -767.000
415.986;23525.725; -685.000; -607.000
416.111; 2191.175; -798.000; -652.000
416.237;  470.500; -424.000; -571.000
416.363; 1642.150; -765.000; -733.000
416.489; 6634.225; -324.000; -251.000
416.615;  947.425; -707.000; -742.000
416.741;   51.950; -677.000; -784.000
416.866;  -58.050; -673.000; -736.000
416.992; -101.350; -801.000; -818.000
417.118;  -26.075;  -41.000;  -80.000
417.244;  -67.875; -798.000; -531.000
417.369;  -78.175; -801.000; -612.000
417.495;    0.675; -325.000; -254.000
417.621;  -59.975;-1015.000; -803.000
417.746;   15.100; -579.000; -572.000
417.872;   70.425; -254.000; -144.000
417.998;  120.550; -515.000; -530.000
418.123; 1513.975;-1073.000; -845.000
418.249; 8574.500; -512.000; -601.000
418.374; 1474.300; -916.000; -824.000
418.500;  234.475; -383.000; -482.000
418.626;  172.375;   70.000;  -59.000
418.751;  158.575; -549.000; -448.000
418.877;  306.075; -637.000; -643.000
419.002; 2530.975; -688.000; -560.000
419.128;19217.125; -930.000; -721.000
419.253; 5579.100; -967.000; -837.000
419.379;  759.575; -391.000; -338.000
419.504;  598.950;  325.000;  415.000
419.629;  817.675; -393.000; -212.000
419.755; 5115.675; -317.000; -254.000
419.880;33612.225;  -98.000;   67.000
420.006;17147.475; -280.000; -221.000
420.131;43414.925; -662.000; -775.000
420.256; 7114.250; -315.000; -316.000
420.382;  977.700; -665.000; -687.000
420.507;  184.025; -649.000; -778.000
420.632;   59.050; -337.000; -339.000
420.758;   89.625; -251.000; -425.000
420.883; -102.625; -876.000; -672.000
421.008; -104.925; -775.000; -619.000
421.133;  -85.750; -509.000; -467.000
421.259;  -58.900; -325.000; -259.000
421.384; -122.025; -834.000; -693.000
421.509; -109.025;-1052.000; -862.000
421.634;  291.250; -936.000; -820.000
421.759;  152.400; -359.000; -327.000
421.885;  -90.800; -717.000; -656.000
422.010;  -81.675; -673.000; -542.000
422.135; -154.300; -695.000; -727.000
422.260;   13.375;  340.000;  280.000
422.385;  -40.375;   12.000;  -98.000
422.510;   -6.950;  151.000;  -26.000
422.635;  -18.225;  -87.000;  -43.000
422.760;  -13.600; -766.000; -791.000
422.885;   32.650;  -57.000;  -80.000
423.010;  -21.875; -112.000; -169.000
423.135;  -95.525; -481.000; -561.000
423.260;  -36.250; -150.000; -245.000
423.385;   23.500;  476.000;  222.000
423.510;    9.275;   71.000;  -22.000
423.635;   -3.850;  133.000;   45.000
423.760;   41.675;  383.000;  328.000
423.885;   35.775;  336.000;  391.000
424.010;  -20.375;  -68.000;  -13.000
424.135;  -30.350;    5.000;  -33.000
424.259;  -64.175; -654.000; -457.000
424.384;  -57.700; -279.000; -272.000
424.509;  -16.625; -260.000; -186.000
424.634;  -79.925; -761.000; -623.000
424.759;  -30.375; -688.000; -544.000
424.883;    1.000; -506.000; -527.000
425.008;  209.975; -502.000; -410.000
425.133; 2849.650; -679.000; -653.000
425.258; 1582.400; -517.000; -381.000
425.382;  538.750; -867.000; -774.000
425.507; 1267.525; -487.000; -543.000
425.632;  385.850; -802.000; -663.000
425.756;  651.500; -256.000; -146.000
425.881; 9335.275; -831.000; -857.000
426.006;29192.800; -604.000; -355.000
426.130; 4933.675; -696.000; -508.000
426.255;  668.600; -611.000; -491.000
426.379;  277.650; -189.000; -577.000
426.504;  523.225;  660.000;  544.000
426.629; 5858.000; -519.000; -466.000
426.753; 4633.175;   64.000;  -46.000
426.878;  570.125; -252.000; -288.000
427.002;  298.700; -651.000; -668.000
427.127; 2001.575;  -35.000; -158.000
427.251;16960.525;  372.000;  401.000
427.375; 5627.000; -191.000; -173.000
427.500; 1403.825; -616.000; -610.000
427.624;  455.325; -234.000; -400.000
427.749;  117.400; -216.000; -225.000
427.873;    6.225; -499.000; -412.000
427.997;  -33.950; -222.000; -230.000
428.122;   55.225;  795.000;  703.000
428.246;   33.375;  433.000;  434.000
428.371; -130.500; -869.000; -773.000
428.495; -103.200; -624.000; -646.000
428.619;  -37.450; -186.000; -117.000
428.743;   -0.800;   65.000;  132.000
428.868;  -65.225; -732.000; -643.000
428.992;  531.275; -219.000; -326.000
429.116;  226.950; -329.000; -357.000
429.240;  139.950;  419.000;  426.000
429.365;  -34.900; -454.000; -574.000
429.489;  -56.375; -638.000; -647.000
429.613;   30.200; -236.000; -177.000
429.737;   99.350; -563.000; -432.000
429.861;  391.650; -247.000; -133.000
429.985; 7879.600; -425.000; -305.000
430.109;10147.750; -770.000; -908.000
430.234; 1283.700;   76.000;  -50.000
430.358;  167.800; -250.000; -160.000
430.482;  -38.600; -672.000; -564.000
430.606;  -62.600; -655.000; -375.000
430.730;  -40.075; -437.000; -388.000
430.854;  -55.325; -909.000; -835.000
430.978;  -75.800; -795.000; -764.000
431.102;  -81.050; -499.000; -422.000
431.226;  -87.875; -874.000; -815.000
431.350;   28.125;  345.000;  422.000
431.474;  -74.600; -661.000; -373.000
431.597; -147.425;-1060.000; -848.000
431.721;  -72.725; -276.000; -267.000
431.845; -126.000; -704.000; -472.000
431.969;  -80.875; -304.000; -349.000
432.093;  -78.625; -395.000; -317.000
432.217;  -12.275;   32.000;   82.000
432.341;  -89.350; -523.000; -518.000
432.464;    2.900;   96.000;   40.000
432.588;   -0.125; -401.000; -329.000
432.712;   20.750;  -52.000;  -52.000
432.836;   50.200;  213.000;  263.000
432.959;   11.300; -372.000; -311.000
433.083;  152.400;   11.000;    2.000
433.207;  562.650;  285.000;  930.000
433.330; 7456.700; -391.000; -200.000
433.454;10587.575; -654.000; -638.000
433.578; 5842.275;  583.000;  278.000
433.701; 1271.550; -623.000; -675.000
433.825;  158.775; -292.000; -299.000
433.949;   73.350;   28.000;  -72.000
434.072;    7.325; -410.000; -323.000
434.196;   -0.400; -309.000; -117.000
434.319; 3447.100;25482.000;25124.000
434.443;  861.250; -656.000; -603.000
434.566; 4060.900;  281.000;   62.000
434.690;  918.950; -637.000; -383.000
434.813;  140.750; -251.000; -173.000
434.937;  -26.325; -569.000; -696.000
435.060;  -62.825; -423.000; -332.000
435.184;   23.925; -492.000; -217.000
435.307;   24.800;  159.000;  102.000
435.431;  -30.700;  -40.000;   24.000
435.554;  -74.600; -399.000; -240.000
435.677;  -78.875; -350.000; -258.000
435.801;  -49.300;  -25.000;   49.000
435.924;  -37.200;    1.000;  -67.000
436.048; -155.500;-1019.000; -732.000
436.171;  -65.025; -240.000;  -66.000
436.294;  -12.525; -248.000; -229.000
436.417;  222.700; -963.000; -849.000
436.541;  -28.900; -814.000; -840.000
436.664;  -40.925; -242.000; -316.000
436.787;  -33.075;   13.000;  113.000
436.910; -107.025; -792.000; -422.000
437.034;   -4.350;  142.000;  143.000
437.157;   28.875;  -11.000;    0.000
437.280;  -65.800; -392.000; -292.000
437.403; -131.800; -982.000; -869.000
437.526;   94.650; -903.000; -865.000
437.649;  751.075; -505.000; -332.000
437.772;   73.225; -692.000; -540.000
437.896;   77.125;  700.000;  544.000
438.019; -100.975; -758.000; -503.000
438.142;  -90.125; -596.000; -506.000
438.265;  -98.425; -639.000; -670.000
438.388;   70.625; -520.000; -410.000
438.511;  -67.550; -597.000; -394.000
438.634;  -64.450; -247.000; -125.000
438.757; -146.025; -693.000; -619.000
438.880;  -49.675;  -34.000;  -57.000
439.003;  -82.325; -417.000; -437.000
439.126;  -69.550; -287.000; -167.000
439.248;  -55.025;  -98.000; -139.000
439.371;  -37.450;    9.000;  -53.000
439.494;    7.125;  510.000;  439.000
439.617;  -60.025;   65.000;  -88.000
439.740; -165.575; -968.000; -816.000
439.863; -137.250; -755.000; -595.000
439.986; -110.675; -476.000; -431.000
440.108;  -51.950; -161.000; -112.000
440.231; -163.925; -950.000; -836.000
440.354;  -53.175;  -64.000; -150.000
440.477;  -96.925; -566.000; -542.000
440.599;  -72.725; -200.000; -225.000
440.722; -140.450; -709.000; -586.000
440.845;   54.700;  751.000;  928.000
440.968; -112.900; -415.000; -311.000
441.090;  -70.950; -199.000;  -33.000
441.213; -163.075;-1021.000; -825.000
441.336;  -55.225; -159.000;   -5.000
441.458;  -94.900; -549.000; -396.000
441.581; -110.825; -628.000; -629.000
441.703;  -74.425; -152.000;   13.000
441.826; -118.875; -557.000; -400.000
441.948;  -61.950;   56.000;   51.000
442.071;    9.175;  555.000;  424.000
442.193; -120.375; -531.000; -485.000
442.316;  -16.050;  152.000;   97.000
442.438;   56.775; -233.000;  -10.000
442.561;   78.575;  272.000;  262.000
442.683;  116.600; -809.000; -522.000
442.806;  374.575;   -8.000;   74.000
442.928;  -78.575; -859.000; -604.000
443.051;  -78.350; -577.000; -373.000
443.173;  -99.575; -341.000; -339.000
443.295;  -85.400; -263.000; -371.000
443.418;  -85.525; -321.000;  -29.000
443.540;  -38.175; -106.000;   -4.000
443.662; -136.225; -563.000; -465.000
443.785;  -17.450;  335.000;  199.000
443.907; -109.925; -362.000; -208.000
444.029; -124.275; -767.000; -494.000
444.152; -144.550; -644.000; -554.000
444.274;  -52.700;  -18.000;  -24.000
444.396; -114.550; -461.000; -221.000
444.518; -129.875; -691.000; -454.000
444.640; -100.425; -268.000; -111.000
444.763;  -31.200;  388.000;  249.000
444.885; -114.200; -432.000; -392.000
445.007;  -41.600;   35.000;   86.000
445.129; -127.850; -610.000; -515.000
445.251; -111.850; -372.000; -439.000
445.373; -150.350; -537.000; -386.000
445.495;  -11.650;  242.000;  350.000
445.617;   27.350;  853.000;  753.000
445.739;  -78.950; -215.000;  -97.000
445.861;  -64.550; -245.000; -112.000
445.984;  -70.425; -267.000; -101.000
446.105;  -12.025; -418.000; -251.000
446.227;  161.000; -176.000;  -19.000
446.349;  -73.825; -358.000; -249.000
446.471; -132.675; -615.000; -448.000
446.593;  -98.800; -316.000;   19.000
446.715;  -47.450;  -67.000;   41.000
446.837;   36.250;  697.000;  832.000
446.959;  -95.425; -457.000; -478.000
447.081; -150.425; -628.000; -518.000
447.203;   36.225;  862.000;  834.000
447.325;  -82.875; -270.000;   42.000
447.446;    6.200;  286.000;  530.000
447.568; -158.225; -921.000; -803.000
447.690;  -75.525; -236.000; -245.000
447.812; -158.350; -798.000; -519.000
447.933;  -37.100;  155.000;  127.000
448.055;  -81.450; -306.000; -261.000
448.177;   28.650;   31.000;   79.000
448.299;  -75.800; -935.000; -727.000
448.420;    6.250;  -25.000;  159.000
448.542;  -56.300;   -3.000;   33.000
448.664;  -32.575;  109.000;  322.000
448.785;  -51.275;  265.000;   83.000
448.907; -106.400; -614.000; -353.000
449.028; -108.700; -771.000; -471.000
449.150;   52.650;  492.000;  589.000
449.272; -170.750;-1044.000; -913.000
449.393;   21.525;  612.000;  694.000
449.515; -135.125; -634.000; -581.000
449.636;  -73.175; -264.000; -155.000
449.758;   40.625;  763.000;  622.000
449.879;  -94.275; -498.000; -396.000
450.001;  -79.050; -149.000;  -49.000
450.122;  -36.925;  -95.000;  162.000
450.244;  -33.900;   37.000;  364.000
450.365;  -82.000; -495.000; -301.000
450.486;  -23.500;   80.000;  268.000
450.608;   54.175;  393.000;  326.000
450.729;  112.275;  578.000;  645.000
450.850;   94.550; -574.000; -466.000
450.972; 1137.050; -552.000; -389.000
451.093; 7648.400;  190.000;  588.000
451.214; 4031.500; -516.000; -337.000
451.336;  692.125;  773.000;  579.000
451.457;   95.425;  264.000;  393.000
451.578;  -25.750; -118.000;  -74.000
451.699; -115.925; -546.000; -540.000
451.821;  -58.675; -284.000;  -50.000
451.942;   -5.100;  278.000;  285.000
452.063;   50.875;  228.000;  419.000
452.184;  792.425;  -54.000;  -49.000
452.305; 1731.325;  103.000;  170.000
452.427;  339.050; -549.000; -301.000
452.548;    2.950;   23.000;   79.000
452.669;  -69.875; -257.000;  -89.000
452.790;  -40.700;    3.000;  -18.000
452.911;  -13.925;  195.000;  259.000
453.032;  -79.500; -289.000;  -60.000
453.153;  -52.575;  -29.000;   81.000
453.274;   39.475;  737.000;  868.000
453.395;  -64.875;  -51.000;  175.000
453.516;   -6.300; 1317.000; 1388.000
453.637;  -92.675; -205.000; -150.000
453.758;  -51.425;   15.000;   69.000
453.879; -135.800; -462.000; -250.000
454.000;   67.025; 1086.000;  948.000
454.121; -124.025; -554.000; -326.000
454.242; -113.650; -599.000; -383.000
454.362;  -57.900;  -99.000;  114.000
454.483;   -8.500; -309.000; -229.000
454.604;   69.400;  512.000;  580.000
454.725; -122.750; -627.000; -555.000
454.846; -134.450; -474.000; -406.000
454.967;  -25.975;  230.000;  539.000
455.087;  -40.525;  179.000;  153.000
455.208;    8.575;  554.000;  856.000
455.329;  -56.250;  -22.000;   82.000
455.450;   46.300;  473.000;  633.000
455.570;  -47.375; -234.000; -211.000
455.691;  -32.875;  201.000;  407.000
455.812; -104.875; -270.000;  -92.000
455.932;  -52.250;  107.000;  -97.000
456.053;  -78.075;   36.000;   24.000
456.173; -110.475; -433.000; -355.000
456.294; -122.650; -476.000; -303.000
456.415;  -65.350;  -73.000;   70.000
456.535;  -36.400;  297.000;  273.000
456.656;  -35.350;  132.000;  240.000
456.776;  -64.900;    3.000;  298.000
456.897;  -19.750;  308.000;  513.000
457.017;  -75.175; -153.000;   -3.000
457.138; -113.675; -402.000; -249.000
457.258;  -40.450;  263.000;  224.000
457.379;  -12.500;  509.000;  521.000
457.499;  -37.800;  443.000;  432.000
457.620; -109.325; -407.000; -231.000
457.740; -100.675; -132.000;  -11.000
457.860;  -42.625;   87.000;   44.000
457.981;  -40.975;  132.000;  124.000
458.101;  -75.725;  -89.000;   40.000
458.221;  -32.350;  336.000;  402.000
458.342;  -49.425;   -4.000;  -37.000
458.462;   28.025;  617.000;  352.000
458.582;    2.825; -302.000; -294.000
458.703;   36.300;  303.000;  154.000
458.823;   -4.700;   22.000;  163.000
458.943;   59.150;  341.000;  467.000
459.063;   14.725; 1124.000;  192.000
459.183;  -16.425;  328.000;  313.000
459.304;   12.700;  315.000;  517.000
459.424;  -48.450; -246.000;  -89.000
459.544;  459.150;  388.000;  764.000
459.664; 1277.325;  499.000;  506.000
459.784;  512.825; 1004.000; 1175.000
459.904;   71.000;  867.000;  744.000
460.024;   69.725;  867.000;  684.000
460.144;   -9.125;  449.000;  554.000
460.264;    7.325;  515.000;  327.000
460.385;  -76.725; -145.000; -119.000
460.505;   26.875;  905.000;  858.000
460.625;  -96.300;  -17.000;  -68.000
460.745;  -16.750;  396.000;  541.000
460.864;  -33.825;  153.000;  469.000
460.984;   42.500;  499.000;  573.000
461.104;  150.850; 1656.000; 1775.000
461.224;   16.625;  657.000;  650.000
461.344;  -47.125;  431.000;  360.000
461.464;  -41.125;  258.000;  513.000
461.584;  -27.375;  283.000;  466.000
461.704;  -56.625;   58.000;  108.000
461.824;  -74.675;  238.000;  259.000
461.943;  -38.500;  191.000;  130.000
462.063;  -62.375;    2.000;  324.000
462.183;   28.175;  639.000;  717.000
462.303;   73.875; 1678.000; 1230.000
462.422;   28.825;  781.000;  840.000
462.542;  -36.900;  271.000;  391.000
462.662;   36.150;  353.000;  380.000
462.782;  327.600;  833.000;  572.000
462.901;  747.675;  545.000;  717.000
463.021;  389.100; 1702.000; 1638.000
463.141;   20.850;  337.000;  770.000
463.260;  -22.475;  614.000;  474.000
463.380;    8.475;  902.000;  884.000
463.499;  -41.150;  342.000;  332.000
463.619;  -23.850;  581.000;  559.000
463.738;  111.150; 1644.000;  903.000
463.858;    4.950;  657.000;  811.000
463.978;  -36.725;  542.000;  396.000
464.097;   52.925;  921.000; 1114.000
464.217;  131.750; 1196.000; 1143.000
464.336;  140.400; 1068.000; 1130.000
464.455;  -17.350;  328.000;  659.000
464.575;   13.425;  597.000;  602.000
464.694;  114.200; 1204.000; 1179.000
464.814;  144.150; 1190.000; 1138.000
464.933;   70.825; 1095.000; 1027.000
465.052;   86.700; 1412.000; 1054.000
465.172;   53.525;  922.000;  799.000
465.291;  124.675; 1376.000; 1320.000
465.410;   14.225;  462.000;  735.000
465.530;   66.275; 1355.000; 1310.000
465.649;   53.200; 1209.000; 1273.000
465.768;  148.900; 1673.000; 1508.000
465.888;   58.600;  941.000; 1174.000
466.007;  102.075; 1335.000; 1440.000
466.126;   -5.000;  721.000;  641.000
466.245;   43.625; 1176.000; 1187.000
466.364;   19.025;  950.000; 1060.000
466.484;   37.550; 1024.000; 1213.000
466.603;   35.625; 1101.000; 1222.000
466.722;  117.325; 1490.000; 1769.000
466.841;   46.250; 1151.000; 1401.000
466.960;   31.475; 1069.000;  972.000
467.079;  120.425; 1971.000; 1786.000
467.198;   56.175; 1238.000; 1181.000
467.317;   81.000; 1768.000; 1162.000
467.436;   67.450; 1709.000; 1261.000
467.555;  117.550; 1796.000; 1746.000
467.674;   71.800; 1227.000; 1329.000
467.793;   38.525; 1376.000; 1374.000
467.912;   82.600; 1658.000; 1539.000
468.031;  117.375; 2038.000; 1930.000
468.150;  124.550; 1842.000; 1837.000
468.269;  176.725; 2313.000; 2090.000
468.388;  198.975; 2168.000; 2339.000
468.507;  242.275; 2884.000; 2903.000
468.626;  234.225; 2555.000; 2541.000
468.744;  150.950; 2018.000; 2174.000
468.863;  197.875; 2312.000; 2523.000
468.982;   95.750; 1503.000; 1555.000
469.101;  233.150; 2788.000; 2692.000
469.220;  149.850; 2333.000; 2176.000
469.338;  256.700; 2935.000; 3051.000
469.457;  194.300; 2719.000; 2545.000
469.576;  347.850; 3953.000; 3784.000
469.695;  246.050; 2877.000; 3066.000
469.813;  434.175; 4148.000; 4192.000
469.932;  397.875; 4255.000; 4485.000
470.051;  446.475; 4075.000; 4161.000
470.169; 1024.775; 4470.000; 4338.000
470.288; 2002.900; 4700.000; 4809.000
470.406; 1150.225; 5059.000; 5194.000
470.525;  681.500; 6101.000; 5787.000
470.644;  661.925; 6847.000; 6794.000
470.762;  816.425; 8397.000; 7873.000
470.881;  917.225; 8651.000; 8464.000
470.999; 1044.250; 9685.000; 9151.000
471.118; 1130.325;11174.000;10711.000

