
Integration time [ms]: 100.000
Averaging Nr. [scans]: 40
Smoothing Nr. [pixels]: 0
Data measured with spectrometer [name]: 2101012U2
Wave   ;Sample   ;Dark     ;Reference
[nm]   ;[counts] ;[counts] ;[counts] 

197.733;   63.975;  516.000;  404.000
197.879;  -72.900; -610.000; -634.000
198.025;  -52.800; -475.000; -420.000
198.171;  -68.200; -602.000; -612.000
198.317;  -33.525; -401.000; -316.000
198.463;  -57.975; -655.000; -404.000
198.609;   24.825;  181.000; -137.000
198.755;  -74.350; -644.000; -410.000
198.901;  -58.425; -505.000; -424.000
199.047;  -69.100; -615.000; -488.000
199.193;  -50.325; -230.000; -468.000
199.339;  -41.150; -222.000; -369.000
199.485;   40.400;  330.000;  271.000
199.631;   20.175;  227.000;  310.000
199.777;  -55.500; -466.000; -398.000
199.923;  -56.625; -610.000; -424.000
200.069;   -9.325; -141.000;  -58.000
200.215;   56.450;  128.000;  453.000
200.361;   58.975;  243.000;  477.000
200.507;  -55.875; -600.000; -373.000
200.653;  -33.000; -371.000; -194.000
200.798;  -41.650; -215.000; -125.000
200.944;  -10.350; -146.000;  -41.000
201.090;   36.425;   61.000;  222.000
201.236;   -6.325; -116.000; -158.000
201.382;  145.250;  874.000;  903.000
201.528;   -5.650;  -58.000;  -48.000
201.674;  -37.900; -386.000; -293.000
201.819;  -59.900; -540.000; -439.000
201.965;  -85.150; -699.000; -447.000
202.111;  -30.675; -273.000; -226.000
202.257;  -35.700; -250.000; -238.000
202.402;   19.500;   13.000;  -36.000
202.548;  -35.550; -169.000; -116.000
202.694;   74.475;  410.000; -183.000
202.840;  -63.625; -603.000; -531.000
202.985;  -73.775; -681.000; -639.000
203.131; -102.750; -832.000; -666.000
203.277;  -18.675; -199.000; -262.000
203.423;  -47.325; -434.000; -520.000
203.568;  -25.075; -462.000; -237.000
203.714;  -54.425; -535.000; -542.000
203.860;  -66.775; -682.000; -641.000
204.005;   29.400;  112.000;  167.000
204.151;   77.750;  561.000;  556.000
204.296;  -35.900; -354.000; -221.000
204.442;  -60.150; -600.000; -547.000
204.588;  -68.975; -592.000; -579.000
204.733;   15.150;  178.000;  168.000
204.879; -129.150;-1018.000; -822.000
205.025;    5.675;  -99.000;  126.000
205.170;    3.175;  -17.000;   94.000
205.316;   83.350;  438.000;  661.000
205.461;  -75.975; -698.000; -554.000
205.607;   80.925;  609.000;  665.000
205.752;  -62.450; -626.000; -551.000
205.898;  -53.650; -501.000; -391.000
206.043;  -55.550; -578.000; -506.000
206.189;  -38.750; -243.000; -285.000
206.334;   84.900;  554.000;  606.000
206.480;   84.775;  409.000;  239.000
206.625;  -86.875; -529.000; -552.000
206.771;  -43.200; -451.000; -373.000
206.916;  -25.875; -210.000; -537.000
207.062;  -70.375; -545.000; -591.000
207.207;  -52.100; -546.000; -443.000
207.353;   50.050;  185.000;  460.000
207.498;   10.050;  196.000;   85.000
207.643;  -49.125; -501.000; -370.000
207.789; -119.950;-1069.000; -910.000
207.934;  -98.225; -665.000; -713.000
208.080;  -33.775; -154.000;   66.000
208.225;   -7.325;  -22.000;  -57.000
208.370;  -74.500; -727.000; -619.000
208.516;  -72.125; -741.000; -487.000
208.661;  -19.425; -127.000;  -69.000
208.806;  -25.675; -165.000; -171.000
208.952; -120.625;-1044.000; -731.000
209.097;   75.250;  378.000;  349.000
209.242;  -35.100; -307.000; -382.000
209.387;   63.675;  392.000;  350.000
209.533;  -64.675; -321.000; -350.000
209.678;   80.300;  472.000;  543.000
209.823;  -52.050; -408.000; -310.000
209.969;  -93.925; -860.000; -757.000
210.114; -101.375; -907.000; -719.000
210.259; -121.975; -939.000; -889.000
210.404;   -9.675; -171.000;  103.000
210.549;   16.900;  108.000;    3.000
210.695;   -6.550;   -3.000;  -95.000
210.840;   23.550;   94.000;   67.000
210.985;  -66.725; -484.000; -303.000
211.130;   73.850;  268.000;  406.000
211.275;   32.175;  207.000;  199.000
211.420;  -49.300; -300.000; -289.000
211.566;  -68.350; -536.000; -489.000
211.711;   15.775;  218.000;  157.000
211.856;  -68.125; -545.000; -519.000
212.001;   21.400;  151.000;   44.000
212.146;   30.225;  153.000;   49.000
212.291;  -19.450; -210.000; -186.000
212.436;  -14.600; -280.000;   -6.000
212.581;  -75.225; -685.000; -653.000
212.726;  -75.900; -487.000; -538.000
212.871;  -41.475; -552.000; -217.000
213.016; -147.250;-1172.000;-1029.000
213.161;   55.075;  406.000;  291.000
213.306;  -79.300; -435.000; -577.000
213.451; -102.200; -778.000; -689.000
213.596;  -41.025; -455.000; -347.000
213.741;  -56.450; -448.000; -538.000
213.886;  -73.500; -498.000; -517.000
214.031;  -27.800; -294.000; -124.000
214.176;  -50.000; -408.000; -341.000
214.321;  -14.375; -296.000; -157.000
214.466;  -13.750; -163.000;  -43.000
214.611;   -3.300;  -61.000;  -10.000
214.756; -120.825; -948.000; -858.000
214.901;  -20.975; -388.000; -226.000
215.046; -125.000; -797.000; -825.000
215.191;    5.625;  128.000;   35.000
215.336;  -31.225; -157.000;  -19.000
215.480;  -75.350; -684.000; -505.000
215.625;   -3.625; -175.000;  -19.000
215.770;  -80.875; -757.000; -662.000
215.915;   -5.925;   -5.000;  -97.000
216.060;   -8.750; -113.000;  -21.000
216.205;  -99.950; -731.000; -779.000
216.349;  -72.150; -470.000; -533.000
216.494; -129.300; -939.000; -867.000
216.639; -127.075; -823.000; -888.000
216.784;  -77.175; -577.000; -525.000
216.929;   48.825;  392.000;  281.000
217.073;   -8.825; -244.000;  -31.000
217.218;   12.000;   78.000;  -47.000
217.363;  -80.125; -656.000; -618.000
217.507;  -79.200; -623.000; -588.000
217.652; -127.625; -845.000; -874.000
217.797;  -98.975; -708.000; -659.000
217.942;  -98.425; -856.000; -720.000
218.086;   62.900;  608.000;  539.000
218.231;  -20.275; -174.000;  -26.000
218.376;  -35.475; -337.000; -229.000
218.520;    3.675;  -41.000;   96.000
218.665;  -32.825; -338.000; -204.000
218.810;  -33.575; -275.000; -233.000
218.954;   15.425;  201.000;   35.000
219.099; -109.300; -713.000; -963.000
219.243;  -63.400; -589.000; -554.000
219.388;  -14.750; -264.000; -136.000
219.532;   -5.000; -116.000; -116.000
219.677;  -79.175; -564.000; -521.000
219.822;    3.250;   33.000;   89.000
219.966;    0.450;   17.000;  -99.000
220.111;  -29.500; -328.000;  -40.000
220.255;  -89.725; -797.000; -750.000
220.400;  -23.000; -180.000; -146.000
220.544;  -59.675; -516.000; -450.000
220.689;  -58.550; -422.000; -451.000
220.833;  -10.150; -123.000;  -58.000
220.978;  -54.075; -393.000; -563.000
221.122;   32.850;  319.000;  307.000
221.267; -127.000; -906.000; -837.000
221.411;  -58.575; -478.000; -394.000
221.555;  -18.825; -104.000;  -23.000
221.700;  -40.050; -329.000; -222.000
221.844;   30.375;  255.000;  272.000
221.989;  -28.425; -328.000; -311.000
222.133;  -46.125; -289.000; -307.000
222.277;   -6.350;    5.000;   78.000
222.422;   11.700;  227.000;  113.000
222.566;  -27.100; -381.000; -214.000
222.711;  -53.025; -414.000; -479.000
222.855;  -82.650; -643.000; -586.000
222.999;  -80.175; -642.000; -717.000
223.144;  -30.075; -195.000; -194.000
223.288;   44.300;  423.000;  251.000
223.432;   26.800;  184.000;  230.000
223.576;    8.075;  152.000;  -21.000
223.721;   43.050;  364.000;  273.000
223.865;  -62.600; -472.000; -475.000
224.009;  222.275; 1673.000; 1631.000
224.153;  -75.425; -660.000; -671.000
224.298;  -72.275; -531.000; -489.000
224.442;  -18.975;  -74.000;  -33.000
224.586;  -18.025; -169.000; -106.000
224.730; -100.600; -858.000; -670.000
224.875; -101.075; -739.000; -688.000
225.019;    5.875;  102.000;  188.000
225.163;   64.325;  208.000;  341.000
225.307;   13.550;   97.000;  -91.000
225.451;   37.200;  360.000;  481.000
225.595;   20.000;  264.000;  176.000
225.739;   -5.800; -170.000;  -94.000
225.884;    7.200;   86.000;    5.000
226.028;  -94.025; -760.000; -626.000
226.172;  -44.150; -260.000; -273.000
226.316; -128.975; -941.000; -902.000
226.460;  -57.575; -645.000; -493.000
226.604;  -57.750; -406.000; -400.000
226.748; -100.375; -836.000; -733.000
226.892;  -33.725; -227.000; -181.000
227.036;  -40.575; -537.000; -447.000
227.180;  -50.275; -551.000; -375.000
227.324;  -54.800; -561.000; -580.000
227.468; -100.200; -819.000; -717.000
227.612;   11.175;  242.000;  -28.000
227.756;  -79.625; -845.000; -698.000
227.900;   36.700;  342.000;  441.000
228.044;  -59.925; -509.000; -290.000
228.188;   45.375;  448.000;  568.000
228.332;  -88.600; -546.000; -472.000
228.476;  -31.450; -223.000; -149.000
228.620;  -22.500; -210.000; -150.000
228.764;   64.250;  431.000;  349.000
228.908;    1.425; -155.000;   30.000
229.052;  -66.425; -615.000; -528.000
229.195;  -11.900; -172.000;   13.000
229.339;  -11.825; -235.000; -305.000
229.483;  -29.650;    5.000; -162.000
229.627;   -9.275; -156.000;  139.000
229.771;  -45.525; -218.000; -294.000
229.915;    9.625;  230.000;   79.000
230.059;  -79.575; -648.000; -663.000
230.202;  -46.650; -370.000; -317.000
230.346;   -0.575; -107.000;  107.000
230.490;  -66.700; -489.000; -521.000
230.634; -113.050; -736.000; -553.000
230.777;   69.375;  478.000;  509.000
230.921;  -49.750; -450.000; -359.000
231.065;  -43.925; -246.000; -286.000
231.209;   40.525;  261.000;  265.000
231.352;   10.675;   54.000;   40.000
231.496;    9.625;  568.000;  188.000
231.640;  -79.550; -693.000; -621.000
231.783;   63.650;  546.000;  525.000
231.927;  -42.925; -294.000; -365.000
232.071; -114.750; -962.000; -736.000
232.214; -110.950; -980.000; -764.000
232.358;  -95.425; -683.000; -599.000
232.502;   14.375;  -19.000;    7.000
232.645; -126.800;-1090.000; -927.000
232.789;  -16.000; -257.000; -218.000
232.933;  -33.775; -407.000; -224.000
233.076; -127.450;-1038.000; -897.000
233.220; -103.525; -752.000; -777.000
233.363;  -90.550; -669.000; -477.000
233.507;   56.875;  371.000;  129.000
233.650; -104.050; -764.000; -834.000
233.794;   43.625;  438.000;  461.000
233.938;  -61.525; -530.000; -362.000
234.081;  -28.375;  -93.000;   31.000
234.225;  -73.150; -631.000; -539.000
234.368; -110.825; -773.000; -723.000
234.512;  -38.850; -385.000; -299.000
234.655;  -89.025; -582.000; -555.000
234.798;  -63.850; -493.000; -466.000
234.942; -120.350; -884.000;-1002.000
235.085;  -88.075; -651.000; -443.000
235.229;  -68.775; -405.000; -410.000
235.372;  -49.075; -247.000; -191.000
235.516;  -55.725; -397.000; -321.000
235.659;   30.650;   92.000;  121.000
235.802;  -12.675;  -38.000;  -22.000
235.946;   31.150;  335.000;  215.000
236.089;   24.025;  126.000;  250.000
236.233;   45.175;  275.000;  298.000
236.376;  -38.350; -235.000; -378.000
236.519;  -37.100; -297.000; -319.000
236.663;  -34.000; -215.000; -117.000
236.806; -139.450;-1029.000; -999.000
236.949;   57.900;  543.000;  431.000
237.092;   43.275;  412.000;  391.000
237.236;  -88.100; -589.000; -502.000
237.379;   63.350;  352.000;  428.000
237.522; -111.175; -879.000; -768.000
237.666;  -11.950; -271.000;   18.000
237.809; -121.750; -851.000; -823.000
237.952;   31.000;  469.000;  271.000
238.095;  -57.475; -447.000; -442.000
238.238;   80.525;  688.000;  700.000
238.382;  -13.650;  166.000;  103.000
238.525;  -78.450; -598.000; -511.000
238.668; -134.475;-1060.000; -985.000
238.811;  -92.400; -638.000; -643.000
238.954;  -63.225; -483.000; -334.000
239.097;   84.950;  617.000;  664.000
239.241;   29.100;  394.000;  326.000
239.384;  -34.375; -254.000; -214.000
239.527;  -56.925; -424.000; -224.000
239.670; -154.650; -994.000;-1091.000
239.813; -109.700; -696.000; -658.000
239.956;   62.475;  579.000;  473.000
240.099;  -93.025; -778.000; -725.000
240.242;   73.450;  428.000;  432.000
240.385;   47.725;  466.000;  450.000
240.528;  -67.375; -706.000; -473.000
240.671;    4.175;  189.000;  134.000
240.814;  -50.125; -441.000; -158.000
240.957;  -90.475; -767.000; -578.000
241.100; -105.100; -779.000; -755.000
241.243; -136.550;-1234.000; -893.000
241.386;  -72.500; -508.000; -379.000
241.529;  -72.925; -735.000; -547.000
241.672;  -60.000; -566.000; -495.000
241.815; -117.275; -832.000; -808.000
241.958;  -23.525; -125.000; -182.000
242.101;  -61.850; -545.000; -390.000
242.244;  -40.200; -270.000; -325.000
242.387;  -40.625; -304.000; -246.000
242.530;   48.975;  470.000;  134.000
242.673;  -43.200; -381.000; -309.000
242.815; -129.975; -925.000; -899.000
242.958;  -78.250; -482.000; -381.000
243.101;    9.375;  132.000;  187.000
243.244;  -80.450; -564.000; -521.000
243.387;  -45.375; -313.000; -316.000
243.530; -105.575; -657.000; -674.000
243.672;    4.625;   43.000;  -92.000
243.815;  -44.800; -355.000; -283.000
243.958;   -1.975;   98.000;  -26.000
244.101;    1.075;   59.000;  -16.000
244.243;  -11.800;  -47.000;  101.000
244.386; -108.350; -761.000; -630.000
244.529;  -26.800; -132.000; -139.000
244.672; -145.250;-1154.000; -951.000
244.814; -102.675; -621.000; -794.000
244.957;  -38.850; -380.000; -304.000
245.100;  -71.675; -489.000; -489.000
245.242;  -56.325; -387.000; -374.000
245.385;   -3.450;  -59.000;  -39.000
245.528; -108.975; -871.000; -705.000
245.670;   91.200;  612.000;  634.000
245.813;  -75.875; -599.000; -547.000
245.956;  -29.725; -324.000; -275.000
246.098;  -67.450; -508.000; -650.000
246.241;   10.100;  194.000;   48.000
246.383;  -22.250; -119.000;  -73.000
246.526;  -77.700; -454.000; -525.000
246.669; -118.075; -889.000; -780.000
246.811;   16.650;  172.000;   -1.000
246.954;  -58.050; -512.000; -426.000
247.096;  -18.875;  -84.000;   -6.000
247.239;  -66.675; -482.000; -445.000
247.381;  -59.825; -647.000; -488.000
247.524;   84.150;  645.000;  679.000
247.666;   -9.800;   58.000;   11.000
247.809; -101.325; -887.000; -691.000
247.951;   -7.650;  -75.000;  138.000
248.094;   22.575;  432.000;  308.000
248.236; -158.250;-1262.000;-1238.000
248.378;   15.025; -356.000;  -81.000
248.521;  -17.175; -334.000; -337.000
248.663;  -39.975; -236.000; -267.000
248.806;  -22.450; -300.000; -266.000
248.948;  -90.550; -886.000; -763.000
249.090;  -46.675; -428.000; -398.000
249.233;  -59.675; -344.000; -381.000
249.375;  -77.150; -474.000; -451.000
249.518;  -21.450;  -83.000; -133.000
249.660;   -6.025; -103.000;    3.000
249.802; -170.150;-1303.000;-1189.000
249.945;  -80.375; -612.000; -540.000
250.087; -113.075; -834.000; -768.000
250.229;  -53.575; -362.000; -480.000
250.371;  -77.600; -494.000; -439.000
250.514;  -58.200; -310.000; -244.000
250.656;  -70.700;   69.000;  102.000
250.798; -117.550; -849.000; -800.000
250.940;  -63.475; -322.000; -322.000
251.083;  -37.675; -335.000; -111.000
251.225;   62.800;  338.000;  310.000
251.367;  -36.750; -274.000; -373.000
251.509;  -43.350; -265.000; -210.000
251.651; -103.825; -731.000; -671.000
251.794;   53.800;  538.000;  632.000
251.936; -108.750; -821.000; -747.000
252.078;  -76.100; -540.000; -461.000
252.220;  -70.125; -645.000; -477.000
252.362;   90.450;  344.000;  462.000
252.504;  -62.675; -677.000; -584.000
252.646; -108.100; -875.000; -722.000
252.788;    5.425;   14.000; -128.000
252.931;  -34.025; -257.000; -253.000
253.073;  -42.000; -376.000; -317.000
253.215;  -10.275;  141.000;  122.000
253.357;  -21.400;   82.000; -153.000
253.499;  -46.650; -374.000; -234.000
253.641;  -77.650; -749.000; -594.000
253.783;  -84.750; -609.000; -527.000
253.925; -101.075; -586.000; -591.000
254.067;  -91.700; -744.000; -667.000
254.209;  -24.400; -391.000; -259.000
254.351; -136.475; -865.000; -883.000
254.493;  -72.500; -441.000; -417.000
254.635; -122.000; -936.000; -818.000
254.777;  -90.300; -752.000; -687.000
254.918;  -61.675; -512.000; -430.000
255.060;  -58.675; -551.000; -395.000
255.202;  -67.750; -473.000; -261.000
255.344;  -77.150; -658.000; -455.000
255.486;  -78.825; -471.000; -406.000
255.628; -105.100; -780.000; -781.000
255.770;  -84.850; -676.000; -536.000
255.912;  -68.800; -559.000; -468.000
256.053;  -91.275; -730.000; -508.000
256.195;  149.675; 1008.000;  903.000
256.337; -104.275; -861.000; -595.000
256.479;   59.500;  532.000;  416.000
256.621;  -49.425; -394.000; -212.000
256.762;  -89.500; -789.000; -742.000
256.904;   38.675;  485.000;  487.000
257.046;  -49.800; -381.000; -271.000
257.188;  -37.275; -351.000; -264.000
257.329;  -71.175; -525.000; -464.000
257.471; -111.875; -939.000; -807.000
257.613;  -71.975; -584.000; -498.000
257.755; -145.525;-1073.000; -982.000
257.896;   26.000;  286.000;  392.000
258.038;  -59.950; -403.000; -352.000
258.180;  -39.400; -354.000; -279.000
258.321;  -85.225; -581.000; -457.000
258.463;    0.950;  -71.000;  133.000
258.605;  -76.825; -562.000; -570.000
258.746; -106.625; -886.000; -772.000
258.888; -150.325;-1026.000;-1020.000
259.029;    5.300;  121.000;   -8.000
259.171;  -88.900; -614.000; -550.000
259.313;  -15.450;  -49.000;  -47.000
259.454;  -75.100; -536.000; -414.000
259.596;  -75.650; -483.000; -390.000
259.737;  -75.275; -590.000; -474.000
259.879;   31.200;  217.000;  311.000
260.020;   90.850;  901.000;  636.000
260.162;  -31.250; -146.000; -253.000
260.303; -100.000; -768.000; -687.000
260.445;  -85.675; -609.000; -613.000
260.586;   20.400;  392.000;  157.000
260.728;  -46.125; -360.000; -248.000
260.869;  -96.625; -350.000; -343.000
261.011;   85.300;  706.000;  537.000
261.152;  -66.450; -479.000; -319.000
261.293;  -82.250; -576.000; -595.000
261.435;  -25.200; -219.000; -184.000
261.576;  -61.525; -455.000; -325.000
261.718;   49.350;  420.000;  470.000
261.859; -134.525; -940.000; -949.000
262.000; -132.350; -951.000;-1016.000
262.142;  -23.500;  -52.000;  -60.000
262.283; -112.050; -808.000; -691.000
262.424;  -84.100; -666.000; -625.000
262.566; -146.025;-1161.000; -983.000
262.707; -120.925; -840.000; -830.000
262.848; -120.600; -769.000; -726.000
262.990;  -46.975; -362.000; -345.000
263.131;   93.075;  650.000;  681.000
263.272;  -18.700;  -61.000;  -41.000
263.413;  -85.925; -589.000; -561.000
263.555;  -51.800; -669.000; -143.000
263.696;  -80.625; -550.000; -641.000
263.837;  -67.600; -449.000; -551.000
263.978;   -9.175;   -5.000;  -77.000
264.119;  -48.525; -283.000; -264.000
264.261; -123.650; -847.000; -630.000
264.402;   -6.850;   33.000;   40.000
264.543;  -63.925; -509.000; -524.000
264.684;  -17.800;   61.000;  -50.000
264.825;  -71.275; -816.000; -538.000
264.966;   -5.600;  -84.000;  -67.000
265.107; -103.250; -646.000; -670.000
265.248; -120.425; -825.000; -812.000
265.390;  -23.250;  152.000;   -9.000
265.531;  -27.075; -238.000; -107.000
265.672;  -85.550; -557.000; -630.000
265.813;   56.500;  563.000;  439.000
265.954; -146.625; -959.000; -940.000
266.095;  -18.725; -372.000; -322.000
266.236; -108.075; -686.000; -548.000
266.377;  -51.175; -243.000; -297.000
266.518;  -74.375; -619.000; -547.000
266.659;   17.000;  170.000;  268.000
266.800;    3.550;   83.000;   85.000
266.941;  -79.900; -487.000; -478.000
267.082;    0.850;  354.000;   99.000
267.223;  -55.725; -344.000; -273.000
267.364; -118.175; -892.000; -686.000
267.504;  -22.300;    3.000;  135.000
267.645;   11.225;  160.000;   67.000
267.786;  -40.575; -147.000;  -86.000
267.927;  -73.150; -473.000; -379.000
268.068;  -17.050; -186.000;  -61.000
268.209;  -44.575; -175.000; -413.000
268.350;  -66.825; -388.000; -532.000
268.490;  -75.775; -648.000; -521.000
268.631;   37.500;  127.000;  225.000
268.772; -110.000; -874.000; -647.000
268.913;  -63.325; -328.000; -476.000
269.054;  -10.325; -117.000;   12.000
269.194;  -49.900; -418.000; -402.000
269.335; -157.300;-1137.000;-1074.000
269.476;  -24.225;   33.000;  -35.000
269.617;  -39.975; -347.000; -392.000
269.757; -102.500; -713.000; -646.000
269.898; -106.900; -856.000; -613.000
270.039;  -72.400; -415.000; -405.000
270.180; -135.425; -952.000; -816.000
270.320;  -27.550; -190.000; -250.000
270.461;  -46.150; -277.000; -249.000
270.602;  -14.025; -186.000; -156.000
270.742; -137.225; -868.000; -943.000
270.883;  -68.825; -442.000; -390.000
271.023;  -68.625; -358.000; -357.000
271.164;  -70.300; -607.000; -528.000
271.305;  -99.825; -666.000; -654.000
271.445;  -93.300; -722.000; -683.000
271.586;  -69.350; -462.000; -283.000
271.726;  -43.850; -397.000; -322.000
271.867;  -60.650; -594.000; -534.000
272.008;  157.675; -473.000; -285.000
272.148;  123.100;  462.000;  468.000
272.289;    6.275; -113.000; -181.000
272.429;    9.550;   19.000;  185.000
272.570;  -92.975; -633.000; -737.000
272.710; -101.600; -825.000; -775.000
272.851;  -24.675;  113.000; -130.000
272.991; -150.600;-1173.000;-1077.000
273.131;  -70.300; -419.000; -459.000
273.272;  -98.450; -683.000; -723.000
273.412;   -0.225; -143.000;  -31.000
273.553;  -53.425; -488.000; -507.000
273.693;  129.725;  913.000;  858.000
273.834;  -97.050; -894.000; -692.000
273.974;  -75.000; -664.000; -615.000
274.114; -101.275; -772.000; -560.000
274.255;   68.150;  414.000;  373.000
274.395;   -1.175; -180.000; -125.000
274.535;   38.350;  199.000;  350.000
274.676;   37.225;  225.000;   94.000
274.816;  -10.950;  110.000;   34.000
274.956; -101.675; -624.000; -690.000
275.097;  -66.950;-1014.000; -922.000
275.237;  -97.675; -913.000; -803.000
275.377; -115.350; -778.000; -689.000
275.517; -156.950; -878.000; -937.000
275.658;  -61.950; -590.000; -555.000
275.798;  -69.300; -606.000; -413.000
275.938;    8.900;  215.000;  323.000
276.078; -106.800; -626.000; -395.000
276.218;   -4.475;   99.000;  104.000
276.359; -124.950;-1026.000;-1024.000
276.499;  -81.600; -605.000; -446.000
276.639;  -29.700; -305.000; -151.000
276.779;  -54.850; -475.000; -357.000
276.919; -103.750; -783.000; -624.000
277.059;  -28.650; -261.000; -212.000
277.199;  -43.025; -357.000; -259.000
277.340;   37.025;  287.000;  175.000
277.480; -105.200; -840.000; -693.000
277.620;   12.950;  192.000;   16.000
277.760; -197.800;-1533.000;-1294.000
277.900;   -2.200;  113.000;   33.000
278.040;   10.600;  137.000;  159.000
278.180;   24.600;  270.000;  170.000
278.320;    3.650;   21.000;   56.000
278.460;  -67.400; -443.000; -469.000
278.600;  -99.025; -708.000; -598.000
278.740;   48.150;  448.000;  224.000
278.880;  -71.525; -768.000; -791.000
279.020;  -20.275; -194.000; -144.000
279.160;  -95.125; -672.000; -595.000
279.300; -123.250; -926.000; -873.000
279.440;  -95.025; -709.000; -622.000
279.579;  -16.375;-1014.000; -929.000
279.719;  -42.950; -410.000; -394.000
279.859;   69.925;   -4.000;   41.000
279.999;   36.775; -208.000;  101.000
280.139;  -25.775; -435.000; -387.000
280.279;  -72.350; -708.000; -745.000
280.419;  -25.100; -229.000; -147.000
280.559;  -20.375; -259.000; -180.000
280.698; -101.600; -790.000; -639.000
280.838;  -90.750; -778.000; -800.000
280.978;  -99.325; -846.000; -790.000
281.118; -104.225; -811.000; -704.000
281.257;   -4.225;   24.000;    6.000
281.397; -119.175;-1094.000; -960.000
281.537;  -92.525; -599.000; -712.000
281.677;  -25.250; -150.000; -101.000
281.816;  -96.575; -700.000; -630.000
281.956;  -36.250; -193.000; -257.000
282.096;  -73.275; -539.000; -396.000
282.235;  -91.350; -672.000; -638.000
282.375;  -18.950; -243.000;  -98.000
282.515; -104.325; -715.000; -707.000
282.654;   25.975;   29.000;  106.000
282.794;   23.725;  388.000;  244.000
282.934;  -60.625; -530.000; -491.000
283.073; -121.375;-1030.000; -857.000
283.213;  -60.750; -460.000; -467.000
283.353;  -25.800; -408.000; -349.000
283.492;  -30.450; -264.000; -296.000
283.632;  -41.975; -254.000; -168.000
283.771; -114.575; -859.000; -730.000
283.911;  -53.575; -369.000; -260.000
284.050; -124.575; -794.000; -748.000
284.190; -153.850;-1229.000;-1096.000
284.329; -135.300;-1055.000; -964.000
284.469;  -73.875; -516.000; -591.000
284.608;  -67.625; -559.000; -598.000
284.748;  -78.250; -614.000; -570.000
284.887;  -10.625;  -87.000;  -20.000
285.027; -131.450; -844.000; -892.000
285.166;  -24.000; -192.000; -249.000
285.306;   -5.000; -116.000;  -33.000
285.445;  -48.775; -229.000; -343.000
285.584;  -91.575; -630.000; -494.000
285.724;  -41.100; -282.000; -322.000
285.863; -116.700; -857.000; -507.000
286.002;  -61.625; -366.000; -276.000
286.142;  -99.125; -715.000; -622.000
286.281;  -81.550; -525.000; -493.000
286.420;  -68.350; -554.000; -417.000
286.560;   87.900;  653.000;  623.000
286.699; -125.400; -958.000; -912.000
286.838;  -79.000; -590.000; -591.000
286.978;  -86.850; -533.000; -537.000
287.117; -143.375;-1085.000; -950.000
287.256;  -29.100; -228.000; -211.000
287.395;  -37.950; -197.000; -378.000
287.535;  -60.325; -370.000; -298.000
287.674;  -86.050; -509.000; -484.000
287.813;   49.825;  661.000;  533.000
287.952; -144.575;-1010.000; -871.000
288.091; -146.100;-1049.000; -915.000
288.231;    0.125;   13.000;   15.000
288.370; -167.400;-1217.000;-1200.000
288.509;  -98.250; -728.000; -645.000
288.648;  -84.000; -770.000; -548.000
288.787;  -37.025; -243.000;  -87.000
288.926;  -62.350; -454.000; -475.000
289.065;  115.575;  859.000;  672.000
289.204;  -55.550; -377.000; -217.000
289.344;  -94.875; -791.000; -690.000
289.483;   16.550;  416.000;  304.000
289.622;  -33.700; -291.000; -149.000
289.761;  -20.725; -309.000; -166.000
289.900; -106.275; -785.000; -626.000
290.039;  -13.825;  -12.000;  -95.000
290.178;  -48.250; -274.000; -180.000
290.317;  -84.825; -618.000; -479.000
290.456;  -65.225; -463.000; -451.000
290.595; -141.475; -961.000; -833.000
290.734; -140.525; -904.000; -891.000
290.873;  -74.450; -456.000; -420.000
291.011; -117.775; -833.000; -843.000
291.150; -101.275; -770.000; -682.000
291.289;  -32.425; -343.000; -110.000
291.428;  -93.500; -599.000; -480.000
291.567;  -63.475; -370.000; -442.000
291.706;  -21.250;  109.000;  154.000
291.845;  -84.250; -597.000; -505.000
291.984; -162.175;-1234.000;-1061.000
292.122;   59.350;  602.000;  582.000
292.261;   43.800;  620.000;  463.000
292.400;    8.100; -144.000;  211.000
292.539; -121.050; -959.000; -813.000
292.678;  -34.675; -325.000; -300.000
292.816; -150.775;-1136.000; -965.000
292.955;  -87.600; -844.000; -684.000
293.094;  -29.850; -173.000; -337.000
293.233;  -54.650; -556.000; -400.000
293.371;  -44.925; -225.000;  -84.000
293.510; -105.525; -866.000; -780.000
293.649; -122.600; -959.000; -924.000
293.787;  -66.975;-1083.000;-1012.000
293.926;   -5.200; -113.000;  -32.000
294.065;  -49.925; -379.000; -290.000
294.203;   39.425;  298.000;  406.000
294.342;   29.050;   74.000;  156.000
294.481; 5618.450;51180.000; -836.000
294.619;  -32.975; -425.000; -582.000
294.758; -152.150;-1230.000;-1137.000
294.896;   62.875; -125.000;    5.000
295.035; -121.525;-1040.000;-1006.000
295.174; -120.675;-1082.000; -954.000
295.312;  -46.925; -323.000; -203.000
295.451;  -30.450; -307.000; -428.000
295.589;  -74.825; -389.000; -518.000
295.728;   16.050; -292.000; -165.000
295.866;   -2.200;  -36.000;  -51.000
296.005;  -66.825; -584.000; -341.000
296.143;  -82.700; -558.000; -596.000
296.282; -111.450; -957.000; -881.000
296.420;  -82.150; -657.000; -557.000
296.559; -101.400; -892.000; -633.000
296.697;   -1.175; -847.000; -665.000
296.835;   15.625;-1141.000;-1002.000
296.974;   28.250;  -23.000;   39.000
297.112;   -2.500; -443.000; -504.000
297.251;  -81.575; -815.000; -755.000
297.389;   66.525; -576.000; -438.000
297.527;   37.650; -145.000;  -83.000
297.666;  -56.325; -486.000; -438.000
297.804;  -48.075; -404.000; -264.000
297.942;   -9.000; -136.000; -161.000
298.081;  -15.925; -183.000;   63.000
298.219;   58.700;  -17.000;  -19.000
298.357;   53.275; -144.000;  -71.000
298.495;   12.850; -810.000; -812.000
298.634;   70.775;  245.000;  219.000
298.772;   15.400; -220.000; -338.000
298.910;  -35.525; -309.000; -182.000
299.048;  -21.275; -130.000; -153.000
299.187;  -43.675; -350.000; -250.000
299.325;   22.625;   52.000;  122.000
299.463;   42.200; -389.000; -299.000
299.601;   85.175; -327.000; -271.000
299.739;  -91.700; -908.000; -883.000
299.877;  -85.300; -791.000; -703.000
300.016;  -46.575;-1095.000; -935.000
300.154;  133.900;  -19.000; -161.000
300.292;   38.325; -428.000; -348.000
300.430;   23.750; -408.000; -291.000
300.568; -105.675; -940.000; -874.000
300.706;  -51.225; -366.000; -469.000
300.844;  -83.025;-1108.000; -979.000
300.982;  104.825;  246.000;  282.000
301.120; -111.725; -965.000; -866.000
301.258;  -77.350; -812.000; -705.000
301.396;   26.400;  104.000;  -41.000
301.534;   62.850; -218.000; -293.000
301.672;  -23.250; -664.000; -521.000
301.810;   -6.950; -613.000; -545.000
301.948;  102.000;   53.000;  149.000
302.086;  548.425; -250.000;  -32.000
302.224;  832.500; -610.000; -585.000
302.362;    8.875; -558.000; -622.000
302.500;  -33.100; -923.000; -893.000
302.638;   75.225;  128.000;  245.000
302.776;   -0.650; -352.000; -408.000
302.913;   37.475;  447.000;  236.000
303.051;   -6.275;  -86.000;  -23.000
303.189;   44.775;   90.000;  118.000
303.327;  -27.000; -341.000; -256.000
303.465;  -90.150; -832.000; -588.000
303.603;  -91.850; -805.000; -604.000
303.740;  102.025;  417.000;  241.000
303.878;   -7.500; -800.000; -759.000
304.016;  -95.475; -915.000; -790.000
304.154; -134.125;-1123.000;-1152.000
304.291;  -25.250; -505.000; -554.000
304.429;   11.150;  102.000;   74.000
304.567; -117.600; -908.000; -893.000
304.705;  -51.575; -408.000; -515.000
304.842;   76.275; -616.000; -540.000
304.980;   37.475;  215.000;   35.000
305.118;   23.650; -367.000; -365.000
305.255;  -73.075; -945.000; -927.000
305.393;   59.250;  178.000;  239.000
305.531; -116.750;-1173.000; -956.000
305.668;  -69.100; -663.000; -582.000
305.806;   88.600; -358.000; -439.000
305.943;   97.150; -629.000; -637.000
306.081;   44.825; -378.000; -267.000
306.219;  -88.800; -863.000; -748.000
306.356;    6.750;  158.000;   27.000
306.494;  100.350;  981.000;  761.000
306.631;   -6.500;  -11.000;  -55.000
306.769;  -10.850; -613.000; -485.000
306.906;  -24.825; -284.000; -258.000
307.044;  -62.200; -473.000; -488.000
307.181;  -53.575; -410.000; -332.000
307.319;   12.025;  112.000;   87.000
307.456; -167.150;-1191.000;-1153.000
307.594; -108.200; -980.000; -727.000
307.731;  -14.200; -371.000; -164.000
307.868;  -10.200;  -15.000;   20.000
308.006; -137.600; -961.000; -847.000
308.143;  -67.050; -618.000; -330.000
308.281;  146.275;  -37.000; -254.000
308.418;  -19.400; -748.000; -640.000
308.555;  -78.675; -400.000; -250.000
308.693;  -59.200; -577.000; -573.000
308.830; -120.475; -712.000; -657.000
308.967;  -17.325; -215.000;  -95.000
309.105;  -46.800; -507.000; -396.000
309.242;   16.775; -468.000; -367.000
309.379;  257.475; -577.000; -655.000
309.517;  -84.150; -936.000; -948.000
309.654; -115.425; -910.000; -734.000
309.791;  -79.775; -662.000; -580.000
309.928; -118.850; -977.000; -914.000
310.065;  176.375;  819.000;  697.000
310.203;  -28.800; -825.000; -850.000
310.340;  -29.375; -465.000; -321.000
310.477;  -81.175; -412.000; -516.000
310.614;  -76.900; -383.000; -473.000
310.751;  -86.600; -427.000; -518.000
310.889;  -29.675;    1.000;   11.000
311.026; -148.225;-1161.000; -939.000
311.163;  -59.625; -386.000; -380.000
311.300;  -83.900; -512.000; -479.000
311.437;  -81.375; -658.000; -619.000
311.574; -151.550;-1226.000; -985.000
311.711;  -71.600; -595.000; -433.000
311.848;  -53.750; -380.000; -388.000
311.985;    7.625;  270.000;   93.000
312.122; -115.675; -932.000; -762.000
312.259; -117.275; -941.000; -994.000
312.396;  -81.125; -508.000; -551.000
312.533;  -99.075; -812.000; -790.000
312.670; -138.625;-1070.000; -898.000
312.807;  -41.125; -352.000; -367.000
312.944;  -79.825; -513.000; -611.000
313.081;  -43.975; -150.000; -415.000
313.218; -115.750;-1111.000; -867.000
313.355;    4.300; -531.000; -449.000
313.492;   -8.025; -455.000; -292.000
313.629;  113.075;  815.000;  735.000
313.766; -164.200;-1176.000;-1008.000
313.902;  -31.875; -186.000;   21.000
314.039;  -60.350; -372.000; -289.000
314.176;   23.500;  286.000;  192.000
314.313;  -76.200; -569.000; -473.000
314.450;  -89.775; -788.000; -684.000
314.587;  -54.600; -468.000; -480.000
314.723;  -19.625;  -78.000;  130.000
314.860;   27.450;  318.000;  332.000
314.997;   22.150;  223.000;  142.000
315.134;  -46.750; -385.000; -368.000
315.270;  -39.650; -480.000; -496.000
315.407; -117.225;-1094.000; -967.000
315.544;  -58.475; -657.000; -538.000
315.681;  -67.875; -681.000; -565.000
315.817;   13.125; -133.000; -176.000
315.954;   14.575; -613.000; -392.000
316.091; -129.425;-1045.000;-1023.000
316.227;  -33.450;  -71.000; -179.000
316.364;  -19.400;   23.000;    6.000
316.500;  -42.625; -113.000; -300.000
316.637;  -46.650; -181.000; -302.000
316.774;  -83.925; -625.000; -358.000
316.910;  -95.775; -598.000; -629.000
317.047;  -81.200; -487.000; -351.000
317.183;  -58.925; -435.000; -566.000
317.320;   -6.300; -367.000; -321.000
317.456;  -72.450; -733.000; -805.000
317.593;  -83.875; -598.000; -641.000
317.729;   -3.500;  168.000;  -67.000
317.866; -198.500;-1434.000;-1285.000
318.002;  -96.575; -708.000; -948.000
318.139; -101.850; -883.000; -867.000
318.275; -115.625;-1003.000; -738.000
318.412;  -71.000; -517.000; -336.000
318.548;  -41.800; -751.000; -720.000
318.685;  -98.350; -985.000; -888.000
318.821;  -88.275; -762.000; -735.000
318.957;  -19.425;   34.000;  -23.000
319.094;   33.875;  297.000;  154.000
319.230;  -71.000; -756.000; -742.000
319.367;  101.850; -471.000; -520.000
319.503;   46.225; -538.000; -436.000
319.639; -101.375; -877.000; -793.000
319.775;  -74.800; -750.000; -685.000
319.912;  -61.125; -424.000; -519.000
320.048;  -93.425;-1184.000;-1184.000
320.184;   60.525;   59.000;   70.000
320.321;  -70.700; -497.000; -467.000
320.457;   47.525;  475.000;  662.000
320.593;  -59.625; -375.000; -382.000
320.729; -101.525; -732.000; -734.000
320.866;  -54.025; -577.000; -635.000
321.002;  -78.625; -759.000; -809.000
321.138;  -12.575; -135.000; -211.000
321.274;   74.200; -148.000; -115.000
321.410;  -12.150; -585.000; -353.000
321.546;  -44.375;-1011.000; -911.000
321.683;   33.450;  400.000;  185.000
321.819;   -1.700;  -48.000; -117.000
321.955; -110.000; -743.000; -722.000
322.091;  -54.250; -585.000; -540.000
322.227;  -15.500; -382.000; -202.000
322.363;  -31.800; -320.000; -215.000
322.499;  -43.625; -343.000; -331.000
322.635;  154.750;  636.000;  443.000
322.771;   23.125; -139.000;   12.000
322.907;   86.075;  129.000;  327.000
323.043;  -25.525; -115.000; -206.000
323.179;  -36.800; -394.000; -363.000
323.315;  -13.150; -401.000; -371.000
323.451;   52.175; -328.000; -236.000
323.587;   65.025;  -60.000;  -77.000
323.723;    2.650; -682.000; -601.000
323.859;  -21.825; -258.000;  -76.000
323.995;  -33.825; -467.000; -409.000
324.131; -124.575; -967.000; -892.000
324.267;  -45.450; -254.000; -276.000
324.402; -126.850; -960.000; -983.000
324.538;  -28.125; -279.000; -104.000
324.674;   22.075;  164.000;   77.000
324.810;   91.975;  226.000;  308.000
324.946;    0.500; -810.000; -658.000
325.082;  -83.775; -568.000; -475.000
325.217;  -18.775;  -62.000;   16.000
325.353; -107.775; -764.000; -659.000
325.489;  -85.700; -540.000; -506.000
325.625;  -80.325; -579.000; -525.000
325.760;   51.800;  517.000;  376.000
325.896;  -26.225; -515.000; -702.000
326.032;  -50.750; -403.000; -352.000
326.168;  -58.700; -462.000; -369.000
326.303;  -45.600; -352.000; -461.000
326.439;  -17.825; -336.000; -276.000
326.575;  -14.400; -190.000;  -29.000
326.710;  -13.075; -156.000;  -30.000
326.846;  -17.975;  146.000;  103.000
326.982; -100.375; -530.000; -548.000
327.117;  -69.200; -481.000; -442.000
327.253;  -89.750; -745.000; -742.000
327.388; -165.100;-1137.000;-1153.000
327.524;  -60.475; -811.000; -578.000
327.659;  -34.650;  -58.000;  -22.000
327.795;  -20.850;   69.000;   45.000
327.931;  -85.500; -723.000; -499.000
328.066;  -31.725; -417.000; -276.000
328.202;  -15.025;   12.000; -129.000
328.337;   98.200;  957.000;  713.000
328.473;   26.900;  -12.000;  -74.000
328.608;  -30.225; -256.000; -267.000
328.743;  -90.600; -799.000; -664.000
328.879;   13.100;  214.000;  114.000
329.014;  -31.300; -102.000; -122.000
329.150;  -79.075; -358.000; -483.000
329.285;  -70.500; -465.000; -466.000
329.421;  -50.350; -548.000; -246.000
329.556;  -26.225;  -36.000;   85.000
329.691;  -98.800; -633.000; -615.000
329.827;  -90.575; -626.000; -480.000
329.962;  -40.650;  131.000; -301.000
330.097;  -96.900; -673.000; -585.000
330.233;  -59.300; -410.000; -223.000
330.368; -115.100; -839.000; -628.000
330.503;  -16.750;    3.000;   98.000
330.638;   -6.925;  -93.000; -125.000
330.774;  -68.575; -609.000; -530.000
330.909;  -41.250; -434.000; -244.000
331.044; -107.550; -714.000; -708.000
331.179; -179.300;-1217.000;-1109.000
331.315;   -1.725;   77.000;   20.000
331.450;   15.650;  157.000;  285.000
331.585;  -94.625; -805.000; -706.000
331.720;  -79.125; -510.000; -460.000
331.855;  -22.575;  -35.000; -102.000
331.990;  263.100;   62.000;  138.000
332.126;  134.350; -110.000;   71.000
332.261;  -21.475; -379.000; -265.000
332.396;   -9.275; -135.000; -242.000
332.531;  -89.075;-1074.000;-1031.000
332.666;   27.425; -519.000; -363.000
332.801; -105.500; -726.000; -807.000
332.936;  -28.200; -192.000; -122.000
333.071; -149.075; -870.000; -817.000
333.206;    7.250;  307.000;  379.000
333.341;   20.475;  344.000;  418.000
333.476;  -84.175; -627.000; -623.000
333.611;  -40.650; -251.000; -173.000
333.746;  -41.100; -381.000; -464.000
333.881; -123.575; -973.000; -935.000
334.016; -136.450; -936.000; -917.000
334.151; -119.950; -746.000; -702.000
334.286;   -0.450;  152.000;  186.000
334.421;  -17.675; -125.000; -178.000
334.556;  -82.300; -611.000; -567.000
334.690;  -92.175; -631.000; -577.000
334.825;   46.950;  381.000;   83.000
334.960;  -52.600; -285.000; -413.000
335.095;   11.900;  135.000;  -91.000
335.230; -117.425; -722.000; -738.000
335.365; -143.950;-1084.000; -990.000
335.499; -132.300;-1108.000;-1037.000
335.634;    4.675;    9.000;  534.000
335.769; -104.050; -755.000; -720.000
335.904;  -72.050; -603.000; -561.000
336.038;  -53.625; -735.000; -657.000
336.173; -137.375;-1206.000;-1194.000
336.308;    3.650; -116.000; -189.000
336.443;   23.875; -544.000; -634.000
336.577;  -76.725; -936.000; -787.000
336.712;   58.750;   -4.000;  -12.000
336.847;  -58.975; -724.000; -607.000
336.981;   39.725; -272.000; -208.000
337.116;  251.725;  615.000;  501.000
337.250;  130.400; -434.000; -421.000
337.385;  260.200; -297.000; -208.000
337.520;  106.175; -632.000; -603.000
337.654;  -43.700; -215.000; -126.000
337.789; -140.800; -989.000; -933.000
337.923;  -41.575; -104.000; -205.000
338.058;  -93.950; -673.000; -738.000
338.192;  -47.950; -611.000; -488.000
338.327;  -16.975;  -18.000; -155.000
338.461;  -76.375; -299.000; -469.000
338.596; -102.475; -780.000; -638.000
338.730;  -97.425; -767.000; -803.000
338.865;   89.125;  -46.000; -140.000
338.999;  -39.825; -846.000; -702.000
339.134;  -29.400; -634.000; -536.000
339.268;   12.475; -741.000; -603.000
339.403;  383.725; -740.000; -775.000
339.537;  134.275; -894.000; -820.000
339.671; -120.575; -829.000; -813.000
339.806;  -61.075; -556.000; -512.000
339.940;   -0.825; -261.000; -235.000
340.074;  -95.700; -685.000; -510.000
340.209;  -29.850; -351.000; -230.000
340.343;  -99.900; -517.000; -573.000
340.477;  147.175;  998.000; 1036.000
340.612;  -44.625;-1033.000; -900.000
340.746;  136.125; -199.000; -243.000
340.880;  -80.575; -924.000; -785.000
341.014;  -30.425;  -45.000; -154.000
341.149; -111.075; -756.000; -718.000
341.283; -121.775; -839.000; -754.000
341.417;  -99.850;-1124.000; -938.000
341.551;   93.600; -768.000; -708.000
341.685;  -44.575; -633.000; -611.000
341.820;  -69.675; -562.000; -493.000
341.954;  -59.075; -218.000; -349.000
342.088; -160.850;-1102.000;-1019.000
342.222;   63.175;  565.000;  618.000
342.356;  -70.725; -395.000; -335.000
342.490; -111.250; -880.000; -841.000
342.624;  -52.975; -339.000; -242.000
342.758;   -9.575; -364.000; -312.000
342.892;  -74.775; -710.000; -585.000
343.026;  -38.000;  -58.000; -116.000
343.160;  -56.750; -426.000; -376.000
343.294;  -78.450; -474.000; -337.000
343.428;  -31.200; -488.000; -448.000
343.562;  -24.650; -172.000;  -23.000
343.696;  -37.950; -385.000; -314.000
343.830;  -33.375; -362.000; -356.000
343.964;   24.825; -231.000; -168.000
344.098;  786.425;  199.000;   70.000
344.232;  675.975; -266.000; -127.000
344.366;   83.350; -567.000; -453.000
344.500;   35.950; -665.000; -744.000
344.634;   18.675; -324.000; -164.000
344.768;  -24.250; -531.000; -341.000
344.902;   15.700;  278.000;  256.000
345.035;  -67.350; -556.000; -496.000
345.169; -140.775; -933.000; -656.000
345.303;  -35.075; -308.000; -482.000
345.437;  -77.675; -826.000; -717.000
345.571;  -81.175; -675.000; -594.000
345.704;  -50.575; -309.000; -532.000
345.838;  -25.400; -331.000; -284.000
345.972;  -50.250; -543.000; -495.000
346.106;  162.050; -179.000; -190.000
346.239;  411.950; -312.000; -243.000
346.373;   -7.675; -343.000; -302.000
346.507; -145.775; -950.000; -962.000
346.640;  134.825;  -30.000;   13.000
346.774;  -55.600; -650.000; -797.000
346.908;  -37.800; -138.000;  -11.000
347.041;  -90.700; -646.000; -593.000
347.175;   -1.325;  259.000;   27.000
347.309;  -75.250; -698.000; -628.000
347.442; -101.550; -883.000; -732.000
347.576;  246.725;  670.000;  668.000
347.709;  162.375; -123.000;  -52.000
347.843;  -96.475; -933.000; -825.000
347.976;   34.400;  235.000;  294.000
348.110; -184.450;-1268.000;-1186.000
348.243; -120.750; -679.000; -772.000
348.377;   -0.400;  -26.000;   60.000
348.510;   51.575;  403.000;  540.000
348.644;  -49.125;  -37.000; -159.000
348.777;   -7.800;  180.000;  191.000
348.911;  -45.750; -142.000; -112.000
349.044;  126.300;  471.000;  448.000
349.178;  124.175;-1069.000;-1006.000
349.311;  101.700;  141.000;  255.000
349.444;   -2.950; -927.000; -813.000
349.578;  -27.200; -347.000; -200.000
349.711; -104.700; -959.000; -862.000
349.845;   -9.500; -661.000; -591.000
349.978; -148.750;-1224.000;-1137.000
350.111;  -91.850; -546.000; -612.000
350.244;  -76.275; -596.000; -700.000
350.378;  -15.475; -392.000; -393.000
350.511;  -63.875; -393.000; -426.000
350.644; -107.400; -808.000; -806.000
350.778;   -6.550;  168.000;  104.000
350.911;  -25.950;  134.000;  140.000
351.044;  -95.450; -685.000; -615.000
351.177;  -44.550; -321.000; -281.000
351.310;  -11.725;    3.000; -131.000
351.444;  -93.500; -888.000; -788.000
351.577;  102.650;  140.000;   90.000
351.710;   89.225;  593.000;  417.000
351.843;  -46.750; -165.000;  -77.000
351.976;   12.450;  149.000;  -79.000
352.109; -104.450; -621.000; -612.000
352.242;  -37.825; -464.000; -419.000
352.376;  -66.325; -580.000; -636.000
352.509;  121.150; -437.000; -356.000
352.642;  -14.425; -654.000; -604.000
352.775;   29.625; -141.000;  -98.000
352.908; -132.275; -933.000; -904.000
353.041; -112.325; -814.000; -824.000
353.174;  -59.700; -551.000; -424.000
353.307;  -94.300; -753.000; -764.000
353.440;   62.150;  541.000;  453.000
353.573; -114.300; -957.000;-1008.000
353.706;  -44.850; -384.000; -558.000
353.839;  -22.800; -264.000; -220.000
353.971;  -91.475; -657.000; -512.000
354.104;  -88.625; -896.000; -835.000
354.237;  -56.500; -627.000; -662.000
354.370;  -95.125; -846.000; -879.000
354.503; -179.775;-1231.000;-1308.000
354.636;  -51.425; -529.000; -348.000
354.769; -127.575; -937.000; -860.000
354.902;  -16.175; -230.000; -139.000
355.034;  -19.450; -164.000; -220.000
355.167;  -23.050; -262.000; -162.000
355.300;  -78.450;-1061.000; -880.000
355.433;  971.775;  -71.000;  -14.000
355.565; 1545.325; -402.000; -384.000
355.698;  389.175; -356.000; -296.000
355.831;  -10.300; -882.000; -801.000
355.964;   48.875; -285.000; -170.000
356.096;  -92.600; -856.000; -843.000
356.229;  -16.200; -523.000; -530.000
356.362;  332.200; -373.000; -266.000
356.494;  623.775; -229.000; -162.000
356.627;  432.525;  269.000;  377.000
356.760;  649.825;  120.000;   53.000
356.892;  970.100; -286.000; -601.000
357.025;  573.050;  403.000;  389.000
357.157;  530.075; -167.000; -179.000
357.290;  724.225; -856.000; -713.000
357.423;  210.075; -667.000; -556.000
357.555;   99.300; -217.000; -228.000
357.688;  121.625; -483.000; -364.000
357.820;  405.575; -870.000; -877.000
357.953; 3434.950; -563.000; -589.000
358.085;  719.050; -632.000; -612.000
358.218;  917.500;-1131.000; -932.000
358.350;  160.450;  -58.000;  312.000
358.483; -134.400;-1300.000;-1187.000
358.615;  -43.200;-1182.000;-1078.000
358.747;  -81.800;-1187.000;-1058.000
358.880;    8.075; -810.000; -744.000
359.012;   -4.400; -376.000; -202.000
359.145;  -42.075; -480.000; -511.000
359.277;   50.050; -962.000; -913.000
359.409; 2826.850;  536.000;  231.000
359.542;  750.150; -738.000; -688.000
359.674;   72.500;   46.000;   13.000
359.806;  -72.300; -565.000; -438.000
359.939;  -53.600; -617.000; -516.000
360.071;   -5.225; -583.000; -579.000
360.203;  -18.650; -411.000; -364.000
360.335;   36.450;  164.000;  -16.000
360.468;  187.600; -249.000; -307.000
360.600; 2312.825; -547.000; -454.000
360.732; 2977.175; -546.000; -423.000
360.864;  416.325;-1216.000;-1044.000
360.996;  216.700; -516.000; -554.000
361.129;   34.200; -389.000; -598.000
361.261;   15.425;  110.000; -113.000
361.393;  -46.275; -252.000; -214.000
361.525;    6.125;   94.000;  244.000
361.657;  -50.125; -821.000; -703.000
361.789;   -1.400; -139.000; -155.000
361.921;  175.625; -642.000; -593.000
362.053;  217.200;  524.000;  541.000
362.185;   40.150;  288.000;   72.000
362.318;  -80.825; -709.000; -705.000
362.450;   91.000;  294.000;  444.000
362.582;   59.075; -913.000; -870.000
362.714;  -41.475; -353.000; -332.000
362.846;  -91.975; -606.000; -490.000
362.978; -136.850; -941.000; -811.000
363.109;   35.775; -161.000; -260.000
363.241;  371.175; -739.000; -749.000
363.373;  437.550; -649.000; -564.000
363.505;  686.700; -186.000;  -91.000
363.637;  147.050; -787.000; -601.000
363.769; -125.300;-1067.000;-1080.000
363.901;  -67.600; -596.000; -654.000
364.033; -127.900;-1103.000;-1062.000
364.165;  -16.775; -283.000; -283.000
364.296;   69.950; -316.000; -177.000
364.428;   67.100;-1344.000;-1220.000
364.560;  -66.825; -679.000; -661.000
364.692;  -67.600; -738.000; -835.000
364.824;  220.275; -588.000; -456.000
364.955;  436.250; -402.000; -564.000
365.087;  995.425;-1097.000; -852.000
365.219;   27.675; -686.000; -816.000
365.351;  -72.275; -526.000; -572.000
365.482;   46.250;  300.000;  240.000
365.614;  -55.275; -402.000; -314.000
365.746;  -90.350; -729.000; -752.000
365.877;  -99.500; -706.000; -672.000
366.009;  279.325;  -35.000;  -62.000
366.141;  -69.275;-1249.000;-1134.000
366.272; -111.175; -803.000; -719.000
366.404; -113.100;-1005.000; -874.000
366.535;   -5.250; -139.000;  -12.000
366.667;  -97.675; -644.000; -649.000
366.799;   25.675;  353.000;  203.000
366.930; -125.525; -862.000; -996.000
367.062;  124.850; -639.000; -613.000
367.193;  176.175; -872.000; -842.000
367.325;  -74.075; -580.000; -684.000
367.456;   39.325; -246.000;   31.000
367.588;  142.875; -371.000; -318.000
367.719;   16.400;  -44.000;  -45.000
367.851;  -34.750; -222.000; -241.000
367.982;  -46.400; -875.000; -732.000
368.113;   77.725; -475.000; -358.000
368.245; -132.150; -960.000; -841.000
368.376;  -37.200; -254.000; -302.000
368.508;  -35.525; -188.000; -263.000
368.639; -137.200;-1166.000;-1034.000
368.770;  -26.075; -670.000; -589.000
368.902;  -91.875; -836.000; -926.000
369.033; -104.500; -906.000; -855.000
369.164;  -39.350; -720.000; -653.000
369.296; -101.100; -452.000; -601.000
369.427;  -17.300; -209.000; -144.000
369.558;  -65.525; -593.000; -377.000
369.689;  -88.600; -721.000; -569.000
369.821; -133.550; -951.000; -845.000
369.952;  -30.850;   42.000; -108.000
370.083;  -62.225; -229.000; -108.000
370.214;  -85.375; -735.000; -650.000
370.345;  -12.400;   65.000;   81.000
370.477;  -90.425; -810.000; -790.000
370.608;  192.300; -328.000; -264.000
370.739;  -70.000;-1233.000;-1292.000
370.870;  -70.600;-1102.000; -923.000
371.001;   70.200; -378.000; -467.000
371.132;  -82.275; -754.000; -735.000
371.263;  -23.175;  -42.000; -148.000
371.394; -131.025; -841.000; -748.000
371.525;   17.075;  345.000;  225.000
371.657; -105.850; -808.000; -670.000
371.788;   60.075;  103.000;  199.000
371.919;  172.625; -384.000; -304.000
372.050; 3245.000;  -91.000; -156.000
372.181;  978.800; -188.000; -294.000
372.311;  325.125;   42.000; -127.000
372.442;   25.500; -457.000; -451.000
372.573;  -28.225; -444.000; -340.000
372.704; -133.475;-1008.000; -980.000
372.835;   47.750; -228.000; -289.000
372.966;  -75.250; -646.000; -554.000
373.097;  -63.550; -575.000; -711.000
373.228;  -60.925; -717.000; -542.000
373.359;   80.775; -824.000; -536.000
373.490;  796.550; -881.000; -727.000
373.620;  999.975;-1001.000; -803.000
373.751; 1549.850; -332.000; -396.000
373.882;  694.925; -663.000; -733.000
374.013;   56.450; -449.000; -262.000
374.143;  -53.350; -581.000; -659.000
374.274; -113.900; -987.000; -908.000
374.405;  134.875; -388.000; -276.000
374.536;  359.350; -526.000; -387.000
374.666;  940.025; -759.000; -807.000
374.797;  194.075; -817.000; -868.000
374.928;  721.275; -710.000; -560.000
375.058;  793.250; -535.000; -500.000
375.189;   51.975;  -59.000;  -93.000
375.320; -102.475; -928.000;-1034.000
375.450;  -29.750; -625.000; -616.000
375.581;  -51.975; -526.000; -436.000
375.712;  -47.325; -574.000; -250.000
375.842;  252.200; -438.000; -415.000
375.973;  171.900; -554.000; -513.000
376.103;  -53.850; -665.000; -648.000
376.234;  -83.900; -531.000; -552.000
376.364;  -52.475; -944.000; -867.000
376.495;  284.425;  925.000;  529.000
376.625;  -15.250; -472.000; -485.000
376.756;   28.650; -709.000; -678.000
376.886;  -79.550;-1178.000;-1026.000
377.017;   45.575;-1048.000;-1061.000
377.147;  379.050; -786.000; -782.000
377.278;   55.900;  174.000;  228.000
377.408; -126.775; -801.000; -815.000
377.538; -108.650; -707.000; -693.000
377.669;  -70.525; -537.000; -613.000
377.799; -107.500; -645.000; -635.000
377.929;  -67.350; -610.000; -428.000
378.060; -136.475; -781.000; -847.000
378.190;  -64.275; -726.000; -531.000
378.320;  -67.475; -401.000; -406.000
378.451;  -10.425; -131.000;  -22.000
378.581;  -33.625;  -67.000; -110.000
378.711;  132.725; 1035.000;  866.000
378.841;  -35.000; -533.000; -675.000
378.972;  -89.200; -871.000; -751.000
379.102;  -23.525; -652.000; -579.000
379.232;  -31.600; -126.000;  -73.000
379.362; -126.800;-1001.000; -885.000
379.492;   -7.675; -373.000; -424.000
379.623;   74.100;    0.000;  111.000
379.753; -108.350;-1107.000; -974.000
379.883;  178.450;   59.000;  156.000
380.013;   -9.175;-1081.000;-1017.000
380.143; -114.025;-1097.000;-1056.000
380.273; -101.675; -985.000; -861.000
380.403;   -5.825; -344.000; -257.000
380.533;  -55.650; -651.000; -664.000
380.663;   50.900;  173.000;  128.000
380.793; -117.675;-1027.000;-1074.000
380.923;  -36.925; -103.000;  -34.000
381.053;  -92.500; -613.000; -623.000
381.183;  -32.850; -106.000; -248.000
381.313;   19.825; -656.000; -470.000
381.443;   11.975; -692.000; -473.000
381.573;  142.975; -402.000; -409.000
381.703;  201.500;-1249.000;-1095.000
381.833; -145.000;-1454.000;-1336.000
381.963;   74.525; -134.000;  -87.000
382.093; 1252.325; -925.000; -909.000
382.223;  411.225; -713.000; -602.000
382.353;  -25.425; -801.000; -608.000
382.482;  290.575;-1091.000; -964.000
382.612;  663.075; -872.000; -644.000
382.742;  375.900; -695.000; -622.000
382.872;  206.350; -565.000; -551.000
383.002;   48.900;  347.000; -132.000
383.131;  -27.650; -226.000; -160.000
383.261;  -40.925; -706.000; -768.000
383.391;  283.700; -552.000; -377.000
383.521; 3384.850;  451.000;  263.000
383.650;  835.325; -947.000; -904.000
383.780;  -11.900; -783.000; -656.000
383.910;  109.025;  880.000;  802.000
384.039;    0.400; -794.000; -656.000
384.169;  151.675;-1205.000;-1017.000
384.299;  -41.750; -650.000; -662.000
384.428;  -99.950; -764.000; -680.000
384.558;  -70.450; -308.000; -275.000
384.687;  -53.500; -414.000; -334.000
384.817;   -4.575;   75.000;   -2.000
384.947;   -4.650; -234.000; -141.000
385.076;  250.750;  982.000;  912.000
385.206;   82.925;  369.000;  480.000
385.335;  -45.425; -549.000; -417.000
385.465;  -85.525; -655.000; -663.000
385.594;  100.900;  -53.000;  -44.000
385.724;  371.900; -868.000; -838.000
385.853;   83.700; -296.000; -270.000
385.982; 1161.875; -743.000; -787.000
386.112; 1913.600;-1052.000; -871.000
386.241;  129.725; -307.000; -312.000
386.371;    2.425; -174.000;  -87.000
386.500;  -15.475; -825.000; -789.000
386.629;   -0.575; -874.000; -817.000
386.759;   61.900;  -43.000;   68.000
386.888;  -23.650; -170.000; -250.000
387.017;  -90.000; -648.000; -620.000
387.147;  -95.350; -771.000; -798.000
387.276;  -20.975; -410.000; -397.000
387.405;  -12.150; -398.000; -342.000
387.535;  -43.625; -452.000; -361.000
387.664;  -69.050; -692.000; -620.000
387.793;   42.675; -198.000; -113.000
387.922;  430.075;  255.000;  200.000
388.052;   -3.375; -576.000; -423.000
388.181;   -2.850; -342.000; -472.000
388.310;  -25.650; -889.000; -710.000
388.439;  -65.150; -749.000; -742.000
388.568;  157.050;  365.000;  244.000
388.697;  895.350; -756.000; -653.000
388.826;  179.100; -768.000; -666.000
388.956;   26.475; -285.000; -307.000
389.085;  -53.300; -347.000; -287.000
389.214; -109.775; -842.000; -872.000
389.343;  -62.350; -645.000; -413.000
389.472;  410.175;  126.000;  149.000
389.601;  510.500;   91.000;    0.000
389.730;    5.100; -568.000; -687.000
389.859;   47.700;  226.000;   46.000
389.988;  133.075; -423.000; -408.000
390.117;  119.950; -168.000; -146.000
390.246;  -19.025; -331.000; -320.000
390.375;   69.700; -673.000; -626.000
390.504;  -79.400; -703.000; -621.000
390.633; -102.100; -672.000; -726.000
390.761;  -79.825; -732.000; -645.000
390.890;    6.700;   -4.000; -130.000
391.019;  -46.950; -421.000; -441.000
391.148; -131.400; -826.000; -855.000
391.277;  -80.350; -576.000; -493.000
391.406; -103.625; -821.000; -805.000
391.534;   15.375;  574.000; -301.000
391.663;  -64.075; -583.000; -645.000
391.792;  -94.300; -673.000; -701.000
391.921;   72.625;   -3.000;   15.000
392.050;  142.450; -287.000; -228.000
392.178;  -67.400;-1206.000;-1061.000
392.307;  113.350; -758.000; -712.000
392.436;   61.600; -427.000; -641.000
392.564;    2.375;  166.000;   -6.000
392.693;  -88.500; -860.000; -682.000
392.822;  150.200; -529.000; -534.000
392.950;   52.475; -880.000; -714.000
393.079;  282.600; -188.000; -328.000
393.208;   10.250; -488.000; -511.000
393.336;  -16.225; -170.000; -145.000
393.465;  -54.050; -317.000; -199.000
393.593;  -11.150;   62.000;   79.000
393.722; -143.925;-1121.000; -916.000
393.850;  -47.375; -188.000;  -61.000
393.979; -148.050; -926.000; -805.000
394.107;  -62.025; -517.000; -537.000
394.236;  -33.900; -570.000; -507.000
394.364;  172.450;  383.000;  206.000
394.493;  301.350; -911.000; -767.000
394.621;  -19.300; -955.000; -916.000
394.750;  727.625; -873.000; -923.000
394.878; 2997.750; -247.000; -149.000
395.007; 4176.275; -721.000; -807.000
395.135;  312.450; -790.000; -721.000
395.263;  -74.025;-1038.000;-1040.000
395.392;    1.200;  -25.000; -107.000
395.520; -140.125; -818.000; -679.000
395.648; -104.225; -865.000; -915.000
395.777;  -29.725; -366.000; -405.000
395.905;  -63.425; -449.000; -564.000
396.033;   -4.175;  217.000;  172.000
396.162;  509.975; -399.000; -453.000
396.290;  455.075;  -17.000;   -2.000
396.418;   79.975; -555.000; -514.000
396.546;  -72.425; -571.000; -466.000
396.674; -104.500; -850.000; -878.000
396.803;    0.625;  -72.000;  -23.000
396.931;   55.775; -179.000; -199.000
397.059;   15.650;-1026.000; -989.000
397.187; -108.125;-1026.000; -975.000
397.315; -142.150; -884.000; -649.000
397.443;  -97.075; -592.000; -443.000
397.572;  -97.350; -578.000; -424.000
397.700;  -40.175; -607.000; -614.000
397.828;    4.100;  120.000;  -90.000
397.956;  -40.900; -508.000; -478.000
398.084;  -56.050; -767.000; -626.000
398.212;   14.850;  137.000;  124.000
398.340;   -2.250;  -56.000;  159.000
398.468;    5.825; -390.000; -169.000
398.596; -142.050; -993.000; -953.000
398.724; -123.425; -762.000; -767.000
398.852; -149.125;-1024.000; -976.000
398.980;  -81.875; -560.000; -560.000
399.108;  -55.175; -982.000; -735.000
399.236;   15.125;   13.000;    8.000
399.363;   -1.725;  222.000;  196.000
399.491;  -65.650; -404.000; -398.000
399.619; -126.625; -829.000; -800.000
399.747; -106.875; -859.000; -771.000
399.875;   67.175;  220.000;  234.000
400.003;  -67.625; -359.000; -284.000
400.130;  -91.950; -421.000; -341.000
400.258;  -40.900;  -83.000;   38.000
400.386;  -71.200; -352.000; -168.000
400.514;  -55.000; -526.000; -587.000
400.641; -102.400; -928.000; -802.000
400.769; -148.625; -979.000; -888.000
400.897; -134.850; -838.000; -793.000
401.025;  -37.825; -166.000; -152.000
401.152;  -14.475;  220.000;   38.000
401.280;  -98.700; -430.000; -429.000
401.408; -125.875; -712.000; -576.000
401.535; -115.050; -735.000; -758.000
401.663; -191.625;-1134.000;-1054.000
401.790;  -93.100; -514.000; -525.000
401.918;   31.475;  436.000;  405.000
402.046;  -32.975;  134.000;  122.000
402.173;  -39.425;  -18.000;    7.000
402.301;  -76.850; -519.000; -397.000
402.428;   30.425;  528.000;  383.000
402.556; -142.075;-1188.000; -913.000
402.683;  -31.200;  -20.000;   -1.000
402.811;  -41.025;  -37.000; -206.000
402.938;  -18.200;   20.000;   27.000
403.066;  165.100; -574.000; -558.000
403.193;  312.650;  299.000;  239.000
403.321;  218.125; -396.000; -574.000
403.448;  273.575;   83.000;   27.000
403.575;  128.500;  -90.000;  -46.000
403.703; -105.375; -732.000; -557.000
403.830;  -70.700; -531.000; -496.000
403.957; -144.725;-1117.000;-1023.000
404.085;    1.675;  -61.000; -172.000
404.212;   89.625;  -50.000;   63.000
404.339;  259.250; -566.000; -306.000
404.467; 5964.600; -612.000; -524.000
404.594; 3886.500; -287.000; -227.000
404.721;  866.900; -869.000; -764.000
404.848;   76.225; -113.000; -202.000
404.976; -106.750; -856.000; -783.000
405.103;   -1.300;  -14.000;  -82.000
405.230;   -4.225;  190.000;  226.000
405.357;   15.725;  117.000;   44.000
405.484;  274.725;  -49.000;    5.000
405.612;   54.575; -548.000; -563.000
405.739;  -71.050; -488.000; -243.000
405.866;   83.425;  669.000;  385.000
405.993;  -51.300; -398.000; -102.000
406.120; -138.600; -801.000; -887.000
406.247;  -62.200; -323.000; -342.000
406.374;  340.125;  540.000;  629.000
406.501;   55.475; -632.000; -702.000
406.628;  -85.750; -621.000; -589.000
406.755; -105.650; -803.000; -620.000
406.882;  -51.575; -228.000; -277.000
407.009; -108.900; -719.000; -628.000
407.136;   18.200; -480.000; -401.000
407.263;   78.600; -939.000; -829.000
407.390;  -80.800; -692.000; -614.000
407.517; -184.325;-1139.000;-1187.000
407.644;  -64.750; -332.000; -256.000
407.771; -148.775; -249.000; -287.000
407.898;   -0.775;  168.000;  328.000
408.025;  -87.375; -421.000; -313.000
408.151;  -31.700;   82.000;  153.000
408.278;  -67.000; -267.000; -216.000
408.405; -119.275; -931.000; -899.000
408.532;  -66.850; -549.000; -542.000
408.659; -131.725; -677.000; -648.000
408.785; -206.200;-1298.000;-1170.000
408.912;  -75.175; -412.000; -296.000
409.039; -114.250; -610.000; -686.000
409.166; -118.300; -591.000; -555.000
409.292; -113.600; -571.000; -534.000
409.419; -129.325; -665.000; -649.000
409.546;  -89.100; -431.000; -192.000
409.672; -127.275; -713.000; -545.000
409.799;  -22.275;  -36.000;   34.000
409.926;  -35.075; -180.000; -179.000
410.052; -183.650;-1127.000;-1091.000
410.179;  -74.475; -368.000; -392.000
410.305; -102.050; -375.000; -493.000
410.432;  -65.375; -220.000; -333.000
410.558;  -92.550; -305.000; -380.000
410.685; -110.975; -688.000; -431.000
410.812; -103.200; -409.000; -588.000
410.938; -135.950; -964.000; -808.000
411.065; -111.250; -671.000; -645.000
411.191;  -18.975; -189.000; -174.000
411.317; -108.525; -823.000; -742.000
411.444;  -71.250; -317.000; -246.000
411.570;  -74.050; -339.000; -294.000
411.697; -126.900; -758.000; -752.000
411.823; -171.350; -989.000; -999.000
411.949;  -40.725;  -56.000;   17.000
412.076; -128.500; -539.000; -519.000
412.202; -135.350; -758.000; -757.000
412.329; -127.925; -798.000; -752.000
412.455; -121.300; -821.000; -657.000
412.581;  -32.875;  -15.000;  172.000
412.707;  -86.100; -540.000; -457.000
412.834;   13.350;  156.000;  219.000
412.960;  -98.625; -785.000; -784.000
413.086; -103.450; -743.000; -701.000
413.212;  118.300;  604.000;  578.000
413.339;  -68.850; -685.000; -701.000
413.465;   -9.350; -364.000; -310.000
413.591;  -92.700; -757.000; -474.000
413.717;  -58.475; -358.000; -366.000
413.843; -151.200; -839.000; -861.000
413.969;  -67.800;  -47.000; -292.000
414.096; -112.100; -679.000; -679.000
414.222;   -5.325;  -33.000;   85.000
414.348;  -23.400; -652.000; -385.000
414.474;   76.450;   38.000;  -52.000
414.600;  -32.475; -126.000; -144.000
414.726;  -15.600;  -96.000;  -55.000
414.852;  -64.975; -365.000; -342.000
414.978;   28.875;  104.000;  -18.000
415.104;   44.175;   38.000;   80.000
415.230;    8.275; -329.000; -330.000
415.356;   31.550; -409.000; -514.000
415.482;  183.100;   13.000;  -35.000
415.608;  267.675; -247.000; -323.000
415.734;  958.775;   67.000;   38.000
415.860;19971.625; -875.000; -767.000
415.986;15218.125; -685.000; -607.000
416.111; 1346.100; -798.000; -652.000
416.237;  274.675; -424.000; -571.000
416.363; 1114.025; -765.000; -733.000
416.489; 4381.300; -324.000; -251.000
416.615;  502.975; -707.000; -742.000
416.741;  -22.275; -677.000; -784.000
416.866;  -87.450; -673.000; -736.000
416.992; -131.350; -801.000; -818.000
417.118;  -38.225;  -41.000;  -80.000
417.244;  -75.575; -798.000; -531.000
417.369;  -95.325; -801.000; -612.000
417.495;  -27.575; -325.000; -254.000
417.621;  -94.500;-1015.000; -803.000
417.746;  -11.025; -579.000; -572.000
417.872;   49.350; -254.000; -144.000
417.998;   58.075; -515.000; -530.000
418.123; 1048.750;-1073.000; -845.000
418.249; 5617.050; -512.000; -601.000
418.374;  828.775; -916.000; -824.000
418.500;  109.600; -383.000; -482.000
418.626;  114.700;   70.000;  -59.000
418.751;  111.375; -549.000; -448.000
418.877;  212.300; -637.000; -643.000
419.002; 1795.575; -688.000; -560.000
419.128;13124.775; -930.000; -721.000
419.253; 3361.025; -967.000; -837.000
419.379;  438.975; -391.000; -338.000
419.504;  393.625;  325.000;  415.000
419.629;  539.325; -393.000; -212.000
419.755; 3610.650; -317.000; -254.000
419.880;22399.475;  -98.000;   67.000
420.006;11853.750; -280.000; -221.000
420.131;30637.700; -662.000; -775.000
420.256; 4541.175; -315.000; -316.000
420.382;  595.150; -665.000; -687.000
420.507;   71.825; -649.000; -778.000
420.632;  102.750; -337.000; -339.000
420.758;  189.000; -251.000; -425.000
420.883;  -82.500; -876.000; -672.000
421.008; -109.175; -775.000; -619.000
421.133;  -86.325; -509.000; -467.000
421.259;  -67.825; -325.000; -259.000
421.384; -117.525; -834.000; -693.000
421.509;  -58.325;-1052.000; -862.000
421.634;  910.575; -936.000; -820.000
421.759;  419.800; -359.000; -327.000
421.885;  -67.575; -717.000; -656.000
422.010;  -89.500; -673.000; -542.000
422.135; -155.475; -695.000; -727.000
422.260;   19.775;  340.000;  280.000
422.385;  -28.575;   12.000;  -98.000
422.510;    6.600;  151.000;  -26.000
422.635;   10.325;  -87.000;  -43.000
422.760;   77.300; -766.000; -791.000
422.885;   40.825;  -57.000;  -80.000
423.010;  -50.175; -112.000; -169.000
423.135; -104.125; -481.000; -561.000
423.260;  -35.700; -150.000; -245.000
423.385;   42.350;  476.000;  222.000
423.510;   22.325;   71.000;  -22.000
423.635;   60.000;  133.000;   45.000
423.760;   45.000;  383.000;  328.000
423.885;   52.600;  336.000;  391.000
424.010;   13.700;  -68.000;  -13.000
424.135;  -12.475;    5.000;  -33.000
424.259;  -75.125; -654.000; -457.000
424.384;  -66.075; -279.000; -272.000
424.509;  -27.500; -260.000; -186.000
424.634;  -97.975; -761.000; -623.000
424.759;  -16.600; -688.000; -544.000
424.883;   -9.400; -506.000; -527.000
425.008;  162.525; -502.000; -410.000
425.133; 2028.350; -679.000; -653.000
425.258; 1006.750; -517.000; -381.000
425.382;  908.425; -867.000; -774.000
425.507; 2396.600; -487.000; -543.000
425.632;  409.600; -802.000; -663.000
425.756;  479.025; -256.000; -146.000
425.881; 6765.850; -831.000; -857.000
426.006;19123.650; -604.000; -355.000
426.130; 3086.350; -696.000; -508.000
426.255;  410.075; -611.000; -491.000
426.379;  166.025; -189.000; -577.000
426.504;  348.575;  660.000;  544.000
426.629; 4066.200; -519.000; -466.000
426.753; 2918.175;   64.000;  -46.000
426.878;  345.750; -252.000; -288.000
427.002;  145.750; -651.000; -668.000
427.127; 1593.450;  -35.000; -158.000
427.251;11809.750;  372.000;  401.000
427.375; 3541.425; -191.000; -173.000
427.500; 2115.050; -616.000; -610.000
427.624;  727.575; -234.000; -400.000
427.749;   59.775; -216.000; -225.000
427.873;  -44.675; -499.000; -412.000
427.997;  -51.825; -222.000; -230.000
428.122;   63.625;  795.000;  703.000
428.246;   54.525;  433.000;  434.000
428.371; -140.925; -869.000; -773.000
428.495; -113.875; -624.000; -646.000
428.619;  -42.375; -186.000; -117.000
428.743;   -3.375;   65.000;  132.000
428.868;   -1.550; -732.000; -643.000
428.992; 1213.850; -219.000; -326.000
429.116;  486.200; -329.000; -357.000
429.240;  234.950;  419.000;  426.000
429.365;  -23.850; -454.000; -574.000
429.489;  -67.375; -638.000; -647.000
429.613;   20.900; -236.000; -177.000
429.737;   12.875; -563.000; -432.000
429.861;  271.750; -247.000; -133.000
429.985; 5645.475; -425.000; -305.000
430.109; 6507.650; -770.000; -908.000
430.234;  762.125;   76.000;  -50.000
430.358;   81.200; -250.000; -160.000
430.482;  -67.525; -672.000; -564.000
430.606;  -80.000; -655.000; -375.000
430.730;   -5.675; -437.000; -388.000
430.854;   55.175; -909.000; -835.000
430.978;  -93.625; -795.000; -764.000
431.102;  -93.025; -499.000; -422.000
431.226; -138.675; -874.000; -815.000
431.350;   27.075;  345.000;  422.000
431.474;  -99.475; -661.000; -373.000
431.597; -155.000;-1060.000; -848.000
431.721;  -82.650; -276.000; -267.000
431.845; -133.050; -704.000; -472.000
431.969;  -90.125; -304.000; -349.000
432.093;  -94.475; -395.000; -317.000
432.217;  -32.400;   32.000;   82.000
432.341;  -89.375; -523.000; -518.000
432.464;  -12.950;   96.000;   40.000
432.588;  145.000; -401.000; -329.000
432.712;   80.900;  -52.000;  -52.000
432.836;   46.450;  213.000;  263.000
432.959;  -15.300; -372.000; -311.000
433.083;   96.900;   11.000;    2.000
433.207;  376.700;  285.000;  930.000
433.330; 5222.550; -391.000; -200.000
433.454; 6646.750; -654.000; -638.000
433.578; 3796.475;  583.000;  278.000
433.701;  701.950; -623.000; -675.000
433.825;  115.725; -292.000; -299.000
433.949;  116.275;   28.000;  -72.000
434.072;   23.825; -410.000; -323.000
434.196;  -18.075; -309.000; -117.000
434.319; 3646.050;25482.000;25124.000
434.443;  714.900; -656.000; -603.000
434.566; 2796.850;  281.000;   62.000
434.690;  513.450; -637.000; -383.000
434.813;   49.550; -251.000; -173.000
434.937;  -75.675; -569.000; -696.000
435.060;  -58.725; -423.000; -332.000
435.184;  200.500; -492.000; -217.000
435.307;  125.375;  159.000;  102.000
435.431;  -23.200;  -40.000;   24.000
435.554;  -92.025; -399.000; -240.000
435.677;  -99.325; -350.000; -258.000
435.801;  -42.075;  -25.000;   49.000
435.924;  -16.225;    1.000;  -67.000
436.048; -127.075;-1019.000; -732.000
436.171;  -83.325; -240.000;  -66.000
436.294;  -24.950; -248.000; -229.000
436.417;   85.325; -963.000; -849.000
436.541;  -79.700; -814.000; -840.000
436.664;  -54.125; -242.000; -316.000
436.787;  -41.200;   13.000;  113.000
436.910; -123.725; -792.000; -422.000
437.034;  -17.750;  142.000;  143.000
437.157;   27.450;  -11.000;    0.000
437.280;  -58.650; -392.000; -292.000
437.403; -108.725; -982.000; -869.000
437.526;  430.575; -903.000; -865.000
437.649; 1780.700; -505.000; -332.000
437.772;  248.300; -692.000; -540.000
437.896;  110.275;  700.000;  544.000
438.019; -109.275; -758.000; -503.000
438.142;  -96.500; -596.000; -506.000
438.265;  -63.350; -639.000; -670.000
438.388;  424.675; -520.000; -410.000
438.511;   60.650; -597.000; -394.000
438.634;  -68.725; -247.000; -125.000
438.757; -137.225; -693.000; -619.000
438.880;  -24.225;  -34.000;  -57.000
439.003; -100.550; -417.000; -437.000
439.126;  -80.625; -287.000; -167.000
439.248;  -63.150;  -98.000; -139.000
439.371;  -57.400;    9.000;  -53.000
439.494;   23.350;  510.000;  439.000
439.617;  -61.100;   65.000;  -88.000
439.740; -168.150; -968.000; -816.000
439.863; -145.325; -755.000; -595.000
439.986; -128.750; -476.000; -431.000
440.108;  -67.100; -161.000; -112.000
440.231; -170.900; -950.000; -836.000
440.354;  -55.675;  -64.000; -150.000
440.477;   -4.150; -566.000; -542.000
440.599;  -34.775; -200.000; -225.000
440.722; -125.800; -709.000; -586.000
440.845;   60.275;  751.000;  928.000
440.968; -117.600; -415.000; -311.000
441.090;  -73.175; -199.000;  -33.000
441.213; -172.675;-1021.000; -825.000
441.336;  -69.200; -159.000;   -5.000
441.458;  -92.075; -549.000; -396.000
441.581;  -95.250; -628.000; -629.000
441.703;  -79.200; -152.000;   13.000
441.826; -127.425; -557.000; -400.000
441.948;  -56.850;   56.000;   51.000
442.071;   15.575;  555.000;  424.000
442.193; -127.250; -531.000; -485.000
442.316;    7.175;  152.000;   97.000
442.438;   29.275; -233.000;  -10.000
442.561;   46.600;  272.000;  262.000
442.683;  385.075; -809.000; -522.000
442.806;  954.825;   -8.000;   74.000
442.928;    6.600; -859.000; -604.000
443.051;  -76.600; -577.000; -373.000
443.173;  -96.625; -341.000; -339.000
443.295;  -91.100; -263.000; -371.000
443.418;  -82.550; -321.000;  -29.000
443.540;  -21.050; -106.000;   -4.000
443.662; -120.750; -563.000; -465.000
443.785;  -29.350;  335.000;  199.000
443.907; -100.975; -362.000; -208.000
444.029; -136.075; -767.000; -494.000
444.152; -142.925; -644.000; -554.000
444.274;  -47.700;  -18.000;  -24.000
444.396; -123.475; -461.000; -221.000
444.518; -134.575; -691.000; -454.000
444.640; -108.475; -268.000; -111.000
444.763;  -26.500;  388.000;  249.000
444.885; -120.000; -432.000; -392.000
445.007;  -49.750;   35.000;   86.000
445.129; -120.625; -610.000; -515.000
445.251; -107.225; -372.000; -439.000
445.373; -141.575; -537.000; -386.000
445.495;    4.675;  242.000;  350.000
445.617;   55.925;  853.000;  753.000
445.739;  -80.800; -215.000;  -97.000
445.861;  -41.475; -245.000; -112.000
445.984;  -50.925; -267.000; -101.000
446.105;  141.375; -418.000; -251.000
446.227;  505.800; -176.000;  -19.000
446.349;    1.275; -358.000; -249.000
446.471; -107.075; -615.000; -448.000
446.593;  -73.500; -316.000;   19.000
446.715;  -28.100;  -67.000;   41.000
446.837;   46.350;  697.000;  832.000
446.959; -107.350; -457.000; -478.000
447.081; -143.425; -628.000; -518.000
447.203;   55.075;  862.000;  834.000
447.325;  -84.150; -270.000;   42.000
447.446;  -18.300;  286.000;  530.000
447.568; -154.850; -921.000; -803.000
447.690;  -74.150; -236.000; -245.000
447.812; -150.850; -798.000; -519.000
447.933;  -44.250;  155.000;  127.000
448.055;  -68.350; -306.000; -261.000
448.177;  101.425;   31.000;   79.000
448.299;   44.875; -935.000; -727.000
448.420;    9.650;  -25.000;  159.000
448.542;  -53.175;   -3.000;   33.000
448.664;  -34.125;  109.000;  322.000
448.785;  -44.250;  265.000;   83.000
448.907; -100.150; -614.000; -353.000
449.028;  -58.925; -771.000; -471.000
449.150;   61.025;  492.000;  589.000
449.272; -169.875;-1044.000; -913.000
449.393;   16.650;  612.000;  694.000
449.515; -144.250; -634.000; -581.000
449.636;  -72.175; -264.000; -155.000
449.758;   56.100;  763.000;  622.000
449.879;  -96.900; -498.000; -396.000
450.001;  -81.025; -149.000;  -49.000
450.122;  -47.400;  -95.000;  162.000
450.244;  -41.750;   37.000;  364.000
450.365;  -91.125; -495.000; -301.000
450.486;  -26.675;   80.000;  268.000
450.608;   12.325;  393.000;  326.000
450.729;   71.925;  578.000;  645.000
450.850;   14.300; -574.000; -466.000
450.972;  777.200; -552.000; -389.000
451.093; 5152.425;  190.000;  588.000
451.214; 2391.275; -516.000; -337.000
451.336;  378.525;  773.000;  579.000
451.457;   65.125;  264.000;  393.000
451.578;  -41.900; -118.000;  -74.000
451.699; -124.325; -546.000; -540.000
451.821;  -67.850; -284.000;  -50.000
451.942;   -0.600;  278.000;  285.000
452.063;   39.750;  228.000;  419.000
452.184;  567.150;  -54.000;  -49.000
452.305; 1159.775;  103.000;  170.000
452.427;  156.825; -549.000; -301.000
452.548;  -20.025;   23.000;   79.000
452.669;  -50.225; -257.000;  -89.000
452.790;  -48.625;    3.000;  -18.000
452.911;   -8.725;  195.000;  259.000
453.032;  -71.275; -289.000;  -60.000
453.153;  -57.950;  -29.000;   81.000
453.274;   63.500;  737.000;  868.000
453.395;  -54.725;  -51.000;  175.000
453.516;  107.500; 1317.000; 1388.000
453.637;  -78.200; -205.000; -150.000
453.758;  -64.275;   15.000;   69.000
453.879; -132.750; -462.000; -250.000
454.000;   66.200; 1086.000;  948.000
454.121; -125.125; -554.000; -326.000
454.242; -124.900; -599.000; -383.000
454.362;  -72.225;  -99.000;  114.000
454.483;  -51.200; -309.000; -229.000
454.604;   51.825;  512.000;  580.000
454.725; -135.950; -627.000; -555.000
454.846; -116.975; -474.000; -406.000
454.967;  -34.900;  230.000;  539.000
455.087;  -50.150;  179.000;  153.000
455.208;   14.450;  554.000;  856.000
455.329;  -72.475;  -22.000;   82.000
455.450;   33.025;  473.000;  633.000
455.570;  -90.475; -234.000; -211.000
455.691;  -47.025;  201.000;  407.000
455.812; -111.900; -270.000;  -92.000
455.932;  -64.600;  107.000;  -97.000
456.053;  -79.225;   36.000;   24.000
456.173; -106.275; -433.000; -355.000
456.294; -134.475; -476.000; -303.000
456.415;  -72.475;  -73.000;   70.000
456.535;  -35.375;  297.000;  273.000
456.656;  -55.775;  132.000;  240.000
456.776;  -77.725;    3.000;  298.000
456.897;   -0.875;  308.000;  513.000
457.017;  -70.200; -153.000;   -3.000
457.138; -110.350; -402.000; -249.000
457.258;  -21.200;  263.000;  224.000
457.379;  -11.600;  509.000;  521.000
457.499;  -20.750;  443.000;  432.000
457.620; -124.150; -407.000; -231.000
457.740;  -90.725; -132.000;  -11.000
457.860;  -63.150;   87.000;   44.000
457.981;  -44.350;  132.000;  124.000
458.101;  -82.050;  -89.000;   40.000
458.221;  -17.900;  336.000;  402.000
458.342;  -77.025;   -4.000;  -37.000
458.462;   18.550;  617.000;  352.000
458.582;  -32.150; -302.000; -294.000
458.703;    3.125;  303.000;  154.000
458.823;  -16.900;   22.000;  163.000
458.943;   25.300;  341.000;  467.000
459.063;  -15.775; 1124.000;  192.000
459.183;  -32.625;  328.000;  313.000
459.304;   13.425;  315.000;  517.000
459.424;  -66.775; -246.000;  -89.000
459.544;  325.525;  388.000;  764.000
459.664;  889.150;  499.000;  506.000
459.784;  341.250; 1004.000; 1175.000
459.904;   61.300;  867.000;  744.000
460.024;   66.125;  867.000;  684.000
460.144;   -7.075;  449.000;  554.000
460.264;  -16.375;  515.000;  327.000
460.385;  -87.050; -145.000; -119.000
460.505;   27.625;  905.000;  858.000
460.625;  -88.425;  -17.000;  -68.000
460.745;  -29.950;  396.000;  541.000
460.864;  -57.975;  153.000;  469.000
460.984;   -2.950;  499.000;  573.000
461.104;  139.225; 1656.000; 1775.000
461.224;    7.875;  657.000;  650.000
461.344;  -39.425;  431.000;  360.000
461.464;  -34.175;  258.000;  513.000
461.584;  -17.125;  283.000;  466.000
461.704;  -63.075;   58.000;  108.000
461.824;  -66.150;  238.000;  259.000
461.943;  -60.900;  191.000;  130.000
462.063;  -80.325;    2.000;  324.000
462.183;   32.625;  639.000;  717.000
462.303;  106.000; 1678.000; 1230.000
462.422;   22.550;  781.000;  840.000
462.542;  -42.650;  271.000;  391.000
462.662;   36.850;  353.000;  380.000
462.782;  251.800;  833.000;  572.000
462.901;  486.850;  545.000;  717.000
463.021;  277.800; 1702.000; 1638.000
463.141;  -13.925;  337.000;  770.000
463.260;  -15.625;  614.000;  474.000
463.380;    2.175;  902.000;  884.000
463.499;  -42.725;  342.000;  332.000
463.619;  -34.400;  581.000;  559.000
463.738;  124.250; 1644.000;  903.000
463.858;    0.475;  657.000;  811.000
463.978;  -34.750;  542.000;  396.000
464.097;   33.225;  921.000; 1114.000
464.217;  120.875; 1196.000; 1143.000
464.336;  111.675; 1068.000; 1130.000
464.455;  -32.800;  328.000;  659.000
464.575;   17.250;  597.000;  602.000
464.694;  157.475; 1204.000; 1179.000
464.814;  124.750; 1190.000; 1138.000
464.933;   63.175; 1095.000; 1027.000
465.052;  100.950; 1412.000; 1054.000
465.172;   56.000;  922.000;  799.000
465.291;  139.525; 1376.000; 1320.000
465.410;    2.825;  462.000;  735.000
465.530;   69.425; 1355.000; 1310.000
465.649;   53.875; 1209.000; 1273.000
465.768;  128.400; 1673.000; 1508.000
465.888;   57.200;  941.000; 1174.000
466.007;   90.950; 1335.000; 1440.000
466.126;   -2.275;  721.000;  641.000
466.245;   41.550; 1176.000; 1187.000
466.364;   16.700;  950.000; 1060.000
466.484;   67.275; 1024.000; 1213.000
466.603;   31.475; 1101.000; 1222.000
466.722;   98.950; 1490.000; 1769.000
466.841;   78.675; 1151.000; 1401.000
466.960;   26.850; 1069.000;  972.000
467.079;  128.600; 1971.000; 1786.000
467.198;   40.800; 1238.000; 1181.000
467.317;   83.225; 1768.000; 1162.000
467.436;   69.575; 1709.000; 1261.000
467.555;  116.800; 1796.000; 1746.000
467.674;   56.000; 1227.000; 1329.000
467.793;   43.525; 1376.000; 1374.000
467.912;   98.675; 1658.000; 1539.000
468.031;  139.100; 2038.000; 1930.000
468.150;  132.300; 1842.000; 1837.000
468.269;  197.225; 2313.000; 2090.000
468.388;  175.750; 2168.000; 2339.000
468.507;  261.650; 2884.000; 2903.000
468.626;  265.450; 2555.000; 2541.000
468.744;  144.250; 2018.000; 2174.000
468.863;  196.825; 2312.000; 2523.000
468.982;   79.975; 1503.000; 1555.000
469.101;  211.425; 2788.000; 2692.000
469.220;  165.850; 2333.000; 2176.000
469.338;  254.425; 2935.000; 3051.000
469.457;  203.775; 2719.000; 2545.000
469.576;  343.350; 3953.000; 3784.000
469.695;  242.525; 2877.000; 3066.000
469.813;  405.700; 4148.000; 4192.000
469.932;  410.550; 4255.000; 4485.000
470.051;  415.700; 4075.000; 4161.000
470.169;  852.625; 4470.000; 4338.000
470.288; 1502.350; 4700.000; 4809.000
470.406;  904.375; 5059.000; 5194.000
470.525;  634.950; 6101.000; 5787.000
470.644;  655.575; 6847.000; 6794.000
470.762;  816.000; 8397.000; 7873.000
470.881;  878.475; 8651.000; 8464.000
470.999; 1027.475; 9685.000; 9151.000
471.118; 1111.725;11174.000;10711.000

