
Integration time [ms]: 100.000
Averaging Nr. [scans]: 40
Smoothing Nr. [pixels]: 0
Data measured with spectrometer [name]: 2101012U2
Wave   ;Sample   ;Dark     ;Reference
[nm]   ;[counts] ;[counts] ;[counts] 

197.733;   53.725;  516.000;  404.000
197.879;  -70.925; -610.000; -634.000
198.025;  -36.600; -475.000; -420.000
198.171;  -77.875; -602.000; -612.000
198.317;  -17.700; -401.000; -316.000
198.463;  -65.450; -655.000; -404.000
198.609;   33.425;  181.000; -137.000
198.755;  -73.100; -644.000; -410.000
198.901;  -66.625; -505.000; -424.000
199.047;  -52.375; -615.000; -488.000
199.193;  -50.475; -230.000; -468.000
199.339;  -38.200; -222.000; -369.000
199.485;   48.650;  330.000;  271.000
199.631;   19.625;  227.000;  310.000
199.777;  -51.700; -466.000; -398.000
199.923;  -58.875; -610.000; -424.000
200.069;    2.500; -141.000;  -58.000
200.215;   65.900;  128.000;  453.000
200.361;   35.825;  243.000;  477.000
200.507;  -50.350; -600.000; -373.000
200.653;  -17.425; -371.000; -194.000
200.798;  -31.800; -215.000; -125.000
200.944;   -3.125; -146.000;  -41.000
201.090;   37.950;   61.000;  222.000
201.236;   -1.100; -116.000; -158.000
201.382;  108.450;  874.000;  903.000
201.528;   -8.425;  -58.000;  -48.000
201.674;  -55.100; -386.000; -293.000
201.819;  -63.950; -540.000; -439.000
201.965;  -75.400; -699.000; -447.000
202.111;  -21.125; -273.000; -226.000
202.257;  -36.500; -250.000; -238.000
202.402;    9.725;   13.000;  -36.000
202.548;  -31.825; -169.000; -116.000
202.694;   86.975;  410.000; -183.000
202.840;  -75.900; -603.000; -531.000
202.985;  -65.500; -681.000; -639.000
203.131;  -98.725; -832.000; -666.000
203.277;  -28.375; -199.000; -262.000
203.423;  -54.100; -434.000; -520.000
203.568;  -37.550; -462.000; -237.000
203.714;  -52.350; -535.000; -542.000
203.860;  -70.975; -682.000; -641.000
204.005;   14.675;  112.000;  167.000
204.151;   75.525;  561.000;  556.000
204.296;  -38.375; -354.000; -221.000
204.442;  -65.900; -600.000; -547.000
204.588;  -85.025; -592.000; -579.000
204.733;   18.025;  178.000;  168.000
204.879; -120.750;-1018.000; -822.000
205.025;   10.450;  -99.000;  126.000
205.170;  -14.775;  -17.000;   94.000
205.316;   73.175;  438.000;  661.000
205.461;  -82.550; -698.000; -554.000
205.607;   81.275;  609.000;  665.000
205.752;  -73.050; -626.000; -551.000
205.898;  -47.375; -501.000; -391.000
206.043;  -58.475; -578.000; -506.000
206.189;  -60.575; -243.000; -285.000
206.334;   72.700;  554.000;  606.000
206.480;   87.075;  409.000;  239.000
206.625;  -83.950; -529.000; -552.000
206.771;  -38.625; -451.000; -373.000
206.916;  -40.825; -210.000; -537.000
207.062;  -65.875; -545.000; -591.000
207.207;  -65.325; -546.000; -443.000
207.353;   54.025;  185.000;  460.000
207.498;   18.300;  196.000;   85.000
207.643;  -66.225; -501.000; -370.000
207.789; -131.700;-1069.000; -910.000
207.934;  -81.750; -665.000; -713.000
208.080;  -24.500; -154.000;   66.000
208.225;   -1.175;  -22.000;  -57.000
208.370;  -89.300; -727.000; -619.000
208.516;  -82.275; -741.000; -487.000
208.661;  -25.700; -127.000;  -69.000
208.806;  -14.150; -165.000; -171.000
208.952; -104.875;-1044.000; -731.000
209.097;   69.225;  378.000;  349.000
209.242;  -51.950; -307.000; -382.000
209.387;   70.875;  392.000;  350.000
209.533;  -53.275; -321.000; -350.000
209.678;   85.350;  472.000;  543.000
209.823;  -50.025; -408.000; -310.000
209.969;  -80.725; -860.000; -757.000
210.114; -103.750; -907.000; -719.000
210.259; -103.475; -939.000; -889.000
210.404;   -9.850; -171.000;  103.000
210.549;    2.950;  108.000;    3.000
210.695;  -11.275;   -3.000;  -95.000
210.840;   28.800;   94.000;   67.000
210.985;  -65.675; -484.000; -303.000
211.130;   73.750;  268.000;  406.000
211.275;    7.725;  207.000;  199.000
211.420;  -45.275; -300.000; -289.000
211.566;  -66.500; -536.000; -489.000
211.711;   31.125;  218.000;  157.000
211.856;  -62.025; -545.000; -519.000
212.001;    8.550;  151.000;   44.000
212.146;   30.300;  153.000;   49.000
212.291;  -27.925; -210.000; -186.000
212.436;  -25.950; -280.000;   -6.000
212.581;  -85.350; -685.000; -653.000
212.726;  -67.850; -487.000; -538.000
212.871;  -53.950; -552.000; -217.000
213.016; -150.400;-1172.000;-1029.000
213.161;   68.500;  406.000;  291.000
213.306;  -73.400; -435.000; -577.000
213.451;  -89.250; -778.000; -689.000
213.596;  -62.725; -455.000; -347.000
213.741;  -48.300; -448.000; -538.000
213.886;  -70.050; -498.000; -517.000
214.031;  -15.750; -294.000; -124.000
214.176;  -46.225; -408.000; -341.000
214.321;  -19.675; -296.000; -157.000
214.466;  -23.125; -163.000;  -43.000
214.611;  -13.000;  -61.000;  -10.000
214.756; -107.400; -948.000; -858.000
214.901;  -22.100; -388.000; -226.000
215.046; -123.550; -797.000; -825.000
215.191;   16.850;  128.000;   35.000
215.336;  -23.125; -157.000;  -19.000
215.480;  -70.750; -684.000; -505.000
215.625;  -15.550; -175.000;  -19.000
215.770;  -79.450; -757.000; -662.000
215.915;   -2.375;   -5.000;  -97.000
216.060;    0.300; -113.000;  -21.000
216.205; -104.250; -731.000; -779.000
216.349;  -67.350; -470.000; -533.000
216.494; -141.350; -939.000; -867.000
216.639; -108.400; -823.000; -888.000
216.784;  -76.775; -577.000; -525.000
216.929;   44.100;  392.000;  281.000
217.073;    3.100; -244.000;  -31.000
217.218;    3.725;   78.000;  -47.000
217.363;  -74.025; -656.000; -618.000
217.507;  -61.675; -623.000; -588.000
217.652; -106.675; -845.000; -874.000
217.797;  -75.225; -708.000; -659.000
217.942;  -97.925; -856.000; -720.000
218.086;   71.225;  608.000;  539.000
218.231;  -28.000; -174.000;  -26.000
218.376;  -34.550; -337.000; -229.000
218.520;   -2.925;  -41.000;   96.000
218.665;  -30.750; -338.000; -204.000
218.810;  -52.650; -275.000; -233.000
218.954;   10.425;  201.000;   35.000
219.099; -108.225; -713.000; -963.000
219.243;  -58.800; -589.000; -554.000
219.388;  -33.450; -264.000; -136.000
219.532;  -25.625; -116.000; -116.000
219.677;  -80.400; -564.000; -521.000
219.822;    0.400;   33.000;   89.000
219.966;    3.075;   17.000;  -99.000
220.111;  -29.600; -328.000;  -40.000
220.255;  -91.700; -797.000; -750.000
220.400;   -9.550; -180.000; -146.000
220.544;  -73.675; -516.000; -450.000
220.689;  -41.525; -422.000; -451.000
220.833;  -24.450; -123.000;  -58.000
220.978;  -30.600; -393.000; -563.000
221.122;   25.450;  319.000;  307.000
221.267; -109.750; -906.000; -837.000
221.411;  -63.225; -478.000; -394.000
221.555;   -9.875; -104.000;  -23.000
221.700;  -48.800; -329.000; -222.000
221.844;   40.250;  255.000;  272.000
221.989;  -50.150; -328.000; -311.000
222.133;  -36.750; -289.000; -307.000
222.277;    0.225;    5.000;   78.000
222.422;   15.400;  227.000;  113.000
222.566;  -34.225; -381.000; -214.000
222.711;  -53.650; -414.000; -479.000
222.855;  -77.600; -643.000; -586.000
222.999;  -74.750; -642.000; -717.000
223.144;  -33.600; -195.000; -194.000
223.288;   43.850;  423.000;  251.000
223.432;   15.250;  184.000;  230.000
223.576;   12.625;  152.000;  -21.000
223.721;   34.425;  364.000;  273.000
223.865;  -45.025; -472.000; -475.000
224.009;  229.200; 1673.000; 1631.000
224.153;  -82.025; -660.000; -671.000
224.298;  -75.825; -531.000; -489.000
224.442;  -13.250;  -74.000;  -33.000
224.586;  -22.875; -169.000; -106.000
224.730;  -99.775; -858.000; -670.000
224.875;  -98.500; -739.000; -688.000
225.019;   10.725;  102.000;  188.000
225.163;   38.275;  208.000;  341.000
225.307;    4.950;   97.000;  -91.000
225.451;   33.575;  360.000;  481.000
225.595;   23.350;  264.000;  176.000
225.739;  -18.375; -170.000;  -94.000
225.884;    0.675;   86.000;    5.000
226.028;  -95.900; -760.000; -626.000
226.172;  -29.475; -260.000; -273.000
226.316; -118.850; -941.000; -902.000
226.460;  -66.850; -645.000; -493.000
226.604;  -42.600; -406.000; -400.000
226.748;  -99.475; -836.000; -733.000
226.892;  -19.775; -227.000; -181.000
227.036;  -51.825; -537.000; -447.000
227.180;  -61.275; -551.000; -375.000
227.324;  -62.700; -561.000; -580.000
227.468; -116.250; -819.000; -717.000
227.612;   16.850;  242.000;  -28.000
227.756;  -85.600; -845.000; -698.000
227.900;   49.150;  342.000;  441.000
228.044;  -49.500; -509.000; -290.000
228.188;   37.800;  448.000;  568.000
228.332;  -86.900; -546.000; -472.000
228.476;  -35.900; -223.000; -149.000
228.620;  -24.800; -210.000; -150.000
228.764;   69.525;  431.000;  349.000
228.908;   -8.375; -155.000;   30.000
229.052;  -61.150; -615.000; -528.000
229.195;  -10.800; -172.000;   13.000
229.339;  -31.750; -235.000; -305.000
229.483;  -24.825;    5.000; -162.000
229.627;   -6.700; -156.000;  139.000
229.771;  -56.475; -218.000; -294.000
229.915;   24.225;  230.000;   79.000
230.059;  -86.525; -648.000; -663.000
230.202;  -38.675; -370.000; -317.000
230.346;   -6.250; -107.000;  107.000
230.490;  -78.175; -489.000; -521.000
230.634; -107.325; -736.000; -553.000
230.777;   69.125;  478.000;  509.000
230.921;  -54.500; -450.000; -359.000
231.065;  -46.350; -246.000; -286.000
231.209;   17.300;  261.000;  265.000
231.352;   12.600;   54.000;   40.000
231.496;   10.300;  568.000;  188.000
231.640;  -74.250; -693.000; -621.000
231.783;   51.750;  546.000;  525.000
231.927;  -42.625; -294.000; -365.000
232.071; -124.825; -962.000; -736.000
232.214; -104.100; -980.000; -764.000
232.358; -102.475; -683.000; -599.000
232.502;   -8.675;  -19.000;    7.000
232.645; -126.975;-1090.000; -927.000
232.789;  -18.650; -257.000; -218.000
232.933;  -42.825; -407.000; -224.000
233.076; -128.650;-1038.000; -897.000
233.220; -100.475; -752.000; -777.000
233.363;  -72.050; -669.000; -477.000
233.507;   52.925;  371.000;  129.000
233.650;  -85.450; -764.000; -834.000
233.794;   52.350;  438.000;  461.000
233.938;  -53.525; -530.000; -362.000
234.081;  -30.925;  -93.000;   31.000
234.225;  -57.625; -631.000; -539.000
234.368; -106.225; -773.000; -723.000
234.512;  -43.300; -385.000; -299.000
234.655;  -80.700; -582.000; -555.000
234.798;  -69.450; -493.000; -466.000
234.942; -119.100; -884.000;-1002.000
235.085;  -69.725; -651.000; -443.000
235.229;  -69.375; -405.000; -410.000
235.372;  -46.100; -247.000; -191.000
235.516;  -62.100; -397.000; -321.000
235.659;   12.300;   92.000;  121.000
235.802;   -0.775;  -38.000;  -22.000
235.946;   26.975;  335.000;  215.000
236.089;   24.900;  126.000;  250.000
236.233;   56.225;  275.000;  298.000
236.376;  -50.975; -235.000; -378.000
236.519;  -37.525; -297.000; -319.000
236.663;  -21.125; -215.000; -117.000
236.806; -135.725;-1029.000; -999.000
236.949;   39.350;  543.000;  431.000
237.092;   58.700;  412.000;  391.000
237.236;  -80.875; -589.000; -502.000
237.379;   71.075;  352.000;  428.000
237.522; -116.700; -879.000; -768.000
237.666;  -17.475; -271.000;   18.000
237.809; -110.975; -851.000; -823.000
237.952;   29.375;  469.000;  271.000
238.095;  -64.000; -447.000; -442.000
238.238;   76.825;  688.000;  700.000
238.382;   -0.725;  166.000;  103.000
238.525;  -76.000; -598.000; -511.000
238.668; -129.375;-1060.000; -985.000
238.811;  -77.025; -638.000; -643.000
238.954;  -65.925; -483.000; -334.000
239.097;   79.875;  617.000;  664.000
239.241;   27.950;  394.000;  326.000
239.384;  -31.650; -254.000; -214.000
239.527;  -57.000; -424.000; -224.000
239.670; -136.375; -994.000;-1091.000
239.813; -102.100; -696.000; -658.000
239.956;   64.450;  579.000;  473.000
240.099; -102.075; -778.000; -725.000
240.242;   58.125;  428.000;  432.000
240.385;   44.900;  466.000;  450.000
240.528;  -62.375; -706.000; -473.000
240.671;   16.300;  189.000;  134.000
240.814;  -32.350; -441.000; -158.000
240.957; -103.750; -767.000; -578.000
241.100;  -86.025; -779.000; -755.000
241.243; -140.075;-1234.000; -893.000
241.386;  -62.600; -508.000; -379.000
241.529;  -89.000; -735.000; -547.000
241.672;  -64.150; -566.000; -495.000
241.815; -112.200; -832.000; -808.000
241.958;  -12.750; -125.000; -182.000
242.101;  -75.725; -545.000; -390.000
242.244;  -27.700; -270.000; -325.000
242.387;  -41.075; -304.000; -246.000
242.530;   50.075;  470.000;  134.000
242.673;  -37.675; -381.000; -309.000
242.815; -114.175; -925.000; -899.000
242.958;  -69.950; -482.000; -381.000
243.101;   10.700;  132.000;  187.000
243.244;  -86.650; -564.000; -521.000
243.387;  -49.225; -313.000; -316.000
243.530; -104.200; -657.000; -674.000
243.672;   -1.450;   43.000;  -92.000
243.815;  -47.525; -355.000; -283.000
243.958;  -17.400;   98.000;  -26.000
244.101;   -3.875;   59.000;  -16.000
244.243;   -9.925;  -47.000;  101.000
244.386;  -98.875; -761.000; -630.000
244.529;  -37.950; -132.000; -139.000
244.672; -138.125;-1154.000; -951.000
244.814;  -97.375; -621.000; -794.000
244.957;  -36.950; -380.000; -304.000
245.100;  -55.400; -489.000; -489.000
245.242;  -56.825; -387.000; -374.000
245.385;  -20.700;  -59.000;  -39.000
245.528; -119.975; -871.000; -705.000
245.670;   86.850;  612.000;  634.000
245.813;  -84.475; -599.000; -547.000
245.956;  -29.250; -324.000; -275.000
246.098;  -57.675; -508.000; -650.000
246.241;    5.875;  194.000;   48.000
246.383;  -17.025; -119.000;  -73.000
246.526;  -67.725; -454.000; -525.000
246.669; -122.000; -889.000; -780.000
246.811;   13.750;  172.000;   -1.000
246.954;  -54.500; -512.000; -426.000
247.096;  -18.650;  -84.000;   -6.000
247.239;  -63.475; -482.000; -445.000
247.381;  -73.200; -647.000; -488.000
247.524;   73.675;  645.000;  679.000
247.666;  -14.325;   58.000;   11.000
247.809; -108.300; -887.000; -691.000
247.951;    8.800;  -75.000;  138.000
248.094;   18.700;  432.000;  308.000
248.236; -145.625;-1262.000;-1238.000
248.378;   -5.900; -356.000;  -81.000
248.521;  -28.800; -334.000; -337.000
248.663;  -32.775; -236.000; -267.000
248.806;  -32.375; -300.000; -266.000
248.948; -114.025; -886.000; -763.000
249.090;  -54.875; -428.000; -398.000
249.233;  -57.775; -344.000; -381.000
249.375;  -57.950; -474.000; -451.000
249.518;  -31.325;  -83.000; -133.000
249.660;   -1.350; -103.000;    3.000
249.802; -160.075;-1303.000;-1189.000
249.945;  -73.325; -612.000; -540.000
250.087; -109.475; -834.000; -768.000
250.229;  -59.450; -362.000; -480.000
250.371;  -76.175; -494.000; -439.000
250.514;  -38.900; -310.000; -244.000
250.656;  -14.875;   69.000;  102.000
250.798; -124.850; -849.000; -800.000
250.940;  -60.050; -322.000; -322.000
251.083;  -31.925; -335.000; -111.000
251.225;   32.225;  338.000;  310.000
251.367;  -46.625; -274.000; -373.000
251.509;  -28.250; -265.000; -210.000
251.651; -101.150; -731.000; -671.000
251.794;   57.900;  538.000;  632.000
251.936; -110.575; -821.000; -747.000
252.078;  -79.575; -540.000; -461.000
252.220;  -71.250; -645.000; -477.000
252.362;   46.650;  344.000;  462.000
252.504;  -77.675; -677.000; -584.000
252.646; -115.000; -875.000; -722.000
252.788;  -16.575;   14.000; -128.000
252.931;  -54.475; -257.000; -253.000
253.073;  -44.700; -376.000; -317.000
253.215;  -15.925;  141.000;  122.000
253.357;  -10.275;   82.000; -153.000
253.499;  -53.600; -374.000; -234.000
253.641;  -82.625; -749.000; -594.000
253.783;  -95.325; -609.000; -527.000
253.925;  -90.225; -586.000; -591.000
254.067; -100.550; -744.000; -667.000
254.209;  -29.150; -391.000; -259.000
254.351; -133.025; -865.000; -883.000
254.493;  -74.625; -441.000; -417.000
254.635; -127.925; -936.000; -818.000
254.777;  -92.025; -752.000; -687.000
254.918;  -53.325; -512.000; -430.000
255.060;  -60.475; -551.000; -395.000
255.202;  -65.975; -473.000; -261.000
255.344;  -81.000; -658.000; -455.000
255.486;  -72.725; -471.000; -406.000
255.628;  -98.000; -780.000; -781.000
255.770;  -95.550; -676.000; -536.000
255.912;  -57.475; -559.000; -468.000
256.053;  -94.250; -730.000; -508.000
256.195;  128.600; 1008.000;  903.000
256.337; -103.850; -861.000; -595.000
256.479;   55.550;  532.000;  416.000
256.621;  -52.100; -394.000; -212.000
256.762; -104.000; -789.000; -742.000
256.904;   41.950;  485.000;  487.000
257.046;  -40.325; -381.000; -271.000
257.188;  -53.925; -351.000; -264.000
257.329;  -85.275; -525.000; -464.000
257.471; -121.350; -939.000; -807.000
257.613;  -72.925; -584.000; -498.000
257.755; -152.675;-1073.000; -982.000
257.896;   24.850;  286.000;  392.000
258.038;  -72.450; -403.000; -352.000
258.180;  -45.350; -354.000; -279.000
258.321;  -90.600; -581.000; -457.000
258.463;    0.475;  -71.000;  133.000
258.605;  -97.000; -562.000; -570.000
258.746;  -98.025; -886.000; -772.000
258.888; -146.650;-1026.000;-1020.000
259.029;   16.950;  121.000;   -8.000
259.171;  -80.000; -614.000; -550.000
259.313;  -13.450;  -49.000;  -47.000
259.454;  -74.825; -536.000; -414.000
259.596;  -47.900; -483.000; -390.000
259.737;  -82.750; -590.000; -474.000
259.879;   23.550;  217.000;  311.000
260.020;   63.350;  901.000;  636.000
260.162;  -30.775; -146.000; -253.000
260.303; -112.225; -768.000; -687.000
260.445;  -72.475; -609.000; -613.000
260.586;   23.925;  392.000;  157.000
260.728;  -47.150; -360.000; -248.000
260.869;  -76.650; -350.000; -343.000
261.011;   78.850;  706.000;  537.000
261.152;  -70.625; -479.000; -319.000
261.293;  -74.775; -576.000; -595.000
261.435;  -36.400; -219.000; -184.000
261.576;  -46.425; -455.000; -325.000
261.718;   48.800;  420.000;  470.000
261.859; -128.775; -940.000; -949.000
262.000; -125.425; -951.000;-1016.000
262.142;  -34.800;  -52.000;  -60.000
262.283; -123.025; -808.000; -691.000
262.424;  -83.100; -666.000; -625.000
262.566; -159.275;-1161.000; -983.000
262.707; -101.500; -840.000; -830.000
262.848; -118.850; -769.000; -726.000
262.990;  -58.975; -362.000; -345.000
263.131;   70.400;  650.000;  681.000
263.272;    3.925;  -61.000;  -41.000
263.413;  -95.775; -589.000; -561.000
263.555;  -69.675; -669.000; -143.000
263.696;  -99.150; -550.000; -641.000
263.837;  -71.075; -449.000; -551.000
263.978;  -13.425;   -5.000;  -77.000
264.119;  -45.025; -283.000; -264.000
264.261; -109.775; -847.000; -630.000
264.402;   -1.225;   33.000;   40.000
264.543;  -74.350; -509.000; -524.000
264.684;  -11.800;   61.000;  -50.000
264.825;  -81.725; -816.000; -538.000
264.966;   -6.325;  -84.000;  -67.000
265.107; -104.100; -646.000; -670.000
265.248; -108.050; -825.000; -812.000
265.390;    6.000;  152.000;   -9.000
265.531;  -18.075; -238.000; -107.000
265.672;  -74.025; -557.000; -630.000
265.813;   56.175;  563.000;  439.000
265.954; -154.850; -959.000; -940.000
266.095;  -30.500; -372.000; -322.000
266.236;  -90.950; -686.000; -548.000
266.377;  -43.475; -243.000; -297.000
266.518;  -75.000; -619.000; -547.000
266.659;   30.625;  170.000;  268.000
266.800;   -3.625;   83.000;   85.000
266.941;  -64.950; -487.000; -478.000
267.082;   11.750;  354.000;   99.000
267.223;  -42.275; -344.000; -273.000
267.364; -126.300; -892.000; -686.000
267.504;  -22.550;    3.000;  135.000
267.645;   -3.375;  160.000;   67.000
267.786;  -34.525; -147.000;  -86.000
267.927;  -77.250; -473.000; -379.000
268.068;  -31.725; -186.000;  -61.000
268.209;  -67.150; -175.000; -413.000
268.350;  -65.575; -388.000; -532.000
268.490;  -85.675; -648.000; -521.000
268.631;   29.425;  127.000;  225.000
268.772; -107.825; -874.000; -647.000
268.913;  -61.225; -328.000; -476.000
269.054;  -30.175; -117.000;   12.000
269.194;  -51.075; -418.000; -402.000
269.335; -143.725;-1137.000;-1074.000
269.476;  -18.725;   33.000;  -35.000
269.617;  -60.600; -347.000; -392.000
269.757;  -80.275; -713.000; -646.000
269.898; -116.450; -856.000; -613.000
270.039;  -61.350; -415.000; -405.000
270.180; -141.675; -952.000; -816.000
270.320;  -28.950; -190.000; -250.000
270.461;  -58.150; -277.000; -249.000
270.602;  -17.200; -186.000; -156.000
270.742; -133.150; -868.000; -943.000
270.883;  -49.375; -442.000; -390.000
271.023;  -64.250; -358.000; -357.000
271.164;  -73.750; -607.000; -528.000
271.305; -103.875; -666.000; -654.000
271.445;  -92.525; -722.000; -683.000
271.586;  -66.850; -462.000; -283.000
271.726;  -48.575; -397.000; -322.000
271.867;  -77.900; -594.000; -534.000
272.008;   52.200; -473.000; -285.000
272.148;   73.400;  462.000;  468.000
272.289;   -7.250; -113.000; -181.000
272.429;  -14.350;   19.000;  185.000
272.570;  -99.850; -633.000; -737.000
272.710; -100.325; -825.000; -775.000
272.851;  -26.750;  113.000; -130.000
272.991; -164.475;-1173.000;-1077.000
273.131;  -75.000; -419.000; -459.000
273.272;  -99.150; -683.000; -723.000
273.412;  -14.250; -143.000;  -31.000
273.553;  -76.300; -488.000; -507.000
273.693;  111.175;  913.000;  858.000
273.834; -118.350; -894.000; -692.000
273.974;  -82.625; -664.000; -615.000
274.114; -106.900; -772.000; -560.000
274.255;   42.850;  414.000;  373.000
274.395;  -41.700; -180.000; -125.000
274.535;   19.675;  199.000;  350.000
274.676;    7.050;  225.000;   94.000
274.816;    0.000;  110.000;   34.000
274.956;  -86.725; -624.000; -690.000
275.097;  -98.550;-1014.000; -922.000
275.237; -114.875; -913.000; -803.000
275.377; -103.050; -778.000; -689.000
275.517; -157.250; -878.000; -937.000
275.658;  -73.800; -590.000; -555.000
275.798;  -81.275; -606.000; -413.000
275.938;    9.150;  215.000;  323.000
276.078;  -91.925; -626.000; -395.000
276.218;    4.225;   99.000;  104.000
276.359; -137.800;-1026.000;-1024.000
276.499;  -72.675; -605.000; -446.000
276.639;  -37.000; -305.000; -151.000
276.779;  -49.325; -475.000; -357.000
276.919; -107.650; -783.000; -624.000
277.059;  -19.075; -261.000; -212.000
277.199;  -48.925; -357.000; -259.000
277.340;   23.550;  287.000;  175.000
277.480; -109.925; -840.000; -693.000
277.620;   10.375;  192.000;   16.000
277.760; -200.900;-1533.000;-1294.000
277.900;    4.900;  113.000;   33.000
278.040;   -1.900;  137.000;  159.000
278.180;   18.650;  270.000;  170.000
278.320;  -16.825;   21.000;   56.000
278.460;  -73.625; -443.000; -469.000
278.600;  -82.900; -708.000; -598.000
278.740;   35.925;  448.000;  224.000
278.880; -114.675; -768.000; -791.000
279.020;  -23.550; -194.000; -144.000
279.160; -103.375; -672.000; -595.000
279.300; -114.350; -926.000; -873.000
279.440;  -94.150; -709.000; -622.000
279.579;  -79.150;-1014.000; -929.000
279.719;  -55.175; -410.000; -394.000
279.859;   28.125;   -4.000;   41.000
279.999;  -10.425; -208.000;  101.000
280.139;  -38.525; -435.000; -387.000
280.279; -101.650; -708.000; -745.000
280.419;  -11.350; -229.000; -147.000
280.559;  -52.450; -259.000; -180.000
280.698; -110.050; -790.000; -639.000
280.838; -119.500; -778.000; -800.000
280.978; -111.325; -846.000; -790.000
281.118; -123.775; -811.000; -704.000
281.257;   -7.150;   24.000;    6.000
281.397; -148.125;-1094.000; -960.000
281.537; -101.425; -599.000; -712.000
281.677;  -31.600; -150.000; -101.000
281.816;  -88.850; -700.000; -630.000
281.956;  -35.200; -193.000; -257.000
282.096;  -64.200; -539.000; -396.000
282.235; -114.700; -672.000; -638.000
282.375;  -33.575; -243.000;  -98.000
282.515; -111.300; -715.000; -707.000
282.654;    8.775;   29.000;  106.000
282.794;   19.325;  388.000;  244.000
282.934;  -53.125; -530.000; -491.000
283.073; -137.625;-1030.000; -857.000
283.213;  -50.600; -460.000; -467.000
283.353;  -56.975; -408.000; -349.000
283.492;  -27.925; -264.000; -296.000
283.632;  -56.575; -254.000; -168.000
283.771; -103.450; -859.000; -730.000
283.911;  -59.950; -369.000; -260.000
284.050; -104.525; -794.000; -748.000
284.190; -148.275;-1229.000;-1096.000
284.329; -148.050;-1055.000; -964.000
284.469;  -96.000; -516.000; -591.000
284.608;  -69.950; -559.000; -598.000
284.748;  -76.300; -614.000; -570.000
284.887;  -13.925;  -87.000;  -20.000
285.027; -116.175; -844.000; -892.000
285.166;  -47.650; -192.000; -249.000
285.306;  -40.100; -116.000;  -33.000
285.445;  -32.125; -229.000; -343.000
285.584;  -88.100; -630.000; -494.000
285.724;  -43.125; -282.000; -322.000
285.863; -105.500; -857.000; -507.000
286.002;  -53.625; -366.000; -276.000
286.142; -114.650; -715.000; -622.000
286.281;  -74.525; -525.000; -493.000
286.420;  -91.650; -554.000; -417.000
286.560;   90.400;  653.000;  623.000
286.699; -132.875; -958.000; -912.000
286.838;  -90.825; -590.000; -591.000
286.978;  -93.275; -533.000; -537.000
287.117; -138.950;-1085.000; -950.000
287.256;  -38.225; -228.000; -211.000
287.395;  -63.000; -197.000; -378.000
287.535;  -56.075; -370.000; -298.000
287.674;  -77.675; -509.000; -484.000
287.813;   46.250;  661.000;  533.000
287.952; -128.975;-1010.000; -871.000
288.091; -152.975;-1049.000; -915.000
288.231;    2.600;   13.000;   15.000
288.370; -173.825;-1217.000;-1200.000
288.509;  -93.500; -728.000; -645.000
288.648;  -89.600; -770.000; -548.000
288.787;  -37.775; -243.000;  -87.000
288.926;  -69.025; -454.000; -475.000
289.065;   96.125;  859.000;  672.000
289.204;  -48.375; -377.000; -217.000
289.344; -105.025; -791.000; -690.000
289.483;    5.825;  416.000;  304.000
289.622;  -32.950; -291.000; -149.000
289.761;  -17.150; -309.000; -166.000
289.900; -109.275; -785.000; -626.000
290.039;  -25.225;  -12.000;  -95.000
290.178;  -35.975; -274.000; -180.000
290.317;  -88.750; -618.000; -479.000
290.456;  -64.525; -463.000; -451.000
290.595; -118.175; -961.000; -833.000
290.734; -142.050; -904.000; -891.000
290.873;  -63.700; -456.000; -420.000
291.011; -108.100; -833.000; -843.000
291.150; -103.450; -770.000; -682.000
291.289;  -25.900; -343.000; -110.000
291.428; -103.350; -599.000; -480.000
291.567;  -54.125; -370.000; -442.000
291.706;  -11.100;  109.000;  154.000
291.845;  -98.050; -597.000; -505.000
291.984; -153.925;-1234.000;-1061.000
292.122;   55.825;  602.000;  582.000
292.261;   42.250;  620.000;  463.000
292.400;   -5.850; -144.000;  211.000
292.539; -132.700; -959.000; -813.000
292.678;  -48.225; -325.000; -300.000
292.816; -154.325;-1136.000; -965.000
292.955; -108.600; -844.000; -684.000
293.094;  -41.725; -173.000; -337.000
293.233;  -67.575; -556.000; -400.000
293.371;  -55.325; -225.000;  -84.000
293.510; -103.350; -866.000; -780.000
293.649; -140.400; -959.000; -924.000
293.787; -123.150;-1083.000;-1012.000
293.926;  -14.025; -113.000;  -32.000
294.065;  -46.375; -379.000; -290.000
294.203;   25.400;  298.000;  406.000
294.342;   31.350;   74.000;  156.000
294.481; 5972.550;51180.000; -836.000
294.619;  -41.825; -425.000; -582.000
294.758; -145.100;-1230.000;-1137.000
294.896;    0.300; -125.000;    5.000
295.035; -136.000;-1040.000;-1006.000
295.174; -133.075;-1082.000; -954.000
295.312;  -52.000; -323.000; -203.000
295.451;  -53.075; -307.000; -428.000
295.589;  -74.125; -389.000; -518.000
295.728;   -2.575; -292.000; -165.000
295.866;   -4.075;  -36.000;  -51.000
296.005;  -88.800; -584.000; -341.000
296.143;  -83.400; -558.000; -596.000
296.282; -115.600; -957.000; -881.000
296.420; -101.125; -657.000; -557.000
296.559;  -96.475; -892.000; -633.000
296.697;  -66.925; -847.000; -665.000
296.835;  -96.875;-1141.000;-1002.000
296.974;   10.925;  -23.000;   39.000
297.112;  -51.625; -443.000; -504.000
297.251;  -99.250; -815.000; -755.000
297.389;  -17.075; -576.000; -438.000
297.527;  -10.425; -145.000;  -83.000
297.666;  -56.375; -486.000; -438.000
297.804;  -72.700; -404.000; -264.000
297.942;   -2.350; -136.000; -161.000
298.081;  -12.425; -183.000;   63.000
298.219;   10.575;  -17.000;  -19.000
298.357;   -6.500; -144.000;  -71.000
298.495;  -76.075; -810.000; -812.000
298.634;   15.350;  245.000;  219.000
298.772;  -30.575; -220.000; -338.000
298.910;  -46.200; -309.000; -182.000
299.048;  -26.725; -130.000; -153.000
299.187;  -37.475; -350.000; -250.000
299.325;    0.475;   52.000;  122.000
299.463;  -24.675; -389.000; -299.000
299.601;  -13.075; -327.000; -271.000
299.739; -135.225; -908.000; -883.000
299.877;  -88.000; -791.000; -703.000
300.016; -102.900;-1095.000; -935.000
300.154;   28.150;  -19.000; -161.000
300.292;  -39.275; -428.000; -348.000
300.430;  -27.100; -408.000; -291.000
300.568; -126.400; -940.000; -874.000
300.706;  -60.275; -366.000; -469.000
300.844; -127.875;-1108.000; -979.000
300.982;   60.175;  246.000;  282.000
301.120; -124.100; -965.000; -866.000
301.258;  -94.725; -812.000; -705.000
301.396;   -2.800;  104.000;  -41.000
301.534;  -39.100; -218.000; -293.000
301.672;  -95.475; -664.000; -521.000
301.810;  -73.375; -613.000; -545.000
301.948;   19.525;   53.000;  149.000
302.086;  221.775; -250.000;  -32.000
302.224;  237.950; -610.000; -585.000
302.362;  -54.525; -558.000; -622.000
302.500;  -95.650; -923.000; -893.000
302.638;   34.450;  128.000;  245.000
302.776;  -37.450; -352.000; -408.000
302.913;   36.475;  447.000;  236.000
303.051;  -30.775;  -86.000;  -23.000
303.189;    7.025;   90.000;  118.000
303.327;  -43.525; -341.000; -256.000
303.465;  -85.550; -832.000; -588.000
303.603; -104.900; -805.000; -604.000
303.740;   49.350;  417.000;  241.000
303.878;  -91.075; -800.000; -759.000
304.016; -101.675; -915.000; -790.000
304.154; -155.425;-1123.000;-1152.000
304.291;  -61.350; -505.000; -554.000
304.429;  -18.175;  102.000;   74.000
304.567; -136.500; -908.000; -893.000
304.705;  -62.100; -408.000; -515.000
304.842;  -16.075; -616.000; -540.000
304.980;   16.625;  215.000;   35.000
305.118;  -36.450; -367.000; -365.000
305.255; -116.225; -945.000; -927.000
305.393;   35.850;  178.000;  239.000
305.531; -138.075;-1173.000; -956.000
305.668;  -81.750; -663.000; -582.000
305.806;    8.025; -358.000; -439.000
305.943;  -10.175; -629.000; -637.000
306.081;   -6.925; -378.000; -267.000
306.219; -101.775; -863.000; -748.000
306.356;   -4.700;  158.000;   27.000
306.494;  112.025;  981.000;  761.000
306.631;   -9.425;  -11.000;  -55.000
306.769;  -24.525; -613.000; -485.000
306.906;  -37.675; -284.000; -258.000
307.044;  -62.175; -473.000; -488.000
307.181;  -73.575; -410.000; -332.000
307.319;    9.575;  112.000;   87.000
307.456; -162.350;-1191.000;-1153.000
307.594; -113.725; -980.000; -727.000
307.731;  -24.950; -371.000; -164.000
307.868;    1.750;  -15.000;   20.000
308.006; -130.575; -961.000; -847.000
308.143;  -70.850; -618.000; -330.000
308.281;   34.100;  -37.000; -254.000
308.418;  -67.075; -748.000; -640.000
308.555;  -78.775; -400.000; -250.000
308.693;  -76.925; -577.000; -573.000
308.830; -107.125; -712.000; -657.000
308.967;  -14.250; -215.000;  -95.000
309.105;  -35.725; -507.000; -396.000
309.242;  -25.750; -468.000; -367.000
309.379;   56.625; -577.000; -655.000
309.517; -108.450; -936.000; -948.000
309.654; -101.500; -910.000; -734.000
309.791;  -71.675; -662.000; -580.000
309.928; -122.050; -977.000; -914.000
310.065;  121.050;  819.000;  697.000
310.203;  -92.100; -825.000; -850.000
310.340;  -53.400; -465.000; -321.000
310.477;  -81.075; -412.000; -516.000
310.614;  -60.100; -383.000; -473.000
310.751;  -66.425; -427.000; -518.000
310.889;  -30.850;    1.000;   11.000
311.026; -146.500;-1161.000; -939.000
311.163;  -53.000; -386.000; -380.000
311.300;  -83.450; -512.000; -479.000
311.437;  -77.450; -658.000; -619.000
311.574; -154.325;-1226.000; -985.000
311.711;  -71.025; -595.000; -433.000
311.848;  -44.700; -380.000; -388.000
311.985;   -6.675;  270.000;   93.000
312.122; -111.100; -932.000; -762.000
312.259; -115.025; -941.000; -994.000
312.396;  -72.025; -508.000; -551.000
312.533; -100.775; -812.000; -790.000
312.670; -144.950;-1070.000; -898.000
312.807;  -37.650; -352.000; -367.000
312.944;  -74.650; -513.000; -611.000
313.081;  -34.850; -150.000; -415.000
313.218;  -87.025;-1111.000; -867.000
313.355;  -25.650; -531.000; -449.000
313.492;  -22.625; -455.000; -292.000
313.629;  123.100;  815.000;  735.000
313.766; -150.875;-1176.000;-1008.000
313.902;   -9.775; -186.000;   21.000
314.039;  -39.400; -372.000; -289.000
314.176;   35.525;  286.000;  192.000
314.313;  -77.400; -569.000; -473.000
314.450;  -89.100; -788.000; -684.000
314.587;  -64.275; -468.000; -480.000
314.723;   -3.125;  -78.000;  130.000
314.860;   37.650;  318.000;  332.000
314.997;   39.350;  223.000;  142.000
315.134;  -35.375; -385.000; -368.000
315.270;  -19.275; -480.000; -496.000
315.407; -115.750;-1094.000; -967.000
315.544;  -51.575; -657.000; -538.000
315.681;  -72.725; -681.000; -565.000
315.817;   25.675; -133.000; -176.000
315.954;   43.875; -613.000; -392.000
316.091; -125.250;-1045.000;-1023.000
316.227;  -47.275;  -71.000; -179.000
316.364;   -2.000;   23.000;    6.000
316.500;  -48.825; -113.000; -300.000
316.637;  -56.875; -181.000; -302.000
316.774;  -92.275; -625.000; -358.000
316.910;  -95.550; -598.000; -629.000
317.047;  -80.200; -487.000; -351.000
317.183;  -54.850; -435.000; -566.000
317.320;   40.075; -367.000; -321.000
317.456;  -37.100; -733.000; -805.000
317.593;  -83.400; -598.000; -641.000
317.729;   -5.375;  168.000;  -67.000
317.866; -203.850;-1434.000;-1285.000
318.002;  -92.675; -708.000; -948.000
318.139; -119.150; -883.000; -867.000
318.275; -100.725;-1003.000; -738.000
318.412;  -71.250; -517.000; -336.000
318.548;  -98.700; -751.000; -720.000
318.685; -106.250; -985.000; -888.000
318.821;  -81.425; -762.000; -735.000
318.957;  -21.450;   34.000;  -23.000
319.094;   22.775;  297.000;  154.000
319.230; -102.650; -756.000; -742.000
319.367;  -14.725; -471.000; -520.000
319.503;  -44.025; -538.000; -436.000
319.639;  -93.650; -877.000; -793.000
319.775;  -91.875; -750.000; -685.000
319.912;  -53.575; -424.000; -519.000
320.048; -102.275;-1184.000;-1184.000
320.184;   72.925;   59.000;   70.000
320.321;  -76.575; -497.000; -467.000
320.457;   72.400;  475.000;  662.000
320.593;  -71.700; -375.000; -382.000
320.729; -106.100; -732.000; -734.000
320.866;  -72.700; -577.000; -635.000
321.002;  -96.225; -759.000; -809.000
321.138;  -32.375; -135.000; -211.000
321.274;   32.675; -148.000; -115.000
321.410;  -64.575; -585.000; -353.000
321.546;  -95.100;-1011.000; -911.000
321.683;   13.025;  400.000;  185.000
321.819;  -15.975;  -48.000; -117.000
321.955; -120.350; -743.000; -722.000
322.091;  -82.475; -585.000; -540.000
322.227;  -40.725; -382.000; -202.000
322.363;  -44.675; -320.000; -215.000
322.499;  -66.600; -343.000; -331.000
322.635;   99.000;  636.000;  443.000
322.771;  -24.400; -139.000;   12.000
322.907;   49.100;  129.000;  327.000
323.043;  -45.675; -115.000; -206.000
323.179;  -59.600; -394.000; -363.000
323.315;  -47.050; -401.000; -371.000
323.451;   14.925; -328.000; -236.000
323.587;   50.575;  -60.000;  -77.000
323.723;  -49.925; -682.000; -601.000
323.859;  -32.400; -258.000;  -76.000
323.995;  -54.325; -467.000; -409.000
324.131; -147.025; -967.000; -892.000
324.267;  -41.475; -254.000; -276.000
324.402; -138.800; -960.000; -983.000
324.538;  -35.875; -279.000; -104.000
324.674;   -1.100;  164.000;   77.000
324.810;   23.200;  226.000;  308.000
324.946;  -43.500; -810.000; -658.000
325.082;  -78.500; -568.000; -475.000
325.217;  -25.300;  -62.000;   16.000
325.353; -105.825; -764.000; -659.000
325.489;  -99.925; -540.000; -506.000
325.625;  -77.525; -579.000; -525.000
325.760;   77.025;  517.000;  376.000
325.896;    8.200; -515.000; -702.000
326.032;  -61.775; -403.000; -352.000
326.168;  -71.050; -462.000; -369.000
326.303;  -62.900; -352.000; -461.000
326.439;  -24.600; -336.000; -276.000
326.575;   -2.975; -190.000;  -29.000
326.710;  -13.525; -156.000;  -30.000
326.846;  -19.075;  146.000;  103.000
326.982;  -90.450; -530.000; -548.000
327.117;  -66.300; -481.000; -442.000
327.253;  -89.425; -745.000; -742.000
327.388; -152.775;-1137.000;-1153.000
327.524;  -92.450; -811.000; -578.000
327.659;  -22.025;  -58.000;  -22.000
327.795;  -10.550;   69.000;   45.000
327.931;  -72.675; -723.000; -499.000
328.066;  -36.650; -417.000; -276.000
328.202;  -25.450;   12.000; -129.000
328.337;   86.275;  957.000;  713.000
328.473;   27.025;  -12.000;  -74.000
328.608;  -36.325; -256.000; -267.000
328.743; -115.200; -799.000; -664.000
328.879;    3.925;  214.000;  114.000
329.014;  -45.150; -102.000; -122.000
329.150;  -85.625; -358.000; -483.000
329.285;  -82.650; -465.000; -466.000
329.421;  -62.925; -548.000; -246.000
329.556;  -24.425;  -36.000;   85.000
329.691;  -96.775; -633.000; -615.000
329.827;  -81.875; -626.000; -480.000
329.962;  -34.575;  131.000; -301.000
330.097;  -92.525; -673.000; -585.000
330.233;  -50.200; -410.000; -223.000
330.368; -121.475; -839.000; -628.000
330.503;  -14.050;    3.000;   98.000
330.638;  -14.350;  -93.000; -125.000
330.774;  -91.575; -609.000; -530.000
330.909;  -55.675; -434.000; -244.000
331.044; -101.175; -714.000; -708.000
331.179; -164.600;-1217.000;-1109.000
331.315;    5.300;   77.000;   20.000
331.450;   -1.025;  157.000;  285.000
331.585;  -82.625; -805.000; -706.000
331.720;  -93.825; -510.000; -460.000
331.855;    1.550;  -35.000; -102.000
331.990;  424.025;   62.000;  138.000
332.126;  212.775; -110.000;   71.000
332.261;    0.025; -379.000; -265.000
332.396;   12.175; -135.000; -242.000
332.531;  -70.150;-1074.000;-1031.000
332.666;   95.675; -519.000; -363.000
332.801; -103.300; -726.000; -807.000
332.936;  -26.450; -192.000; -122.000
333.071; -129.950; -870.000; -817.000
333.206;   22.425;  307.000;  379.000
333.341;   17.350;  344.000;  418.000
333.476;  -76.925; -627.000; -623.000
333.611;  -53.450; -251.000; -173.000
333.746;  -52.800; -381.000; -464.000
333.881; -120.525; -973.000; -935.000
334.016; -120.175; -936.000; -917.000
334.151; -123.675; -746.000; -702.000
334.286;   12.225;  152.000;  186.000
334.421;  -27.950; -125.000; -178.000
334.556;  -93.425; -611.000; -567.000
334.690;  -69.075; -631.000; -577.000
334.825;   58.075;  381.000;   83.000
334.960;  -59.100; -285.000; -413.000
335.095;   -2.950;  135.000;  -91.000
335.230; -113.325; -722.000; -738.000
335.365; -127.800;-1084.000; -990.000
335.499; -140.875;-1108.000;-1037.000
335.634;    2.450;    9.000;  534.000
335.769;  -92.725; -755.000; -720.000
335.904;  -53.450; -603.000; -561.000
336.038;  -48.425; -735.000; -657.000
336.173; -103.875;-1206.000;-1194.000
336.308;   25.600; -116.000; -189.000
336.443;   63.325; -544.000; -634.000
336.577;  -42.025; -936.000; -787.000
336.712;   82.400;   -4.000;  -12.000
336.847;  -19.050; -724.000; -607.000
336.981;   65.575; -272.000; -208.000
337.116;  325.525;  615.000;  501.000
337.250;  132.750; -434.000; -421.000
337.385;  457.475; -297.000; -208.000
337.520;  212.750; -632.000; -603.000
337.654;  -33.800; -215.000; -126.000
337.789; -147.025; -989.000; -933.000
337.923;  -49.775; -104.000; -205.000
338.058; -106.275; -673.000; -738.000
338.192;  -63.700; -611.000; -488.000
338.327;  -28.350;  -18.000; -155.000
338.461;  -68.275; -299.000; -469.000
338.596;  -99.875; -780.000; -638.000
338.730;  -93.725; -767.000; -803.000
338.865;  148.575;  -46.000; -140.000
338.999;   -1.775; -846.000; -702.000
339.134;    1.600; -634.000; -536.000
339.268;   55.350; -741.000; -603.000
339.403;  555.400; -740.000; -775.000
339.537;  264.850; -894.000; -820.000
339.671;  -97.800; -829.000; -813.000
339.806;  -24.275; -556.000; -512.000
339.940;   36.700; -261.000; -235.000
340.074; -113.225; -685.000; -510.000
340.209;  -48.800; -351.000; -230.000
340.343;  -90.550; -517.000; -573.000
340.477;  121.525;  998.000; 1036.000
340.612;   11.300;-1033.000; -900.000
340.746;  230.800; -199.000; -243.000
340.880; -102.425; -924.000; -785.000
341.014;  -25.275;  -45.000; -154.000
341.149; -111.925; -756.000; -718.000
341.283; -125.775; -839.000; -754.000
341.417; -146.600;-1124.000; -938.000
341.551;  -18.375; -768.000; -708.000
341.685;  -64.475; -633.000; -611.000
341.820;  -54.650; -562.000; -493.000
341.954;  -61.600; -218.000; -349.000
342.088; -150.475;-1102.000;-1019.000
342.222;   43.675;  565.000;  618.000
342.356;  -79.125; -395.000; -335.000
342.490; -114.400; -880.000; -841.000
342.624;  -70.300; -339.000; -242.000
342.758;  -64.475; -364.000; -312.000
342.892;  -98.100; -710.000; -585.000
343.026;  -39.175;  -58.000; -116.000
343.160;  -65.075; -426.000; -376.000
343.294;  -91.650; -474.000; -337.000
343.428;  -68.500; -488.000; -448.000
343.562;  -42.150; -172.000;  -23.000
343.696;  -59.600; -385.000; -314.000
343.830;  -64.650; -362.000; -356.000
343.964;  -27.675; -231.000; -168.000
344.098;  305.875;  199.000;   70.000
344.232;  272.450; -266.000; -127.000
344.366;   60.225; -567.000; -453.000
344.500;  -37.500; -665.000; -744.000
344.634;  -30.200; -324.000; -164.000
344.768;  -64.600; -531.000; -341.000
344.902;    1.425;  278.000;  256.000
345.035;  -66.600; -556.000; -496.000
345.169; -146.575; -933.000; -656.000
345.303;  -61.925; -308.000; -482.000
345.437; -109.875; -826.000; -717.000
345.571;  -74.725; -675.000; -594.000
345.704;  -84.200; -309.000; -532.000
345.838;  -40.100; -331.000; -284.000
345.972;  -51.825; -543.000; -495.000
346.106;  248.300; -179.000; -190.000
346.239;  468.850; -312.000; -243.000
346.373;  -19.625; -343.000; -302.000
346.507; -142.625; -950.000; -962.000
346.640;   32.050;  -30.000;   13.000
346.774;  -92.400; -650.000; -797.000
346.908;  -29.475; -138.000;  -11.000
347.041; -106.225; -646.000; -593.000
347.175;  -21.350;  259.000;   27.000
347.309;  -97.400; -698.000; -628.000
347.442; -126.075; -883.000; -732.000
347.576;  118.800;  670.000;  668.000
347.709;   47.175; -123.000;  -52.000
347.843; -123.375; -933.000; -825.000
347.976;   -1.500;  235.000;  294.000
348.110; -187.075;-1268.000;-1186.000
348.243; -113.750; -679.000; -772.000
348.377;   -4.175;  -26.000;   60.000
348.510;   37.650;  403.000;  540.000
348.644;  -61.575;  -37.000; -159.000
348.777;   -8.475;  180.000;  191.000
348.911;  -57.450; -142.000; -112.000
349.044;   83.700;  471.000;  448.000
349.178;  -35.900;-1069.000;-1006.000
349.311;  107.350;  141.000;  255.000
349.444;   23.025; -927.000; -813.000
349.578;  -27.350; -347.000; -200.000
349.711; -136.325; -959.000; -862.000
349.845;  -59.300; -661.000; -591.000
349.978; -174.925;-1224.000;-1137.000
350.111;  -95.200; -546.000; -612.000
350.244; -102.175; -596.000; -700.000
350.378;  -58.250; -392.000; -393.000
350.511;  -79.150; -393.000; -426.000
350.644;  -97.925; -808.000; -806.000
350.778;    9.500;  168.000;  104.000
350.911;   -2.650;  134.000;  140.000
351.044; -109.550; -685.000; -615.000
351.177;  -46.275; -321.000; -281.000
351.310;  -30.675;    3.000; -131.000
351.444; -106.425; -888.000; -788.000
351.577;   29.525;  140.000;   90.000
351.710;   74.500;  593.000;  417.000
351.843;  -30.550; -165.000;  -77.000
351.976;   -7.875;  149.000;  -79.000
352.109; -117.325; -621.000; -612.000
352.242;  -56.850; -464.000; -419.000
352.376;  -93.075; -580.000; -636.000
352.509;   25.000; -437.000; -356.000
352.642;  -87.075; -654.000; -604.000
352.775;   -0.675; -141.000;  -98.000
352.908; -131.225; -933.000; -904.000
353.041; -106.675; -814.000; -824.000
353.174;  -60.025; -551.000; -424.000
353.307;  -93.875; -753.000; -764.000
353.440;   60.300;  541.000;  453.000
353.573;  -96.000; -957.000;-1008.000
353.706;  -67.600; -384.000; -558.000
353.839;  -40.850; -264.000; -220.000
353.971;  -97.225; -657.000; -512.000
354.104; -109.425; -896.000; -835.000
354.237;  -90.825; -627.000; -662.000
354.370; -105.875; -846.000; -879.000
354.503; -188.350;-1231.000;-1308.000
354.636;  -23.825; -529.000; -348.000
354.769; -116.075; -937.000; -860.000
354.902;  -27.800; -230.000; -139.000
355.034;  -32.425; -164.000; -220.000
355.167;   -4.650; -262.000; -162.000
355.300;  -82.250;-1061.000; -880.000
355.433; 1441.225;  -71.000;  -14.000
355.565; 2235.175; -402.000; -384.000
355.698;  592.250; -356.000; -296.000
355.831;  -13.175; -882.000; -801.000
355.964;   26.250; -285.000; -170.000
356.096;  -78.750; -856.000; -843.000
356.229;    5.200; -523.000; -530.000
356.362;  521.775; -373.000; -266.000
356.494;  920.925; -229.000; -162.000
356.627;  321.325;  269.000;  377.000
356.760;  910.600;  120.000;   53.000
356.892; 1528.225; -286.000; -601.000
357.025;  347.575;  403.000;  389.000
357.157;  237.325; -167.000; -179.000
357.290; 1221.850; -856.000; -713.000
357.423;  371.675; -667.000; -556.000
357.555;  104.750; -217.000; -228.000
357.688;  135.550; -483.000; -364.000
357.820;  185.900; -870.000; -877.000
357.953; 1605.800; -563.000; -589.000
358.085;  265.075; -632.000; -612.000
358.218;  112.400;-1131.000; -932.000
358.350;   43.400;  -58.000;  312.000
358.483; -163.925;-1300.000;-1187.000
358.615; -134.150;-1182.000;-1078.000
358.747; -138.150;-1187.000;-1058.000
358.880;  -67.525; -810.000; -744.000
359.012;  -46.450; -376.000; -202.000
359.145;  -69.925; -480.000; -511.000
359.277;  -59.825; -962.000; -913.000
359.409; 1362.175;  536.000;  231.000
359.542;  296.775; -738.000; -688.000
359.674;   15.225;   46.000;   13.000
359.806;  -92.250; -565.000; -438.000
359.939;  -46.250; -617.000; -516.000
360.071;   31.425; -583.000; -579.000
360.203;  -26.925; -411.000; -364.000
360.335;   27.650;  164.000;  -16.000
360.468;   93.775; -249.000; -307.000
360.600; 1390.100; -547.000; -454.000
360.732; 4259.875; -546.000; -423.000
360.864;  665.750;-1216.000;-1044.000
360.996;   73.775; -516.000; -554.000
361.129;  -43.600; -389.000; -598.000
361.261;    0.750;  110.000; -113.000
361.393;  -48.950; -252.000; -214.000
361.525;  -11.150;   94.000;  244.000
361.657; -111.350; -821.000; -703.000
361.789;  -26.950; -139.000; -155.000
361.921;  -35.450; -642.000; -593.000
362.053;   83.775;  524.000;  541.000
362.185;   -2.900;  288.000;   72.000
362.318; -118.425; -709.000; -705.000
362.450;   33.950;  294.000;  444.000
362.582;  -75.250; -913.000; -870.000
362.714;  -62.025; -353.000; -332.000
362.846;  -97.475; -606.000; -490.000
362.978; -146.800; -941.000; -811.000
363.109;  -14.825; -161.000; -260.000
363.241;  158.500; -739.000; -749.000
363.373;  628.000; -649.000; -564.000
363.505; 1034.625; -186.000;  -91.000
363.637;  235.575; -787.000; -601.000
363.769; -132.275;-1067.000;-1080.000
363.901;  -81.125; -596.000; -654.000
364.033; -152.925;-1103.000;-1062.000
364.165;  -24.650; -283.000; -283.000
364.296;   90.775; -316.000; -177.000
364.428;  193.900;-1344.000;-1220.000
364.560;  -55.100; -679.000; -661.000
364.692;  -84.700; -738.000; -835.000
364.824;   -9.150; -588.000; -456.000
364.955;  501.275; -402.000; -564.000
365.087; 1717.050;-1097.000; -852.000
365.219;   97.775; -686.000; -816.000
365.351;  -63.875; -526.000; -572.000
365.482;   12.250;  300.000;  240.000
365.614;  -59.150; -402.000; -314.000
365.746;  -84.275; -729.000; -752.000
365.877; -100.500; -706.000; -672.000
366.009;  405.600;  -35.000;  -62.000
366.141;  -29.575;-1249.000;-1134.000
366.272; -118.600; -803.000; -719.000
366.404; -127.050;-1005.000; -874.000
366.535;  -34.125; -139.000;  -12.000
366.667; -119.775; -644.000; -649.000
366.799;   24.200;  353.000;  203.000
366.930; -134.550; -862.000; -996.000
367.062;  183.325; -639.000; -613.000
367.193;  339.400; -872.000; -842.000
367.325;  -45.775; -580.000; -684.000
367.456;   -3.400; -246.000;   31.000
367.588;  248.125; -371.000; -318.000
367.719;   35.700;  -44.000;  -45.000
367.851;  -48.925; -222.000; -241.000
367.982; -118.050; -875.000; -732.000
368.113;  -16.875; -475.000; -358.000
368.245; -148.900; -960.000; -841.000
368.376;  -49.650; -254.000; -302.000
368.508;  -65.725; -188.000; -263.000
368.639; -148.950;-1166.000;-1034.000
368.770;  -89.350; -670.000; -589.000
368.902; -119.550; -836.000; -926.000
369.033; -126.900; -906.000; -855.000
369.164;  -47.450; -720.000; -653.000
369.296; -100.050; -452.000; -601.000
369.427;  -49.350; -209.000; -144.000
369.558;  -86.275; -593.000; -377.000
369.689;  -91.000; -721.000; -569.000
369.821; -152.975; -951.000; -845.000
369.952;  -33.350;   42.000; -108.000
370.083;  -59.350; -229.000; -108.000
370.214; -111.975; -735.000; -650.000
370.345;  -36.775;   65.000;   81.000
370.477; -121.975; -810.000; -790.000
370.608;   40.575; -328.000; -264.000
370.739; -115.475;-1233.000;-1292.000
370.870; -116.575;-1102.000; -923.000
371.001;  -28.475; -378.000; -467.000
371.132; -101.175; -754.000; -735.000
371.263;  -42.150;  -42.000; -148.000
371.394; -143.950; -841.000; -748.000
371.525;    6.600;  345.000;  225.000
371.657; -126.300; -808.000; -670.000
371.788;   24.425;  103.000;  199.000
371.919;   20.450; -384.000; -304.000
372.050; 1369.450;  -91.000; -156.000
372.181;  412.250; -188.000; -294.000
372.311;  106.900;   42.000; -127.000
372.442;  -63.975; -457.000; -451.000
372.573;  -57.100; -444.000; -340.000
372.704; -148.475;-1008.000; -980.000
372.835;  -13.025; -228.000; -289.000
372.966;  -85.850; -646.000; -554.000
373.097;  -89.250; -575.000; -711.000
373.228;  -97.875; -717.000; -542.000
373.359;  -42.325; -824.000; -536.000
373.490;  174.400; -881.000; -727.000
373.620;  271.100;-1001.000; -803.000
373.751;  553.400; -332.000; -396.000
373.882;  233.200; -663.000; -733.000
374.013;  -29.300; -449.000; -262.000
374.143;  -82.975; -581.000; -659.000
374.274; -124.175; -987.000; -908.000
374.405;   40.775; -388.000; -276.000
374.536;  114.950; -526.000; -387.000
374.666;  302.775; -759.000; -807.000
374.797;   -3.450; -817.000; -868.000
374.928;  191.350; -710.000; -560.000
375.058;  185.375; -535.000; -500.000
375.189;   -2.150;  -59.000;  -93.000
375.320; -121.775; -928.000;-1034.000
375.450;  -50.150; -625.000; -616.000
375.581;  -58.275; -526.000; -436.000
375.712;  -62.750; -574.000; -250.000
375.842;   15.600; -438.000; -415.000
375.973;   -0.175; -554.000; -513.000
376.103; -110.200; -665.000; -648.000
376.234;  -99.725; -531.000; -552.000
376.364; -116.500; -944.000; -867.000
376.495;  153.175;  925.000;  529.000
376.625;  -60.825; -472.000; -485.000
376.756;  -56.950; -709.000; -678.000
376.886; -140.550;-1178.000;-1026.000
377.017;  146.875;-1048.000;-1061.000
377.147;  641.425; -786.000; -782.000
377.278;   71.175;  174.000;  228.000
377.408; -127.475; -801.000; -815.000
377.538; -110.300; -707.000; -693.000
377.669;  -89.125; -537.000; -613.000
377.799;  -93.000; -645.000; -635.000
377.929;  -87.750; -610.000; -428.000
378.060; -137.350; -781.000; -847.000
378.190;  -41.525; -726.000; -531.000
378.320;  -54.525; -401.000; -406.000
378.451;  -42.375; -131.000;  -22.000
378.581;  -17.775;  -67.000; -110.000
378.711;   84.050; 1035.000;  866.000
378.841;  -73.450; -533.000; -675.000
378.972; -118.000; -871.000; -751.000
379.102;  -65.925; -652.000; -579.000
379.232;  -57.575; -126.000;  -73.000
379.362; -138.125;-1001.000; -885.000
379.492;  -56.700; -373.000; -424.000
379.623;   46.700;    0.000;  111.000
379.753; -122.575;-1107.000; -974.000
379.883;   84.250;   59.000;  156.000
380.013;  -89.475;-1081.000;-1017.000
380.143; -132.425;-1097.000;-1056.000
380.273; -114.850; -985.000; -861.000
380.403;    5.725; -344.000; -257.000
380.533;  -45.850; -651.000; -664.000
380.663;   17.325;  173.000;  128.000
380.793; -140.600;-1027.000;-1074.000
380.923;  -52.875; -103.000;  -34.000
381.053; -111.825; -613.000; -623.000
381.183;  -51.525; -106.000; -248.000
381.313;  -79.275; -656.000; -470.000
381.443;  -73.150; -692.000; -473.000
381.573;  -29.725; -402.000; -409.000
381.703;  -91.975;-1249.000;-1095.000
381.833; -188.325;-1454.000;-1336.000
381.963;   18.325; -134.000;  -87.000
382.093;  425.825; -925.000; -909.000
382.223;  101.675; -713.000; -602.000
382.353;  -92.575; -801.000; -608.000
382.482;   11.175;-1091.000; -964.000
382.612;  179.950; -872.000; -644.000
382.742;   77.100; -695.000; -622.000
382.872;  -22.125; -565.000; -551.000
383.002;   16.050;  347.000; -132.000
383.131;  -42.600; -226.000; -160.000
383.261;  -50.500; -706.000; -768.000
383.391;  330.775; -552.000; -377.000
383.521; 5054.075;  451.000;  263.000
383.650; 1537.275; -947.000; -904.000
383.780;   35.225; -783.000; -656.000
383.910;   86.100;  880.000;  802.000
384.039;  -84.475; -794.000; -656.000
384.169;  -95.800;-1205.000;-1017.000
384.299;  -97.825; -650.000; -662.000
384.428; -111.750; -764.000; -680.000
384.558;  -64.350; -308.000; -275.000
384.687;  -74.175; -414.000; -334.000
384.817;  -15.400;   75.000;   -2.000
384.947;  -52.350; -234.000; -141.000
385.076;  142.450;  982.000;  912.000
385.206;   43.750;  369.000;  480.000
385.335;  -76.000; -549.000; -417.000
385.465; -120.275; -655.000; -663.000
385.594;    9.875;  -53.000;  -44.000
385.724;   36.850; -868.000; -838.000
385.853;  -15.000; -296.000; -270.000
385.982;  373.200; -743.000; -787.000
386.112;  712.275;-1052.000; -871.000
386.241;    6.425; -307.000; -312.000
386.371;  -19.925; -174.000;  -87.000
386.500;  -56.825; -825.000; -789.000
386.629;  -24.950; -874.000; -817.000
386.759;   77.275;  -43.000;   68.000
386.888;  -39.350; -170.000; -250.000
387.017;  -99.425; -648.000; -620.000
387.147; -112.825; -771.000; -798.000
387.276;  -73.675; -410.000; -397.000
387.405;  -42.100; -398.000; -342.000
387.535;  -91.400; -452.000; -361.000
387.664;  -79.350; -692.000; -620.000
387.793;  -25.700; -198.000; -113.000
387.922;  141.825;  255.000;  200.000
388.052;  -76.850; -576.000; -423.000
388.181;  -51.900; -342.000; -472.000
388.310;  -97.275; -889.000; -710.000
388.439; -110.225; -749.000; -742.000
388.568;   40.500;  365.000;  244.000
388.697;  266.975; -756.000; -653.000
388.826;   -2.475; -768.000; -666.000
388.956;  -49.675; -285.000; -307.000
389.085;  -61.125; -347.000; -287.000
389.214; -119.375; -842.000; -872.000
389.343;  -84.050; -645.000; -413.000
389.472;  547.825;  126.000;  149.000
389.601;  603.500;   91.000;    0.000
389.730;  -31.875; -568.000; -687.000
389.859;   13.625;  226.000;   46.000
389.988;   35.850; -423.000; -408.000
390.117;   36.775; -168.000; -146.000
390.246;  -58.425; -331.000; -320.000
390.375;  -64.025; -673.000; -626.000
390.504;  -85.675; -703.000; -621.000
390.633; -120.350; -672.000; -726.000
390.761; -108.375; -732.000; -645.000
390.890;  -41.050;   -4.000; -130.000
391.019;  -76.900; -421.000; -441.000
391.148; -151.800; -826.000; -855.000
391.277;  -98.775; -576.000; -493.000
391.406; -131.500; -821.000; -805.000
391.534;   -3.650;  574.000; -301.000
391.663; -109.150; -583.000; -645.000
391.792; -109.375; -673.000; -701.000
391.921;  -28.000;   -3.000;   15.000
392.050;    0.100; -287.000; -228.000
392.178; -143.775;-1206.000;-1061.000
392.307;  -33.700; -758.000; -712.000
392.436;  -63.425; -427.000; -641.000
392.564;    0.075;  166.000;   -6.000
392.693; -126.200; -860.000; -682.000
392.822;   -6.250; -529.000; -534.000
392.950;  -48.800; -880.000; -714.000
393.079;   64.600; -188.000; -328.000
393.208;  -55.225; -488.000; -511.000
393.336;  -34.250; -170.000; -145.000
393.465;  -71.225; -317.000; -199.000
393.593;  -14.350;   62.000;   79.000
393.722; -155.925;-1121.000; -916.000
393.850;  -34.650; -188.000;  -61.000
393.979; -150.825; -926.000; -805.000
394.107;  -77.425; -517.000; -537.000
394.236;  -60.000; -570.000; -507.000
394.364;  114.050;  383.000;  206.000
394.493;   77.875; -911.000; -767.000
394.621;   -9.225; -955.000; -916.000
394.750; 1145.000; -873.000; -923.000
394.878; 4416.200; -247.000; -149.000
395.007; 6485.000; -721.000; -807.000
395.135;  567.750; -790.000; -721.000
395.263;  -66.375;-1038.000;-1040.000
395.392;    5.650;  -25.000; -107.000
395.520; -131.300; -818.000; -679.000
395.648; -124.725; -865.000; -915.000
395.777;  -74.875; -366.000; -405.000
395.905;  -93.200; -449.000; -564.000
396.033;  -20.025;  217.000;  172.000
396.162;  128.550; -399.000; -453.000
396.290;  130.875;  -17.000;   -2.000
396.418;  -39.125; -555.000; -514.000
396.546; -101.025; -571.000; -466.000
396.674; -133.325; -850.000; -878.000
396.803;  -24.875;  -72.000;  -23.000
396.931;  -29.800; -179.000; -199.000
397.059; -123.850;-1026.000; -989.000
397.187; -145.675;-1026.000; -975.000
397.315; -146.550; -884.000; -649.000
397.443;  -94.375; -592.000; -443.000
397.572; -103.550; -578.000; -424.000
397.700; -100.325; -607.000; -614.000
397.828;  -36.425;  120.000;  -90.000
397.956;  -58.500; -508.000; -478.000
398.084;  -34.275; -767.000; -626.000
398.212;   -6.250;  137.000;  124.000
398.340;  -29.400;  -56.000;  159.000
398.468;  -58.150; -390.000; -169.000
398.596; -152.075; -993.000; -953.000
398.724; -122.550; -762.000; -767.000
398.852; -170.450;-1024.000; -976.000
398.980;  -86.975; -560.000; -560.000
399.108; -100.225; -982.000; -735.000
399.236;  -10.600;   13.000;    8.000
399.363;  -13.475;  222.000;  196.000
399.491;  -76.450; -404.000; -398.000
399.619; -120.300; -829.000; -800.000
399.747; -122.975; -859.000; -771.000
399.875;   28.675;  220.000;  234.000
400.003;  -59.950; -359.000; -284.000
400.130; -105.000; -421.000; -341.000
400.258;  -46.675;  -83.000;   38.000
400.386;  -82.375; -352.000; -168.000
400.514;  -96.575; -526.000; -587.000
400.641; -139.400; -928.000; -802.000
400.769; -153.200; -979.000; -888.000
400.897; -116.250; -838.000; -793.000
401.025;  -48.325; -166.000; -152.000
401.152;  -20.100;  220.000;   38.000
401.280;  -81.125; -430.000; -429.000
401.408; -120.425; -712.000; -576.000
401.535; -118.250; -735.000; -758.000
401.663; -190.500;-1134.000;-1054.000
401.790;  -95.300; -514.000; -525.000
401.918;   34.925;  436.000;  405.000
402.046;  -17.100;  134.000;  122.000
402.173;  -45.600;  -18.000;    7.000
402.301;  -87.075; -519.000; -397.000
402.428;   20.650;  528.000;  383.000
402.556; -160.800;-1188.000; -913.000
402.683;  -43.375;  -20.000;   -1.000
402.811;  -36.950;  -37.000; -206.000
402.938;  -23.975;   20.000;   27.000
403.066;   -5.750; -574.000; -558.000
403.193;  110.725;  299.000;  239.000
403.321;   54.725; -396.000; -574.000
403.448;  121.425;   83.000;   27.000
403.575;   63.525;  -90.000;  -46.000
403.703;  -95.075; -732.000; -557.000
403.830;  -57.025; -531.000; -496.000
403.957; -127.450;-1117.000;-1023.000
404.085;   15.825;  -61.000; -172.000
404.212;  115.600;  -50.000;   63.000
404.339;  431.150; -566.000; -306.000
404.467; 8933.925; -612.000; -524.000
404.594; 5452.475; -287.000; -227.000
404.721;  925.825; -869.000; -764.000
404.848;  108.400; -113.000; -202.000
404.976; -112.500; -856.000; -783.000
405.103;  -22.550;  -14.000;  -82.000
405.230;    6.550;  190.000;  226.000
405.357;   24.850;  117.000;   44.000
405.484;  405.750;  -49.000;    5.000
405.612;  105.450; -548.000; -563.000
405.739;  -59.625; -488.000; -243.000
405.866;   71.125;  669.000;  385.000
405.993;  -53.925; -398.000; -102.000
406.120; -141.250; -801.000; -887.000
406.247;  -92.275; -323.000; -342.000
406.374;  100.900;  540.000;  629.000
406.501;  -89.550; -632.000; -702.000
406.628;  -99.850; -621.000; -589.000
406.755; -128.175; -803.000; -620.000
406.882;  -61.950; -228.000; -277.000
407.009; -128.875; -719.000; -628.000
407.136;  -49.700; -480.000; -401.000
407.263;  -66.900; -939.000; -829.000
407.390; -108.975; -692.000; -614.000
407.517; -193.325;-1139.000;-1187.000
407.644;  -74.875; -332.000; -256.000
407.771; -108.275; -249.000; -287.000
407.898;  -15.875;  168.000;  328.000
408.025;  -81.850; -421.000; -313.000
408.151;  -14.950;   82.000;  153.000
408.278;  -85.200; -267.000; -216.000
408.405; -135.900; -931.000; -899.000
408.532;  -90.025; -549.000; -542.000
408.659; -128.775; -677.000; -648.000
408.785; -197.625;-1298.000;-1170.000
408.912;  -74.725; -412.000; -296.000
409.039; -106.600; -610.000; -686.000
409.166; -105.775; -591.000; -555.000
409.292; -112.600; -571.000; -534.000
409.419; -117.425; -665.000; -649.000
409.546;  -89.975; -431.000; -192.000
409.672; -130.550; -713.000; -545.000
409.799;  -28.725;  -36.000;   34.000
409.926;  -60.175; -180.000; -179.000
410.052; -177.650;-1127.000;-1091.000
410.179;  -89.950; -368.000; -392.000
410.305; -112.825; -375.000; -493.000
410.432;  -47.875; -220.000; -333.000
410.558;  -90.050; -305.000; -380.000
410.685; -114.150; -688.000; -431.000
410.812; -110.475; -409.000; -588.000
410.938; -140.975; -964.000; -808.000
411.065; -118.075; -671.000; -645.000
411.191;  -44.600; -189.000; -174.000
411.317; -130.775; -823.000; -742.000
411.444;  -64.975; -317.000; -246.000
411.570;  -81.025; -339.000; -294.000
411.697; -132.500; -758.000; -752.000
411.823; -166.425; -989.000; -999.000
411.949;  -55.450;  -56.000;   17.000
412.076; -111.375; -539.000; -519.000
412.202; -133.275; -758.000; -757.000
412.329; -144.950; -798.000; -752.000
412.455; -111.000; -821.000; -657.000
412.581;  -27.050;  -15.000;  172.000
412.707;  -93.000; -540.000; -457.000
412.834;   -8.950;  156.000;  219.000
412.960; -112.375; -785.000; -784.000
413.086; -112.000; -743.000; -701.000
413.212;  108.725;  604.000;  578.000
413.339; -113.500; -685.000; -701.000
413.465;  -65.725; -364.000; -310.000
413.591; -119.250; -757.000; -474.000
413.717;  -60.925; -358.000; -366.000
413.843; -129.675; -839.000; -861.000
413.969;  -53.075;  -47.000; -292.000
414.096;  -95.850; -679.000; -679.000
414.222;  -10.750;  -33.000;   85.000
414.348;  -78.675; -652.000; -385.000
414.474;   -0.675;   38.000;  -52.000
414.600;  -17.800; -126.000; -144.000
414.726;    2.025;  -96.000;  -55.000
414.852;  -55.825; -365.000; -342.000
414.978;   30.800;  104.000;  -18.000
415.104;   41.300;   38.000;   80.000
415.230;   36.575; -329.000; -330.000
415.356;   57.025; -409.000; -514.000
415.482;  215.600;   13.000;  -35.000
415.608;  393.850; -247.000; -323.000
415.734; 1308.825;   67.000;   38.000
415.860;27391.200; -875.000; -767.000
415.986;22472.925; -685.000; -607.000
416.111; 2053.575; -798.000; -652.000
416.237;  460.775; -424.000; -571.000
416.363; 1675.575; -765.000; -733.000
416.489; 6654.175; -324.000; -251.000
416.615;  882.300; -707.000; -742.000
416.741;   50.325; -677.000; -784.000
416.866;  -70.125; -673.000; -736.000
416.992; -115.175; -801.000; -818.000
417.118;  -42.500;  -41.000;  -80.000
417.244;  -73.525; -798.000; -531.000
417.369;  -82.250; -801.000; -612.000
417.495;  -17.200; -325.000; -254.000
417.621;  -99.300;-1015.000; -803.000
417.746;    2.150; -579.000; -572.000
417.872;   59.125; -254.000; -144.000
417.998;  127.700; -515.000; -530.000
418.123; 1533.425;-1073.000; -845.000
418.249; 8534.850; -512.000; -601.000
418.374; 1415.025; -916.000; -824.000
418.500;  223.950; -383.000; -482.000
418.626;  176.600;   70.000;  -59.000
418.751;  142.975; -549.000; -448.000
418.877;  308.750; -637.000; -643.000
419.002; 2562.425; -688.000; -560.000
419.128;19343.950; -930.000; -721.000
419.253; 5438.900; -967.000; -837.000
419.379;  753.075; -391.000; -338.000
419.504;  570.750;  325.000;  415.000
419.629;  830.800; -393.000; -212.000
419.755; 5359.575; -317.000; -254.000
419.880;34595.575;  -98.000;   67.000
420.006;17386.650; -280.000; -221.000
420.131;43255.675; -662.000; -775.000
420.256; 6941.250; -315.000; -316.000
420.382;  936.325; -665.000; -687.000
420.507;  154.800; -649.000; -778.000
420.632;   40.425; -337.000; -339.000
420.758;   43.000; -251.000; -425.000
420.883; -115.325; -876.000; -672.000
421.008;  -96.875; -775.000; -619.000
421.133; -105.275; -509.000; -467.000
421.259;  -56.025; -325.000; -259.000
421.384; -133.800; -834.000; -693.000
421.509; -112.750;-1052.000; -862.000
421.634;  187.200; -936.000; -820.000
421.759;   85.725; -359.000; -327.000
421.885;  -87.125; -717.000; -656.000
422.010;  -99.050; -673.000; -542.000
422.135; -157.750; -695.000; -727.000
422.260;    0.500;  340.000;  280.000
422.385;  -53.700;   12.000;  -98.000
422.510;   -9.600;  151.000;  -26.000
422.635;  -28.275;  -87.000;  -43.000
422.760;  -21.350; -766.000; -791.000
422.885;   15.100;  -57.000;  -80.000
423.010;  -36.925; -112.000; -169.000
423.135;  -97.925; -481.000; -561.000
423.260;  -50.525; -150.000; -245.000
423.385;   20.475;  476.000;  222.000
423.510;   -2.675;   71.000;  -22.000
423.635;   13.625;  133.000;   45.000
423.760;   50.350;  383.000;  328.000
423.885;   36.275;  336.000;  391.000
424.010;   -8.850;  -68.000;  -13.000
424.135;  -22.825;    5.000;  -33.000
424.259;  -85.675; -654.000; -457.000
424.384;  -47.675; -279.000; -272.000
424.509;  -23.325; -260.000; -186.000
424.634;  -97.775; -761.000; -623.000
424.759;  -29.200; -688.000; -544.000
424.883;    1.375; -506.000; -527.000
425.008;  202.575; -502.000; -410.000
425.133; 2842.750; -679.000; -653.000
425.258; 1535.000; -517.000; -381.000
425.382;  532.175; -867.000; -774.000
425.507; 1228.650; -487.000; -543.000
425.632;  365.450; -802.000; -663.000
425.756;  684.900; -256.000; -146.000
425.881;10093.575; -831.000; -857.000
426.006;30937.575; -604.000; -355.000
426.130; 5072.050; -696.000; -508.000
426.255;  696.350; -611.000; -491.000
426.379;  277.650; -189.000; -577.000
426.504;  503.725;  660.000;  544.000
426.629; 5602.500; -519.000; -466.000
426.753; 4389.425;   64.000;  -46.000
426.878;  536.175; -252.000; -288.000
427.002;  296.450; -651.000; -668.000
427.127; 2081.475;  -35.000; -158.000
427.251;17279.800;  372.000;  401.000
427.375; 5582.950; -191.000; -173.000
427.500; 1331.025; -616.000; -610.000
427.624;  410.250; -234.000; -400.000
427.749;   71.700; -216.000; -225.000
427.873;  -33.450; -499.000; -412.000
427.997;  -45.525; -222.000; -230.000
428.122;   43.700;  795.000;  703.000
428.246;   45.000;  433.000;  434.000
428.371; -142.200; -869.000; -773.000
428.495; -120.775; -624.000; -646.000
428.619;  -50.875; -186.000; -117.000
428.743;   -2.725;   65.000;  132.000
428.868;  -86.600; -732.000; -643.000
428.992;  514.325; -219.000; -326.000
429.116;  191.875; -329.000; -357.000
429.240;  114.775;  419.000;  426.000
429.365;  -43.900; -454.000; -574.000
429.489;  -54.525; -638.000; -647.000
429.613;   18.700; -236.000; -177.000
429.737;   64.700; -563.000; -432.000
429.861;  373.900; -247.000; -133.000
429.985; 7910.925; -425.000; -305.000
430.109; 9962.900; -770.000; -908.000
430.234; 1217.200;   76.000;  -50.000
430.358;  141.900; -250.000; -160.000
430.482;  -50.950; -672.000; -564.000
430.606;  -76.725; -655.000; -375.000
430.730;  -61.525; -437.000; -388.000
430.854;  -79.650; -909.000; -835.000
430.978; -102.350; -795.000; -764.000
431.102; -107.175; -499.000; -422.000
431.226; -133.425; -874.000; -815.000
431.350;    7.275;  345.000;  422.000
431.474;  -89.925; -661.000; -373.000
431.597; -154.425;-1060.000; -848.000
431.721;  -81.050; -276.000; -267.000
431.845; -114.550; -704.000; -472.000
431.969;  -80.775; -304.000; -349.000
432.093;  -85.225; -395.000; -317.000
432.217;  -16.100;   32.000;   82.000
432.341;  -93.375; -523.000; -518.000
432.464;  -10.450;   96.000;   40.000
432.588;  -15.875; -401.000; -329.000
432.712;    1.275;  -52.000;  -52.000
432.836;   53.850;  213.000;  263.000
432.959;   14.150; -372.000; -311.000
433.083;  154.275;   11.000;    2.000
433.207;  544.200;  285.000;  930.000
433.330; 7578.075; -391.000; -200.000
433.454;10515.625; -654.000; -638.000
433.578; 5783.050;  583.000;  278.000
433.701; 1240.475; -623.000; -675.000
433.825;  140.950; -292.000; -299.000
433.949;   43.075;   28.000;  -72.000
434.072;  -12.125; -410.000; -323.000
434.196;  -16.550; -309.000; -117.000
434.319; 3525.950;25482.000;25124.000
434.443;  869.975; -656.000; -603.000
434.566; 4074.475;  281.000;   62.000
434.690;  868.950; -637.000; -383.000
434.813;  134.425; -251.000; -173.000
434.937;  -60.750; -569.000; -696.000
435.060;  -81.600; -423.000; -332.000
435.184;  -19.775; -492.000; -217.000
435.307;    6.925;  159.000;  102.000
435.431;  -26.450;  -40.000;   24.000
435.554;  -87.150; -399.000; -240.000
435.677;  -91.125; -350.000; -258.000
435.801;  -60.850;  -25.000;   49.000
435.924;  -45.750;    1.000;  -67.000
436.048; -155.775;-1019.000; -732.000
436.171;  -70.700; -240.000;  -66.000
436.294;  -16.800; -248.000; -229.000
436.417;  228.350; -963.000; -849.000
436.541;  -36.425; -814.000; -840.000
436.664;  -45.925; -242.000; -316.000
436.787;  -32.650;   13.000;  113.000
436.910; -121.750; -792.000; -422.000
437.034;  -27.575;  142.000;  143.000
437.157;   -7.450;  -11.000;    0.000
437.280;  -95.375; -392.000; -292.000
437.403; -144.050; -982.000; -869.000
437.526;    1.600; -903.000; -865.000
437.649;  478.725; -505.000; -332.000
437.772;   -3.850; -692.000; -540.000
437.896;   59.750;  700.000;  544.000
438.019;  -98.275; -758.000; -503.000
438.142; -121.850; -596.000; -506.000
438.265; -111.975; -639.000; -670.000
438.388;   20.650; -520.000; -410.000
438.511;  -71.400; -597.000; -394.000
438.634;  -73.350; -247.000; -125.000
438.757; -149.100; -693.000; -619.000
438.880;  -67.400;  -34.000;  -57.000
439.003; -106.050; -417.000; -437.000
439.126;  -62.625; -287.000; -167.000
439.248;  -80.925;  -98.000; -139.000
439.371;  -57.225;    9.000;  -53.000
439.494;   11.250;  510.000;  439.000
439.617;  -71.175;   65.000;  -88.000
439.740; -180.750; -968.000; -816.000
439.863; -147.000; -755.000; -595.000
439.986; -138.225; -476.000; -431.000
440.108;  -38.575; -161.000; -112.000
440.231; -161.950; -950.000; -836.000
440.354;  -70.100;  -64.000; -150.000
440.477; -107.350; -566.000; -542.000
440.599;  -84.800; -200.000; -225.000
440.722; -132.250; -709.000; -586.000
440.845;   52.600;  751.000;  928.000
440.968; -117.375; -415.000; -311.000
441.090;  -75.275; -199.000;  -33.000
441.213; -166.650;-1021.000; -825.000
441.336;  -65.775; -159.000;   -5.000
441.458;  -96.100; -549.000; -396.000
441.581; -133.350; -628.000; -629.000
441.703;  -84.550; -152.000;   13.000
441.826; -123.675; -557.000; -400.000
441.948;  -50.775;   56.000;   51.000
442.071;   24.525;  555.000;  424.000
442.193; -131.325; -531.000; -485.000
442.316;   13.700;  152.000;   97.000
442.438;   77.725; -233.000;  -10.000
442.561;   56.950;  272.000;  262.000
442.683;   48.450; -809.000; -522.000
442.806;  258.175;   -8.000;   74.000
442.928; -109.850; -859.000; -604.000
443.051;  -96.575; -577.000; -373.000
443.173; -104.175; -341.000; -339.000
443.295;  -96.050; -263.000; -371.000
443.418;  -79.000; -321.000;  -29.000
443.540;  -45.600; -106.000;   -4.000
443.662; -134.525; -563.000; -465.000
443.785;  -24.925;  335.000;  199.000
443.907;  -88.550; -362.000; -208.000
444.029; -119.700; -767.000; -494.000
444.152; -142.775; -644.000; -554.000
444.274;  -49.250;  -18.000;  -24.000
444.396; -122.875; -461.000; -221.000
444.518; -147.825; -691.000; -454.000
444.640; -104.325; -268.000; -111.000
444.763;  -29.725;  388.000;  249.000
444.885; -116.250; -432.000; -392.000
445.007;  -46.925;   35.000;   86.000
445.129; -149.250; -610.000; -515.000
445.251; -117.775; -372.000; -439.000
445.373; -144.500; -537.000; -386.000
445.495;  -11.700;  242.000;  350.000
445.617;   29.200;  853.000;  753.000
445.739;  -85.925; -215.000;  -97.000
445.861;  -67.800; -245.000; -112.000
445.984;  -72.550; -267.000; -101.000
446.105;  -22.275; -418.000; -251.000
446.227;   99.975; -176.000;  -19.000
446.349;  -85.625; -358.000; -249.000
446.471; -121.275; -615.000; -448.000
446.593; -106.850; -316.000;   19.000
446.715;  -59.525;  -67.000;   41.000
446.837;   38.900;  697.000;  832.000
446.959; -106.950; -457.000; -478.000
447.081; -145.925; -628.000; -518.000
447.203;   35.300;  862.000;  834.000
447.325; -101.775; -270.000;   42.000
447.446;  -15.500;  286.000;  530.000
447.568; -164.725; -921.000; -803.000
447.690;  -91.750; -236.000; -245.000
447.812; -162.175; -798.000; -519.000
447.933;  -30.525;  155.000;  127.000
448.055;  -79.375; -306.000; -261.000
448.177;   30.500;   31.000;   79.000
448.299; -102.275; -935.000; -727.000
448.420;  -23.775;  -25.000;  159.000
448.542;  -62.800;   -3.000;   33.000
448.664;  -34.950;  109.000;  322.000
448.785;  -41.900;  265.000;   83.000
448.907; -113.625; -614.000; -353.000
449.028; -117.625; -771.000; -471.000
449.150;   25.550;  492.000;  589.000
449.272; -179.525;-1044.000; -913.000
449.393;   24.000;  612.000;  694.000
449.515; -149.525; -634.000; -581.000
449.636;  -74.900; -264.000; -155.000
449.758;   39.600;  763.000;  622.000
449.879;  -92.900; -498.000; -396.000
450.001;  -99.825; -149.000;  -49.000
450.122;  -40.075;  -95.000;  162.000
450.244;  -22.825;   37.000;  364.000
450.365;  -74.825; -495.000; -301.000
450.486;  -12.075;   80.000;  268.000
450.608;   28.050;  393.000;  326.000
450.729;  109.475;  578.000;  645.000
450.850;  103.275; -574.000; -466.000
450.972; 1203.600; -552.000; -389.000
451.093; 7910.900;  190.000;  588.000
451.214; 4086.700; -516.000; -337.000
451.336;  690.725;  773.000;  579.000
451.457;  114.725;  264.000;  393.000
451.578;  -36.025; -118.000;  -74.000
451.699; -119.175; -546.000; -540.000
451.821;  -71.450; -284.000;  -50.000
451.942;    1.100;  278.000;  285.000
452.063;   39.375;  228.000;  419.000
452.184;  799.475;  -54.000;  -49.000
452.305; 1726.625;  103.000;  170.000
452.427;  326.000; -549.000; -301.000
452.548;   12.725;   23.000;   79.000
452.669;  -64.375; -257.000;  -89.000
452.790;  -68.875;    3.000;  -18.000
452.911;  -16.175;  195.000;  259.000
453.032;  -79.600; -289.000;  -60.000
453.153;  -73.350;  -29.000;   81.000
453.274;   27.775;  737.000;  868.000
453.395;  -67.650;  -51.000;  175.000
453.516;   81.800; 1317.000; 1388.000
453.637; -102.550; -205.000; -150.000
453.758;  -69.925;   15.000;   69.000
453.879; -122.225; -462.000; -250.000
454.000;   54.975; 1086.000;  948.000
454.121; -141.175; -554.000; -326.000
454.242; -122.875; -599.000; -383.000
454.362;  -64.250;  -99.000;  114.000
454.483;  -26.975; -309.000; -229.000
454.604;   47.525;  512.000;  580.000
454.725; -142.450; -627.000; -555.000
454.846; -121.375; -474.000; -406.000
454.967;  -20.375;  230.000;  539.000
455.087;  -44.175;  179.000;  153.000
455.208;   26.600;  554.000;  856.000
455.329;  -62.550;  -22.000;   82.000
455.450;   53.575;  473.000;  633.000
455.570;  -65.950; -234.000; -211.000
455.691;  -52.025;  201.000;  407.000
455.812;  -89.925; -270.000;  -92.000
455.932;  -62.300;  107.000;  -97.000
456.053;  -77.450;   36.000;   24.000
456.173; -116.050; -433.000; -355.000
456.294; -139.675; -476.000; -303.000
456.415;  -77.875;  -73.000;   70.000
456.535;  -53.325;  297.000;  273.000
456.656;  -42.575;  132.000;  240.000
456.776;  -80.900;    3.000;  298.000
456.897;  -16.150;  308.000;  513.000
457.017;  -72.325; -153.000;   -3.000
457.138; -117.000; -402.000; -249.000
457.258;  -43.000;  263.000;  224.000
457.379;  -22.650;  509.000;  521.000
457.499;  -33.350;  443.000;  432.000
457.620; -129.850; -407.000; -231.000
457.740; -110.275; -132.000;  -11.000
457.860;  -53.475;   87.000;   44.000
457.981;  -43.975;  132.000;  124.000
458.101;  -71.550;  -89.000;   40.000
458.221;  -29.250;  336.000;  402.000
458.342;  -60.975;   -4.000;  -37.000
458.462;   48.300;  617.000;  352.000
458.582;   16.550; -302.000; -294.000
458.703;   57.675;  303.000;  154.000
458.823;   14.475;   22.000;  163.000
458.943;   49.725;  341.000;  467.000
459.063;    4.675; 1124.000;  192.000
459.183;  -20.525;  328.000;  313.000
459.304;   16.400;  315.000;  517.000
459.424;  -44.325; -246.000;  -89.000
459.544;  474.925;  388.000;  764.000
459.664; 1300.200;  499.000;  506.000
459.784;  497.450; 1004.000; 1175.000
459.904;   83.900;  867.000;  744.000
460.024;   51.375;  867.000;  684.000
460.144;  -23.500;  449.000;  554.000
460.264;  -20.800;  515.000;  327.000
460.385;  -89.325; -145.000; -119.000
460.505;   30.475;  905.000;  858.000
460.625;  -87.725;  -17.000;  -68.000
460.745;  -13.525;  396.000;  541.000
460.864;  -45.675;  153.000;  469.000
460.984;   23.850;  499.000;  573.000
461.104;  143.500; 1656.000; 1775.000
461.224;   18.150;  657.000;  650.000
461.344;  -40.250;  431.000;  360.000
461.464;  -35.325;  258.000;  513.000
461.584;  -37.475;  283.000;  466.000
461.704;  -68.800;   58.000;  108.000
461.824;  -72.500;  238.000;  259.000
461.943;  -55.625;  191.000;  130.000
462.063;  -72.550;    2.000;  324.000
462.183;   17.450;  639.000;  717.000
462.303;   76.100; 1678.000; 1230.000
462.422;   34.875;  781.000;  840.000
462.542;  -36.375;  271.000;  391.000
462.662;   47.875;  353.000;  380.000
462.782;  320.850;  833.000;  572.000
462.901;  717.500;  545.000;  717.000
463.021;  391.300; 1702.000; 1638.000
463.141;    8.275;  337.000;  770.000
463.260;  -23.575;  614.000;  474.000
463.380;    8.300;  902.000;  884.000
463.499;  -44.000;  342.000;  332.000
463.619;  -28.425;  581.000;  559.000
463.738;   93.175; 1644.000;  903.000
463.858;   12.475;  657.000;  811.000
463.978;  -35.550;  542.000;  396.000
464.097;   45.775;  921.000; 1114.000
464.217;  146.675; 1196.000; 1143.000
464.336;  147.800; 1068.000; 1130.000
464.455;  -34.575;  328.000;  659.000
464.575;   13.700;  597.000;  602.000
464.694;  136.900; 1204.000; 1179.000
464.814;  168.000; 1190.000; 1138.000
464.933;   73.025; 1095.000; 1027.000
465.052;   85.075; 1412.000; 1054.000
465.172;   60.425;  922.000;  799.000
465.291;  112.875; 1376.000; 1320.000
465.410;   17.825;  462.000;  735.000
465.530;   88.325; 1355.000; 1310.000
465.649;   52.575; 1209.000; 1273.000
465.768;  132.425; 1673.000; 1508.000
465.888;   44.375;  941.000; 1174.000
466.007;   98.750; 1335.000; 1440.000
466.126;   -7.325;  721.000;  641.000
466.245;   38.950; 1176.000; 1187.000
466.364;   23.675;  950.000; 1060.000
466.484;   47.525; 1024.000; 1213.000
466.603;   31.025; 1101.000; 1222.000
466.722;  103.550; 1490.000; 1769.000
466.841;   59.600; 1151.000; 1401.000
466.960;   36.900; 1069.000;  972.000
467.079;  130.550; 1971.000; 1786.000
467.198;   47.275; 1238.000; 1181.000
467.317;   90.450; 1768.000; 1162.000
467.436;   72.525; 1709.000; 1261.000
467.555;  111.925; 1796.000; 1746.000
467.674;   61.625; 1227.000; 1329.000
467.793;   25.625; 1376.000; 1374.000
467.912;   86.450; 1658.000; 1539.000
468.031;  122.650; 2038.000; 1930.000
468.150;  127.750; 1842.000; 1837.000
468.269;  164.700; 2313.000; 2090.000
468.388;  160.450; 2168.000; 2339.000
468.507;  235.150; 2884.000; 2903.000
468.626;  258.975; 2555.000; 2541.000
468.744;  137.050; 2018.000; 2174.000
468.863;  205.525; 2312.000; 2523.000
468.982;   92.175; 1503.000; 1555.000
469.101;  207.600; 2788.000; 2692.000
469.220;  151.575; 2333.000; 2176.000
469.338;  257.375; 2935.000; 3051.000
469.457;  194.325; 2719.000; 2545.000
469.576;  325.475; 3953.000; 3784.000
469.695;  230.450; 2877.000; 3066.000
469.813;  388.775; 4148.000; 4192.000
469.932;  404.200; 4255.000; 4485.000
470.051;  458.675; 4075.000; 4161.000
470.169; 1023.000; 4470.000; 4338.000
470.288; 1994.475; 4700.000; 4809.000
470.406; 1164.550; 5059.000; 5194.000
470.525;  638.725; 6101.000; 5787.000
470.644;  652.775; 6847.000; 6794.000
470.762;  808.225; 8397.000; 7873.000
470.881;  906.550; 8651.000; 8464.000
470.999; 1094.800; 9685.000; 9151.000
471.118; 1124.650;11174.000;10711.000

