
Integration time [ms]: 100.000
Averaging Nr. [scans]: 40
Smoothing Nr. [pixels]: 0
Data measured with spectrometer [name]: 2101012U2
Wave   ;Sample   ;Dark     ;Reference
[nm]   ;[counts] ;[counts] ;[counts] 

197.733;   69.025;  516.000;  404.000
197.879;  -69.525; -610.000; -634.000
198.025;  -52.100; -475.000; -420.000
198.171;  -65.475; -602.000; -612.000
198.317;  -24.525; -401.000; -316.000
198.463;  -53.400; -655.000; -404.000
198.609;   32.050;  181.000; -137.000
198.755;  -71.325; -644.000; -410.000
198.901;  -73.975; -505.000; -424.000
199.047;  -64.525; -615.000; -488.000
199.193;  -37.725; -230.000; -468.000
199.339;  -41.300; -222.000; -369.000
199.485;   50.225;  330.000;  271.000
199.631;   25.425;  227.000;  310.000
199.777;  -53.725; -466.000; -398.000
199.923;  -64.975; -610.000; -424.000
200.069;   11.900; -141.000;  -58.000
200.215;   65.800;  128.000;  453.000
200.361;   41.300;  243.000;  477.000
200.507;  -52.850; -600.000; -373.000
200.653;  -21.325; -371.000; -194.000
200.798;  -35.700; -215.000; -125.000
200.944;   -3.850; -146.000;  -41.000
201.090;   48.475;   61.000;  222.000
201.236;   -2.725; -116.000; -158.000
201.382;  153.525;  874.000;  903.000
201.528;   14.225;  -58.000;  -48.000
201.674;  -30.425; -386.000; -293.000
201.819;  -65.600; -540.000; -439.000
201.965;  -66.825; -699.000; -447.000
202.111;  -20.450; -273.000; -226.000
202.257;  -32.600; -250.000; -238.000
202.402;   12.875;   13.000;  -36.000
202.548;  -19.700; -169.000; -116.000
202.694;   81.125;  410.000; -183.000
202.840;  -67.725; -603.000; -531.000
202.985;  -78.650; -681.000; -639.000
203.131;  -90.025; -832.000; -666.000
203.277;  -20.200; -199.000; -262.000
203.423;  -46.100; -434.000; -520.000
203.568;  -36.750; -462.000; -237.000
203.714;  -55.225; -535.000; -542.000
203.860;  -75.050; -682.000; -641.000
204.005;   20.325;  112.000;  167.000
204.151;   70.875;  561.000;  556.000
204.296;  -26.475; -354.000; -221.000
204.442;  -71.650; -600.000; -547.000
204.588;  -70.600; -592.000; -579.000
204.733;   37.825;  178.000;  168.000
204.879; -130.725;-1018.000; -822.000
205.025;    4.400;  -99.000;  126.000
205.170;    8.725;  -17.000;   94.000
205.316;   92.450;  438.000;  661.000
205.461;  -70.675; -698.000; -554.000
205.607;   82.525;  609.000;  665.000
205.752;  -79.375; -626.000; -551.000
205.898;  -61.850; -501.000; -391.000
206.043;  -61.825; -578.000; -506.000
206.189;  -42.475; -243.000; -285.000
206.334;   97.775;  554.000;  606.000
206.480;   81.850;  409.000;  239.000
206.625;  -80.125; -529.000; -552.000
206.771;  -43.300; -451.000; -373.000
206.916;  -20.800; -210.000; -537.000
207.062;  -65.725; -545.000; -591.000
207.207;  -58.200; -546.000; -443.000
207.353;   62.475;  185.000;  460.000
207.498;    5.400;  196.000;   85.000
207.643;  -44.250; -501.000; -370.000
207.789; -107.900;-1069.000; -910.000
207.934;  -89.175; -665.000; -713.000
208.080;  -23.550; -154.000;   66.000
208.225;  -15.075;  -22.000;  -57.000
208.370;  -83.875; -727.000; -619.000
208.516;  -82.400; -741.000; -487.000
208.661;  -27.200; -127.000;  -69.000
208.806;  -30.025; -165.000; -171.000
208.952; -122.550;-1044.000; -731.000
209.097;   71.850;  378.000;  349.000
209.242;  -39.525; -307.000; -382.000
209.387;   64.175;  392.000;  350.000
209.533;  -48.250; -321.000; -350.000
209.678;   65.250;  472.000;  543.000
209.823;  -62.575; -408.000; -310.000
209.969; -102.550; -860.000; -757.000
210.114; -102.225; -907.000; -719.000
210.259; -117.225; -939.000; -889.000
210.404;    2.375; -171.000;  103.000
210.549;   26.600;  108.000;    3.000
210.695;  -12.600;   -3.000;  -95.000
210.840;   41.875;   94.000;   67.000
210.985;  -59.800; -484.000; -303.000
211.130;   71.350;  268.000;  406.000
211.275;   15.275;  207.000;  199.000
211.420;  -47.600; -300.000; -289.000
211.566;  -68.225; -536.000; -489.000
211.711;   26.175;  218.000;  157.000
211.856;  -67.600; -545.000; -519.000
212.001;   13.925;  151.000;   44.000
212.146;   39.675;  153.000;   49.000
212.291;  -34.625; -210.000; -186.000
212.436;  -25.175; -280.000;   -6.000
212.581;  -86.500; -685.000; -653.000
212.726;  -76.825; -487.000; -538.000
212.871;  -47.650; -552.000; -217.000
213.016; -145.875;-1172.000;-1029.000
213.161;   68.775;  406.000;  291.000
213.306;  -77.600; -435.000; -577.000
213.451;  -92.925; -778.000; -689.000
213.596;  -40.000; -455.000; -347.000
213.741;  -68.200; -448.000; -538.000
213.886;  -73.700; -498.000; -517.000
214.031;  -24.425; -294.000; -124.000
214.176;  -51.125; -408.000; -341.000
214.321;  -16.375; -296.000; -157.000
214.466;  -12.625; -163.000;  -43.000
214.611;    0.675;  -61.000;  -10.000
214.756; -120.600; -948.000; -858.000
214.901;  -14.925; -388.000; -226.000
215.046; -122.775; -797.000; -825.000
215.191;   15.175;  128.000;   35.000
215.336;  -12.375; -157.000;  -19.000
215.480;  -64.250; -684.000; -505.000
215.625;   -2.475; -175.000;  -19.000
215.770;  -85.100; -757.000; -662.000
215.915;   -3.875;   -5.000;  -97.000
216.060;   -5.950; -113.000;  -21.000
216.205;  -98.600; -731.000; -779.000
216.349;  -82.675; -470.000; -533.000
216.494; -138.875; -939.000; -867.000
216.639; -122.125; -823.000; -888.000
216.784;  -83.750; -577.000; -525.000
216.929;   45.275;  392.000;  281.000
217.073;  -13.350; -244.000;  -31.000
217.218;    7.850;   78.000;  -47.000
217.363;  -90.350; -656.000; -618.000
217.507;  -69.450; -623.000; -588.000
217.652; -117.775; -845.000; -874.000
217.797; -103.975; -708.000; -659.000
217.942; -106.600; -856.000; -720.000
218.086;   78.325;  608.000;  539.000
218.231;   -8.125; -174.000;  -26.000
218.376;  -30.350; -337.000; -229.000
218.520;   18.475;  -41.000;   96.000
218.665;  -39.950; -338.000; -204.000
218.810;  -41.125; -275.000; -233.000
218.954;   27.850;  201.000;   35.000
219.099; -107.850; -713.000; -963.000
219.243;  -69.400; -589.000; -554.000
219.388;  -10.525; -264.000; -136.000
219.532;    0.225; -116.000; -116.000
219.677;  -77.200; -564.000; -521.000
219.822;    1.000;   33.000;   89.000
219.966;   10.950;   17.000;  -99.000
220.111;  -18.775; -328.000;  -40.000
220.255;  -90.800; -797.000; -750.000
220.400;  -17.475; -180.000; -146.000
220.544;  -66.350; -516.000; -450.000
220.689;  -47.675; -422.000; -451.000
220.833;  -18.500; -123.000;  -58.000
220.978;  -49.750; -393.000; -563.000
221.122;   30.625;  319.000;  307.000
221.267; -121.675; -906.000; -837.000
221.411;  -58.225; -478.000; -394.000
221.555;   -1.125; -104.000;  -23.000
221.700;  -40.875; -329.000; -222.000
221.844;   27.500;  255.000;  272.000
221.989;  -38.800; -328.000; -311.000
222.133;  -20.150; -289.000; -307.000
222.277;   -0.725;    5.000;   78.000
222.422;   29.050;  227.000;  113.000
222.566;  -34.650; -381.000; -214.000
222.711;  -49.450; -414.000; -479.000
222.855;  -72.175; -643.000; -586.000
222.999;  -95.600; -642.000; -717.000
223.144;  -19.100; -195.000; -194.000
223.288;   47.800;  423.000;  251.000
223.432;   46.225;  184.000;  230.000
223.576;   24.200;  152.000;  -21.000
223.721;   43.000;  364.000;  273.000
223.865;  -61.300; -472.000; -475.000
224.009;  229.750; 1673.000; 1631.000
224.153;  -70.075; -660.000; -671.000
224.298;  -59.925; -531.000; -489.000
224.442;  -14.250;  -74.000;  -33.000
224.586;   -7.100; -169.000; -106.000
224.730; -101.425; -858.000; -670.000
224.875; -100.525; -739.000; -688.000
225.019;   19.400;  102.000;  188.000
225.163;   54.600;  208.000;  341.000
225.307;   26.750;   97.000;  -91.000
225.451;   54.700;  360.000;  481.000
225.595;   47.025;  264.000;  176.000
225.739;   -9.225; -170.000;  -94.000
225.884;   -5.800;   86.000;    5.000
226.028;  -97.450; -760.000; -626.000
226.172;  -34.075; -260.000; -273.000
226.316; -124.075; -941.000; -902.000
226.460;  -57.050; -645.000; -493.000
226.604;  -35.600; -406.000; -400.000
226.748; -104.325; -836.000; -733.000
226.892;  -32.225; -227.000; -181.000
227.036;  -57.400; -537.000; -447.000
227.180;  -60.725; -551.000; -375.000
227.324;  -63.850; -561.000; -580.000
227.468; -107.750; -819.000; -717.000
227.612;   22.375;  242.000;  -28.000
227.756; -102.550; -845.000; -698.000
227.900;   57.525;  342.000;  441.000
228.044;  -44.200; -509.000; -290.000
228.188;   66.725;  448.000;  568.000
228.332;  -74.250; -546.000; -472.000
228.476;  -20.200; -223.000; -149.000
228.620;  -27.475; -210.000; -150.000
228.764;   71.400;  431.000;  349.000
228.908;  -21.350; -155.000;   30.000
229.052;  -59.575; -615.000; -528.000
229.195;  -22.700; -172.000;   13.000
229.339;  -38.375; -235.000; -305.000
229.483;  -21.400;    5.000; -162.000
229.627;    9.275; -156.000;  139.000
229.771;  -42.150; -218.000; -294.000
229.915;    5.875;  230.000;   79.000
230.059;  -89.800; -648.000; -663.000
230.202;  -29.125; -370.000; -317.000
230.346;   -5.425; -107.000;  107.000
230.490;  -44.200; -489.000; -521.000
230.634; -102.575; -736.000; -553.000
230.777;   78.375;  478.000;  509.000
230.921;  -51.975; -450.000; -359.000
231.065;  -33.700; -246.000; -286.000
231.209;   30.450;  261.000;  265.000
231.352;   27.900;   54.000;   40.000
231.496;   19.500;  568.000;  188.000
231.640;  -91.375; -693.000; -621.000
231.783;   70.275;  546.000;  525.000
231.927;  -41.925; -294.000; -365.000
232.071; -114.175; -962.000; -736.000
232.214; -116.525; -980.000; -764.000
232.358;  -90.625; -683.000; -599.000
232.502;   12.300;  -19.000;    7.000
232.645; -146.700;-1090.000; -927.000
232.789;  -25.750; -257.000; -218.000
232.933;  -31.950; -407.000; -224.000
233.076; -123.100;-1038.000; -897.000
233.220; -104.400; -752.000; -777.000
233.363;  -77.550; -669.000; -477.000
233.507;   50.225;  371.000;  129.000
233.650; -100.325; -764.000; -834.000
233.794;   50.575;  438.000;  461.000
233.938;  -68.425; -530.000; -362.000
234.081;  -17.550;  -93.000;   31.000
234.225;  -59.550; -631.000; -539.000
234.368; -112.350; -773.000; -723.000
234.512;  -45.650; -385.000; -299.000
234.655;  -88.025; -582.000; -555.000
234.798;  -75.850; -493.000; -466.000
234.942; -129.900; -884.000;-1002.000
235.085;  -74.050; -651.000; -443.000
235.229;  -59.025; -405.000; -410.000
235.372;  -44.825; -247.000; -191.000
235.516;  -51.275; -397.000; -321.000
235.659;   21.550;   92.000;  121.000
235.802;   -9.500;  -38.000;  -22.000
235.946;   26.100;  335.000;  215.000
236.089;   38.775;  126.000;  250.000
236.233;   51.975;  275.000;  298.000
236.376;  -50.725; -235.000; -378.000
236.519;  -49.325; -297.000; -319.000
236.663;  -23.550; -215.000; -117.000
236.806; -141.700;-1029.000; -999.000
236.949;   56.800;  543.000;  431.000
237.092;   61.775;  412.000;  391.000
237.236;  -83.750; -589.000; -502.000
237.379;   80.350;  352.000;  428.000
237.522; -115.300; -879.000; -768.000
237.666;  -13.825; -271.000;   18.000
237.809; -124.600; -851.000; -823.000
237.952;   41.725;  469.000;  271.000
238.095;  -66.325; -447.000; -442.000
238.238;   86.150;  688.000;  700.000
238.382;    6.400;  166.000;  103.000
238.525;  -70.450; -598.000; -511.000
238.668; -141.950;-1060.000; -985.000
238.811;  -89.250; -638.000; -643.000
238.954;  -45.800; -483.000; -334.000
239.097;   94.550;  617.000;  664.000
239.241;   34.150;  394.000;  326.000
239.384;  -19.600; -254.000; -214.000
239.527;  -63.150; -424.000; -224.000
239.670; -139.925; -994.000;-1091.000
239.813; -107.600; -696.000; -658.000
239.956;   76.700;  579.000;  473.000
240.099; -117.500; -778.000; -725.000
240.242;   57.800;  428.000;  432.000
240.385;   39.775;  466.000;  450.000
240.528;  -65.775; -706.000; -473.000
240.671;   18.200;  189.000;  134.000
240.814;  -29.250; -441.000; -158.000
240.957;  -87.425; -767.000; -578.000
241.100;  -90.350; -779.000; -755.000
241.243; -139.875;-1234.000; -893.000
241.386;  -68.325; -508.000; -379.000
241.529;  -97.100; -735.000; -547.000
241.672;  -58.500; -566.000; -495.000
241.815; -119.525; -832.000; -808.000
241.958;  -22.275; -125.000; -182.000
242.101;  -70.525; -545.000; -390.000
242.244;  -34.975; -270.000; -325.000
242.387;  -45.925; -304.000; -246.000
242.530;   47.675;  470.000;  134.000
242.673;  -42.975; -381.000; -309.000
242.815; -119.800; -925.000; -899.000
242.958;  -65.275; -482.000; -381.000
243.101;   24.375;  132.000;  187.000
243.244;  -91.050; -564.000; -521.000
243.387;  -47.625; -313.000; -316.000
243.530;  -95.700; -657.000; -674.000
243.672;   15.200;   43.000;  -92.000
243.815;  -50.875; -355.000; -283.000
243.958;    1.400;   98.000;  -26.000
244.101;    9.825;   59.000;  -16.000
244.243;  -15.325;  -47.000;  101.000
244.386; -106.200; -761.000; -630.000
244.529;  -18.025; -132.000; -139.000
244.672; -156.475;-1154.000; -951.000
244.814; -100.950; -621.000; -794.000
244.957;  -54.975; -380.000; -304.000
245.100;  -76.400; -489.000; -489.000
245.242;  -63.600; -387.000; -374.000
245.385;   -4.725;  -59.000;  -39.000
245.528; -112.475; -871.000; -705.000
245.670;   91.525;  612.000;  634.000
245.813;  -90.725; -599.000; -547.000
245.956;  -21.500; -324.000; -275.000
246.098;  -64.275; -508.000; -650.000
246.241;    6.925;  194.000;   48.000
246.383;  -10.025; -119.000;  -73.000
246.526;  -82.725; -454.000; -525.000
246.669; -117.250; -889.000; -780.000
246.811;   18.425;  172.000;   -1.000
246.954;  -51.525; -512.000; -426.000
247.096;  -25.325;  -84.000;   -6.000
247.239;  -72.500; -482.000; -445.000
247.381;  -64.625; -647.000; -488.000
247.524;   83.425;  645.000;  679.000
247.666;   -6.125;   58.000;   11.000
247.809; -123.425; -887.000; -691.000
247.951;   -9.325;  -75.000;  138.000
248.094;   26.425;  432.000;  308.000
248.236; -148.550;-1262.000;-1238.000
248.378;    4.075; -356.000;  -81.000
248.521;  -22.725; -334.000; -337.000
248.663;  -51.100; -236.000; -267.000
248.806;  -30.450; -300.000; -266.000
248.948;  -89.125; -886.000; -763.000
249.090;  -55.700; -428.000; -398.000
249.233;  -35.575; -344.000; -381.000
249.375;  -70.275; -474.000; -451.000
249.518;  -13.600;  -83.000; -133.000
249.660;  -20.875; -103.000;    3.000
249.802; -168.000;-1303.000;-1189.000
249.945;  -87.825; -612.000; -540.000
250.087; -110.625; -834.000; -768.000
250.229;  -46.000; -362.000; -480.000
250.371;  -74.700; -494.000; -439.000
250.514;  -58.325; -310.000; -244.000
250.656;   11.725;   69.000;  102.000
250.798; -119.800; -849.000; -800.000
250.940;  -56.675; -322.000; -322.000
251.083;  -20.575; -335.000; -111.000
251.225;   61.675;  338.000;  310.000
251.367;  -35.150; -274.000; -373.000
251.509;  -36.125; -265.000; -210.000
251.651; -102.025; -731.000; -671.000
251.794;   46.225;  538.000;  632.000
251.936; -110.650; -821.000; -747.000
252.078;  -75.575; -540.000; -461.000
252.220;  -63.775; -645.000; -477.000
252.362;   93.800;  344.000;  462.000
252.504;  -83.175; -677.000; -584.000
252.646; -123.125; -875.000; -722.000
252.788;   -5.625;   14.000; -128.000
252.931;  -29.900; -257.000; -253.000
253.073;  -39.800; -376.000; -317.000
253.215;   -8.775;  141.000;  122.000
253.357;   -3.625;   82.000; -153.000
253.499;  -60.900; -374.000; -234.000
253.641;  -85.125; -749.000; -594.000
253.783;  -93.100; -609.000; -527.000
253.925;  -89.575; -586.000; -591.000
254.067; -108.575; -744.000; -667.000
254.209;  -36.725; -391.000; -259.000
254.351; -134.000; -865.000; -883.000
254.493;  -69.050; -441.000; -417.000
254.635; -134.675; -936.000; -818.000
254.777;  -86.825; -752.000; -687.000
254.918;  -67.700; -512.000; -430.000
255.060;  -66.500; -551.000; -395.000
255.202;  -39.425; -473.000; -261.000
255.344;  -80.225; -658.000; -455.000
255.486;  -74.325; -471.000; -406.000
255.628; -116.375; -780.000; -781.000
255.770; -103.925; -676.000; -536.000
255.912;  -58.150; -559.000; -468.000
256.053;  -85.100; -730.000; -508.000
256.195;  161.250; 1008.000;  903.000
256.337;  -98.475; -861.000; -595.000
256.479;   53.500;  532.000;  416.000
256.621;  -54.375; -394.000; -212.000
256.762; -101.975; -789.000; -742.000
256.904;   54.850;  485.000;  487.000
257.046;  -42.550; -381.000; -271.000
257.188;  -46.075; -351.000; -264.000
257.329;  -80.700; -525.000; -464.000
257.471; -128.200; -939.000; -807.000
257.613;  -55.450; -584.000; -498.000
257.755; -143.175;-1073.000; -982.000
257.896;   49.100;  286.000;  392.000
258.038;  -74.375; -403.000; -352.000
258.180;  -42.650; -354.000; -279.000
258.321;  -99.825; -581.000; -457.000
258.463;    0.700;  -71.000;  133.000
258.605;  -92.300; -562.000; -570.000
258.746; -101.925; -886.000; -772.000
258.888; -154.975;-1026.000;-1020.000
259.029;   25.650;  121.000;   -8.000
259.171;  -81.600; -614.000; -550.000
259.313;   -7.500;  -49.000;  -47.000
259.454;  -72.500; -536.000; -414.000
259.596;  -47.775; -483.000; -390.000
259.737;  -71.450; -590.000; -474.000
259.879;   46.875;  217.000;  311.000
260.020;   81.775;  901.000;  636.000
260.162;  -18.350; -146.000; -253.000
260.303; -129.225; -768.000; -687.000
260.445;  -83.675; -609.000; -613.000
260.586;   28.275;  392.000;  157.000
260.728;  -48.900; -360.000; -248.000
260.869; -125.700; -350.000; -343.000
261.011;   81.325;  706.000;  537.000
261.152;  -67.150; -479.000; -319.000
261.293;  -87.300; -576.000; -595.000
261.435;  -22.150; -219.000; -184.000
261.576;  -39.000; -455.000; -325.000
261.718;   60.825;  420.000;  470.000
261.859; -133.475; -940.000; -949.000
262.000; -134.950; -951.000;-1016.000
262.142;  -18.725;  -52.000;  -60.000
262.283; -109.950; -808.000; -691.000
262.424;  -87.050; -666.000; -625.000
262.566; -155.225;-1161.000; -983.000
262.707; -112.650; -840.000; -830.000
262.848; -121.375; -769.000; -726.000
262.990;  -44.000; -362.000; -345.000
263.131;   86.725;  650.000;  681.000
263.272;  -10.425;  -61.000;  -41.000
263.413;  -86.825; -589.000; -561.000
263.555;  -75.475; -669.000; -143.000
263.696;  -83.100; -550.000; -641.000
263.837;  -69.050; -449.000; -551.000
263.978;   -0.950;   -5.000;  -77.000
264.119;  -50.475; -283.000; -264.000
264.261; -102.325; -847.000; -630.000
264.402;    4.125;   33.000;   40.000
264.543;  -56.800; -509.000; -524.000
264.684;  -13.025;   61.000;  -50.000
264.825;  -70.200; -816.000; -538.000
264.966;   -0.750;  -84.000;  -67.000
265.107; -105.025; -646.000; -670.000
265.248; -113.425; -825.000; -812.000
265.390;   -1.350;  152.000;   -9.000
265.531;  -20.675; -238.000; -107.000
265.672;  -93.975; -557.000; -630.000
265.813;   64.725;  563.000;  439.000
265.954; -149.750; -959.000; -940.000
266.095;  -22.500; -372.000; -322.000
266.236; -101.850; -686.000; -548.000
266.377;  -38.425; -243.000; -297.000
266.518;  -61.400; -619.000; -547.000
266.659;   24.125;  170.000;  268.000
266.800;   14.800;   83.000;   85.000
266.941;  -74.850; -487.000; -478.000
267.082;   27.500;  354.000;   99.000
267.223;  -57.500; -344.000; -273.000
267.364; -107.150; -892.000; -686.000
267.504;  -17.000;    3.000;  135.000
267.645;    9.650;  160.000;   67.000
267.786;  -37.075; -147.000;  -86.000
267.927;  -66.650; -473.000; -379.000
268.068;  -21.075; -186.000;  -61.000
268.209;  -58.125; -175.000; -413.000
268.350;  -58.400; -388.000; -532.000
268.490;  -84.125; -648.000; -521.000
268.631;   36.075;  127.000;  225.000
268.772; -117.125; -874.000; -647.000
268.913;  -46.800; -328.000; -476.000
269.054;  -10.750; -117.000;   12.000
269.194;  -50.050; -418.000; -402.000
269.335; -146.350;-1137.000;-1074.000
269.476;  -25.700;   33.000;  -35.000
269.617;  -58.075; -347.000; -392.000
269.757;  -97.300; -713.000; -646.000
269.898;  -99.550; -856.000; -613.000
270.039;  -61.825; -415.000; -405.000
270.180; -145.250; -952.000; -816.000
270.320;  -22.475; -190.000; -250.000
270.461;  -42.575; -277.000; -249.000
270.602;  -16.725; -186.000; -156.000
270.742; -126.525; -868.000; -943.000
270.883;  -50.700; -442.000; -390.000
271.023;  -48.025; -358.000; -357.000
271.164;  -72.400; -607.000; -528.000
271.305;  -94.375; -666.000; -654.000
271.445;  -94.225; -722.000; -683.000
271.586;  -69.525; -462.000; -283.000
271.726;  -49.775; -397.000; -322.000
271.867;  -61.350; -594.000; -534.000
272.008;  159.650; -473.000; -285.000
272.148;  111.550;  462.000;  468.000
272.289;    8.450; -113.000; -181.000
272.429;   11.525;   19.000;  185.000
272.570;  -96.075; -633.000; -737.000
272.710; -103.250; -825.000; -775.000
272.851;  -26.975;  113.000; -130.000
272.991; -162.775;-1173.000;-1077.000
273.131;  -75.125; -419.000; -459.000
273.272;  -84.575; -683.000; -723.000
273.412;    7.300; -143.000;  -31.000
273.553;  -41.325; -488.000; -507.000
273.693;  147.100;  913.000;  858.000
273.834;  -95.625; -894.000; -692.000
273.974;  -79.300; -664.000; -615.000
274.114; -101.975; -772.000; -560.000
274.255;   78.250;  414.000;  373.000
274.395;    3.300; -180.000; -125.000
274.535;   34.725;  199.000;  350.000
274.676;   26.450;  225.000;   94.000
274.816;    5.475;  110.000;   34.000
274.956;  -78.300; -624.000; -690.000
275.097;  -74.900;-1014.000; -922.000
275.237; -106.550; -913.000; -803.000
275.377; -107.925; -778.000; -689.000
275.517; -140.800; -878.000; -937.000
275.658;  -61.050; -590.000; -555.000
275.798;  -80.575; -606.000; -413.000
275.938;   26.175;  215.000;  323.000
276.078;  -99.375; -626.000; -395.000
276.218;    7.500;   99.000;  104.000
276.359; -134.425;-1026.000;-1024.000
276.499;  -83.450; -605.000; -446.000
276.639;  -38.925; -305.000; -151.000
276.779;  -48.750; -475.000; -357.000
276.919;  -97.500; -783.000; -624.000
277.059;  -28.900; -261.000; -212.000
277.199;  -46.050; -357.000; -259.000
277.340;   42.700;  287.000;  175.000
277.480; -114.975; -840.000; -693.000
277.620;   41.025;  192.000;   16.000
277.760; -186.325;-1533.000;-1294.000
277.900;   28.750;  113.000;   33.000
278.040;   12.200;  137.000;  159.000
278.180;   32.175;  270.000;  170.000
278.320;   -0.900;   21.000;   56.000
278.460;  -62.050; -443.000; -469.000
278.600; -105.825; -708.000; -598.000
278.740;   40.875;  448.000;  224.000
278.880;  -77.975; -768.000; -791.000
279.020;  -10.200; -194.000; -144.000
279.160;  -86.650; -672.000; -595.000
279.300; -127.200; -926.000; -873.000
279.440;  -74.475; -709.000; -622.000
279.579;  -37.650;-1014.000; -929.000
279.719;  -50.150; -410.000; -394.000
279.859;   68.500;   -4.000;   41.000
279.999;   20.125; -208.000;  101.000
280.139;  -25.800; -435.000; -387.000
280.279;  -80.875; -708.000; -745.000
280.419;  -14.625; -229.000; -147.000
280.559;  -33.200; -259.000; -180.000
280.698; -114.950; -790.000; -639.000
280.838; -102.650; -778.000; -800.000
280.978;  -96.300; -846.000; -790.000
281.118; -121.100; -811.000; -704.000
281.257;   -9.575;   24.000;    6.000
281.397; -121.675;-1094.000; -960.000
281.537;  -88.475; -599.000; -712.000
281.677;  -22.125; -150.000; -101.000
281.816;  -90.750; -700.000; -630.000
281.956;  -31.650; -193.000; -257.000
282.096;  -68.450; -539.000; -396.000
282.235; -102.250; -672.000; -638.000
282.375;  -18.450; -243.000;  -98.000
282.515;  -98.500; -715.000; -707.000
282.654;   18.675;   29.000;  106.000
282.794;   31.275;  388.000;  244.000
282.934;  -63.700; -530.000; -491.000
283.073; -147.000;-1030.000; -857.000
283.213;  -57.125; -460.000; -467.000
283.353;  -40.750; -408.000; -349.000
283.492;  -30.275; -264.000; -296.000
283.632;  -40.475; -254.000; -168.000
283.771; -102.100; -859.000; -730.000
283.911;  -44.600; -369.000; -260.000
284.050; -117.825; -794.000; -748.000
284.190; -153.775;-1229.000;-1096.000
284.329; -147.300;-1055.000; -964.000
284.469;  -74.350; -516.000; -591.000
284.608;  -58.250; -559.000; -598.000
284.748;  -96.125; -614.000; -570.000
284.887;   -8.650;  -87.000;  -20.000
285.027; -121.550; -844.000; -892.000
285.166;  -42.400; -192.000; -249.000
285.306;    1.925; -116.000;  -33.000
285.445;  -43.775; -229.000; -343.000
285.584;  -87.375; -630.000; -494.000
285.724;  -47.250; -282.000; -322.000
285.863; -107.150; -857.000; -507.000
286.002;  -55.375; -366.000; -276.000
286.142; -107.850; -715.000; -622.000
286.281;  -63.275; -525.000; -493.000
286.420;  -80.125; -554.000; -417.000
286.560;   91.300;  653.000;  623.000
286.699; -135.325; -958.000; -912.000
286.838;  -98.375; -590.000; -591.000
286.978;  -88.800; -533.000; -537.000
287.117; -132.875;-1085.000; -950.000
287.256;  -39.350; -228.000; -211.000
287.395;  -55.075; -197.000; -378.000
287.535;  -51.750; -370.000; -298.000
287.674;  -73.750; -509.000; -484.000
287.813;   46.750;  661.000;  533.000
287.952; -134.525;-1010.000; -871.000
288.091; -155.525;-1049.000; -915.000
288.231;    7.650;   13.000;   15.000
288.370; -173.500;-1217.000;-1200.000
288.509;  -91.900; -728.000; -645.000
288.648;  -79.900; -770.000; -548.000
288.787;  -27.650; -243.000;  -87.000
288.926;  -76.700; -454.000; -475.000
289.065;  121.325;  859.000;  672.000
289.204;  -55.125; -377.000; -217.000
289.344;  -94.800; -791.000; -690.000
289.483;   31.425;  416.000;  304.000
289.622;  -29.625; -291.000; -149.000
289.761;  -22.025; -309.000; -166.000
289.900; -125.475; -785.000; -626.000
290.039;  -14.025;  -12.000;  -95.000
290.178;  -39.475; -274.000; -180.000
290.317;  -83.200; -618.000; -479.000
290.456;  -63.450; -463.000; -451.000
290.595; -136.150; -961.000; -833.000
290.734; -135.075; -904.000; -891.000
290.873;  -66.050; -456.000; -420.000
291.011; -108.650; -833.000; -843.000
291.150; -105.050; -770.000; -682.000
291.289;  -20.225; -343.000; -110.000
291.428;  -95.900; -599.000; -480.000
291.567;  -44.000; -370.000; -442.000
291.706;  -13.975;  109.000;  154.000
291.845;  -91.575; -597.000; -505.000
291.984; -170.025;-1234.000;-1061.000
292.122;   54.250;  602.000;  582.000
292.261;   45.650;  620.000;  463.000
292.400;    6.675; -144.000;  211.000
292.539; -123.725; -959.000; -813.000
292.678;  -34.425; -325.000; -300.000
292.816; -168.500;-1136.000; -965.000
292.955;  -91.725; -844.000; -684.000
293.094;  -23.875; -173.000; -337.000
293.233;  -69.325; -556.000; -400.000
293.371;  -43.050; -225.000;  -84.000
293.510; -106.700; -866.000; -780.000
293.649; -125.250; -959.000; -924.000
293.787;  -78.500;-1083.000;-1012.000
293.926;    6.625; -113.000;  -32.000
294.065;  -47.375; -379.000; -290.000
294.203;   40.650;  298.000;  406.000
294.342;   32.950;   74.000;  156.000
294.481; 5545.975;51180.000; -836.000
294.619;  -46.825; -425.000; -582.000
294.758; -153.075;-1230.000;-1137.000
294.896;   49.450; -125.000;    5.000
295.035; -127.250;-1040.000;-1006.000
295.174; -134.950;-1082.000; -954.000
295.312;  -43.800; -323.000; -203.000
295.451;  -20.525; -307.000; -428.000
295.589;  -59.000; -389.000; -518.000
295.728;   21.750; -292.000; -165.000
295.866;   -2.950;  -36.000;  -51.000
296.005;  -64.725; -584.000; -341.000
296.143;  -63.825; -558.000; -596.000
296.282; -111.700; -957.000; -881.000
296.420;  -85.100; -657.000; -557.000
296.559;  -93.200; -892.000; -633.000
296.697;  -23.950; -847.000; -665.000
296.835;   20.175;-1141.000;-1002.000
296.974;   59.150;  -23.000;   39.000
297.112;    0.700; -443.000; -504.000
297.251;  -89.075; -815.000; -755.000
297.389;   48.150; -576.000; -438.000
297.527;   17.575; -145.000;  -83.000
297.666;  -55.900; -486.000; -438.000
297.804;  -47.800; -404.000; -264.000
297.942;  -16.050; -136.000; -161.000
298.081;   -5.100; -183.000;   63.000
298.219;   48.450;  -17.000;  -19.000
298.357;   30.825; -144.000;  -71.000
298.495;   14.450; -810.000; -812.000
298.634;   41.025;  245.000;  219.000
298.772;   19.275; -220.000; -338.000
298.910;  -38.500; -309.000; -182.000
299.048;  -19.000; -130.000; -153.000
299.187;  -26.100; -350.000; -250.000
299.325;    2.175;   52.000;  122.000
299.463;   28.100; -389.000; -299.000
299.601;   83.800; -327.000; -271.000
299.739; -103.675; -908.000; -883.000
299.877;  -92.000; -791.000; -703.000
300.016;  -55.325;-1095.000; -935.000
300.154;  137.075;  -19.000; -161.000
300.292;   33.125; -428.000; -348.000
300.430;   16.525; -408.000; -291.000
300.568; -112.400; -940.000; -874.000
300.706;  -59.500; -366.000; -469.000
300.844;  -90.775;-1108.000; -979.000
300.982;  104.550;  246.000;  282.000
301.120; -115.975; -965.000; -866.000
301.258;  -75.225; -812.000; -705.000
301.396;   28.800;  104.000;  -41.000
301.534;   52.825; -218.000; -293.000
301.672;  -31.500; -664.000; -521.000
301.810;   -0.425; -613.000; -545.000
301.948;   96.175;   53.000;  149.000
302.086;  521.850; -250.000;  -32.000
302.224;  769.950; -610.000; -585.000
302.362;   23.200; -558.000; -622.000
302.500;  -55.375; -923.000; -893.000
302.638;   87.125;  128.000;  245.000
302.776;    1.725; -352.000; -408.000
302.913;   31.575;  447.000;  236.000
303.051;  -12.350;  -86.000;  -23.000
303.189;   41.225;   90.000;  118.000
303.327;  -29.600; -341.000; -256.000
303.465;  -77.275; -832.000; -588.000
303.603;  -89.550; -805.000; -604.000
303.740;   89.250;  417.000;  241.000
303.878;   -0.025; -800.000; -759.000
304.016;  -89.675; -915.000; -790.000
304.154; -122.950;-1123.000;-1152.000
304.291;  -53.375; -505.000; -554.000
304.429;   20.725;  102.000;   74.000
304.567; -138.375; -908.000; -893.000
304.705;  -57.800; -408.000; -515.000
304.842;   65.150; -616.000; -540.000
304.980;   44.175;  215.000;   35.000
305.118;   18.125; -367.000; -365.000
305.255;  -81.800; -945.000; -927.000
305.393;   52.800;  178.000;  239.000
305.531; -124.650;-1173.000; -956.000
305.668;  -67.450; -663.000; -582.000
305.806;   74.450; -358.000; -439.000
305.943;   80.225; -629.000; -637.000
306.081;   24.750; -378.000; -267.000
306.219; -103.925; -863.000; -748.000
306.356;   14.500;  158.000;   27.000
306.494;  104.350;  981.000;  761.000
306.631;    0.350;  -11.000;  -55.000
306.769;  -12.275; -613.000; -485.000
306.906;  -10.525; -284.000; -258.000
307.044;  -79.750; -473.000; -488.000
307.181;  -78.625; -410.000; -332.000
307.319;    1.525;  112.000;   87.000
307.456; -168.525;-1191.000;-1153.000
307.594; -102.350; -980.000; -727.000
307.731;  -11.450; -371.000; -164.000
307.868;   -6.700;  -15.000;   20.000
308.006; -138.375; -961.000; -847.000
308.143;  -79.300; -618.000; -330.000
308.281;   94.975;  -37.000; -254.000
308.418;  -32.050; -748.000; -640.000
308.555;  -75.550; -400.000; -250.000
308.693;  -68.325; -577.000; -573.000
308.830; -105.675; -712.000; -657.000
308.967;  -11.950; -215.000;  -95.000
309.105;  -65.025; -507.000; -396.000
309.242;   -3.150; -468.000; -367.000
309.379;  166.250; -577.000; -655.000
309.517;  -90.825; -936.000; -948.000
309.654; -109.950; -910.000; -734.000
309.791;  -85.650; -662.000; -580.000
309.928; -117.000; -977.000; -914.000
310.065;  153.275;  819.000;  697.000
310.203;  -36.125; -825.000; -850.000
310.340;  -18.475; -465.000; -321.000
310.477;  -78.900; -412.000; -516.000
310.614;  -69.800; -383.000; -473.000
310.751;  -77.050; -427.000; -518.000
310.889;  -32.700;    1.000;   11.000
311.026; -163.950;-1161.000; -939.000
311.163;  -46.725; -386.000; -380.000
311.300;  -70.900; -512.000; -479.000
311.437;  -80.700; -658.000; -619.000
311.574; -172.625;-1226.000; -985.000
311.711;  -67.725; -595.000; -433.000
311.848;  -50.400; -380.000; -388.000
311.985;   -6.175;  270.000;   93.000
312.122; -112.475; -932.000; -762.000
312.259; -132.500; -941.000; -994.000
312.396;  -74.425; -508.000; -551.000
312.533;  -84.425; -812.000; -790.000
312.670; -140.975;-1070.000; -898.000
312.807;  -46.125; -352.000; -367.000
312.944;  -80.350; -513.000; -611.000
313.081;  -31.000; -150.000; -415.000
313.218; -116.450;-1111.000; -867.000
313.355;   -7.250; -531.000; -449.000
313.492;   -1.250; -455.000; -292.000
313.629;  124.650;  815.000;  735.000
313.766; -148.700;-1176.000;-1008.000
313.902;  -10.675; -186.000;   21.000
314.039;  -64.175; -372.000; -289.000
314.176;   25.100;  286.000;  192.000
314.313;  -73.925; -569.000; -473.000
314.450; -100.375; -788.000; -684.000
314.587;  -49.075; -468.000; -480.000
314.723;   -3.850;  -78.000;  130.000
314.860;   27.175;  318.000;  332.000
314.997;   32.525;  223.000;  142.000
315.134;  -49.475; -385.000; -368.000
315.270;  -43.475; -480.000; -496.000
315.407; -133.025;-1094.000; -967.000
315.544;  -68.975; -657.000; -538.000
315.681;  -87.900; -681.000; -565.000
315.817;    5.175; -133.000; -176.000
315.954;    7.150; -613.000; -392.000
316.091; -121.650;-1045.000;-1023.000
316.227;  -25.200;  -71.000; -179.000
316.364;    5.775;   23.000;    6.000
316.500;  -32.125; -113.000; -300.000
316.637;  -57.475; -181.000; -302.000
316.774;  -86.425; -625.000; -358.000
316.910;  -86.800; -598.000; -629.000
317.047;  -85.100; -487.000; -351.000
317.183;  -65.125; -435.000; -566.000
317.320;   -0.725; -367.000; -321.000
317.456;  -73.025; -733.000; -805.000
317.593;  -96.600; -598.000; -641.000
317.729;    0.350;  168.000;  -67.000
317.866; -202.225;-1434.000;-1285.000
318.002;  -96.175; -708.000; -948.000
318.139; -102.950; -883.000; -867.000
318.275; -111.125;-1003.000; -738.000
318.412;  -60.325; -517.000; -336.000
318.548;  -47.775; -751.000; -720.000
318.685;  -94.200; -985.000; -888.000
318.821; -102.725; -762.000; -735.000
318.957;  -17.400;   34.000;  -23.000
319.094;   32.325;  297.000;  154.000
319.230;  -76.450; -756.000; -742.000
319.367;   81.900; -471.000; -520.000
319.503;   41.500; -538.000; -436.000
319.639; -108.050; -877.000; -793.000
319.775;  -63.075; -750.000; -685.000
319.912;  -48.000; -424.000; -519.000
320.048;  -92.800;-1184.000;-1184.000
320.184;   75.825;   59.000;   70.000
320.321;  -57.850; -497.000; -467.000
320.457;   77.050;  475.000;  662.000
320.593;  -66.450; -375.000; -382.000
320.729; -108.250; -732.000; -734.000
320.866;  -65.575; -577.000; -635.000
321.002;  -81.450; -759.000; -809.000
321.138;   -6.975; -135.000; -211.000
321.274;   44.775; -148.000; -115.000
321.410;  -32.225; -585.000; -353.000
321.546;  -57.750;-1011.000; -911.000
321.683;   51.450;  400.000;  185.000
321.819;   -1.875;  -48.000; -117.000
321.955; -105.000; -743.000; -722.000
322.091;  -41.450; -585.000; -540.000
322.227;  -30.750; -382.000; -202.000
322.363;  -18.975; -320.000; -215.000
322.499;  -49.150; -343.000; -331.000
322.635;  138.925;  636.000;  443.000
322.771;   13.900; -139.000;   12.000
322.907;   69.675;  129.000;  327.000
323.043;  -17.425; -115.000; -206.000
323.179;  -37.325; -394.000; -363.000
323.315;  -15.375; -401.000; -371.000
323.451;   55.075; -328.000; -236.000
323.587;   59.350;  -60.000;  -77.000
323.723;   -4.725; -682.000; -601.000
323.859;  -14.650; -258.000;  -76.000
323.995;  -49.825; -467.000; -409.000
324.131; -124.300; -967.000; -892.000
324.267;  -43.525; -254.000; -276.000
324.402; -123.000; -960.000; -983.000
324.538;  -20.300; -279.000; -104.000
324.674;    3.250;  164.000;   77.000
324.810;   78.925;  226.000;  308.000
324.946;  -15.175; -810.000; -658.000
325.082;  -78.575; -568.000; -475.000
325.217;  -13.350;  -62.000;   16.000
325.353; -116.050; -764.000; -659.000
325.489; -105.875; -540.000; -506.000
325.625;  -79.000; -579.000; -525.000
325.760;   63.000;  517.000;  376.000
325.896;  -21.850; -515.000; -702.000
326.032;  -48.225; -403.000; -352.000
326.168;  -72.600; -462.000; -369.000
326.303;  -62.275; -352.000; -461.000
326.439;  -15.325; -336.000; -276.000
326.575;   -3.800; -190.000;  -29.000
326.710;   -2.175; -156.000;  -30.000
326.846;   -9.150;  146.000;  103.000
326.982;  -92.550; -530.000; -548.000
327.117;  -70.400; -481.000; -442.000
327.253;  -87.150; -745.000; -742.000
327.388; -138.550;-1137.000;-1153.000
327.524;  -64.575; -811.000; -578.000
327.659;  -17.500;  -58.000;  -22.000
327.795;  -30.800;   69.000;   45.000
327.931;  -94.700; -723.000; -499.000
328.066;  -32.250; -417.000; -276.000
328.202;  -13.950;   12.000; -129.000
328.337;  107.900;  957.000;  713.000
328.473;   51.075;  -12.000;  -74.000
328.608;  -17.975; -256.000; -267.000
328.743;  -94.775; -799.000; -664.000
328.879;   17.450;  214.000;  114.000
329.014;  -46.150; -102.000; -122.000
329.150;  -83.975; -358.000; -483.000
329.285;  -80.500; -465.000; -466.000
329.421;  -54.075; -548.000; -246.000
329.556;  -23.675;  -36.000;   85.000
329.691; -107.375; -633.000; -615.000
329.827;  -81.000; -626.000; -480.000
329.962;  -39.975;  131.000; -301.000
330.097;  -98.850; -673.000; -585.000
330.233;  -51.575; -410.000; -223.000
330.368; -127.575; -839.000; -628.000
330.503;  -17.550;    3.000;   98.000
330.638;   -3.175;  -93.000; -125.000
330.774;  -74.875; -609.000; -530.000
330.909;  -62.050; -434.000; -244.000
331.044; -100.525; -714.000; -708.000
331.179; -172.725;-1217.000;-1109.000
331.315;   -5.025;   77.000;   20.000
331.450;   13.000;  157.000;  285.000
331.585;  -99.100; -805.000; -706.000
331.720;  -73.150; -510.000; -460.000
331.855;  -15.400;  -35.000; -102.000
331.990;  258.950;   62.000;  138.000
332.126;  147.125; -110.000;   71.000
332.261;   -7.425; -379.000; -265.000
332.396;   -3.700; -135.000; -242.000
332.531; -103.575;-1074.000;-1031.000
332.666;   23.600; -519.000; -363.000
332.801; -100.050; -726.000; -807.000
332.936;  -31.975; -192.000; -122.000
333.071; -139.450; -870.000; -817.000
333.206;   30.550;  307.000;  379.000
333.341;   26.025;  344.000;  418.000
333.476; -100.525; -627.000; -623.000
333.611;  -39.425; -251.000; -173.000
333.746;  -58.775; -381.000; -464.000
333.881; -129.125; -973.000; -935.000
334.016; -140.925; -936.000; -917.000
334.151; -124.025; -746.000; -702.000
334.286;   26.200;  152.000;  186.000
334.421;  -16.700; -125.000; -178.000
334.556;  -77.500; -611.000; -567.000
334.690;  -82.300; -631.000; -577.000
334.825;   55.325;  381.000;   83.000
334.960;  -64.025; -285.000; -413.000
335.095;   -8.200;  135.000;  -91.000
335.230; -108.200; -722.000; -738.000
335.365; -154.125;-1084.000; -990.000
335.499; -140.325;-1108.000;-1037.000
335.634;   12.100;    9.000;  534.000
335.769; -101.425; -755.000; -720.000
335.904;  -78.725; -603.000; -561.000
336.038;  -54.625; -735.000; -657.000
336.173; -128.125;-1206.000;-1194.000
336.308;   -4.225; -116.000; -189.000
336.443;    5.200; -544.000; -634.000
336.577;  -69.500; -936.000; -787.000
336.712;   45.475;   -4.000;  -12.000
336.847;  -50.675; -724.000; -607.000
336.981;   39.975; -272.000; -208.000
337.116;  245.025;  615.000;  501.000
337.250;  113.100; -434.000; -421.000
337.385;  275.600; -297.000; -208.000
337.520;  107.550; -632.000; -603.000
337.654;  -44.475; -215.000; -126.000
337.789; -138.700; -989.000; -933.000
337.923;  -23.550; -104.000; -205.000
338.058;  -98.575; -673.000; -738.000
338.192;  -33.750; -611.000; -488.000
338.327;  -22.375;  -18.000; -155.000
338.461;  -67.100; -299.000; -469.000
338.596;  -93.625; -780.000; -638.000
338.730; -106.875; -767.000; -803.000
338.865;  103.625;  -46.000; -140.000
338.999;  -55.450; -846.000; -702.000
339.134;  -43.425; -634.000; -536.000
339.268;   10.425; -741.000; -603.000
339.403;  357.550; -740.000; -775.000
339.537;  114.400; -894.000; -820.000
339.671; -127.625; -829.000; -813.000
339.806;  -52.650; -556.000; -512.000
339.940;   10.800; -261.000; -235.000
340.074; -103.725; -685.000; -510.000
340.209;  -42.250; -351.000; -230.000
340.343;  -85.700; -517.000; -573.000
340.477;  147.950;  998.000; 1036.000
340.612;  -48.100;-1033.000; -900.000
340.746;  139.125; -199.000; -243.000
340.880;  -82.175; -924.000; -785.000
341.014;  -27.825;  -45.000; -154.000
341.149; -118.775; -756.000; -718.000
341.283; -113.000; -839.000; -754.000
341.417; -109.150;-1124.000; -938.000
341.551;   58.550; -768.000; -708.000
341.685;  -53.375; -633.000; -611.000
341.820;  -59.800; -562.000; -493.000
341.954;  -50.550; -218.000; -349.000
342.088; -152.225;-1102.000;-1019.000
342.222;   53.875;  565.000;  618.000
342.356;  -58.425; -395.000; -335.000
342.490; -115.050; -880.000; -841.000
342.624;  -44.475; -339.000; -242.000
342.758;  -17.525; -364.000; -312.000
342.892;  -81.975; -710.000; -585.000
343.026;  -37.325;  -58.000; -116.000
343.160;  -60.125; -426.000; -376.000
343.294;  -89.075; -474.000; -337.000
343.428;  -25.350; -488.000; -448.000
343.562;  -30.175; -172.000;  -23.000
343.696;  -37.000; -385.000; -314.000
343.830;  -36.150; -362.000; -356.000
343.964;    4.100; -231.000; -168.000
344.098;  760.175;  199.000;   70.000
344.232;  625.700; -266.000; -127.000
344.366;   68.150; -567.000; -453.000
344.500;   20.950; -665.000; -744.000
344.634;    7.900; -324.000; -164.000
344.768;  -26.025; -531.000; -341.000
344.902;   17.675;  278.000;  256.000
345.035;  -78.525; -556.000; -496.000
345.169; -142.350; -933.000; -656.000
345.303;  -38.250; -308.000; -482.000
345.437;  -73.950; -826.000; -717.000
345.571;  -65.825; -675.000; -594.000
345.704;  -71.725; -309.000; -532.000
345.838;  -20.000; -331.000; -284.000
345.972;  -43.475; -543.000; -495.000
346.106;  168.625; -179.000; -190.000
346.239;  396.775; -312.000; -243.000
346.373;   -7.950; -343.000; -302.000
346.507; -133.425; -950.000; -962.000
346.640;   99.900;  -30.000;   13.000
346.774;  -56.625; -650.000; -797.000
346.908;  -20.550; -138.000;  -11.000
347.041;  -91.800; -646.000; -593.000
347.175;    5.925;  259.000;   27.000
347.309;  -77.625; -698.000; -628.000
347.442; -105.600; -883.000; -732.000
347.576;  247.275;  670.000;  668.000
347.709;  170.600; -123.000;  -52.000
347.843; -110.050; -933.000; -825.000
347.976;   41.500;  235.000;  294.000
348.110; -174.850;-1268.000;-1186.000
348.243; -119.850; -679.000; -772.000
348.377;  -14.050;  -26.000;   60.000
348.510;   63.650;  403.000;  540.000
348.644;  -31.200;  -37.000; -159.000
348.777;   -2.125;  180.000;  191.000
348.911;  -48.675; -142.000; -112.000
349.044;  140.525;  471.000;  448.000
349.178;  113.200;-1069.000;-1006.000
349.311;  102.400;  141.000;  255.000
349.444;   -2.325; -927.000; -813.000
349.578;  -18.450; -347.000; -200.000
349.711; -123.350; -959.000; -862.000
349.845;  -25.750; -661.000; -591.000
349.978; -157.425;-1224.000;-1137.000
350.111;  -89.575; -546.000; -612.000
350.244;  -78.950; -596.000; -700.000
350.378;  -30.225; -392.000; -393.000
350.511;  -68.725; -393.000; -426.000
350.644; -117.300; -808.000; -806.000
350.778;   16.875;  168.000;  104.000
350.911;    6.350;  134.000;  140.000
351.044;  -96.325; -685.000; -615.000
351.177;  -31.025; -321.000; -281.000
351.310;  -28.925;    3.000; -131.000
351.444;  -88.125; -888.000; -788.000
351.577;   90.475;  140.000;   90.000
351.710;   92.700;  593.000;  417.000
351.843;  -23.600; -165.000;  -77.000
351.976;   -7.450;  149.000;  -79.000
352.109;  -91.600; -621.000; -612.000
352.242;  -45.050; -464.000; -419.000
352.376;  -69.575; -580.000; -636.000
352.509;  108.875; -437.000; -356.000
352.642;  -14.825; -654.000; -604.000
352.775;   42.050; -141.000;  -98.000
352.908; -123.300; -933.000; -904.000
353.041; -117.250; -814.000; -824.000
353.174;  -65.975; -551.000; -424.000
353.307;  -91.375; -753.000; -764.000
353.440;   72.325;  541.000;  453.000
353.573; -124.725; -957.000;-1008.000
353.706;  -84.275; -384.000; -558.000
353.839;  -30.100; -264.000; -220.000
353.971;  -94.850; -657.000; -512.000
354.104;  -95.625; -896.000; -835.000
354.237;  -29.100; -627.000; -662.000
354.370;  -90.975; -846.000; -879.000
354.503; -191.075;-1231.000;-1308.000
354.636;  -47.150; -529.000; -348.000
354.769; -129.850; -937.000; -860.000
354.902;   -8.600; -230.000; -139.000
355.034;  -27.275; -164.000; -220.000
355.167;  -31.775; -262.000; -162.000
355.300;  -90.250;-1061.000; -880.000
355.433;  980.150;  -71.000;  -14.000
355.565; 1516.600; -402.000; -384.000
355.698;  396.850; -356.000; -296.000
355.831;  -20.300; -882.000; -801.000
355.964;   44.850; -285.000; -170.000
356.096;  -89.000; -856.000; -843.000
356.229;   -7.750; -523.000; -530.000
356.362;  333.200; -373.000; -266.000
356.494;  608.625; -229.000; -162.000
356.627;  406.375;  269.000;  377.000
356.760;  655.550;  120.000;   53.000
356.892; 1002.000; -286.000; -601.000
357.025;  551.075;  403.000;  389.000
357.157;  476.925; -167.000; -179.000
357.290;  726.150; -856.000; -713.000
357.423;  211.725; -667.000; -556.000
357.555;   93.625; -217.000; -228.000
357.688;  114.700; -483.000; -364.000
357.820;  385.350; -870.000; -877.000
357.953; 3281.950; -563.000; -589.000
358.085;  639.300; -632.000; -612.000
358.218;  837.675;-1131.000; -932.000
358.350;  148.100;  -58.000;  312.000
358.483; -135.150;-1300.000;-1187.000
358.615;  -66.225;-1182.000;-1078.000
358.747;  -84.225;-1187.000;-1058.000
358.880;   -7.525; -810.000; -744.000
359.012;  -27.225; -376.000; -202.000
359.145;  -58.975; -480.000; -511.000
359.277;   19.025; -962.000; -913.000
359.409; 2710.850;  536.000;  231.000
359.542;  658.450; -738.000; -688.000
359.674;   53.525;   46.000;   13.000
359.806;  -54.650; -565.000; -438.000
359.939;  -50.525; -617.000; -516.000
360.071;  -14.550; -583.000; -579.000
360.203;  -24.775; -411.000; -364.000
360.335;   53.775;  164.000;  -16.000
360.468;  170.875; -249.000; -307.000
360.600; 2193.675; -547.000; -454.000
360.732; 2966.650; -546.000; -423.000
360.864;  410.450;-1216.000;-1044.000
360.996;  193.525; -516.000; -554.000
361.129;   27.150; -389.000; -598.000
361.261;   25.125;  110.000; -113.000
361.393;  -22.675; -252.000; -214.000
361.525;   31.275;   94.000;  244.000
361.657;  -51.200; -821.000; -703.000
361.789;   -9.150; -139.000; -155.000
361.921;  141.925; -642.000; -593.000
362.053;  206.875;  524.000;  541.000
362.185;   37.725;  288.000;   72.000
362.318;  -85.850; -709.000; -705.000
362.450;   97.500;  294.000;  444.000
362.582;   25.625; -913.000; -870.000
362.714;  -27.675; -353.000; -332.000
362.846;  -89.550; -606.000; -490.000
362.978; -147.200; -941.000; -811.000
363.109;   19.200; -161.000; -260.000
363.241;  335.025; -739.000; -749.000
363.373;  421.900; -649.000; -564.000
363.505;  712.325; -186.000;  -91.000
363.637;  143.000; -787.000; -601.000
363.769; -124.800;-1067.000;-1080.000
363.901;  -65.275; -596.000; -654.000
364.033; -131.725;-1103.000;-1062.000
364.165;  -11.850; -283.000; -283.000
364.296;   81.375; -316.000; -177.000
364.428;   67.850;-1344.000;-1220.000
364.560;  -75.150; -679.000; -661.000
364.692;  -79.250; -738.000; -835.000
364.824;  181.375; -588.000; -456.000
364.955;  421.800; -402.000; -564.000
365.087; 1021.500;-1097.000; -852.000
365.219;    5.550; -686.000; -816.000
365.351;  -65.150; -526.000; -572.000
365.482;   30.875;  300.000;  240.000
365.614;  -51.500; -402.000; -314.000
365.746; -109.975; -729.000; -752.000
365.877;  -98.900; -706.000; -672.000
366.009;  267.900;  -35.000;  -62.000
366.141;  -79.650;-1249.000;-1134.000
366.272; -118.725; -803.000; -719.000
366.404; -117.600;-1005.000; -874.000
366.535;  -19.550; -139.000;  -12.000
366.667; -107.075; -644.000; -649.000
366.799;   33.525;  353.000;  203.000
366.930; -137.250; -862.000; -996.000
367.062;  106.775; -639.000; -613.000
367.193;  164.725; -872.000; -842.000
367.325;  -47.600; -580.000; -684.000
367.456;   23.575; -246.000;   31.000
367.588;  145.050; -371.000; -318.000
367.719;   12.400;  -44.000;  -45.000
367.851;  -30.175; -222.000; -241.000
367.982;  -74.125; -875.000; -732.000
368.113;   66.900; -475.000; -358.000
368.245; -123.425; -960.000; -841.000
368.376;  -38.750; -254.000; -302.000
368.508;  -45.225; -188.000; -263.000
368.639; -163.300;-1166.000;-1034.000
368.770;  -41.300; -670.000; -589.000
368.902;  -77.075; -836.000; -926.000
369.033; -114.850; -906.000; -855.000
369.164;  -51.550; -720.000; -653.000
369.296; -106.975; -452.000; -601.000
369.427;   -3.525; -209.000; -144.000
369.558;  -49.525; -593.000; -377.000
369.689; -101.550; -721.000; -569.000
369.821; -133.675; -951.000; -845.000
369.952;  -16.225;   42.000; -108.000
370.083;  -62.775; -229.000; -108.000
370.214;  -86.425; -735.000; -650.000
370.345;  -11.825;   65.000;   81.000
370.477;  -96.600; -810.000; -790.000
370.608;  162.275; -328.000; -264.000
370.739;  -70.925;-1233.000;-1292.000
370.870;  -57.750;-1102.000; -923.000
371.001;   40.075; -378.000; -467.000
371.132;  -85.025; -754.000; -735.000
371.263;  -32.700;  -42.000; -148.000
371.394; -127.100; -841.000; -748.000
371.525;   28.150;  345.000;  225.000
371.657;  -97.325; -808.000; -670.000
371.788;   54.625;  103.000;  199.000
371.919;  139.575; -384.000; -304.000
372.050; 3080.125;  -91.000; -156.000
372.181;  890.425; -188.000; -294.000
372.311;  298.000;   42.000; -127.000
372.442;   13.000; -457.000; -451.000
372.573;  -36.600; -444.000; -340.000
372.704; -132.725;-1008.000; -980.000
372.835;   54.425; -228.000; -289.000
372.966;  -73.400; -646.000; -554.000
373.097;  -88.825; -575.000; -711.000
373.228;  -68.625; -717.000; -542.000
373.359;   81.800; -824.000; -536.000
373.490;  732.725; -881.000; -727.000
373.620;  898.075;-1001.000; -803.000
373.751; 1451.125; -332.000; -396.000
373.882;  601.375; -663.000; -733.000
374.013;   20.675; -449.000; -262.000
374.143;  -58.125; -581.000; -659.000
374.274; -116.650; -987.000; -908.000
374.405;  111.650; -388.000; -276.000
374.536;  322.550; -526.000; -387.000
374.666;  871.700; -759.000; -807.000
374.797;  141.050; -817.000; -868.000
374.928;  656.325; -710.000; -560.000
375.058;  700.725; -535.000; -500.000
375.189;   53.750;  -59.000;  -93.000
375.320; -112.200; -928.000;-1034.000
375.450;  -62.200; -625.000; -616.000
375.581;  -62.450; -526.000; -436.000
375.712;  -38.150; -574.000; -250.000
375.842;  213.975; -438.000; -415.000
375.973;  142.925; -554.000; -513.000
376.103;  -79.675; -665.000; -648.000
376.234;  -92.575; -531.000; -552.000
376.364;  -63.775; -944.000; -867.000
376.495;  272.075;  925.000;  529.000
376.625;  -35.300; -472.000; -485.000
376.756;   27.275; -709.000; -678.000
376.886;  -91.825;-1178.000;-1026.000
377.017;   64.325;-1048.000;-1061.000
377.147;  372.400; -786.000; -782.000
377.278;   62.900;  174.000;  228.000
377.408; -136.950; -801.000; -815.000
377.538; -104.925; -707.000; -693.000
377.669;  -90.725; -537.000; -613.000
377.799; -102.600; -645.000; -635.000
377.929;  -86.900; -610.000; -428.000
378.060; -141.275; -781.000; -847.000
378.190;  -47.350; -726.000; -531.000
378.320;  -66.250; -401.000; -406.000
378.451;  -30.225; -131.000;  -22.000
378.581;   -6.625;  -67.000; -110.000
378.711;  145.400; 1035.000;  866.000
378.841;  -47.400; -533.000; -675.000
378.972;  -94.900; -871.000; -751.000
379.102;  -26.975; -652.000; -579.000
379.232;  -34.875; -126.000;  -73.000
379.362; -122.475;-1001.000; -885.000
379.492;   -9.700; -373.000; -424.000
379.623;   73.575;    0.000;  111.000
379.753; -120.775;-1107.000; -974.000
379.883;  156.800;   59.000;  156.000
380.013;  -31.050;-1081.000;-1017.000
380.143; -111.550;-1097.000;-1056.000
380.273; -120.850; -985.000; -861.000
380.403;  -13.700; -344.000; -257.000
380.533;  -35.150; -651.000; -664.000
380.663;   42.375;  173.000;  128.000
380.793; -125.600;-1027.000;-1074.000
380.923;  -20.375; -103.000;  -34.000
381.053;  -95.875; -613.000; -623.000
381.183;  -49.825; -106.000; -248.000
381.313;    5.175; -656.000; -470.000
381.443;    6.150; -692.000; -473.000
381.573;  129.175; -402.000; -409.000
381.703;  169.900;-1249.000;-1095.000
381.833; -150.600;-1454.000;-1336.000
381.963;   93.850; -134.000;  -87.000
382.093; 1179.750; -925.000; -909.000
382.223;  337.650; -713.000; -602.000
382.353;  -36.550; -801.000; -608.000
382.482;  258.825;-1091.000; -964.000
382.612;  615.825; -872.000; -644.000
382.742;  319.125; -695.000; -622.000
382.872;  167.700; -565.000; -551.000
383.002;   41.850;  347.000; -132.000
383.131;  -36.425; -226.000; -160.000
383.261;  -59.475; -706.000; -768.000
383.391;  258.975; -552.000; -377.000
383.521; 3396.000;  451.000;  263.000
383.650;  799.625; -947.000; -904.000
383.780;  -17.250; -783.000; -656.000
383.910;  115.575;  880.000;  802.000
384.039;  -18.500; -794.000; -656.000
384.169;  109.425;-1205.000;-1017.000
384.299;  -48.850; -650.000; -662.000
384.428; -106.975; -764.000; -680.000
384.558;  -55.700; -308.000; -275.000
384.687;  -51.075; -414.000; -334.000
384.817;    3.750;   75.000;   -2.000
384.947;    5.825; -234.000; -141.000
385.076;  234.625;  982.000;  912.000
385.206;   87.775;  369.000;  480.000
385.335;  -52.450; -549.000; -417.000
385.465;  -93.900; -655.000; -663.000
385.594;  101.950;  -53.000;  -44.000
385.724;  290.000; -868.000; -838.000
385.853;   86.400; -296.000; -270.000
385.982; 1104.975; -743.000; -787.000
386.112; 1722.000;-1052.000; -871.000
386.241;  105.700; -307.000; -312.000
386.371;    0.600; -174.000;  -87.000
386.500;  -41.475; -825.000; -789.000
386.629;   14.300; -874.000; -817.000
386.759;   44.400;  -43.000;   68.000
386.888;  -32.700; -170.000; -250.000
387.017;  -91.850; -648.000; -620.000
387.147; -104.950; -771.000; -798.000
387.276;  -28.050; -410.000; -397.000
387.405;   -7.300; -398.000; -342.000
387.535;  -50.850; -452.000; -361.000
387.664;  -72.700; -692.000; -620.000
387.793;   28.200; -198.000; -113.000
387.922;  400.875;  255.000;  200.000
388.052;   -1.600; -576.000; -423.000
388.181;  -24.450; -342.000; -472.000
388.310;  -55.600; -889.000; -710.000
388.439;  -73.550; -749.000; -742.000
388.568;  138.675;  365.000;  244.000
388.697;  827.675; -756.000; -653.000
388.826;  135.100; -768.000; -666.000
388.956;   36.375; -285.000; -307.000
389.085;  -34.475; -347.000; -287.000
389.214;  -98.350; -842.000; -872.000
389.343;  -68.550; -645.000; -413.000
389.472;  410.775;  126.000;  149.000
389.601;  480.275;   91.000;    0.000
389.730;   -8.200; -568.000; -687.000
389.859;   43.575;  226.000;   46.000
389.988;  132.125; -423.000; -408.000
390.117;  113.575; -168.000; -146.000
390.246;  -18.675; -331.000; -320.000
390.375;   49.425; -673.000; -626.000
390.504;  -84.875; -703.000; -621.000
390.633; -106.125; -672.000; -726.000
390.761;  -79.500; -732.000; -645.000
390.890;   -2.275;   -4.000; -130.000
391.019;  -51.025; -421.000; -441.000
391.148; -135.750; -826.000; -855.000
391.277;  -75.575; -576.000; -493.000
391.406;  -94.450; -821.000; -805.000
391.534;    5.900;  574.000; -301.000
391.663;  -76.775; -583.000; -645.000
391.792; -104.075; -673.000; -701.000
391.921;   66.375;   -3.000;   15.000
392.050;  114.375; -287.000; -228.000
392.178;  -65.650;-1206.000;-1061.000
392.307;   77.825; -758.000; -712.000
392.436;   21.900; -427.000; -641.000
392.564;    6.775;  166.000;   -6.000
392.693; -108.825; -860.000; -682.000
392.822;  129.175; -529.000; -534.000
392.950;   40.300; -880.000; -714.000
393.079;  237.725; -188.000; -328.000
393.208;   -3.775; -488.000; -511.000
393.336;  -16.625; -170.000; -145.000
393.465;  -46.075; -317.000; -199.000
393.593;  -13.750;   62.000;   79.000
393.722; -161.675;-1121.000; -916.000
393.850;  -38.025; -188.000;  -61.000
393.979; -165.575; -926.000; -805.000
394.107;  -75.825; -517.000; -537.000
394.236;  -53.600; -570.000; -507.000
394.364;  153.825;  383.000;  206.000
394.493;  188.425; -911.000; -767.000
394.621;  -34.300; -955.000; -916.000
394.750;  757.050; -873.000; -923.000
394.878; 3094.475; -247.000; -149.000
395.007; 4064.750; -721.000; -807.000
395.135;  285.925; -790.000; -721.000
395.263;  -98.950;-1038.000;-1040.000
395.392;  -13.500;  -25.000; -107.000
395.520; -135.975; -818.000; -679.000
395.648; -104.550; -865.000; -915.000
395.777;  -51.400; -366.000; -405.000
395.905;  -63.875; -449.000; -564.000
396.033;    9.425;  217.000;  172.000
396.162;  345.800; -399.000; -453.000
396.290;  329.875;  -17.000;   -2.000
396.418;   45.850; -555.000; -514.000
396.546;  -92.175; -571.000; -466.000
396.674; -107.275; -850.000; -878.000
396.803;   -3.900;  -72.000;  -23.000
396.931;   47.575; -179.000; -199.000
397.059;   -4.600;-1026.000; -989.000
397.187; -121.675;-1026.000; -975.000
397.315; -149.525; -884.000; -649.000
397.443; -105.775; -592.000; -443.000
397.572; -102.600; -578.000; -424.000
397.700;  -48.175; -607.000; -614.000
397.828;   -2.775;  120.000;  -90.000
397.956;  -50.450; -508.000; -478.000
398.084;  -64.400; -767.000; -626.000
398.212;   19.075;  137.000;  124.000
398.340;    4.025;  -56.000;  159.000
398.468;   -1.575; -390.000; -169.000
398.596; -138.825; -993.000; -953.000
398.724; -145.525; -762.000; -767.000
398.852; -159.000;-1024.000; -976.000
398.980;  -65.925; -560.000; -560.000
399.108;  -70.475; -982.000; -735.000
399.236;   17.950;   13.000;    8.000
399.363;   15.650;  222.000;  196.000
399.491;  -64.725; -404.000; -398.000
399.619; -131.425; -829.000; -800.000
399.747; -116.625; -859.000; -771.000
399.875;   74.100;  220.000;  234.000
400.003;  -65.550; -359.000; -284.000
400.130; -102.275; -421.000; -341.000
400.258;  -32.800;  -83.000;   38.000
400.386;  -58.900; -352.000; -168.000
400.514;  -69.325; -526.000; -587.000
400.641; -112.325; -928.000; -802.000
400.769; -154.975; -979.000; -888.000
400.897; -124.150; -838.000; -793.000
401.025;  -32.925; -166.000; -152.000
401.152;    9.300;  220.000;   38.000
401.280;  -78.450; -430.000; -429.000
401.408; -114.875; -712.000; -576.000
401.535; -109.925; -735.000; -758.000
401.663; -198.900;-1134.000;-1054.000
401.790;  -97.525; -514.000; -525.000
401.918;   55.125;  436.000;  405.000
402.046;  -38.875;  134.000;  122.000
402.173;  -45.950;  -18.000;    7.000
402.301;  -78.875; -519.000; -397.000
402.428;   34.150;  528.000;  383.000
402.556; -156.000;-1188.000; -913.000
402.683;  -44.450;  -20.000;   -1.000
402.811;  -31.100;  -37.000; -206.000
402.938;   -8.475;   20.000;   27.000
403.066;  138.925; -574.000; -558.000
403.193;  264.375;  299.000;  239.000
403.321;  197.425; -396.000; -574.000
403.448;  245.500;   83.000;   27.000
403.575;  109.550;  -90.000;  -46.000
403.703; -105.800; -732.000; -557.000
403.830;  -74.725; -531.000; -496.000
403.957; -147.800;-1117.000;-1023.000
404.085;    1.575;  -61.000; -172.000
404.212;   91.475;  -50.000;   63.000
404.339;  273.800; -566.000; -306.000
404.467; 6097.925; -612.000; -524.000
404.594; 3683.175; -287.000; -227.000
404.721;  796.225; -869.000; -764.000
404.848;   66.700; -113.000; -202.000
404.976; -111.850; -856.000; -783.000
405.103;  -15.025;  -14.000;  -82.000
405.230;    2.350;  190.000;  226.000
405.357;   24.425;  117.000;   44.000
405.484;  280.700;  -49.000;    5.000
405.612;   36.225; -548.000; -563.000
405.739;  -75.950; -488.000; -243.000
405.866;   86.800;  669.000;  385.000
405.993;  -50.000; -398.000; -102.000
406.120; -150.725; -801.000; -887.000
406.247;  -62.100; -323.000; -342.000
406.374;  342.350;  540.000;  629.000
406.501;   35.950; -632.000; -702.000
406.628;  -78.800; -621.000; -589.000
406.755;  -96.075; -803.000; -620.000
406.882;  -36.450; -228.000; -277.000
407.009; -109.225; -719.000; -628.000
407.136;   15.325; -480.000; -401.000
407.263;   53.375; -939.000; -829.000
407.390; -111.375; -692.000; -614.000
407.517; -200.600;-1139.000;-1187.000
407.644;  -64.250; -332.000; -256.000
407.771; -106.600; -249.000; -287.000
407.898;    6.175;  168.000;  328.000
408.025;  -82.025; -421.000; -313.000
408.151;  -12.450;   82.000;  153.000
408.278;  -58.650; -267.000; -216.000
408.405; -124.650; -931.000; -899.000
408.532;  -70.200; -549.000; -542.000
408.659; -128.225; -677.000; -648.000
408.785; -200.200;-1298.000;-1170.000
408.912;  -71.250; -412.000; -296.000
409.039; -116.825; -610.000; -686.000
409.166;  -99.375; -591.000; -555.000
409.292; -120.650; -571.000; -534.000
409.419; -125.075; -665.000; -649.000
409.546;  -80.750; -431.000; -192.000
409.672; -115.675; -713.000; -545.000
409.799;  -28.900;  -36.000;   34.000
409.926;  -42.425; -180.000; -179.000
410.052; -173.150;-1127.000;-1091.000
410.179;  -78.025; -368.000; -392.000
410.305;  -86.250; -375.000; -493.000
410.432;  -52.450; -220.000; -333.000
410.558;  -83.950; -305.000; -380.000
410.685; -114.600; -688.000; -431.000
410.812; -110.150; -409.000; -588.000
410.938; -139.225; -964.000; -808.000
411.065;  -93.350; -671.000; -645.000
411.191;  -21.950; -189.000; -174.000
411.317; -123.725; -823.000; -742.000
411.444;  -68.150; -317.000; -246.000
411.570;  -68.125; -339.000; -294.000
411.697; -141.125; -758.000; -752.000
411.823; -171.775; -989.000; -999.000
411.949;  -40.200;  -56.000;   17.000
412.076; -118.375; -539.000; -519.000
412.202; -122.225; -758.000; -757.000
412.329; -131.350; -798.000; -752.000
412.455; -109.800; -821.000; -657.000
412.581;  -25.900;  -15.000;  172.000
412.707; -104.700; -540.000; -457.000
412.834;   -0.050;  156.000;  219.000
412.960;  -91.950; -785.000; -784.000
413.086;  -93.950; -743.000; -701.000
413.212;  117.075;  604.000;  578.000
413.339;  -84.200; -685.000; -701.000
413.465;  -27.075; -364.000; -310.000
413.591; -109.475; -757.000; -474.000
413.717;  -52.650; -358.000; -366.000
413.843; -137.875; -839.000; -861.000
413.969;  -55.675;  -47.000; -292.000
414.096; -112.525; -679.000; -679.000
414.222;  -17.425;  -33.000;   85.000
414.348;  -47.050; -652.000; -385.000
414.474;   51.975;   38.000;  -52.000
414.600;   -2.150; -126.000; -144.000
414.726;  -14.450;  -96.000;  -55.000
414.852;  -53.775; -365.000; -342.000
414.978;   26.325;  104.000;  -18.000
415.104;   39.925;   38.000;   80.000
415.230;   16.300; -329.000; -330.000
415.356;   27.300; -409.000; -514.000
415.482;  196.725;   13.000;  -35.000
415.608;  267.575; -247.000; -323.000
415.734;  966.925;   67.000;   38.000
415.860;20737.875; -875.000; -767.000
415.986;14401.050; -685.000; -607.000
416.111; 1237.025; -798.000; -652.000
416.237;  250.200; -424.000; -571.000
416.363; 1224.175; -765.000; -733.000
416.489; 4360.575; -324.000; -251.000
416.615;  459.225; -707.000; -742.000
416.741;  -29.675; -677.000; -784.000
416.866; -105.850; -673.000; -736.000
416.992; -134.325; -801.000; -818.000
417.118;  -19.250;  -41.000;  -80.000
417.244;  -74.975; -798.000; -531.000
417.369;  -95.550; -801.000; -612.000
417.495;  -19.525; -325.000; -254.000
417.621; -111.125;-1015.000; -803.000
417.746;    5.800; -579.000; -572.000
417.872;   45.450; -254.000; -144.000
417.998;   50.750; -515.000; -530.000
418.123; 1135.300;-1073.000; -845.000
418.249; 5575.825; -512.000; -601.000
418.374;  762.400; -916.000; -824.000
418.500;  101.750; -383.000; -482.000
418.626;  124.125;   70.000;  -59.000
418.751;  115.600; -549.000; -448.000
418.877;  197.875; -637.000; -643.000
419.002; 1918.100; -688.000; -560.000
419.128;13145.950; -930.000; -721.000
419.253; 3102.725; -967.000; -837.000
419.379;  401.600; -391.000; -338.000
419.504;  390.525;  325.000;  415.000
419.629;  549.450; -393.000; -212.000
419.755; 3901.625; -317.000; -254.000
419.880;22427.900;  -98.000;   67.000
420.006;11986.600; -280.000; -221.000
420.131;30351.200; -662.000; -775.000
420.256; 4190.550; -315.000; -316.000
420.382;  547.275; -665.000; -687.000
420.507;   66.075; -649.000; -778.000
420.632;   89.650; -337.000; -339.000
420.758;  161.100; -251.000; -425.000
420.883;  -98.775; -876.000; -672.000
421.008; -109.950; -775.000; -619.000
421.133;  -94.575; -509.000; -467.000
421.259;  -52.475; -325.000; -259.000
421.384; -134.925; -834.000; -693.000
421.509;  -72.375;-1052.000; -862.000
421.634;  835.650; -936.000; -820.000
421.759;  340.650; -359.000; -327.000
421.885;  -78.925; -717.000; -656.000
422.010;  -88.025; -673.000; -542.000
422.135; -149.575; -695.000; -727.000
422.260;   24.400;  340.000;  280.000
422.385;  -36.000;   12.000;  -98.000
422.510;    2.750;  151.000;  -26.000
422.635;    1.600;  -87.000;  -43.000
422.760;   58.675; -766.000; -791.000
422.885;   56.550;  -57.000;  -80.000
423.010;  -35.375; -112.000; -169.000
423.135;  -99.600; -481.000; -561.000
423.260;  -34.500; -150.000; -245.000
423.385;   49.375;  476.000;  222.000
423.510;   11.400;   71.000;  -22.000
423.635;   64.225;  133.000;   45.000
423.760;   53.225;  383.000;  328.000
423.885;   48.150;  336.000;  391.000
424.010;   -8.975;  -68.000;  -13.000
424.135;  -30.550;    5.000;  -33.000
424.259;  -89.775; -654.000; -457.000
424.384;  -62.800; -279.000; -272.000
424.509;  -40.900; -260.000; -186.000
424.634; -101.225; -761.000; -623.000
424.759;  -45.350; -688.000; -544.000
424.883;  -23.950; -506.000; -527.000
425.008;  145.850; -502.000; -410.000
425.133; 2068.400; -679.000; -653.000
425.258;  925.150; -517.000; -381.000
425.382;  882.425; -867.000; -774.000
425.507; 2214.550; -487.000; -543.000
425.632;  379.475; -802.000; -663.000
425.756;  478.000; -256.000; -146.000
425.881; 7285.900; -831.000; -857.000
426.006;19066.725; -604.000; -355.000
426.130; 2821.325; -696.000; -508.000
426.255;  362.725; -611.000; -491.000
426.379;  158.700; -189.000; -577.000
426.504;  376.075;  660.000;  544.000
426.629; 4168.575; -519.000; -466.000
426.753; 2757.075;   64.000;  -46.000
426.878;  319.550; -252.000; -288.000
427.002;  149.500; -651.000; -668.000
427.127; 1654.900;  -35.000; -158.000
427.251;11962.075;  372.000;  401.000
427.375; 3245.525; -191.000; -173.000
427.500; 1993.775; -616.000; -610.000
427.624;  631.625; -234.000; -400.000
427.749;   67.450; -216.000; -225.000
427.873;  -65.425; -499.000; -412.000
427.997;  -52.725; -222.000; -230.000
428.122;   67.900;  795.000;  703.000
428.246;   55.825;  433.000;  434.000
428.371; -135.950; -869.000; -773.000
428.495; -112.700; -624.000; -646.000
428.619;  -33.075; -186.000; -117.000
428.743;    0.925;   65.000;  132.000
428.868;   -3.550; -732.000; -643.000
428.992; 1158.150; -219.000; -326.000
429.116;  434.550; -329.000; -357.000
429.240;  223.425;  419.000;  426.000
429.365;  -35.975; -454.000; -574.000
429.489;  -72.900; -638.000; -647.000
429.613;   17.100; -236.000; -177.000
429.737;   20.750; -563.000; -432.000
429.861;  270.100; -247.000; -133.000
429.985; 5831.650; -425.000; -305.000
430.109; 6245.550; -770.000; -908.000
430.234;  697.050;   76.000;  -50.000
430.358;   53.175; -250.000; -160.000
430.482;  -77.550; -672.000; -564.000
430.606;  -73.325; -655.000; -375.000
430.730;  -11.625; -437.000; -388.000
430.854;   43.225; -909.000; -835.000
430.978; -100.825; -795.000; -764.000
431.102;  -99.500; -499.000; -422.000
431.226; -118.925; -874.000; -815.000
431.350;   21.275;  345.000;  422.000
431.474;  -87.500; -661.000; -373.000
431.597; -156.675;-1060.000; -848.000
431.721;  -94.400; -276.000; -267.000
431.845; -137.650; -704.000; -472.000
431.969;  -94.700; -304.000; -349.000
432.093;  -93.750; -395.000; -317.000
432.217;  -11.325;   32.000;   82.000
432.341; -113.500; -523.000; -518.000
432.464;  -10.000;   96.000;   40.000
432.588;  118.075; -401.000; -329.000
432.712;   68.225;  -52.000;  -52.000
432.836;   39.975;  213.000;  263.000
432.959;  -17.575; -372.000; -311.000
433.083;   85.300;   11.000;    2.000
433.207;  383.525;  285.000;  930.000
433.330; 5422.650; -391.000; -200.000
433.454; 6434.025; -654.000; -638.000
433.578; 3673.100;  583.000;  278.000
433.701;  653.625; -623.000; -675.000
433.825;  108.550; -292.000; -299.000
433.949;  120.775;   28.000;  -72.000
434.072;   16.925; -410.000; -323.000
434.196;  -32.975; -309.000; -117.000
434.319; 3823.375;25482.000;25124.000
434.443;  710.300; -656.000; -603.000
434.566; 2750.875;  281.000;   62.000
434.690;  445.100; -637.000; -383.000
434.813;   37.275; -251.000; -173.000
434.937;  -86.850; -569.000; -696.000
435.060;  -50.925; -423.000; -332.000
435.184;  173.625; -492.000; -217.000
435.307;   99.375;  159.000;  102.000
435.431;  -21.350;  -40.000;   24.000
435.554;  -78.250; -399.000; -240.000
435.677;  -83.375; -350.000; -258.000
435.801;  -42.650;  -25.000;   49.000
435.924;  -22.725;    1.000;  -67.000
436.048; -142.800;-1019.000; -732.000
436.171;  -84.950; -240.000;  -66.000
436.294;  -20.950; -248.000; -229.000
436.417;   86.700; -963.000; -849.000
436.541;  -91.750; -814.000; -840.000
436.664;  -73.850; -242.000; -316.000
436.787;  -40.725;   13.000;  113.000
436.910; -123.750; -792.000; -422.000
437.034;   11.475;  142.000;  143.000
437.157;   16.700;  -11.000;    0.000
437.280;  -70.325; -392.000; -292.000
437.403; -113.150; -982.000; -869.000
437.526;  421.800; -903.000; -865.000
437.649; 1596.300; -505.000; -332.000
437.772;  171.350; -692.000; -540.000
437.896;   91.525;  700.000;  544.000
438.019; -104.150; -758.000; -503.000
438.142;  -90.150; -596.000; -506.000
438.265;  -50.200; -639.000; -670.000
438.388;  388.325; -520.000; -410.000
438.511;   20.875; -597.000; -394.000
438.634;  -70.550; -247.000; -125.000
438.757; -148.900; -693.000; -619.000
438.880;  -39.125;  -34.000;  -57.000
439.003;  -82.600; -417.000; -437.000
439.126;  -72.225; -287.000; -167.000
439.248;  -73.075;  -98.000; -139.000
439.371;  -62.175;    9.000;  -53.000
439.494;   18.950;  510.000;  439.000
439.617;  -43.925;   65.000;  -88.000
439.740; -187.500; -968.000; -816.000
439.863; -150.850; -755.000; -595.000
439.986; -127.100; -476.000; -431.000
440.108;  -65.050; -161.000; -112.000
440.231; -170.125; -950.000; -836.000
440.354;  -44.950;  -64.000; -150.000
440.477;  -24.575; -566.000; -542.000
440.599;  -30.350; -200.000; -225.000
440.722; -135.275; -709.000; -586.000
440.845;   60.675;  751.000;  928.000
440.968; -115.400; -415.000; -311.000
441.090;  -73.750; -199.000;  -33.000
441.213; -173.250;-1021.000; -825.000
441.336;  -58.275; -159.000;   -5.000
441.458; -101.100; -549.000; -396.000
441.581; -106.575; -628.000; -629.000
441.703;  -60.125; -152.000;   13.000
441.826; -119.950; -557.000; -400.000
441.948;  -49.925;   56.000;   51.000
442.071;   10.200;  555.000;  424.000
442.193; -123.000; -531.000; -485.000
442.316;   -0.675;  152.000;   97.000
442.438;   53.450; -233.000;  -10.000
442.561;   45.825;  272.000;  262.000
442.683;  358.550; -809.000; -522.000
442.806;  848.975;   -8.000;   74.000
442.928;  -48.000; -859.000; -604.000
443.051;  -81.375; -577.000; -373.000
443.173;  -88.700; -341.000; -339.000
443.295;  -85.450; -263.000; -371.000
443.418;  -64.300; -321.000;  -29.000
443.540;  -34.825; -106.000;   -4.000
443.662; -120.275; -563.000; -465.000
443.785;  -14.350;  335.000;  199.000
443.907;  -95.700; -362.000; -208.000
444.029; -134.700; -767.000; -494.000
444.152; -156.775; -644.000; -554.000
444.274;  -53.150;  -18.000;  -24.000
444.396; -124.775; -461.000; -221.000
444.518; -133.425; -691.000; -454.000
444.640;  -96.825; -268.000; -111.000
444.763;  -22.300;  388.000;  249.000
444.885; -118.575; -432.000; -392.000
445.007;  -35.025;   35.000;   86.000
445.129; -122.775; -610.000; -515.000
445.251; -100.350; -372.000; -439.000
445.373; -134.850; -537.000; -386.000
445.495;    7.600;  242.000;  350.000
445.617;   47.000;  853.000;  753.000
445.739;  -80.800; -215.000;  -97.000
445.861;  -57.250; -245.000; -112.000
445.984;  -55.875; -267.000; -101.000
446.105;  131.450; -418.000; -251.000
446.227;  444.900; -176.000;  -19.000
446.349;  -21.000; -358.000; -249.000
446.471; -123.525; -615.000; -448.000
446.593;  -74.150; -316.000;   19.000
446.715;  -23.850;  -67.000;   41.000
446.837;   63.750;  697.000;  832.000
446.959; -108.125; -457.000; -478.000
447.081; -140.450; -628.000; -518.000
447.203;   46.275;  862.000;  834.000
447.325;  -73.950; -270.000;   42.000
447.446;   -7.850;  286.000;  530.000
447.568; -168.625; -921.000; -803.000
447.690;  -97.325; -236.000; -245.000
447.812; -154.800; -798.000; -519.000
447.933;  -35.500;  155.000;  127.000
448.055;  -74.400; -306.000; -261.000
448.177;   99.900;   31.000;   79.000
448.299;   15.925; -935.000; -727.000
448.420;    2.375;  -25.000;  159.000
448.542;  -48.025;   -3.000;   33.000
448.664;  -33.100;  109.000;  322.000
448.785;  -37.825;  265.000;   83.000
448.907;  -83.975; -614.000; -353.000
449.028;  -66.500; -771.000; -471.000
449.150;   47.750;  492.000;  589.000
449.272; -177.525;-1044.000; -913.000
449.393;   14.325;  612.000;  694.000
449.515; -153.300; -634.000; -581.000
449.636;  -68.450; -264.000; -155.000
449.758;   66.775;  763.000;  622.000
449.879; -111.200; -498.000; -396.000
450.001;  -80.850; -149.000;  -49.000
450.122;  -48.425;  -95.000;  162.000
450.244;  -26.375;   37.000;  364.000
450.365;  -97.550; -495.000; -301.000
450.486;  -38.775;   80.000;  268.000
450.608;   24.400;  393.000;  326.000
450.729;   57.050;  578.000;  645.000
450.850;   19.775; -574.000; -466.000
450.972;  816.800; -552.000; -389.000
451.093; 5301.200;  190.000;  588.000
451.214; 2191.850; -516.000; -337.000
451.336;  399.100;  773.000;  579.000
451.457;   56.725;  264.000;  393.000
451.578;  -47.775; -118.000;  -74.000
451.699; -129.025; -546.000; -540.000
451.821;  -81.400; -284.000;  -50.000
451.942;    2.875;  278.000;  285.000
452.063;   47.950;  228.000;  419.000
452.184;  608.125;  -54.000;  -49.000
452.305; 1127.900;  103.000;  170.000
452.427;  122.925; -549.000; -301.000
452.548;  -29.225;   23.000;   79.000
452.669;  -76.525; -257.000;  -89.000
452.790;  -53.225;    3.000;  -18.000
452.911;   -4.450;  195.000;  259.000
453.032;  -67.775; -289.000;  -60.000
453.153;  -57.575;  -29.000;   81.000
453.274;   55.750;  737.000;  868.000
453.395;  -58.325;  -51.000;  175.000
453.516;  108.475; 1317.000; 1388.000
453.637;  -88.575; -205.000; -150.000
453.758;  -57.775;   15.000;   69.000
453.879; -121.850; -462.000; -250.000
454.000;   65.025; 1086.000;  948.000
454.121; -125.150; -554.000; -326.000
454.242; -120.500; -599.000; -383.000
454.362;  -60.750;  -99.000;  114.000
454.483;  -46.450; -309.000; -229.000
454.604;   32.775;  512.000;  580.000
454.725; -134.450; -627.000; -555.000
454.846; -141.750; -474.000; -406.000
454.967;  -28.650;  230.000;  539.000
455.087;  -32.700;  179.000;  153.000
455.208;   -3.425;  554.000;  856.000
455.329;  -63.350;  -22.000;   82.000
455.450;   31.375;  473.000;  633.000
455.570;  -84.250; -234.000; -211.000
455.691;  -33.825;  201.000;  407.000
455.812; -109.925; -270.000;  -92.000
455.932;  -54.325;  107.000;  -97.000
456.053;  -88.075;   36.000;   24.000
456.173; -115.525; -433.000; -355.000
456.294; -146.950; -476.000; -303.000
456.415;  -68.175;  -73.000;   70.000
456.535;  -26.700;  297.000;  273.000
456.656;  -39.775;  132.000;  240.000
456.776;  -63.200;    3.000;  298.000
456.897;  -15.175;  308.000;  513.000
457.017;  -81.650; -153.000;   -3.000
457.138; -116.425; -402.000; -249.000
457.258;  -31.850;  263.000;  224.000
457.379;  -20.625;  509.000;  521.000
457.499;  -43.875;  443.000;  432.000
457.620; -126.250; -407.000; -231.000
457.740; -106.775; -132.000;  -11.000
457.860;  -61.350;   87.000;   44.000
457.981;  -41.075;  132.000;  124.000
458.101;  -76.350;  -89.000;   40.000
458.221;  -15.400;  336.000;  402.000
458.342;  -58.900;   -4.000;  -37.000
458.462;   23.575;  617.000;  352.000
458.582;  -34.050; -302.000; -294.000
458.703;    1.325;  303.000;  154.000
458.823;  -35.125;   22.000;  163.000
458.943;   24.600;  341.000;  467.000
459.063;  -37.025; 1124.000;  192.000
459.183;  -22.200;  328.000;  313.000
459.304;    5.400;  315.000;  517.000
459.424;  -66.400; -246.000;  -89.000
459.544;  355.500;  388.000;  764.000
459.664;  850.300;  499.000;  506.000
459.784;  312.500; 1004.000; 1175.000
459.904;   60.150;  867.000;  744.000
460.024;   49.550;  867.000;  684.000
460.144;   -4.875;  449.000;  554.000
460.264;  -17.275;  515.000;  327.000
460.385;  -99.025; -145.000; -119.000
460.505;   45.350;  905.000;  858.000
460.625;  -74.300;  -17.000;  -68.000
460.745;  -33.800;  396.000;  541.000
460.864;  -56.325;  153.000;  469.000
460.984;    9.850;  499.000;  573.000
461.104;  141.300; 1656.000; 1775.000
461.224;   19.175;  657.000;  650.000
461.344;  -23.800;  431.000;  360.000
461.464;  -54.425;  258.000;  513.000
461.584;  -14.625;  283.000;  466.000
461.704;  -79.075;   58.000;  108.000
461.824;  -65.900;  238.000;  259.000
461.943;  -40.225;  191.000;  130.000
462.063;  -82.200;    2.000;  324.000
462.183;   23.875;  639.000;  717.000
462.303;   96.025; 1678.000; 1230.000
462.422;   14.675;  781.000;  840.000
462.542;  -36.825;  271.000;  391.000
462.662;   36.925;  353.000;  380.000
462.782;  245.450;  833.000;  572.000
462.901;  493.300;  545.000;  717.000
463.021;  276.850; 1702.000; 1638.000
463.141;   -6.950;  337.000;  770.000
463.260;  -15.950;  614.000;  474.000
463.380;    7.400;  902.000;  884.000
463.499;  -36.650;  342.000;  332.000
463.619;  -33.525;  581.000;  559.000
463.738;  129.525; 1644.000;  903.000
463.858;   19.575;  657.000;  811.000
463.978;  -29.075;  542.000;  396.000
464.097;   38.450;  921.000; 1114.000
464.217;  117.175; 1196.000; 1143.000
464.336;  102.750; 1068.000; 1130.000
464.455;  -36.650;  328.000;  659.000
464.575;   30.175;  597.000;  602.000
464.694;  147.750; 1204.000; 1179.000
464.814;  117.850; 1190.000; 1138.000
464.933;   75.275; 1095.000; 1027.000
465.052;   95.800; 1412.000; 1054.000
465.172;   76.875;  922.000;  799.000
465.291;  115.825; 1376.000; 1320.000
465.410;   13.050;  462.000;  735.000
465.530;   77.800; 1355.000; 1310.000
465.649;   57.650; 1209.000; 1273.000
465.768;  141.875; 1673.000; 1508.000
465.888;   32.325;  941.000; 1174.000
466.007;   66.325; 1335.000; 1440.000
466.126;  -10.375;  721.000;  641.000
466.245;   49.000; 1176.000; 1187.000
466.364;   18.600;  950.000; 1060.000
466.484;   51.550; 1024.000; 1213.000
466.603;   37.925; 1101.000; 1222.000
466.722;  124.700; 1490.000; 1769.000
466.841;   79.725; 1151.000; 1401.000
466.960;   41.050; 1069.000;  972.000
467.079;  127.975; 1971.000; 1786.000
467.198;   42.175; 1238.000; 1181.000
467.317;   80.575; 1768.000; 1162.000
467.436;   65.325; 1709.000; 1261.000
467.555;  134.325; 1796.000; 1746.000
467.674;   51.925; 1227.000; 1329.000
467.793;   44.500; 1376.000; 1374.000
467.912;   87.125; 1658.000; 1539.000
468.031;  132.025; 2038.000; 1930.000
468.150;  138.600; 1842.000; 1837.000
468.269;  198.350; 2313.000; 2090.000
468.388;  186.500; 2168.000; 2339.000
468.507;  263.450; 2884.000; 2903.000
468.626;  230.050; 2555.000; 2541.000
468.744;  152.275; 2018.000; 2174.000
468.863;  189.600; 2312.000; 2523.000
468.982;   93.100; 1503.000; 1555.000
469.101;  226.100; 2788.000; 2692.000
469.220;  154.150; 2333.000; 2176.000
469.338;  252.025; 2935.000; 3051.000
469.457;  194.800; 2719.000; 2545.000
469.576;  335.350; 3953.000; 3784.000
469.695;  243.300; 2877.000; 3066.000
469.813;  416.275; 4148.000; 4192.000
469.932;  404.500; 4255.000; 4485.000
470.051;  416.725; 4075.000; 4161.000
470.169;  897.125; 4470.000; 4338.000
470.288; 1534.775; 4700.000; 4809.000
470.406;  902.400; 5059.000; 5194.000
470.525;  635.525; 6101.000; 5787.000
470.644;  661.225; 6847.000; 6794.000
470.762;  824.375; 8397.000; 7873.000
470.881;  914.250; 8651.000; 8464.000
470.999; 1073.450; 9685.000; 9151.000
471.118; 1105.625;11174.000;10711.000

