
Integration time [ms]: 100.000
Averaging Nr. [scans]: 40
Smoothing Nr. [pixels]: 0
Data measured with spectrometer [name]: 2101012U2
Wave   ;Sample   ;Dark     ;Reference
[nm]   ;[counts] ;[counts] ;[counts] 

197.733;   52.500;  516.000;  404.000
197.879;  -80.225; -610.000; -634.000
198.025;  -49.425; -475.000; -420.000
198.171;  -65.125; -602.000; -612.000
198.317;  -33.200; -401.000; -316.000
198.463;  -53.475; -655.000; -404.000
198.609;   22.400;  181.000; -137.000
198.755;  -66.150; -644.000; -410.000
198.901;  -69.525; -505.000; -424.000
199.047;  -50.900; -615.000; -488.000
199.193;  -34.475; -230.000; -468.000
199.339;  -25.075; -222.000; -369.000
199.485;   34.275;  330.000;  271.000
199.631;   17.975;  227.000;  310.000
199.777;  -41.625; -466.000; -398.000
199.923;  -50.250; -610.000; -424.000
200.069;  -13.825; -141.000;  -58.000
200.215;   57.875;  128.000;  453.000
200.361;   43.025;  243.000;  477.000
200.507;  -57.350; -600.000; -373.000
200.653;  -30.900; -371.000; -194.000
200.798;  -39.375; -215.000; -125.000
200.944;    9.800; -146.000;  -41.000
201.090;   43.975;   61.000;  222.000
201.236;   -2.175; -116.000; -158.000
201.382;  113.100;  874.000;  903.000
201.528;   -6.725;  -58.000;  -48.000
201.674;  -48.825; -386.000; -293.000
201.819;  -56.425; -540.000; -439.000
201.965;  -75.525; -699.000; -447.000
202.111;  -28.900; -273.000; -226.000
202.257;  -43.875; -250.000; -238.000
202.402;    3.725;   13.000;  -36.000
202.548;  -21.125; -169.000; -116.000
202.694;   78.525;  410.000; -183.000
202.840;  -62.875; -603.000; -531.000
202.985;  -65.000; -681.000; -639.000
203.131;  -91.100; -832.000; -666.000
203.277;  -23.100; -199.000; -262.000
203.423;  -62.275; -434.000; -520.000
203.568;  -27.625; -462.000; -237.000
203.714;  -55.650; -535.000; -542.000
203.860;  -71.725; -682.000; -641.000
204.005;   18.875;  112.000;  167.000
204.151;   76.150;  561.000;  556.000
204.296;  -48.200; -354.000; -221.000
204.442;  -66.850; -600.000; -547.000
204.588;  -77.375; -592.000; -579.000
204.733;   16.500;  178.000;  168.000
204.879; -125.575;-1018.000; -822.000
205.025;    9.975;  -99.000;  126.000
205.170;    1.525;  -17.000;   94.000
205.316;   74.575;  438.000;  661.000
205.461;  -79.025; -698.000; -554.000
205.607;   83.350;  609.000;  665.000
205.752;  -79.450; -626.000; -551.000
205.898;  -58.350; -501.000; -391.000
206.043;  -55.925; -578.000; -506.000
206.189;  -39.975; -243.000; -285.000
206.334;   81.850;  554.000;  606.000
206.480;   74.825;  409.000;  239.000
206.625;  -72.750; -529.000; -552.000
206.771;  -40.175; -451.000; -373.000
206.916;  -28.825; -210.000; -537.000
207.062;  -78.600; -545.000; -591.000
207.207;  -65.575; -546.000; -443.000
207.353;   53.250;  185.000;  460.000
207.498;   18.900;  196.000;   85.000
207.643;  -57.775; -501.000; -370.000
207.789; -121.400;-1069.000; -910.000
207.934;  -90.850; -665.000; -713.000
208.080;  -19.250; -154.000;   66.000
208.225;   -5.400;  -22.000;  -57.000
208.370;  -87.900; -727.000; -619.000
208.516;  -73.250; -741.000; -487.000
208.661;  -23.225; -127.000;  -69.000
208.806;  -25.825; -165.000; -171.000
208.952; -111.850;-1044.000; -731.000
209.097;   77.425;  378.000;  349.000
209.242;  -44.000; -307.000; -382.000
209.387;   77.875;  392.000;  350.000
209.533;  -42.475; -321.000; -350.000
209.678;   64.950;  472.000;  543.000
209.823;  -47.600; -408.000; -310.000
209.969;  -90.425; -860.000; -757.000
210.114;  -96.625; -907.000; -719.000
210.259; -106.850; -939.000; -889.000
210.404;   -0.375; -171.000;  103.000
210.549;   11.925;  108.000;    3.000
210.695;   -9.425;   -3.000;  -95.000
210.840;   36.350;   94.000;   67.000
210.985;  -55.525; -484.000; -303.000
211.130;   66.000;  268.000;  406.000
211.275;    2.100;  207.000;  199.000
211.420;  -52.700; -300.000; -289.000
211.566;  -60.175; -536.000; -489.000
211.711;   20.150;  218.000;  157.000
211.856;  -51.350; -545.000; -519.000
212.001;   13.125;  151.000;   44.000
212.146;   29.625;  153.000;   49.000
212.291;  -20.550; -210.000; -186.000
212.436;  -25.200; -280.000;   -6.000
212.581;  -75.725; -685.000; -653.000
212.726;  -67.925; -487.000; -538.000
212.871;  -43.150; -552.000; -217.000
213.016; -134.200;-1172.000;-1029.000
213.161;   62.800;  406.000;  291.000
213.306;  -63.450; -435.000; -577.000
213.451;  -96.200; -778.000; -689.000
213.596;  -36.025; -455.000; -347.000
213.741;  -50.600; -448.000; -538.000
213.886;  -68.250; -498.000; -517.000
214.031;  -24.075; -294.000; -124.000
214.176;  -53.925; -408.000; -341.000
214.321;  -17.175; -296.000; -157.000
214.466;  -22.925; -163.000;  -43.000
214.611;   -6.925;  -61.000;  -10.000
214.756; -104.750; -948.000; -858.000
214.901;  -14.150; -388.000; -226.000
215.046; -110.225; -797.000; -825.000
215.191;   14.200;  128.000;   35.000
215.336;  -15.250; -157.000;  -19.000
215.480;  -58.400; -684.000; -505.000
215.625;   -6.600; -175.000;  -19.000
215.770;  -87.350; -757.000; -662.000
215.915;   -6.150;   -5.000;  -97.000
216.060;    2.400; -113.000;  -21.000
216.205; -103.650; -731.000; -779.000
216.349;  -67.825; -470.000; -533.000
216.494; -129.825; -939.000; -867.000
216.639; -106.250; -823.000; -888.000
216.784;  -70.650; -577.000; -525.000
216.929;   44.900;  392.000;  281.000
217.073;   -7.275; -244.000;  -31.000
217.218;   -1.950;   78.000;  -47.000
217.363;  -74.400; -656.000; -618.000
217.507;  -83.125; -623.000; -588.000
217.652; -119.175; -845.000; -874.000
217.797;  -89.400; -708.000; -659.000
217.942; -101.250; -856.000; -720.000
218.086;   64.625;  608.000;  539.000
218.231;  -18.275; -174.000;  -26.000
218.376;  -43.650; -337.000; -229.000
218.520;    9.925;  -41.000;   96.000
218.665;  -36.075; -338.000; -204.000
218.810;  -36.325; -275.000; -233.000
218.954;    8.150;  201.000;   35.000
219.099; -103.175; -713.000; -963.000
219.243;  -67.550; -589.000; -554.000
219.388;  -27.125; -264.000; -136.000
219.532;    1.575; -116.000; -116.000
219.677;  -73.200; -564.000; -521.000
219.822;    9.450;   33.000;   89.000
219.966;    7.150;   17.000;  -99.000
220.111;  -22.725; -328.000;  -40.000
220.255;  -84.750; -797.000; -750.000
220.400;  -26.200; -180.000; -146.000
220.544;  -69.875; -516.000; -450.000
220.689;  -56.850; -422.000; -451.000
220.833;  -14.050; -123.000;  -58.000
220.978;  -31.800; -393.000; -563.000
221.122;   27.800;  319.000;  307.000
221.267; -114.700; -906.000; -837.000
221.411;  -57.550; -478.000; -394.000
221.555;  -18.400; -104.000;  -23.000
221.700;  -47.525; -329.000; -222.000
221.844;   36.750;  255.000;  272.000
221.989;  -29.450; -328.000; -311.000
222.133;  -43.475; -289.000; -307.000
222.277;   -9.475;    5.000;   78.000
222.422;   22.175;  227.000;  113.000
222.566;  -40.100; -381.000; -214.000
222.711;  -49.800; -414.000; -479.000
222.855;  -57.625; -643.000; -586.000
222.999;  -93.525; -642.000; -717.000
223.144;  -33.200; -195.000; -194.000
223.288;   55.425;  423.000;  251.000
223.432;   37.025;  184.000;  230.000
223.576;    5.300;  152.000;  -21.000
223.721;   39.075;  364.000;  273.000
223.865;  -53.750; -472.000; -475.000
224.009;  239.475; 1673.000; 1631.000
224.153;  -72.375; -660.000; -671.000
224.298;  -62.425; -531.000; -489.000
224.442;  -14.950;  -74.000;  -33.000
224.586;   -6.225; -169.000; -106.000
224.730;  -84.900; -858.000; -670.000
224.875;  -95.700; -739.000; -688.000
225.019;   -3.100;  102.000;  188.000
225.163;   59.525;  208.000;  341.000
225.307;   16.400;   97.000;  -91.000
225.451;   32.750;  360.000;  481.000
225.595;   21.575;  264.000;  176.000
225.739;   -9.200; -170.000;  -94.000
225.884;   -3.325;   86.000;    5.000
226.028;  -89.425; -760.000; -626.000
226.172;  -21.775; -260.000; -273.000
226.316;  -97.375; -941.000; -902.000
226.460;  -65.400; -645.000; -493.000
226.604;  -49.675; -406.000; -400.000
226.748;  -95.650; -836.000; -733.000
226.892;  -39.075; -227.000; -181.000
227.036;  -58.925; -537.000; -447.000
227.180;  -60.000; -551.000; -375.000
227.324;  -66.700; -561.000; -580.000
227.468;  -95.150; -819.000; -717.000
227.612;    7.025;  242.000;  -28.000
227.756;  -82.125; -845.000; -698.000
227.900;   56.125;  342.000;  441.000
228.044;  -53.225; -509.000; -290.000
228.188;   62.525;  448.000;  568.000
228.332;  -66.150; -546.000; -472.000
228.476;  -28.650; -223.000; -149.000
228.620;  -25.475; -210.000; -150.000
228.764;   58.450;  431.000;  349.000
228.908;  -11.525; -155.000;   30.000
229.052;  -68.825; -615.000; -528.000
229.195;  -19.775; -172.000;   13.000
229.339;  -26.925; -235.000; -305.000
229.483;  -27.425;    5.000; -162.000
229.627;    5.575; -156.000;  139.000
229.771;  -48.025; -218.000; -294.000
229.915;   20.075;  230.000;   79.000
230.059;  -80.900; -648.000; -663.000
230.202;  -28.150; -370.000; -317.000
230.346;   -7.625; -107.000;  107.000
230.490;  -60.825; -489.000; -521.000
230.634;  -93.850; -736.000; -553.000
230.777;   63.825;  478.000;  509.000
230.921;  -53.350; -450.000; -359.000
231.065;  -40.175; -246.000; -286.000
231.209;   26.475;  261.000;  265.000
231.352;   10.600;   54.000;   40.000
231.496;   16.500;  568.000;  188.000
231.640;  -78.625; -693.000; -621.000
231.783;   56.175;  546.000;  525.000
231.927;  -33.700; -294.000; -365.000
232.071; -112.350; -962.000; -736.000
232.214; -106.450; -980.000; -764.000
232.358;  -91.550; -683.000; -599.000
232.502;   -6.200;  -19.000;    7.000
232.645; -120.875;-1090.000; -927.000
232.789;  -30.000; -257.000; -218.000
232.933;  -45.975; -407.000; -224.000
233.076; -118.150;-1038.000; -897.000
233.220;  -97.450; -752.000; -777.000
233.363;  -59.725; -669.000; -477.000
233.507;   46.725;  371.000;  129.000
233.650;  -80.475; -764.000; -834.000
233.794;   42.725;  438.000;  461.000
233.938;  -64.450; -530.000; -362.000
234.081;  -20.000;  -93.000;   31.000
234.225;  -65.275; -631.000; -539.000
234.368; -112.475; -773.000; -723.000
234.512;  -43.950; -385.000; -299.000
234.655;  -80.450; -582.000; -555.000
234.798;  -63.850; -493.000; -466.000
234.942; -118.800; -884.000;-1002.000
235.085;  -81.050; -651.000; -443.000
235.229;  -70.900; -405.000; -410.000
235.372;  -42.025; -247.000; -191.000
235.516;  -54.275; -397.000; -321.000
235.659;   19.000;   92.000;  121.000
235.802;   -7.750;  -38.000;  -22.000
235.946;   23.000;  335.000;  215.000
236.089;   34.700;  126.000;  250.000
236.233;   38.175;  275.000;  298.000
236.376;  -52.525; -235.000; -378.000
236.519;  -47.200; -297.000; -319.000
236.663;  -26.700; -215.000; -117.000
236.806; -109.275;-1029.000; -999.000
236.949;   69.225;  543.000;  431.000
237.092;   71.675;  412.000;  391.000
237.236;  -92.500; -589.000; -502.000
237.379;   50.900;  352.000;  428.000
237.522; -116.700; -879.000; -768.000
237.666;  -11.500; -271.000;   18.000
237.809; -112.100; -851.000; -823.000
237.952;   31.925;  469.000;  271.000
238.095;  -56.625; -447.000; -442.000
238.238;   85.850;  688.000;  700.000
238.382;   -6.875;  166.000;  103.000
238.525;  -65.325; -598.000; -511.000
238.668; -127.900;-1060.000; -985.000
238.811;  -75.350; -638.000; -643.000
238.954;  -55.350; -483.000; -334.000
239.097;   88.125;  617.000;  664.000
239.241;   22.375;  394.000;  326.000
239.384;  -32.575; -254.000; -214.000
239.527;  -56.650; -424.000; -224.000
239.670; -142.150; -994.000;-1091.000
239.813; -107.850; -696.000; -658.000
239.956;   60.950;  579.000;  473.000
240.099; -105.400; -778.000; -725.000
240.242;   60.775;  428.000;  432.000
240.385;   46.800;  466.000;  450.000
240.528;  -63.375; -706.000; -473.000
240.671;   17.750;  189.000;  134.000
240.814;  -41.950; -441.000; -158.000
240.957;  -89.225; -767.000; -578.000
241.100;  -87.975; -779.000; -755.000
241.243; -132.650;-1234.000; -893.000
241.386;  -61.150; -508.000; -379.000
241.529;  -79.475; -735.000; -547.000
241.672;  -54.250; -566.000; -495.000
241.815; -110.975; -832.000; -808.000
241.958;  -21.825; -125.000; -182.000
242.101;  -81.850; -545.000; -390.000
242.244;  -40.825; -270.000; -325.000
242.387;  -40.800; -304.000; -246.000
242.530;   50.075;  470.000;  134.000
242.673;  -45.750; -381.000; -309.000
242.815; -111.975; -925.000; -899.000
242.958;  -59.850; -482.000; -381.000
243.101;    2.450;  132.000;  187.000
243.244;  -59.875; -564.000; -521.000
243.387;  -46.525; -313.000; -316.000
243.530;  -82.525; -657.000; -674.000
243.672;  -12.175;   43.000;  -92.000
243.815;  -54.950; -355.000; -283.000
243.958;    2.300;   98.000;  -26.000
244.101;  -10.325;   59.000;  -16.000
244.243;   -4.975;  -47.000;  101.000
244.386; -104.725; -761.000; -630.000
244.529;  -26.625; -132.000; -139.000
244.672; -146.825;-1154.000; -951.000
244.814;  -87.850; -621.000; -794.000
244.957;  -25.400; -380.000; -304.000
245.100;  -73.400; -489.000; -489.000
245.242;  -53.175; -387.000; -374.000
245.385;   -1.700;  -59.000;  -39.000
245.528; -108.950; -871.000; -705.000
245.670;   88.375;  612.000;  634.000
245.813;  -87.850; -599.000; -547.000
245.956;  -23.725; -324.000; -275.000
246.098;  -65.100; -508.000; -650.000
246.241;    6.100;  194.000;   48.000
246.383;  -22.575; -119.000;  -73.000
246.526;  -71.675; -454.000; -525.000
246.669; -109.550; -889.000; -780.000
246.811;    9.300;  172.000;   -1.000
246.954;  -68.500; -512.000; -426.000
247.096;  -22.625;  -84.000;   -6.000
247.239;  -70.825; -482.000; -445.000
247.381;  -76.275; -647.000; -488.000
247.524;   69.400;  645.000;  679.000
247.666;  -14.300;   58.000;   11.000
247.809; -108.025; -887.000; -691.000
247.951;    0.725;  -75.000;  138.000
248.094;   16.800;  432.000;  308.000
248.236; -148.725;-1262.000;-1238.000
248.378;  -19.850; -356.000;  -81.000
248.521;  -46.400; -334.000; -337.000
248.663;  -36.375; -236.000; -267.000
248.806;  -33.100; -300.000; -266.000
248.948; -112.225; -886.000; -763.000
249.090;  -56.875; -428.000; -398.000
249.233;  -74.850; -344.000; -381.000
249.375;  -81.450; -474.000; -451.000
249.518;  -13.275;  -83.000; -133.000
249.660;   -4.625; -103.000;    3.000
249.802; -174.875;-1303.000;-1189.000
249.945;  -89.325; -612.000; -540.000
250.087;  -96.900; -834.000; -768.000
250.229;  -38.625; -362.000; -480.000
250.371;  -74.350; -494.000; -439.000
250.514;  -49.775; -310.000; -244.000
250.656;  -14.000;   69.000;  102.000
250.798; -104.975; -849.000; -800.000
250.940;  -52.825; -322.000; -322.000
251.083;  -32.675; -335.000; -111.000
251.225;   48.575;  338.000;  310.000
251.367;  -47.150; -274.000; -373.000
251.509;  -29.950; -265.000; -210.000
251.651;  -91.250; -731.000; -671.000
251.794;   48.675;  538.000;  632.000
251.936; -110.450; -821.000; -747.000
252.078;  -73.500; -540.000; -461.000
252.220;  -78.100; -645.000; -477.000
252.362;   41.625;  344.000;  462.000
252.504;  -65.175; -677.000; -584.000
252.646; -103.125; -875.000; -722.000
252.788;  -17.725;   14.000; -128.000
252.931;  -43.400; -257.000; -253.000
253.073;  -56.900; -376.000; -317.000
253.215;    5.900;  141.000;  122.000
253.357;  -15.250;   82.000; -153.000
253.499;  -51.550; -374.000; -234.000
253.641;  -99.825; -749.000; -594.000
253.783;  -77.800; -609.000; -527.000
253.925;  -88.875; -586.000; -591.000
254.067;  -98.025; -744.000; -667.000
254.209;  -43.225; -391.000; -259.000
254.351; -121.775; -865.000; -883.000
254.493;  -60.425; -441.000; -417.000
254.635; -108.500; -936.000; -818.000
254.777;  -90.475; -752.000; -687.000
254.918;  -72.500; -512.000; -430.000
255.060;  -58.850; -551.000; -395.000
255.202;  -56.675; -473.000; -261.000
255.344;  -73.825; -658.000; -455.000
255.486;  -60.100; -471.000; -406.000
255.628; -102.275; -780.000; -781.000
255.770;  -74.950; -676.000; -536.000
255.912;  -60.250; -559.000; -468.000
256.053;  -76.950; -730.000; -508.000
256.195;  137.725; 1008.000;  903.000
256.337;  -92.800; -861.000; -595.000
256.479;   57.000;  532.000;  416.000
256.621;  -42.975; -394.000; -212.000
256.762;  -87.775; -789.000; -742.000
256.904;   37.475;  485.000;  487.000
257.046;  -55.325; -381.000; -271.000
257.188;  -32.875; -351.000; -264.000
257.329;  -74.475; -525.000; -464.000
257.471; -102.575; -939.000; -807.000
257.613;  -77.700; -584.000; -498.000
257.755; -129.250;-1073.000; -982.000
257.896;   31.550;  286.000;  392.000
258.038;  -53.900; -403.000; -352.000
258.180;  -38.400; -354.000; -279.000
258.321;  -75.525; -581.000; -457.000
258.463;   -5.775;  -71.000;  133.000
258.605;  -94.325; -562.000; -570.000
258.746;  -91.100; -886.000; -772.000
258.888; -144.650;-1026.000;-1020.000
259.029;   12.300;  121.000;   -8.000
259.171;  -78.800; -614.000; -550.000
259.313;    5.425;  -49.000;  -47.000
259.454;  -62.325; -536.000; -414.000
259.596;  -52.900; -483.000; -390.000
259.737;  -60.025; -590.000; -474.000
259.879;   54.125;  217.000;  311.000
260.020;   88.350;  901.000;  636.000
260.162;  -26.500; -146.000; -253.000
260.303;  -98.175; -768.000; -687.000
260.445;  -81.250; -609.000; -613.000
260.586;   22.225;  392.000;  157.000
260.728;  -43.375; -360.000; -248.000
260.869;  -55.750; -350.000; -343.000
261.011;   64.475;  706.000;  537.000
261.152;  -50.125; -479.000; -319.000
261.293;  -78.350; -576.000; -595.000
261.435;  -30.300; -219.000; -184.000
261.576;  -51.475; -455.000; -325.000
261.718;   41.000;  420.000;  470.000
261.859; -122.625; -940.000; -949.000
262.000; -124.050; -951.000;-1016.000
262.142;  -22.275;  -52.000;  -60.000
262.283; -108.275; -808.000; -691.000
262.424;  -85.975; -666.000; -625.000
262.566; -145.100;-1161.000; -983.000
262.707; -103.350; -840.000; -830.000
262.848; -114.475; -769.000; -726.000
262.990;  -53.250; -362.000; -345.000
263.131;   71.775;  650.000;  681.000
263.272;  -14.875;  -61.000;  -41.000
263.413;  -72.725; -589.000; -561.000
263.555;  -72.550; -669.000; -143.000
263.696;  -73.150; -550.000; -641.000
263.837;  -57.550; -449.000; -551.000
263.978;   -4.825;   -5.000;  -77.000
264.119;  -40.450; -283.000; -264.000
264.261; -100.075; -847.000; -630.000
264.402;  -11.350;   33.000;   40.000
264.543;  -69.550; -509.000; -524.000
264.684;   -9.200;   61.000;  -50.000
264.825;  -69.925; -816.000; -538.000
264.966;    0.975;  -84.000;  -67.000
265.107; -100.800; -646.000; -670.000
265.248;  -97.275; -825.000; -812.000
265.390;  -24.075;  152.000;   -9.000
265.531;  -19.725; -238.000; -107.000
265.672;  -87.000; -557.000; -630.000
265.813;   52.325;  563.000;  439.000
265.954; -122.725; -959.000; -940.000
266.095;  -21.300; -372.000; -322.000
266.236;  -85.100; -686.000; -548.000
266.377;  -43.200; -243.000; -297.000
266.518;  -69.650; -619.000; -547.000
266.659;   18.675;  170.000;  268.000
266.800;   13.750;   83.000;   85.000
266.941;  -72.675; -487.000; -478.000
267.082;   11.200;  354.000;   99.000
267.223;  -54.200; -344.000; -273.000
267.364; -121.850; -892.000; -686.000
267.504;    1.125;    3.000;  135.000
267.645;    5.025;  160.000;   67.000
267.786;  -27.975; -147.000;  -86.000
267.927;  -61.100; -473.000; -379.000
268.068;  -19.375; -186.000;  -61.000
268.209;  -54.825; -175.000; -413.000
268.350;  -43.450; -388.000; -532.000
268.490;  -70.875; -648.000; -521.000
268.631;   38.575;  127.000;  225.000
268.772;  -99.400; -874.000; -647.000
268.913;  -52.850; -328.000; -476.000
269.054;   -3.775; -117.000;   12.000
269.194;  -46.250; -418.000; -402.000
269.335; -142.050;-1137.000;-1074.000
269.476;  -16.375;   33.000;  -35.000
269.617;  -49.625; -347.000; -392.000
269.757;  -86.875; -713.000; -646.000
269.898;  -95.225; -856.000; -613.000
270.039;  -59.925; -415.000; -405.000
270.180; -129.300; -952.000; -816.000
270.320;  -27.250; -190.000; -250.000
270.461;  -28.450; -277.000; -249.000
270.602;  -15.325; -186.000; -156.000
270.742; -109.850; -868.000; -943.000
270.883;  -54.825; -442.000; -390.000
271.023;  -48.900; -358.000; -357.000
271.164;  -72.350; -607.000; -528.000
271.305;  -79.875; -666.000; -654.000
271.445;  -89.800; -722.000; -683.000
271.586;  -65.875; -462.000; -283.000
271.726;  -48.850; -397.000; -322.000
271.867;  -65.025; -594.000; -534.000
272.008;   37.275; -473.000; -285.000
272.148;   79.875;  462.000;  468.000
272.289;   -3.350; -113.000; -181.000
272.429;    2.875;   19.000;  185.000
272.570;  -87.900; -633.000; -737.000
272.710;  -87.400; -825.000; -775.000
272.851;  -30.875;  113.000; -130.000
272.991; -155.225;-1173.000;-1077.000
273.131;  -52.250; -419.000; -459.000
273.272;  -89.200; -683.000; -723.000
273.412;  -22.775; -143.000;  -31.000
273.553;  -63.500; -488.000; -507.000
273.693;  106.225;  913.000;  858.000
273.834; -113.325; -894.000; -692.000
273.974;  -72.625; -664.000; -615.000
274.114;  -92.400; -772.000; -560.000
274.255;   47.550;  414.000;  373.000
274.395;  -12.725; -180.000; -125.000
274.535;   38.800;  199.000;  350.000
274.676;   12.500;  225.000;   94.000
274.816;    0.275;  110.000;   34.000
274.956;  -71.200; -624.000; -690.000
275.097; -106.600;-1014.000; -922.000
275.237; -110.500; -913.000; -803.000
275.377;  -84.775; -778.000; -689.000
275.517; -137.275; -878.000; -937.000
275.658;  -52.975; -590.000; -555.000
275.798;  -71.325; -606.000; -413.000
275.938;   20.750;  215.000;  323.000
276.078;  -73.150; -626.000; -395.000
276.218;   11.550;   99.000;  104.000
276.359; -116.300;-1026.000;-1024.000
276.499;  -75.150; -605.000; -446.000
276.639;  -23.475; -305.000; -151.000
276.779;  -53.175; -475.000; -357.000
276.919;  -97.475; -783.000; -624.000
277.059;  -25.675; -261.000; -212.000
277.199;  -39.800; -357.000; -259.000
277.340;   36.675;  287.000;  175.000
277.480;  -90.975; -840.000; -693.000
277.620;   31.100;  192.000;   16.000
277.760; -182.575;-1533.000;-1294.000
277.900;   14.100;  113.000;   33.000
278.040;    3.525;  137.000;  159.000
278.180;   30.000;  270.000;  170.000
278.320;    1.100;   21.000;   56.000
278.460;  -78.375; -443.000; -469.000
278.600;  -74.000; -708.000; -598.000
278.740;   46.475;  448.000;  224.000
278.880;  -85.175; -768.000; -791.000
279.020;  -14.075; -194.000; -144.000
279.160;  -78.150; -672.000; -595.000
279.300; -110.525; -926.000; -873.000
279.440;  -87.525; -709.000; -622.000
279.579;  -99.650;-1014.000; -929.000
279.719;  -56.050; -410.000; -394.000
279.859;   16.275;   -4.000;   41.000
279.999;    0.300; -208.000;  101.000
280.139;  -42.250; -435.000; -387.000
280.279;  -79.050; -708.000; -745.000
280.419;  -21.650; -229.000; -147.000
280.559;  -35.925; -259.000; -180.000
280.698;  -81.000; -790.000; -639.000
280.838;  -94.275; -778.000; -800.000
280.978;  -76.375; -846.000; -790.000
281.118;  -93.400; -811.000; -704.000
281.257;   28.525;   24.000;    6.000
281.397; -119.775;-1094.000; -960.000
281.537;  -77.500; -599.000; -712.000
281.677;   -3.075; -150.000; -101.000
281.816;  -71.475; -700.000; -630.000
281.956;  -19.325; -193.000; -257.000
282.096;  -49.875; -539.000; -396.000
282.235;  -79.800; -672.000; -638.000
282.375;    5.850; -243.000;  -98.000
282.515;  -77.875; -715.000; -707.000
282.654;   33.600;   29.000;  106.000
282.794;   65.900;  388.000;  244.000
282.934;  -40.800; -530.000; -491.000
283.073; -102.825;-1030.000; -857.000
283.213;  -36.900; -460.000; -467.000
283.353;  -30.800; -408.000; -349.000
283.492;  -17.450; -264.000; -296.000
283.632;  -32.750; -254.000; -168.000
283.771;  -70.100; -859.000; -730.000
283.911;  -43.900; -369.000; -260.000
284.050;  -83.600; -794.000; -748.000
284.190; -138.625;-1229.000;-1096.000
284.329; -131.300;-1055.000; -964.000
284.469;  -66.725; -516.000; -591.000
284.608;  -44.300; -559.000; -598.000
284.748;  -71.625; -614.000; -570.000
284.887;    8.650;  -87.000;  -20.000
285.027; -100.900; -844.000; -892.000
285.166;  -37.250; -192.000; -249.000
285.306;   -8.450; -116.000;  -33.000
285.445;  -39.675; -229.000; -343.000
285.584;  -72.625; -630.000; -494.000
285.724;  -46.300; -282.000; -322.000
285.863;  -91.475; -857.000; -507.000
286.002;  -41.325; -366.000; -276.000
286.142;  -83.850; -715.000; -622.000
286.281;  -48.800; -525.000; -493.000
286.420;  -66.025; -554.000; -417.000
286.560;  105.225;  653.000;  623.000
286.699; -105.625; -958.000; -912.000
286.838;  -77.200; -590.000; -591.000
286.978;  -82.075; -533.000; -537.000
287.117; -115.350;-1085.000; -950.000
287.256;  -18.900; -228.000; -211.000
287.395;  -31.250; -197.000; -378.000
287.535;  -43.600; -370.000; -298.000
287.674;  -68.825; -509.000; -484.000
287.813;   68.950;  661.000;  533.000
287.952; -107.425;-1010.000; -871.000
288.091; -124.975;-1049.000; -915.000
288.231;   18.425;   13.000;   15.000
288.370; -139.975;-1217.000;-1200.000
288.509;  -76.325; -728.000; -645.000
288.648;  -63.300; -770.000; -548.000
288.787;  -19.000; -243.000;  -87.000
288.926;  -53.225; -454.000; -475.000
289.065;  110.100;  859.000;  672.000
289.204;  -30.575; -377.000; -217.000
289.344;  -79.925; -791.000; -690.000
289.483;   25.425;  416.000;  304.000
289.622;  -23.525; -291.000; -149.000
289.761;    5.350; -309.000; -166.000
289.900;  -91.625; -785.000; -626.000
290.039;   -2.325;  -12.000;  -95.000
290.178;  -36.675; -274.000; -180.000
290.317;  -65.675; -618.000; -479.000
290.456;  -51.775; -463.000; -451.000
290.595;  -92.075; -961.000; -833.000
290.734; -122.075; -904.000; -891.000
290.873;  -61.625; -456.000; -420.000
291.011;  -89.825; -833.000; -843.000
291.150;  -94.375; -770.000; -682.000
291.289;  -25.475; -343.000; -110.000
291.428;  -73.075; -599.000; -480.000
291.567;  -54.650; -370.000; -442.000
291.706;   10.900;  109.000;  154.000
291.845;  -71.325; -597.000; -505.000
291.984; -143.275;-1234.000;-1061.000
292.122;   88.000;  602.000;  582.000
292.261;   49.100;  620.000;  463.000
292.400;    9.000; -144.000;  211.000
292.539; -102.200; -959.000; -813.000
292.678;  -21.950; -325.000; -300.000
292.816; -136.500;-1136.000; -965.000
292.955;  -73.600; -844.000; -684.000
293.094;  -30.125; -173.000; -337.000
293.233;  -34.875; -556.000; -400.000
293.371;  -17.575; -225.000;  -84.000
293.510;  -81.850; -866.000; -780.000
293.649; -111.825; -959.000; -924.000
293.787;  -95.500;-1083.000;-1012.000
293.926;    0.925; -113.000;  -32.000
294.065;  -32.800; -379.000; -290.000
294.203;   47.825;  298.000;  406.000
294.342;   56.900;   74.000;  156.000
294.481; 4893.375;51180.000; -836.000
294.619;  -15.675; -425.000; -582.000
294.758; -124.550;-1230.000;-1137.000
294.896;   28.450; -125.000;    5.000
295.035; -119.400;-1040.000;-1006.000
295.174; -109.350;-1082.000; -954.000
295.312;  -34.000; -323.000; -203.000
295.451;  -22.425; -307.000; -428.000
295.589;  -49.975; -389.000; -518.000
295.728;   25.700; -292.000; -165.000
295.866;    8.025;  -36.000;  -51.000
296.005;  -38.350; -584.000; -341.000
296.143;  -37.150; -558.000; -596.000
296.282;  -73.275; -957.000; -881.000
296.420;  -63.550; -657.000; -557.000
296.559;  -71.525; -892.000; -633.000
296.697;  -14.425; -847.000; -665.000
296.835;  -44.975;-1141.000;-1002.000
296.974;   68.300;  -23.000;   39.000
297.112;    5.775; -443.000; -504.000
297.251;  -44.900; -815.000; -755.000
297.389;   27.175; -576.000; -438.000
297.527;   45.300; -145.000;  -83.000
297.666;  -40.300; -486.000; -438.000
297.804;  -33.275; -404.000; -264.000
297.942;   14.075; -136.000; -161.000
298.081;    5.200; -183.000;   63.000
298.219;   22.850;  -17.000;  -19.000
298.357;   16.575; -144.000;  -71.000
298.495;  -62.875; -810.000; -812.000
298.634;   45.650;  245.000;  219.000
298.772;  -13.600; -220.000; -338.000
298.910;  -34.825; -309.000; -182.000
299.048;    6.775; -130.000; -153.000
299.187;  -23.775; -350.000; -250.000
299.325;   27.700;   52.000;  122.000
299.463;    4.125; -389.000; -299.000
299.601;    2.825; -327.000; -271.000
299.739; -114.925; -908.000; -883.000
299.877;  -74.175; -791.000; -703.000
300.016;  -96.900;-1095.000; -935.000
300.154;   49.000;  -19.000; -161.000
300.292;  -28.400; -428.000; -348.000
300.430;  -12.875; -408.000; -291.000
300.568; -114.150; -940.000; -874.000
300.706;  -40.850; -366.000; -469.000
300.844; -100.675;-1108.000; -979.000
300.982;   59.675;  246.000;  282.000
301.120; -105.475; -965.000; -866.000
301.258;  -61.675; -812.000; -705.000
301.396;   11.975;  104.000;  -41.000
301.534;    9.025; -218.000; -293.000
301.672;  -65.775; -664.000; -521.000
301.810;  -36.175; -613.000; -545.000
301.948;   50.875;   53.000;  149.000
302.086;  191.575; -250.000;  -32.000
302.224;  207.650; -610.000; -585.000
302.362;  -28.475; -558.000; -622.000
302.500;  -83.475; -923.000; -893.000
302.638;   28.700;  128.000;  245.000
302.776;  -10.150; -352.000; -408.000
302.913;   49.650;  447.000;  236.000
303.051;  -24.050;  -86.000;  -23.000
303.189;   39.525;   90.000;  118.000
303.327;  -32.800; -341.000; -256.000
303.465;  -65.725; -832.000; -588.000
303.603;  -81.725; -805.000; -604.000
303.740;   61.350;  417.000;  241.000
303.878;  -59.225; -800.000; -759.000
304.016;  -97.125; -915.000; -790.000
304.154; -133.900;-1123.000;-1152.000
304.291;  -40.400; -505.000; -554.000
304.429;   27.475;  102.000;   74.000
304.567; -108.500; -908.000; -893.000
304.705;  -55.825; -408.000; -515.000
304.842;  -22.100; -616.000; -540.000
304.980;   35.725;  215.000;   35.000
305.118;   -6.050; -367.000; -365.000
305.255;  -88.200; -945.000; -927.000
305.393;   36.450;  178.000;  239.000
305.531; -103.825;-1173.000; -956.000
305.668;  -62.350; -663.000; -582.000
305.806;    5.600; -358.000; -439.000
305.943;  -12.625; -629.000; -637.000
306.081;   -7.025; -378.000; -267.000
306.219;  -90.575; -863.000; -748.000
306.356;   43.875;  158.000;   27.000
306.494;  171.675;  981.000;  761.000
306.631;   38.575;  -11.000;  -55.000
306.769;   39.550; -613.000; -485.000
306.906;   45.725; -284.000; -258.000
307.044;   -3.850; -473.000; -488.000
307.181;  -17.325; -410.000; -332.000
307.319;   30.925;  112.000;   87.000
307.456; -136.275;-1191.000;-1153.000
307.594;  -77.250; -980.000; -727.000
307.731;   -1.850; -371.000; -164.000
307.868;   32.875;  -15.000;   20.000
308.006;  -83.500; -961.000; -847.000
308.143;  -31.025; -618.000; -330.000
308.281;   90.725;  -37.000; -254.000
308.418;  -27.125; -748.000; -640.000
308.555;  -35.650; -400.000; -250.000
308.693;  -26.750; -577.000; -573.000
308.830;  -40.075; -712.000; -657.000
308.967;   26.550; -215.000;  -95.000
309.105;   40.650; -507.000; -396.000
309.242;   61.075; -468.000; -367.000
309.379;   93.525; -577.000; -655.000
309.517;  -52.100; -936.000; -948.000
309.654;  -35.075; -910.000; -734.000
309.791;  -17.875; -662.000; -580.000
309.928;  -41.675; -977.000; -914.000
310.065;  180.675;  819.000;  697.000
310.203;  -33.500; -825.000; -850.000
310.340;   32.050; -465.000; -321.000
310.477;  -35.250; -412.000; -516.000
310.614;   -4.625; -383.000; -473.000
310.751;   -2.550; -427.000; -518.000
310.889;   32.350;    1.000;   11.000
311.026;  -85.125;-1161.000; -939.000
311.163;   -7.225; -386.000; -380.000
311.300;   -6.825; -512.000; -479.000
311.437;  -29.275; -658.000; -619.000
311.574; -102.400;-1226.000; -985.000
311.711;  -38.475; -595.000; -433.000
311.848;   32.625; -380.000; -388.000
311.985;   74.450;  270.000;   93.000
312.122;  -70.825; -932.000; -762.000
312.259;  -41.750; -941.000; -994.000
312.396;   24.950; -508.000; -551.000
312.533;    0.050; -812.000; -790.000
312.670;  -56.375;-1070.000; -898.000
312.807;   37.200; -352.000; -367.000
312.944;    7.600; -513.000; -611.000
313.081;   41.000; -150.000; -415.000
313.218;  -32.650;-1111.000; -867.000
313.355;   30.625; -531.000; -449.000
313.492;   57.750; -455.000; -292.000
313.629;  172.425;  815.000;  735.000
313.766;  -85.125;-1176.000;-1008.000
313.902;   27.250; -186.000;   21.000
314.039;   -3.125; -372.000; -289.000
314.176;   66.175;  286.000;  192.000
314.313;  -17.050; -569.000; -473.000
314.450;  -29.450; -788.000; -684.000
314.587;   -0.550; -468.000; -480.000
314.723;   77.200;  -78.000;  130.000
314.860;   93.375;  318.000;  332.000
314.997;   67.300;  223.000;  142.000
315.134;   21.325; -385.000; -368.000
315.270;   19.125; -480.000; -496.000
315.407;  -50.925;-1094.000; -967.000
315.544;    2.125; -657.000; -538.000
315.681;  -21.950; -681.000; -565.000
315.817;   79.350; -133.000; -176.000
315.954;  100.225; -613.000; -392.000
316.091;  -90.325;-1045.000;-1023.000
316.227;   15.875;  -71.000; -179.000
316.364;   19.575;   23.000;    6.000
316.500;  -17.625; -113.000; -300.000
316.637;  -13.825; -181.000; -302.000
316.774;  -51.225; -625.000; -358.000
316.910;  -57.700; -598.000; -629.000
317.047;  -26.175; -487.000; -351.000
317.183;  -40.200; -435.000; -566.000
317.320;   41.525; -367.000; -321.000
317.456;   -1.925; -733.000; -805.000
317.593;  -52.900; -598.000; -641.000
317.729;    8.650;  168.000;  -67.000
317.866; -169.450;-1434.000;-1285.000
318.002;  -85.400; -708.000; -948.000
318.139;  -83.100; -883.000; -867.000
318.275;  -88.750;-1003.000; -738.000
318.412;  -29.100; -517.000; -336.000
318.548;  -54.100; -751.000; -720.000
318.685;  -77.750; -985.000; -888.000
318.821;  -74.175; -762.000; -735.000
318.957;  -10.925;   34.000;  -23.000
319.094;   51.575;  297.000;  154.000
319.230;  -60.650; -756.000; -742.000
319.367;   10.050; -471.000; -520.000
319.503;   -5.575; -538.000; -436.000
319.639;  -74.800; -877.000; -793.000
319.775;  -60.425; -750.000; -685.000
319.912;  -48.175; -424.000; -519.000
320.048;  -83.525;-1184.000;-1184.000
320.184;   92.775;   59.000;   70.000
320.321;  -33.700; -497.000; -467.000
320.457;   92.000;  475.000;  662.000
320.593;  -42.425; -375.000; -382.000
320.729;  -82.475; -732.000; -734.000
320.866;  -55.750; -577.000; -635.000
321.002;  -69.650; -759.000; -809.000
321.138;  -28.875; -135.000; -211.000
321.274;   12.700; -148.000; -115.000
321.410;  -46.725; -585.000; -353.000
321.546;  -78.500;-1011.000; -911.000
321.683;   47.975;  400.000;  185.000
321.819;   -8.075;  -48.000; -117.000
321.955;  -78.650; -743.000; -722.000
322.091;  -48.875; -585.000; -540.000
322.227;  -19.600; -382.000; -202.000
322.363;  -15.575; -320.000; -215.000
322.499;  -28.975; -343.000; -331.000
322.635;  106.600;  636.000;  443.000
322.771;    3.150; -139.000;   12.000
322.907;   68.950;  129.000;  327.000
323.043;  -19.450; -115.000; -206.000
323.179;  -29.350; -394.000; -363.000
323.315;  -23.750; -401.000; -371.000
323.451;   29.075; -328.000; -236.000
323.587;   64.175;  -60.000;  -77.000
323.723;  -37.675; -682.000; -601.000
323.859;  -11.625; -258.000;  -76.000
323.995;  -34.575; -467.000; -409.000
324.131; -105.675; -967.000; -892.000
324.267;  -19.100; -254.000; -276.000
324.402; -105.050; -960.000; -983.000
324.538;  -10.975; -279.000; -104.000
324.674;   17.750;  164.000;   77.000
324.810;   51.550;  226.000;  308.000
324.946;  -20.425; -810.000; -658.000
325.082;  -64.600; -568.000; -475.000
325.217;    3.800;  -62.000;   16.000
325.353;  -84.925; -764.000; -659.000
325.489;  -76.975; -540.000; -506.000
325.625;  -66.350; -579.000; -525.000
325.760;   83.900;  517.000;  376.000
325.896;   15.975; -515.000; -702.000
326.032;  -36.075; -403.000; -352.000
326.168;  -45.300; -462.000; -369.000
326.303;  -36.075; -352.000; -461.000
326.439;    9.075; -336.000; -276.000
326.575;   -1.400; -190.000;  -29.000
326.710;    4.725; -156.000;  -30.000
326.846;    1.125;  146.000;  103.000
326.982;  -76.000; -530.000; -548.000
327.117;  -57.475; -481.000; -442.000
327.253;  -62.425; -745.000; -742.000
327.388; -150.100;-1137.000;-1153.000
327.524;  -62.400; -811.000; -578.000
327.659;   -9.625;  -58.000;  -22.000
327.795;    1.550;   69.000;   45.000
327.931;  -57.725; -723.000; -499.000
328.066;  -11.600; -417.000; -276.000
328.202;  -24.475;   12.000; -129.000
328.337;  112.400;  957.000;  713.000
328.473;   61.500;  -12.000;  -74.000
328.608;    0.450; -256.000; -267.000
328.743;  -90.150; -799.000; -664.000
328.879;   29.350;  214.000;  114.000
329.014;  -12.350; -102.000; -122.000
329.150;  -55.500; -358.000; -483.000
329.285;  -59.025; -465.000; -466.000
329.421;  -14.650; -548.000; -246.000
329.556;    4.475;  -36.000;   85.000
329.691;  -59.500; -633.000; -615.000
329.827;  -48.575; -626.000; -480.000
329.962;   -4.850;  131.000; -301.000
330.097;  -35.025; -673.000; -585.000
330.233;  -27.600; -410.000; -223.000
330.368;  -87.675; -839.000; -628.000
330.503;   -6.475;    3.000;   98.000
330.638;    8.875;  -93.000; -125.000
330.774;  -66.900; -609.000; -530.000
330.909;  -33.850; -434.000; -244.000
331.044;  -74.775; -714.000; -708.000
331.179; -138.350;-1217.000;-1109.000
331.315;   23.475;   77.000;   20.000
331.450;   42.925;  157.000;  285.000
331.585;  -87.625; -805.000; -706.000
331.720;  -69.125; -510.000; -460.000
331.855;   21.400;  -35.000; -102.000
331.990;  390.375;   62.000;  138.000
332.126;  205.750; -110.000;   71.000
332.261;   16.600; -379.000; -265.000
332.396;   22.750; -135.000; -242.000
332.531;  -36.050;-1074.000;-1031.000
332.666;   91.775; -519.000; -363.000
332.801;  -76.400; -726.000; -807.000
332.936;   -4.925; -192.000; -122.000
333.071; -102.100; -870.000; -817.000
333.206;   24.125;  307.000;  379.000
333.341;   48.250;  344.000;  418.000
333.476;  -60.650; -627.000; -623.000
333.611;  -25.950; -251.000; -173.000
333.746;  -20.125; -381.000; -464.000
333.881;  -91.900; -973.000; -935.000
334.016;  -96.950; -936.000; -917.000
334.151;  -94.375; -746.000; -702.000
334.286;   29.075;  152.000;  186.000
334.421;    2.125; -125.000; -178.000
334.556;  -49.975; -611.000; -567.000
334.690;  -50.675; -631.000; -577.000
334.825;   60.625;  381.000;   83.000
334.960;  -24.225; -285.000; -413.000
335.095;   33.575;  135.000;  -91.000
335.230;  -50.075; -722.000; -738.000
335.365;  -95.875;-1084.000; -990.000
335.499;  -96.175;-1108.000;-1037.000
335.634;   40.225;    9.000;  534.000
335.769;  -62.075; -755.000; -720.000
335.904;  -31.575; -603.000; -561.000
336.038;   -6.800; -735.000; -657.000
336.173;  -75.475;-1206.000;-1194.000
336.308;   48.700; -116.000; -189.000
336.443;   72.550; -544.000; -634.000
336.577;  -22.100; -936.000; -787.000
336.712;  102.525;   -4.000;  -12.000
336.847;   20.975; -724.000; -607.000
336.981;   87.550; -272.000; -208.000
337.116;  325.625;  615.000;  501.000
337.250;  153.775; -434.000; -421.000
337.385;  395.850; -297.000; -208.000
337.520;  187.150; -632.000; -603.000
337.654;  -17.175; -215.000; -126.000
337.789; -104.950; -989.000; -933.000
337.923;   -7.475; -104.000; -205.000
338.058;  -92.850; -673.000; -738.000
338.192;  -45.575; -611.000; -488.000
338.327;    0.750;  -18.000; -155.000
338.461;  -63.275; -299.000; -469.000
338.596;  -64.650; -780.000; -638.000
338.730;  -81.425; -767.000; -803.000
338.865;  151.950;  -46.000; -140.000
338.999;    6.450; -846.000; -702.000
339.134;    7.250; -634.000; -536.000
339.268;   32.500; -741.000; -603.000
339.403;  511.350; -740.000; -775.000
339.537;  219.350; -894.000; -820.000
339.671;  -78.775; -829.000; -813.000
339.806;  -17.850; -556.000; -512.000
339.940;   36.100; -261.000; -235.000
340.074;  -77.325; -685.000; -510.000
340.209;  -28.000; -351.000; -230.000
340.343;  -68.925; -517.000; -573.000
340.477;  147.475;  998.000; 1036.000
340.612;   15.875;-1033.000; -900.000
340.746;  186.850; -199.000; -243.000
340.880;  -82.750; -924.000; -785.000
341.014;   -7.475;  -45.000; -154.000
341.149;  -96.450; -756.000; -718.000
341.283;  -98.975; -839.000; -754.000
341.417; -104.450;-1124.000; -938.000
341.551;  -20.725; -768.000; -708.000
341.685;  -52.550; -633.000; -611.000
341.820;  -44.825; -562.000; -493.000
341.954;  -41.875; -218.000; -349.000
342.088; -134.825;-1102.000;-1019.000
342.222;   54.575;  565.000;  618.000
342.356;  -55.850; -395.000; -335.000
342.490; -104.375; -880.000; -841.000
342.624;  -38.625; -339.000; -242.000
342.758;  -38.725; -364.000; -312.000
342.892;  -71.650; -710.000; -585.000
343.026;  -31.775;  -58.000; -116.000
343.160;  -49.950; -426.000; -376.000
343.294;  -72.300; -474.000; -337.000
343.428;  -61.650; -488.000; -448.000
343.562;  -19.850; -172.000;  -23.000
343.696;  -33.025; -385.000; -314.000
343.830;  -33.400; -362.000; -356.000
343.964;  -14.300; -231.000; -168.000
344.098;  291.825;  199.000;   70.000
344.232;  245.875; -266.000; -127.000
344.366;   70.250; -567.000; -453.000
344.500;  -30.075; -665.000; -744.000
344.634;  -24.700; -324.000; -164.000
344.768;  -55.725; -531.000; -341.000
344.902;   28.475;  278.000;  256.000
345.035;  -57.925; -556.000; -496.000
345.169; -117.625; -933.000; -656.000
345.303;  -40.225; -308.000; -482.000
345.437;  -84.975; -826.000; -717.000
345.571;  -41.500; -675.000; -594.000
345.704;  -48.200; -309.000; -532.000
345.838;  -24.325; -331.000; -284.000
345.972;  -50.925; -543.000; -495.000
346.106;  246.325; -179.000; -190.000
346.239;  434.525; -312.000; -243.000
346.373;   -9.175; -343.000; -302.000
346.507; -105.375; -950.000; -962.000
346.640;   45.775;  -30.000;   13.000
346.774;  -59.425; -650.000; -797.000
346.908;  -20.950; -138.000;  -11.000
347.041;  -70.275; -646.000; -593.000
347.175;    5.675;  259.000;   27.000
347.309;  -81.075; -698.000; -628.000
347.442;  -88.450; -883.000; -732.000
347.576;  160.500;  670.000;  668.000
347.709;   72.925; -123.000;  -52.000
347.843;  -79.125; -933.000; -825.000
347.976;   53.475;  235.000;  294.000
348.110; -144.475;-1268.000;-1186.000
348.243;  -70.950; -679.000; -772.000
348.377;   31.175;  -26.000;   60.000
348.510;   62.425;  403.000;  540.000
348.644;  -12.650;  -37.000; -159.000
348.777;   17.500;  180.000;  191.000
348.911;  -26.050; -142.000; -112.000
349.044;  104.375;  471.000;  448.000
349.178;   -8.625;-1069.000;-1006.000
349.311;  106.850;  141.000;  255.000
349.444;   45.125; -927.000; -813.000
349.578;    5.850; -347.000; -200.000
349.711; -105.875; -959.000; -862.000
349.845;  -45.175; -661.000; -591.000
349.978; -141.275;-1224.000;-1137.000
350.111;  -59.750; -546.000; -612.000
350.244;  -83.250; -596.000; -700.000
350.378;  -25.675; -392.000; -393.000
350.511;  -48.050; -393.000; -426.000
350.644;  -80.250; -808.000; -806.000
350.778;   33.450;  168.000;  104.000
350.911;   13.225;  134.000;  140.000
351.044;  -95.625; -685.000; -615.000
351.177;  -28.475; -321.000; -281.000
351.310;  -14.275;    3.000; -131.000
351.444;  -83.500; -888.000; -788.000
351.577;   48.175;  140.000;   90.000
351.710;   87.575;  593.000;  417.000
351.843;  -10.550; -165.000;  -77.000
351.976;   25.075;  149.000;  -79.000
352.109;  -70.900; -621.000; -612.000
352.242;  -36.100; -464.000; -419.000
352.376;  -59.775; -580.000; -636.000
352.509;   28.925; -437.000; -356.000
352.642;  -65.850; -654.000; -604.000
352.775;   16.650; -141.000;  -98.000
352.908; -102.750; -933.000; -904.000
353.041;  -93.375; -814.000; -824.000
353.174;  -46.550; -551.000; -424.000
353.307;  -67.400; -753.000; -764.000
353.440;   84.975;  541.000;  453.000
353.573;  -85.000; -957.000;-1008.000
353.706;  -18.150; -384.000; -558.000
353.839;  -11.125; -264.000; -220.000
353.971;  -76.500; -657.000; -512.000
354.104;  -79.725; -896.000; -835.000
354.237;  -67.075; -627.000; -662.000
354.370;  -92.075; -846.000; -879.000
354.503; -133.075;-1231.000;-1308.000
354.636;    5.900; -529.000; -348.000
354.769;  -84.175; -937.000; -860.000
354.902;  -11.100; -230.000; -139.000
355.034;    4.350; -164.000; -220.000
355.167;    9.400; -262.000; -162.000
355.300;  -49.025;-1061.000; -880.000
355.433; 1401.225;  -71.000;  -14.000
355.565; 2223.275; -402.000; -384.000
355.698;  570.125; -356.000; -296.000
355.831;   13.350; -882.000; -801.000
355.964;   58.425; -285.000; -170.000
356.096;  -37.775; -856.000; -843.000
356.229;   25.700; -523.000; -530.000
356.362;  489.025; -373.000; -266.000
356.494;  847.750; -229.000; -162.000
356.627;  351.575;  269.000;  377.000
356.760;  862.750;  120.000;   53.000
356.892; 1431.725; -286.000; -601.000
357.025;  370.825;  403.000;  389.000
357.157;  274.325; -167.000; -179.000
357.290;  964.225; -856.000; -713.000
357.423;  331.275; -667.000; -556.000
357.555;  115.675; -217.000; -228.000
357.688;  159.325; -483.000; -364.000
357.820;  165.775; -870.000; -877.000
357.953; 1290.025; -563.000; -589.000
358.085;  221.775; -632.000; -612.000
358.218;  201.450;-1131.000; -932.000
358.350;   71.475;  -58.000;  312.000
358.483; -122.950;-1300.000;-1187.000
358.615; -101.800;-1182.000;-1078.000
358.747; -121.850;-1187.000;-1058.000
358.880;  -17.650; -810.000; -744.000
359.012;   -6.425; -376.000; -202.000
359.145;  -42.150; -480.000; -511.000
359.277;  -55.475; -962.000; -913.000
359.409; 1133.175;  536.000;  231.000
359.542;  236.750; -738.000; -688.000
359.674;   29.625;   46.000;   13.000
359.806;  -53.950; -565.000; -438.000
359.939;  -30.200; -617.000; -516.000
360.071;   36.350; -583.000; -579.000
360.203;  -16.200; -411.000; -364.000
360.335;   45.575;  164.000;  -16.000
360.468;  101.600; -249.000; -307.000
360.600; 1141.875; -547.000; -454.000
360.732; 3634.400; -546.000; -423.000
360.864;  584.325;-1216.000;-1044.000
360.996;   96.600; -516.000; -554.000
361.129;  -16.800; -389.000; -598.000
361.261;    9.350;  110.000; -113.000
361.393;  -16.900; -252.000; -214.000
361.525;   17.950;   94.000;  244.000
361.657;  -85.350; -821.000; -703.000
361.789;  -17.650; -139.000; -155.000
361.921;  -12.700; -642.000; -593.000
362.053;  104.600;  524.000;  541.000
362.185;   21.250;  288.000;   72.000
362.318;  -89.550; -709.000; -705.000
362.450;   62.025;  294.000;  444.000
362.582;  -34.150; -913.000; -870.000
362.714;  -37.400; -353.000; -332.000
362.846;  -59.300; -606.000; -490.000
362.978; -123.900; -941.000; -811.000
363.109;   -9.500; -161.000; -260.000
363.241;  186.450; -739.000; -749.000
363.373;  635.000; -649.000; -564.000
363.505;  955.400; -186.000;  -91.000
363.637;  222.725; -787.000; -601.000
363.769; -124.200;-1067.000;-1080.000
363.901;  -56.325; -596.000; -654.000
364.033; -130.175;-1103.000;-1062.000
364.165;  -18.675; -283.000; -283.000
364.296;  102.225; -316.000; -177.000
364.428;  197.550;-1344.000;-1220.000
364.560;  -52.175; -679.000; -661.000
364.692;  -56.600; -738.000; -835.000
364.824;   20.975; -588.000; -456.000
364.955;  425.000; -402.000; -564.000
365.087; 1403.425;-1097.000; -852.000
365.219;   74.450; -686.000; -816.000
365.351;  -52.100; -526.000; -572.000
365.482;   28.800;  300.000;  240.000
365.614;  -43.275; -402.000; -314.000
365.746;  -87.625; -729.000; -752.000
365.877;  -75.075; -706.000; -672.000
366.009;  402.950;  -35.000;  -62.000
366.141;  -16.675;-1249.000;-1134.000
366.272;  -86.200; -803.000; -719.000
366.404;  -88.325;-1005.000; -874.000
366.535;    9.925; -139.000;  -12.000
366.667;  -84.275; -644.000; -649.000
366.799;   53.325;  353.000;  203.000
366.930;  -89.725; -862.000; -996.000
367.062;  185.525; -639.000; -613.000
367.193;  311.175; -872.000; -842.000
367.325;  -26.925; -580.000; -684.000
367.456;   27.575; -246.000;   31.000
367.588;  249.775; -371.000; -318.000
367.719;   52.550;  -44.000;  -45.000
367.851;  -33.225; -222.000; -241.000
367.982;  -84.000; -875.000; -732.000
368.113;   -7.225; -475.000; -358.000
368.245; -115.325; -960.000; -841.000
368.376;  -21.475; -254.000; -302.000
368.508;  -28.100; -188.000; -263.000
368.639; -133.025;-1166.000;-1034.000
368.770;  -67.600; -670.000; -589.000
368.902;  -96.825; -836.000; -926.000
369.033; -103.475; -906.000; -855.000
369.164;    4.925; -720.000; -653.000
369.296;  -72.600; -452.000; -601.000
369.427;   -6.550; -209.000; -144.000
369.558;  -45.700; -593.000; -377.000
369.689;  -55.450; -721.000; -569.000
369.821; -102.275; -951.000; -845.000
369.952;    7.450;   42.000; -108.000
370.083;  -32.925; -229.000; -108.000
370.214;  -75.050; -735.000; -650.000
370.345;    7.125;   65.000;   81.000
370.477;  -92.850; -810.000; -790.000
370.608;   55.800; -328.000; -264.000
370.739; -111.600;-1233.000;-1292.000
370.870;  -86.350;-1102.000; -923.000
371.001;    7.575; -378.000; -467.000
371.132;  -75.975; -754.000; -735.000
371.263;   -2.025;  -42.000; -148.000
371.394; -117.300; -841.000; -748.000
371.525;   24.600;  345.000;  225.000
371.657;  -98.950; -808.000; -670.000
371.788;   37.675;  103.000;  199.000
371.919;   32.075; -384.000; -304.000
372.050; 1146.525;  -91.000; -156.000
372.181;  364.800; -188.000; -294.000
372.311;  122.925;   42.000; -127.000
372.442;  -24.350; -457.000; -451.000
372.573;  -33.200; -444.000; -340.000
372.704; -112.450;-1008.000; -980.000
372.835;  -15.950; -228.000; -289.000
372.966;  -49.400; -646.000; -554.000
373.097;  -83.425; -575.000; -711.000
373.228;  -67.800; -717.000; -542.000
373.359;  -26.875; -824.000; -536.000
373.490;  188.825; -881.000; -727.000
373.620;  265.825;-1001.000; -803.000
373.751;  538.675; -332.000; -396.000
373.882;  233.875; -663.000; -733.000
374.013;   22.250; -449.000; -262.000
374.143;  -52.575; -581.000; -659.000
374.274; -109.150; -987.000; -908.000
374.405;   87.225; -388.000; -276.000
374.536;  130.750; -526.000; -387.000
374.666;  305.775; -759.000; -807.000
374.797;   25.700; -817.000; -868.000
374.928;  211.775; -710.000; -560.000
375.058;  218.750; -535.000; -500.000
375.189;   23.850;  -59.000;  -93.000
375.320; -104.850; -928.000;-1034.000
375.450;  -27.300; -625.000; -616.000
375.581;  -13.950; -526.000; -436.000
375.712;  -32.650; -574.000; -250.000
375.842;   42.275; -438.000; -415.000
375.973;   15.075; -554.000; -513.000
376.103;  -60.425; -665.000; -648.000
376.234;  -75.725; -531.000; -552.000
376.364;  -96.075; -944.000; -867.000
376.495;  169.425;  925.000;  529.000
376.625;  -15.425; -472.000; -485.000
376.756;  -24.650; -709.000; -678.000
376.886; -116.050;-1178.000;-1026.000
377.017;  151.450;-1048.000;-1061.000
377.147;  610.700; -786.000; -782.000
377.278;  103.275;  174.000;  228.000
377.408;  -95.300; -801.000; -815.000
377.538;  -77.775; -707.000; -693.000
377.669;  -52.650; -537.000; -613.000
377.799;  -84.075; -645.000; -635.000
377.929;  -42.550; -610.000; -428.000
378.060;  -91.850; -781.000; -847.000
378.190;  -14.000; -726.000; -531.000
378.320;  -21.300; -401.000; -406.000
378.451;   15.475; -131.000;  -22.000
378.581;   -2.050;  -67.000; -110.000
378.711;  126.100; 1035.000;  866.000
378.841;  -48.075; -533.000; -675.000
378.972;  -75.850; -871.000; -751.000
379.102;  -27.700; -652.000; -579.000
379.232;  -23.175; -126.000;  -73.000
379.362;  -94.250;-1001.000; -885.000
379.492;  -21.875; -373.000; -424.000
379.623;   50.825;    0.000;  111.000
379.753;  -93.500;-1107.000; -974.000
379.883;   92.375;   59.000;  156.000
380.013;  -62.675;-1081.000;-1017.000
380.143;  -93.675;-1097.000;-1056.000
380.273;  -97.125; -985.000; -861.000
380.403;   45.425; -344.000; -257.000
380.533;  -16.650; -651.000; -664.000
380.663;   43.675;  173.000;  128.000
380.793; -117.200;-1027.000;-1074.000
380.923;  -24.850; -103.000;  -34.000
381.053;  -63.250; -613.000; -623.000
381.183;  -16.150; -106.000; -248.000
381.313;  -43.650; -656.000; -470.000
381.443;  -19.650; -692.000; -473.000
381.573;   12.425; -402.000; -409.000
381.703;  -37.300;-1249.000;-1095.000
381.833; -129.475;-1454.000;-1336.000
381.963;   46.550; -134.000;  -87.000
382.093;  347.175; -925.000; -909.000
382.223;  102.550; -713.000; -602.000
382.353;  -51.100; -801.000; -608.000
382.482;   23.900;-1091.000; -964.000
382.612;  182.775; -872.000; -644.000
382.742;   84.050; -695.000; -622.000
382.872;   23.975; -565.000; -551.000
383.002;   35.675;  347.000; -132.000
383.131;   -6.525; -226.000; -160.000
383.261;  -27.250; -706.000; -768.000
383.391;  294.250; -552.000; -377.000
383.521; 4343.000;  451.000;  263.000
383.650; 1338.000; -947.000; -904.000
383.780;   42.900; -783.000; -656.000
383.910;  110.600;  880.000;  802.000
384.039;  -60.000; -794.000; -656.000
384.169;  -44.625;-1205.000;-1017.000
384.299;  -61.450; -650.000; -662.000
384.428;  -80.300; -764.000; -680.000
384.558;  -28.250; -308.000; -275.000
384.687;  -35.900; -414.000; -334.000
384.817;   18.325;   75.000;   -2.000
384.947;   16.600; -234.000; -141.000
385.076;  214.575;  982.000;  912.000
385.206;  113.175;  369.000;  480.000
385.335;  -39.025; -549.000; -417.000
385.465;  -74.700; -655.000; -663.000
385.594;   52.450;  -53.000;  -44.000
385.724;   84.850; -868.000; -838.000
385.853;   18.550; -296.000; -270.000
385.982;  347.100; -743.000; -787.000
386.112;  619.425;-1052.000; -871.000
386.241;   42.400; -307.000; -312.000
386.371;    3.825; -174.000;  -87.000
386.500;  -50.325; -825.000; -789.000
386.629;   11.100; -874.000; -817.000
386.759;   94.125;  -43.000;   68.000
386.888;   17.250; -170.000; -250.000
387.017;  -45.650; -648.000; -620.000
387.147;  -62.550; -771.000; -798.000
387.276;  -19.675; -410.000; -397.000
387.405;  -15.575; -398.000; -342.000
387.535;  -34.625; -452.000; -361.000
387.664;  -52.225; -692.000; -620.000
387.793;   11.625; -198.000; -113.000
387.922;  184.825;  255.000;  200.000
388.052;  -20.175; -576.000; -423.000
388.181;   -8.775; -342.000; -472.000
388.310;  -38.600; -889.000; -710.000
388.439;  -57.375; -749.000; -742.000
388.568;   66.950;  365.000;  244.000
388.697;  279.050; -756.000; -653.000
388.826;   20.575; -768.000; -666.000
388.956;   -0.825; -285.000; -307.000
389.085;  -29.275; -347.000; -287.000
389.214;  -75.675; -842.000; -872.000
389.343;  -31.475; -645.000; -413.000
389.472;  537.600;  126.000;  149.000
389.601;  615.125;   91.000;    0.000
389.730;   17.575; -568.000; -687.000
389.859;   57.625;  226.000;   46.000
389.988;   54.875; -423.000; -408.000
390.117;   70.100; -168.000; -146.000
390.246;  -26.275; -331.000; -320.000
390.375;  -27.800; -673.000; -626.000
390.504;  -64.000; -703.000; -621.000
390.633;  -94.875; -672.000; -726.000
390.761;  -61.650; -732.000; -645.000
390.890;    4.175;   -4.000; -130.000
391.019;  -33.300; -421.000; -441.000
391.148;  -83.650; -826.000; -855.000
391.277;  -66.150; -576.000; -493.000
391.406;  -78.100; -821.000; -805.000
391.534;   41.250;  574.000; -301.000
391.663;  -58.575; -583.000; -645.000
391.792;  -82.675; -673.000; -701.000
391.921;   34.950;   -3.000;   15.000
392.050;   20.950; -287.000; -228.000
392.178;  -85.475;-1206.000;-1061.000
392.307;  -14.025; -758.000; -712.000
392.436;  -14.125; -427.000; -641.000
392.564;   29.700;  166.000;   -6.000
392.693;  -69.200; -860.000; -682.000
392.822;   35.150; -529.000; -534.000
392.950;   -2.200; -880.000; -714.000
393.079;   73.150; -188.000; -328.000
393.208;  -32.800; -488.000; -511.000
393.336;    6.000; -170.000; -145.000
393.465;  -25.425; -317.000; -199.000
393.593;   19.450;   62.000;   79.000
393.722;  -98.150;-1121.000; -916.000
393.850;   -2.425; -188.000;  -61.000
393.979; -111.675; -926.000; -805.000
394.107;  -34.775; -517.000; -537.000
394.236;  -11.875; -570.000; -507.000
394.364;  121.950;  383.000;  206.000
394.493;   96.700; -911.000; -767.000
394.621;   31.025; -955.000; -916.000
394.750; 1136.125; -873.000; -923.000
394.878; 4370.075; -247.000; -149.000
395.007; 6466.825; -721.000; -807.000
395.135;  618.925; -790.000; -721.000
395.263;  -22.450;-1038.000;-1040.000
395.392;   35.375;  -25.000; -107.000
395.520; -105.800; -818.000; -679.000
395.648; -106.375; -865.000; -915.000
395.777;  -48.925; -366.000; -405.000
395.905;  -64.600; -449.000; -564.000
396.033;   14.975;  217.000;  172.000
396.162;  105.650; -399.000; -453.000
396.290;  116.450;  -17.000;   -2.000
396.418;  -33.650; -555.000; -514.000
396.546;  -74.325; -571.000; -466.000
396.674; -105.300; -850.000; -878.000
396.803;    7.800;  -72.000;  -23.000
396.931;  -16.825; -179.000; -199.000
397.059;  -80.175;-1026.000; -989.000
397.187; -120.675;-1026.000; -975.000
397.315; -105.250; -884.000; -649.000
397.443;  -70.050; -592.000; -443.000
397.572;  -66.900; -578.000; -424.000
397.700;  -57.775; -607.000; -614.000
397.828;  -15.275;  120.000;  -90.000
397.956;  -30.500; -508.000; -478.000
398.084;  -23.950; -767.000; -626.000
398.212;   14.200;  137.000;  124.000
398.340;    1.250;  -56.000;  159.000
398.468;  -30.975; -390.000; -169.000
398.596; -141.575; -993.000; -953.000
398.724; -114.050; -762.000; -767.000
398.852; -130.925;-1024.000; -976.000
398.980;  -68.275; -560.000; -560.000
399.108;  -80.625; -982.000; -735.000
399.236;   -4.175;   13.000;    8.000
399.363;   10.650;  222.000;  196.000
399.491;  -36.900; -404.000; -398.000
399.619;  -69.025; -829.000; -800.000
399.747;  -94.350; -859.000; -771.000
399.875;   43.900;  220.000;  234.000
400.003;  -61.925; -359.000; -284.000
400.130;  -82.650; -421.000; -341.000
400.258;   -9.975;  -83.000;   38.000
400.386;  -41.650; -352.000; -168.000
400.514;  -75.825; -526.000; -587.000
400.641; -125.200; -928.000; -802.000
400.769; -138.750; -979.000; -888.000
400.897; -102.400; -838.000; -793.000
401.025;  -18.675; -166.000; -152.000
401.152;    6.675;  220.000;   38.000
401.280;  -71.225; -430.000; -429.000
401.408;  -74.900; -712.000; -576.000
401.535;  -80.700; -735.000; -758.000
401.663; -169.075;-1134.000;-1054.000
401.790;  -67.600; -514.000; -525.000
401.918;   46.650;  436.000;  405.000
402.046;    5.700;  134.000;  122.000
402.173;  -18.200;  -18.000;    7.000
402.301;  -52.975; -519.000; -397.000
402.428;   39.725;  528.000;  383.000
402.556; -121.250;-1188.000; -913.000
402.683;  -14.425;  -20.000;   -1.000
402.811;   -5.900;  -37.000; -206.000
402.938;   10.475;   20.000;   27.000
403.066;   24.425; -574.000; -558.000
403.193;  128.950;  299.000;  239.000
403.321;   82.425; -396.000; -574.000
403.448;  146.950;   83.000;   27.000
403.575;   69.250;  -90.000;  -46.000
403.703;  -62.400; -732.000; -557.000
403.830;  -37.275; -531.000; -496.000
403.957;  -78.750;-1117.000;-1023.000
404.085;   57.375;  -61.000; -172.000
404.212;  142.200;  -50.000;   63.000
404.339;  477.975; -566.000; -306.000
404.467; 8669.575; -612.000; -524.000
404.594; 5474.500; -287.000; -227.000
404.721; 1007.975; -869.000; -764.000
404.848;  143.225; -113.000; -202.000
404.976;  -61.475; -856.000; -783.000
405.103;   26.325;  -14.000;  -82.000
405.230;   26.850;  190.000;  226.000
405.357;   96.500;  117.000;   44.000
405.484;  426.475;  -49.000;    5.000
405.612;  133.325; -548.000; -563.000
405.739;  -24.350; -488.000; -243.000
405.866;   86.450;  669.000;  385.000
405.993;  -30.175; -398.000; -102.000
406.120; -105.650; -801.000; -887.000
406.247;  -35.800; -323.000; -342.000
406.374;  142.550;  540.000;  629.000
406.501;  -49.650; -632.000; -702.000
406.628;  -71.425; -621.000; -589.000
406.755;  -89.275; -803.000; -620.000
406.882;  -38.075; -228.000; -277.000
407.009;  -82.100; -719.000; -628.000
407.136;  -13.325; -480.000; -401.000
407.263;   22.075; -939.000; -829.000
407.390;  -62.150; -692.000; -614.000
407.517; -139.825;-1139.000;-1187.000
407.644;  -59.350; -332.000; -256.000
407.771;  -51.500; -249.000; -287.000
407.898;    6.400;  168.000;  328.000
408.025;  -40.150; -421.000; -313.000
408.151;   24.925;   82.000;  153.000
408.278;  -46.425; -267.000; -216.000
408.405; -100.025; -931.000; -899.000
408.532;  -78.925; -549.000; -542.000
408.659; -102.575; -677.000; -648.000
408.785; -169.075;-1298.000;-1170.000
408.912;  -43.050; -412.000; -296.000
409.039;  -92.425; -610.000; -686.000
409.166;  -75.025; -591.000; -555.000
409.292; -102.725; -571.000; -534.000
409.419;  -95.725; -665.000; -649.000
409.546;  -63.400; -431.000; -192.000
409.672;  -84.875; -713.000; -545.000
409.799;  -23.900;  -36.000;   34.000
409.926;  -38.500; -180.000; -179.000
410.052; -161.725;-1127.000;-1091.000
410.179;  -46.800; -368.000; -392.000
410.305;  -58.875; -375.000; -493.000
410.432;   -5.325; -220.000; -333.000
410.558;  -71.575; -305.000; -380.000
410.685;  -88.775; -688.000; -431.000
410.812;  -82.925; -409.000; -588.000
410.938; -115.225; -964.000; -808.000
411.065;  -93.450; -671.000; -645.000
411.191;  -28.125; -189.000; -174.000
411.317; -112.175; -823.000; -742.000
411.444;  -58.800; -317.000; -246.000
411.570;  -60.025; -339.000; -294.000
411.697; -107.175; -758.000; -752.000
411.823; -153.225; -989.000; -999.000
411.949;  -32.900;  -56.000;   17.000
412.076; -103.300; -539.000; -519.000
412.202; -102.650; -758.000; -757.000
412.329; -117.400; -798.000; -752.000
412.455;  -99.800; -821.000; -657.000
412.581;  -16.400;  -15.000;  172.000
412.707;  -81.950; -540.000; -457.000
412.834;   21.825;  156.000;  219.000
412.960;  -88.000; -785.000; -784.000
413.086;  -95.050; -743.000; -701.000
413.212;  169.400;  604.000;  578.000
413.339;  -60.850; -685.000; -701.000
413.465;  -30.550; -364.000; -310.000
413.591;  -91.975; -757.000; -474.000
413.717;  -50.650; -358.000; -366.000
413.843; -113.450; -839.000; -861.000
413.969;  -34.800;  -47.000; -292.000
414.096;  -85.725; -679.000; -679.000
414.222;   12.800;  -33.000;   85.000
414.348;  -60.475; -652.000; -385.000
414.474;   14.400;   38.000;  -52.000
414.600;   -7.000; -126.000; -144.000
414.726;   12.275;  -96.000;  -55.000
414.852;  -22.050; -365.000; -342.000
414.978;   46.375;  104.000;  -18.000
415.104;   75.275;   38.000;   80.000
415.230;   61.500; -329.000; -330.000
415.356;   93.925; -409.000; -514.000
415.482;  251.900;   13.000;  -35.000
415.608;  455.050; -247.000; -323.000
415.734; 1380.200;   67.000;   38.000
415.860;28277.925; -875.000; -767.000
415.986;23848.425; -685.000; -607.000
416.111; 2292.125; -798.000; -652.000
416.237;  510.700; -424.000; -571.000
416.363; 1635.000; -765.000; -733.000
416.489; 6559.100; -324.000; -251.000
416.615;  945.225; -707.000; -742.000
416.741;   77.775; -677.000; -784.000
416.866;  -32.700; -673.000; -736.000
416.992;  -80.000; -801.000; -818.000
417.118;    7.100;  -41.000;  -80.000
417.244;  -41.275; -798.000; -531.000
417.369;  -50.325; -801.000; -612.000
417.495;   28.450; -325.000; -254.000
417.621;  -59.475;-1015.000; -803.000
417.746;   33.625; -579.000; -572.000
417.872;  104.675; -254.000; -144.000
417.998;  141.100; -515.000; -530.000
418.123; 1485.175;-1073.000; -845.000
418.249; 8556.625; -512.000; -601.000
418.374; 1538.075; -916.000; -824.000
418.500;  270.125; -383.000; -482.000
418.626;  204.800;   70.000;  -59.000
418.751;  181.875; -549.000; -448.000
418.877;  340.750; -637.000; -643.000
419.002; 2480.825; -688.000; -560.000
419.128;18973.400; -930.000; -721.000
419.253; 5557.725; -967.000; -837.000
419.379;  780.950; -391.000; -338.000
419.504;  609.875;  325.000;  415.000
419.629;  805.475; -393.000; -212.000
419.755; 4960.275; -317.000; -254.000
419.880;32794.200;  -98.000;   67.000
420.006;17082.825; -280.000; -221.000
420.131;43293.550; -662.000; -775.000
420.256; 7281.550; -315.000; -316.000
420.382; 1027.425; -665.000; -687.000
420.507;  204.200; -649.000; -778.000
420.632;   92.000; -337.000; -339.000
420.758;   93.975; -251.000; -425.000
420.883;  -66.575; -876.000; -672.000
421.008;  -75.600; -775.000; -619.000
421.133;  -51.550; -509.000; -467.000
421.259;  -36.550; -325.000; -259.000
421.384; -103.000; -834.000; -693.000
421.509;  -87.300;-1052.000; -862.000
421.634;  258.650; -936.000; -820.000
421.759;  142.925; -359.000; -327.000
421.885;  -72.450; -717.000; -656.000
422.010;  -72.625; -673.000; -542.000
422.135; -121.950; -695.000; -727.000
422.260;   30.875;  340.000;  280.000
422.385;  -21.275;   12.000;  -98.000
422.510;   20.125;  151.000;  -26.000
422.635;    9.200;  -87.000;  -43.000
422.760;  -12.200; -766.000; -791.000
422.885;   45.350;  -57.000;  -80.000
423.010;   -1.100; -112.000; -169.000
423.135;  -69.675; -481.000; -561.000
423.260;  -22.350; -150.000; -245.000
423.385;   33.975;  476.000;  222.000
423.510;   36.600;   71.000;  -22.000
423.635;   29.950;  133.000;   45.000
423.760;   69.650;  383.000;  328.000
423.885;   48.350;  336.000;  391.000
424.010;    5.375;  -68.000;  -13.000
424.135;   -3.025;    5.000;  -33.000
424.259;  -60.050; -654.000; -457.000
424.384;  -38.475; -279.000; -272.000
424.509;  -11.225; -260.000; -186.000
424.634;  -60.425; -761.000; -623.000
424.759;  -25.425; -688.000; -544.000
424.883;   22.800; -506.000; -527.000
425.008;  206.625; -502.000; -410.000
425.133; 2809.125; -679.000; -653.000
425.258; 1556.325; -517.000; -381.000
425.382;  461.700; -867.000; -774.000
425.507; 1071.825; -487.000; -543.000
425.632;  356.400; -802.000; -663.000
425.756;  641.900; -256.000; -146.000
425.881; 8866.400; -831.000; -857.000
426.006;27996.300; -604.000; -355.000
426.130; 4846.450; -696.000; -508.000
426.255;  662.275; -611.000; -491.000
426.379;  303.925; -189.000; -577.000
426.504;  544.725;  660.000;  544.000
426.629; 5901.325; -519.000; -466.000
426.753; 4800.025;   64.000;  -46.000
426.878;  631.900; -252.000; -288.000
427.002;  338.600; -651.000; -668.000
427.127; 2001.475;  -35.000; -158.000
427.251;16636.000;  372.000;  401.000
427.375; 5621.600; -191.000; -173.000
427.500; 1272.150; -616.000; -610.000
427.624;  408.700; -234.000; -400.000
427.749;  159.100; -216.000; -225.000
427.873;   58.825; -499.000; -412.000
427.997;   -8.925; -222.000; -230.000
428.122;   74.950;  795.000;  703.000
428.246;   62.550;  433.000;  434.000
428.371; -112.100; -869.000; -773.000
428.495;  -95.000; -624.000; -646.000
428.619;    1.600; -186.000; -117.000
428.743;   28.950;   65.000;  132.000
428.868;  -49.325; -732.000; -643.000
428.992;  456.625; -219.000; -326.000
429.116;  204.900; -329.000; -357.000
429.240;  157.525;  419.000;  426.000
429.365;  -20.475; -454.000; -574.000
429.489;  -28.800; -638.000; -647.000
429.613;   53.950; -236.000; -177.000
429.737;  114.975; -563.000; -432.000
429.861;  403.875; -247.000; -133.000
429.985; 7746.300; -425.000; -305.000
430.109;10187.275; -770.000; -908.000
430.234; 1284.575;   76.000;  -50.000
430.358;  199.375; -250.000; -160.000
430.482;   22.150; -672.000; -564.000
430.606;  -27.400; -655.000; -375.000
430.730;   -8.275; -437.000; -388.000
430.854;  -25.475; -909.000; -835.000
430.978;  -13.125; -795.000; -764.000
431.102;  -38.950; -499.000; -422.000
431.226;  -57.450; -874.000; -815.000
431.350;   76.975;  345.000;  422.000
431.474;  -42.500; -661.000; -373.000
431.597; -137.600;-1060.000; -848.000
431.721;  -45.525; -276.000; -267.000
431.845; -102.175; -704.000; -472.000
431.969;  -60.500; -304.000; -349.000
432.093;  -63.875; -395.000; -317.000
432.217;    0.850;   32.000;   82.000
432.341;  -68.400; -523.000; -518.000
432.464;   11.050;   96.000;   40.000
432.588;    2.550; -401.000; -329.000
432.712;   50.300;  -52.000;  -52.000
432.836;   77.875;  213.000;  263.000
432.959;   43.450; -372.000; -311.000
433.083;  182.100;   11.000;    2.000
433.207;  584.225;  285.000;  930.000
433.330; 7338.450; -391.000; -200.000
433.454;10429.300; -654.000; -638.000
433.578; 5775.550;  583.000;  278.000
433.701; 1319.525; -623.000; -675.000
433.825;  183.600; -292.000; -299.000
433.949;   80.225;   28.000;  -72.000
434.072;   16.475; -410.000; -323.000
434.196;   11.100; -309.000; -117.000
434.319; 3416.775;25482.000;25124.000
434.443;  844.200; -656.000; -603.000
434.566; 3966.350;  281.000;   62.000
434.690;  930.300; -637.000; -383.000
434.813;  218.325; -251.000; -173.000
434.937;   14.425; -569.000; -696.000
435.060;  -40.825; -423.000; -332.000
435.184;   35.425; -492.000; -217.000
435.307;   56.825;  159.000;  102.000
435.431;  -18.100;  -40.000;   24.000
435.554;  -46.350; -399.000; -240.000
435.677;  -64.500; -350.000; -258.000
435.801;  -28.025;  -25.000;   49.000
435.924;  -21.050;    1.000;  -67.000
436.048; -116.175;-1019.000; -732.000
436.171;  -56.700; -240.000;  -66.000
436.294;   24.350; -248.000; -229.000
436.417;  238.775; -963.000; -849.000
436.541;   -1.525; -814.000; -840.000
436.664;  -34.975; -242.000; -316.000
436.787;    8.425;   13.000;  113.000
436.910;  -86.300; -792.000; -422.000
437.034;   15.375;  142.000;  143.000
437.157;   68.625;  -11.000;    0.000
437.280;  -43.975; -392.000; -292.000
437.403; -104.775; -982.000; -869.000
437.526;   71.600; -903.000; -865.000
437.649;  665.925; -505.000; -332.000
437.772;   75.700; -692.000; -540.000
437.896;   73.900;  700.000;  544.000
438.019;  -66.375; -758.000; -503.000
438.142;  -72.175; -596.000; -506.000
438.265;  -87.500; -639.000; -670.000
438.388;   65.025; -520.000; -410.000
438.511;  -29.050; -597.000; -394.000
438.634;  -38.300; -247.000; -125.000
438.757; -103.200; -693.000; -619.000
438.880;  -45.275;  -34.000;  -57.000
439.003;  -79.675; -417.000; -437.000
439.126;  -44.750; -287.000; -167.000
439.248;  -58.650;  -98.000; -139.000
439.371;  -29.925;    9.000;  -53.000
439.494;   31.275;  510.000;  439.000
439.617;  -52.125;   65.000;  -88.000
439.740; -158.375; -968.000; -816.000
439.863; -123.850; -755.000; -595.000
439.986;  -87.600; -476.000; -431.000
440.108;  -16.400; -161.000; -112.000
440.231; -144.700; -950.000; -836.000
440.354;  -45.700;  -64.000; -150.000
440.477;  -87.700; -566.000; -542.000
440.599;  -64.700; -200.000; -225.000
440.722; -113.375; -709.000; -586.000
440.845;   62.525;  751.000;  928.000
440.968;  -94.575; -415.000; -311.000
441.090;  -50.100; -199.000;  -33.000
441.213; -143.900;-1021.000; -825.000
441.336;  -41.750; -159.000;   -5.000
441.458;  -86.000; -549.000; -396.000
441.581; -108.825; -628.000; -629.000
441.703;  -63.400; -152.000;   13.000
441.826;  -96.950; -557.000; -400.000
441.948;  -43.450;   56.000;   51.000
442.071;   32.650;  555.000;  424.000
442.193; -100.900; -531.000; -485.000
442.316;   10.875;  152.000;   97.000
442.438;   97.575; -233.000;  -10.000
442.561;   88.325;  272.000;  262.000
442.683;  112.050; -809.000; -522.000
442.806;  351.725;   -8.000;   74.000
442.928;  -71.575; -859.000; -604.000
443.051;  -56.100; -577.000; -373.000
443.173;  -60.175; -341.000; -339.000
443.295;  -87.050; -263.000; -371.000
443.418;  -61.100; -321.000;  -29.000
443.540;  -30.475; -106.000;   -4.000
443.662; -110.950; -563.000; -465.000
443.785;   -6.125;  335.000;  199.000
443.907;  -79.150; -362.000; -208.000
444.029; -104.275; -767.000; -494.000
444.152; -125.025; -644.000; -554.000
444.274;  -32.875;  -18.000;  -24.000
444.396; -109.375; -461.000; -221.000
444.518; -114.000; -691.000; -454.000
444.640; -100.250; -268.000; -111.000
444.763;  -13.000;  388.000;  249.000
444.885; -105.175; -432.000; -392.000
445.007;  -18.975;   35.000;   86.000
445.129; -121.100; -610.000; -515.000
445.251; -107.375; -372.000; -439.000
445.373; -134.300; -537.000; -386.000
445.495;  -12.050;  242.000;  350.000
445.617;   49.375;  853.000;  753.000
445.739;  -60.250; -215.000;  -97.000
445.861;  -60.475; -245.000; -112.000
445.984;  -52.875; -267.000; -101.000
446.105;   -4.925; -418.000; -251.000
446.227;  141.000; -176.000;  -19.000
446.349;  -62.525; -358.000; -249.000
446.471; -103.275; -615.000; -448.000
446.593;  -70.250; -316.000;   19.000
446.715;  -40.925;  -67.000;   41.000
446.837;   49.475;  697.000;  832.000
446.959; -106.925; -457.000; -478.000
447.081; -119.925; -628.000; -518.000
447.203;   54.475;  862.000;  834.000
447.325;  -79.550; -270.000;   42.000
447.446;    6.475;  286.000;  530.000
447.568; -137.850; -921.000; -803.000
447.690;  -77.825; -236.000; -245.000
447.812; -127.325; -798.000; -519.000
447.933;  -25.150;  155.000;  127.000
448.055;  -57.600; -306.000; -261.000
448.177;   43.950;   31.000;   79.000
448.299;  -61.375; -935.000; -727.000
448.420;   -3.350;  -25.000;  159.000
448.542;  -43.350;   -3.000;   33.000
448.664;   -8.850;  109.000;  322.000
448.785;  -14.150;  265.000;   83.000
448.907;  -98.625; -614.000; -353.000
449.028;  -78.475; -771.000; -471.000
449.150;   48.700;  492.000;  589.000
449.272; -150.475;-1044.000; -913.000
449.393;   59.300;  612.000;  694.000
449.515; -115.975; -634.000; -581.000
449.636;  -51.025; -264.000; -155.000
449.758;   85.575;  763.000;  622.000
449.879;  -74.900; -498.000; -396.000
450.001;  -42.600; -149.000;  -49.000
450.122;  -15.450;  -95.000;  162.000
450.244;    8.150;   37.000;  364.000
450.365;  -53.825; -495.000; -301.000
450.486;    8.225;   80.000;  268.000
450.608;   65.350;  393.000;  326.000
450.729;  128.900;  578.000;  645.000
450.850;  113.925; -574.000; -466.000
450.972; 1145.650; -552.000; -389.000
451.093; 7485.650;  190.000;  588.000
451.214; 3982.975; -516.000; -337.000
451.336;  710.825;  773.000;  579.000
451.457;  126.025;  264.000;  393.000
451.578;    0.125; -118.000;  -74.000
451.699;  -86.700; -546.000; -540.000
451.821;  -44.600; -284.000;  -50.000
451.942;    5.775;  278.000;  285.000
452.063;   82.375;  228.000;  419.000
452.184;  803.800;  -54.000;  -49.000
452.305; 1746.350;  103.000;  170.000
452.427;  380.800; -549.000; -301.000
452.548;   20.325;   23.000;   79.000
452.669;  -49.850; -257.000;  -89.000
452.790;  -56.625;    3.000;  -18.000
452.911;  -24.075;  195.000;  259.000
453.032;  -53.025; -289.000;  -60.000
453.153;  -35.500;  -29.000;   81.000
453.274;   62.100;  737.000;  868.000
453.395;  -42.950;  -51.000;  175.000
453.516;  104.150; 1317.000; 1388.000
453.637;  -72.275; -205.000; -150.000
453.758;  -34.500;   15.000;   69.000
453.879;  -96.675; -462.000; -250.000
454.000;   76.325; 1086.000;  948.000
454.121; -108.100; -554.000; -326.000
454.242;  -99.550; -599.000; -383.000
454.362;  -30.750;  -99.000;  114.000
454.483;   28.775; -309.000; -229.000
454.604;  117.625;  512.000;  580.000
454.725; -107.525; -627.000; -555.000
454.846; -106.125; -474.000; -406.000
454.967;   -7.975;  230.000;  539.000
455.087;  -17.400;  179.000;  153.000
455.208;   22.525;  554.000;  856.000
455.329;  -40.925;  -22.000;   82.000
455.450;   66.325;  473.000;  633.000
455.570;  -45.625; -234.000; -211.000
455.691;  -27.475;  201.000;  407.000
455.812;  -81.400; -270.000;  -92.000
455.932;  -46.325;  107.000;  -97.000
456.053;  -57.100;   36.000;   24.000
456.173;  -91.300; -433.000; -355.000
456.294; -116.650; -476.000; -303.000
456.415;  -44.300;  -73.000;   70.000
456.535;  -17.850;  297.000;  273.000
456.656;  -37.600;  132.000;  240.000
456.776;  -48.175;    3.000;  298.000
456.897;    5.175;  308.000;  513.000
457.017;  -49.850; -153.000;   -3.000
457.138;  -91.875; -402.000; -249.000
457.258;  -19.300;  263.000;  224.000
457.379;   -1.125;  509.000;  521.000
457.499;  -10.625;  443.000;  432.000
457.620;  -96.400; -407.000; -231.000
457.740;  -82.950; -132.000;  -11.000
457.860;  -42.450;   87.000;   44.000
457.981;  -19.125;  132.000;  124.000
458.101;  -47.425;  -89.000;   40.000
458.221;   -4.925;  336.000;  402.000
458.342;  -45.400;   -4.000;  -37.000
458.462;   43.950;  617.000;  352.000
458.582;   13.650; -302.000; -294.000
458.703;   55.050;  303.000;  154.000
458.823;   13.000;   22.000;  163.000
458.943;   82.600;  341.000;  467.000
459.063;   48.900; 1124.000;  192.000
459.183;   -0.375;  328.000;  313.000
459.304;   12.050;  315.000;  517.000
459.424;  -25.150; -246.000;  -89.000
459.544;  441.125;  388.000;  764.000
459.664; 1260.175;  499.000;  506.000
459.784;  527.450; 1004.000; 1175.000
459.904;  100.250;  867.000;  744.000
460.024;   56.025;  867.000;  684.000
460.144;    2.025;  449.000;  554.000
460.264;   15.250;  515.000;  327.000
460.385;  -70.850; -145.000; -119.000
460.505;   40.175;  905.000;  858.000
460.625;  -76.000;  -17.000;  -68.000
460.745;   -7.825;  396.000;  541.000
460.864;  -20.250;  153.000;  469.000
460.984;  102.425;  499.000;  573.000
461.104;  170.950; 1656.000; 1775.000
461.224;   26.375;  657.000;  650.000
461.344;  -15.475;  431.000;  360.000
461.464;  -23.550;  258.000;  513.000
461.584;  -13.325;  283.000;  466.000
461.704;  -55.450;   58.000;  108.000
461.824;  -54.050;  238.000;  259.000
461.943;  -34.050;  191.000;  130.000
462.063;  -58.075;    2.000;  324.000
462.183;   28.050;  639.000;  717.000
462.303;   99.000; 1678.000; 1230.000
462.422;   26.500;  781.000;  840.000
462.542;  -24.250;  271.000;  391.000
462.662;   37.900;  353.000;  380.000
462.782;  335.350;  833.000;  572.000
462.901;  754.350;  545.000;  717.000
463.021;  409.850; 1702.000; 1638.000
463.141;   26.700;  337.000;  770.000
463.260;   -2.625;  614.000;  474.000
463.380;   27.175;  902.000;  884.000
463.499;  -19.850;  342.000;  332.000
463.619;  -40.825;  581.000;  559.000
463.738;  117.350; 1644.000;  903.000
463.858;   16.875;  657.000;  811.000
463.978;  -18.075;  542.000;  396.000
464.097;   59.550;  921.000; 1114.000
464.217;  155.425; 1196.000; 1143.000
464.336;  145.025; 1068.000; 1130.000
464.455;  -17.925;  328.000;  659.000
464.575;   37.225;  597.000;  602.000
464.694;  131.550; 1204.000; 1179.000
464.814;  142.650; 1190.000; 1138.000
464.933;   91.675; 1095.000; 1027.000
465.052;   95.075; 1412.000; 1054.000
465.172;   65.525;  922.000;  799.000
465.291;  107.150; 1376.000; 1320.000
465.410;   19.275;  462.000;  735.000
465.530;   84.050; 1355.000; 1310.000
465.649;   68.725; 1209.000; 1273.000
465.768;  167.650; 1673.000; 1508.000
465.888;  102.600;  941.000; 1174.000
466.007;  105.725; 1335.000; 1440.000
466.126;   12.425;  721.000;  641.000
466.245;   58.400; 1176.000; 1187.000
466.364;   40.500;  950.000; 1060.000
466.484;   60.725; 1024.000; 1213.000
466.603;   53.175; 1101.000; 1222.000
466.722;  128.550; 1490.000; 1769.000
466.841;   80.175; 1151.000; 1401.000
466.960;   42.450; 1069.000;  972.000
467.079;  134.750; 1971.000; 1786.000
467.198;   68.700; 1238.000; 1181.000
467.317;   99.200; 1768.000; 1162.000
467.436;   80.475; 1709.000; 1261.000
467.555;  153.625; 1796.000; 1746.000
467.674;   67.375; 1227.000; 1329.000
467.793;   69.650; 1376.000; 1374.000
467.912;  105.325; 1658.000; 1539.000
468.031;  155.275; 2038.000; 1930.000
468.150;  159.875; 1842.000; 1837.000
468.269;  192.700; 2313.000; 2090.000
468.388;  202.625; 2168.000; 2339.000
468.507;  257.875; 2884.000; 2903.000
468.626;  248.450; 2555.000; 2541.000
468.744;  143.450; 2018.000; 2174.000
468.863;  211.750; 2312.000; 2523.000
468.982;  100.750; 1503.000; 1555.000
469.101;  221.150; 2788.000; 2692.000
469.220;  166.150; 2333.000; 2176.000
469.338;  256.450; 2935.000; 3051.000
469.457;  204.625; 2719.000; 2545.000
469.576;  359.025; 3953.000; 3784.000
469.695;  246.075; 2877.000; 3066.000
469.813;  415.125; 4148.000; 4192.000
469.932;  408.475; 4255.000; 4485.000
470.051;  439.125; 4075.000; 4161.000
470.169; 1020.200; 4470.000; 4338.000
470.288; 1985.625; 4700.000; 4809.000
470.406; 1194.800; 5059.000; 5194.000
470.525;  680.100; 6101.000; 5787.000
470.644;  683.125; 6847.000; 6794.000
470.762;  803.875; 8397.000; 7873.000
470.881;  892.100; 8651.000; 8464.000
470.999; 1046.100; 9685.000; 9151.000
471.118; 1107.425;11174.000;10711.000

