
Integration time [ms]: 100.000
Averaging Nr. [scans]: 40
Smoothing Nr. [pixels]: 0
Data measured with spectrometer [name]: 2101012U2
Wave   ;Sample   ;Dark     ;Reference
[nm]   ;[counts] ;[counts] ;[counts] 

197.733;   53.175;  516.000;  404.000
197.879;  -80.175; -610.000; -634.000
198.025;  -57.000; -475.000; -420.000
198.171;  -65.950; -602.000; -612.000
198.317;  -23.600; -401.000; -316.000
198.463;  -62.675; -655.000; -404.000
198.609;   21.250;  181.000; -137.000
198.755;  -77.500; -644.000; -410.000
198.901;  -53.750; -505.000; -424.000
199.047;  -59.150; -615.000; -488.000
199.193;  -32.100; -230.000; -468.000
199.339;  -45.600; -222.000; -369.000
199.485;   23.725;  330.000;  271.000
199.631;   14.400;  227.000;  310.000
199.777;  -55.950; -466.000; -398.000
199.923;  -65.100; -610.000; -424.000
200.069;   -6.700; -141.000;  -58.000
200.215;   49.400;  128.000;  453.000
200.361;   38.875;  243.000;  477.000
200.507;  -53.350; -600.000; -373.000
200.653;  -32.400; -371.000; -194.000
200.798;  -24.425; -215.000; -125.000
200.944;   -9.800; -146.000;  -41.000
201.090;   36.800;   61.000;  222.000
201.236;   -4.900; -116.000; -158.000
201.382;  126.775;  874.000;  903.000
201.528;   -4.375;  -58.000;  -48.000
201.674;  -49.125; -386.000; -293.000
201.819;  -57.200; -540.000; -439.000
201.965;  -85.200; -699.000; -447.000
202.111;  -11.125; -273.000; -226.000
202.257;  -52.400; -250.000; -238.000
202.402;   -0.650;   13.000;  -36.000
202.548;  -32.850; -169.000; -116.000
202.694;   69.525;  410.000; -183.000
202.840;  -78.650; -603.000; -531.000
202.985;  -58.950; -681.000; -639.000
203.131; -108.075; -832.000; -666.000
203.277;  -15.650; -199.000; -262.000
203.423;  -49.100; -434.000; -520.000
203.568;  -46.075; -462.000; -237.000
203.714;  -55.300; -535.000; -542.000
203.860;  -68.150; -682.000; -641.000
204.005;   16.750;  112.000;  167.000
204.151;   68.700;  561.000;  556.000
204.296;  -36.200; -354.000; -221.000
204.442;  -60.525; -600.000; -547.000
204.588;  -74.075; -592.000; -579.000
204.733;   18.275;  178.000;  168.000
204.879; -122.475;-1018.000; -822.000
205.025;   11.275;  -99.000;  126.000
205.170;   -0.475;  -17.000;   94.000
205.316;   65.050;  438.000;  661.000
205.461;  -83.800; -698.000; -554.000
205.607;   73.850;  609.000;  665.000
205.752;  -76.125; -626.000; -551.000
205.898;  -61.425; -501.000; -391.000
206.043;  -69.000; -578.000; -506.000
206.189;  -46.650; -243.000; -285.000
206.334;   69.350;  554.000;  606.000
206.480;   70.650;  409.000;  239.000
206.625;  -88.400; -529.000; -552.000
206.771;  -35.450; -451.000; -373.000
206.916;  -34.550; -210.000; -537.000
207.062;  -69.550; -545.000; -591.000
207.207;  -63.125; -546.000; -443.000
207.353;   57.950;  185.000;  460.000
207.498;   17.550;  196.000;   85.000
207.643;  -47.175; -501.000; -370.000
207.789; -128.625;-1069.000; -910.000
207.934;  -87.475; -665.000; -713.000
208.080;  -16.500; -154.000;   66.000
208.225;  -21.750;  -22.000;  -57.000
208.370;  -86.400; -727.000; -619.000
208.516;  -88.175; -741.000; -487.000
208.661;  -16.375; -127.000;  -69.000
208.806;  -20.025; -165.000; -171.000
208.952; -112.875;-1044.000; -731.000
209.097;   64.125;  378.000;  349.000
209.242;  -50.100; -307.000; -382.000
209.387;   61.625;  392.000;  350.000
209.533;  -43.275; -321.000; -350.000
209.678;   76.700;  472.000;  543.000
209.823;  -55.350; -408.000; -310.000
209.969; -107.350; -860.000; -757.000
210.114;  -99.700; -907.000; -719.000
210.259; -124.900; -939.000; -889.000
210.404;   -8.175; -171.000;  103.000
210.549;   22.900;  108.000;    3.000
210.695;  -16.550;   -3.000;  -95.000
210.840;   33.700;   94.000;   67.000
210.985;  -53.975; -484.000; -303.000
211.130;   73.775;  268.000;  406.000
211.275;   14.725;  207.000;  199.000
211.420;  -39.675; -300.000; -289.000
211.566;  -70.175; -536.000; -489.000
211.711;    8.575;  218.000;  157.000
211.856;  -67.725; -545.000; -519.000
212.001;    6.975;  151.000;   44.000
212.146;   32.650;  153.000;   49.000
212.291;  -17.450; -210.000; -186.000
212.436;  -28.725; -280.000;   -6.000
212.581;  -95.650; -685.000; -653.000
212.726;  -71.700; -487.000; -538.000
212.871;  -37.300; -552.000; -217.000
213.016; -147.425;-1172.000;-1029.000
213.161;   55.775;  406.000;  291.000
213.306;  -74.400; -435.000; -577.000
213.451;  -93.650; -778.000; -689.000
213.596;  -36.225; -455.000; -347.000
213.741;  -42.750; -448.000; -538.000
213.886;  -77.750; -498.000; -517.000
214.031;  -32.425; -294.000; -124.000
214.176;  -49.875; -408.000; -341.000
214.321;  -12.975; -296.000; -157.000
214.466;  -24.525; -163.000;  -43.000
214.611;    1.950;  -61.000;  -10.000
214.756; -111.000; -948.000; -858.000
214.901;  -30.150; -388.000; -226.000
215.046; -114.350; -797.000; -825.000
215.191;    8.550;  128.000;   35.000
215.336;  -16.225; -157.000;  -19.000
215.480;  -64.925; -684.000; -505.000
215.625;  -15.400; -175.000;  -19.000
215.770;  -90.050; -757.000; -662.000
215.915;    1.250;   -5.000;  -97.000
216.060;   -6.875; -113.000;  -21.000
216.205; -121.375; -731.000; -779.000
216.349;  -61.475; -470.000; -533.000
216.494; -136.000; -939.000; -867.000
216.639; -111.175; -823.000; -888.000
216.784;  -84.250; -577.000; -525.000
216.929;   58.450;  392.000;  281.000
217.073;  -21.500; -244.000;  -31.000
217.218;   15.850;   78.000;  -47.000
217.363;  -88.875; -656.000; -618.000
217.507;  -77.075; -623.000; -588.000
217.652; -125.550; -845.000; -874.000
217.797;  -96.925; -708.000; -659.000
217.942; -105.175; -856.000; -720.000
218.086;   70.975;  608.000;  539.000
218.231;  -22.000; -174.000;  -26.000
218.376;  -37.400; -337.000; -229.000
218.520;   15.625;  -41.000;   96.000
218.665;  -41.275; -338.000; -204.000
218.810;  -38.350; -275.000; -233.000
218.954;   23.175;  201.000;   35.000
219.099;  -92.125; -713.000; -963.000
219.243;  -69.125; -589.000; -554.000
219.388;  -24.675; -264.000; -136.000
219.532;    0.525; -116.000; -116.000
219.677;  -76.575; -564.000; -521.000
219.822;   -8.800;   33.000;   89.000
219.966;   16.175;   17.000;  -99.000
220.111;  -25.400; -328.000;  -40.000
220.255;  -96.925; -797.000; -750.000
220.400;  -22.750; -180.000; -146.000
220.544;  -73.025; -516.000; -450.000
220.689;  -63.425; -422.000; -451.000
220.833;  -13.900; -123.000;  -58.000
220.978;  -41.050; -393.000; -563.000
221.122;   21.200;  319.000;  307.000
221.267; -114.825; -906.000; -837.000
221.411;  -57.175; -478.000; -394.000
221.555;  -15.525; -104.000;  -23.000
221.700;  -45.850; -329.000; -222.000
221.844;   36.275;  255.000;  272.000
221.989;  -49.900; -328.000; -311.000
222.133;  -37.550; -289.000; -307.000
222.277;   -0.150;    5.000;   78.000
222.422;    8.425;  227.000;  113.000
222.566;  -37.250; -381.000; -214.000
222.711;  -65.600; -414.000; -479.000
222.855;  -82.350; -643.000; -586.000
222.999;  -89.475; -642.000; -717.000
223.144;  -34.000; -195.000; -194.000
223.288;   45.725;  423.000;  251.000
223.432;   26.925;  184.000;  230.000
223.576;   12.625;  152.000;  -21.000
223.721;   37.525;  364.000;  273.000
223.865;  -60.800; -472.000; -475.000
224.009;  229.950; 1673.000; 1631.000
224.153;  -71.775; -660.000; -671.000
224.298;  -73.125; -531.000; -489.000
224.442;  -10.925;  -74.000;  -33.000
224.586;  -21.925; -169.000; -106.000
224.730;  -89.675; -858.000; -670.000
224.875;  -95.925; -739.000; -688.000
225.019;   17.100;  102.000;  188.000
225.163;   53.975;  208.000;  341.000
225.307;   14.600;   97.000;  -91.000
225.451;   38.575;  360.000;  481.000
225.595;   34.325;  264.000;  176.000
225.739;  -17.650; -170.000;  -94.000
225.884;   11.600;   86.000;    5.000
226.028;  -98.875; -760.000; -626.000
226.172;  -39.625; -260.000; -273.000
226.316; -117.400; -941.000; -902.000
226.460;  -63.125; -645.000; -493.000
226.604;  -46.850; -406.000; -400.000
226.748;  -88.475; -836.000; -733.000
226.892;  -29.200; -227.000; -181.000
227.036;  -46.125; -537.000; -447.000
227.180;  -53.575; -551.000; -375.000
227.324;  -52.450; -561.000; -580.000
227.468; -107.325; -819.000; -717.000
227.612;   12.575;  242.000;  -28.000
227.756; -104.500; -845.000; -698.000
227.900;   49.000;  342.000;  441.000
228.044;  -55.450; -509.000; -290.000
228.188;   64.325;  448.000;  568.000
228.332;  -87.150; -546.000; -472.000
228.476;  -23.525; -223.000; -149.000
228.620;  -31.975; -210.000; -150.000
228.764;   60.350;  431.000;  349.000
228.908;  -14.000; -155.000;   30.000
229.052;  -65.075; -615.000; -528.000
229.195;  -15.700; -172.000;   13.000
229.339;  -15.725; -235.000; -305.000
229.483;  -46.800;    5.000; -162.000
229.627;  -11.700; -156.000;  139.000
229.771;  -43.725; -218.000; -294.000
229.915;   13.175;  230.000;   79.000
230.059;  -87.325; -648.000; -663.000
230.202;  -48.275; -370.000; -317.000
230.346;   -2.350; -107.000;  107.000
230.490;  -64.250; -489.000; -521.000
230.634;  -96.600; -736.000; -553.000
230.777;   82.150;  478.000;  509.000
230.921;  -56.100; -450.000; -359.000
231.065;  -34.725; -246.000; -286.000
231.209;   33.175;  261.000;  265.000
231.352;   20.725;   54.000;   40.000
231.496;   15.500;  568.000;  188.000
231.640;  -78.275; -693.000; -621.000
231.783;   58.400;  546.000;  525.000
231.927;  -41.350; -294.000; -365.000
232.071; -130.325; -962.000; -736.000
232.214;  -95.100; -980.000; -764.000
232.358;  -91.150; -683.000; -599.000
232.502;    5.975;  -19.000;    7.000
232.645; -129.075;-1090.000; -927.000
232.789;  -30.250; -257.000; -218.000
232.933;  -43.200; -407.000; -224.000
233.076; -120.525;-1038.000; -897.000
233.220;  -99.225; -752.000; -777.000
233.363;  -75.900; -669.000; -477.000
233.507;   56.075;  371.000;  129.000
233.650;  -85.575; -764.000; -834.000
233.794;   31.525;  438.000;  461.000
233.938;  -61.450; -530.000; -362.000
234.081;  -17.650;  -93.000;   31.000
234.225;  -75.625; -631.000; -539.000
234.368; -110.075; -773.000; -723.000
234.512;  -45.575; -385.000; -299.000
234.655;  -81.625; -582.000; -555.000
234.798;  -63.950; -493.000; -466.000
234.942; -128.975; -884.000;-1002.000
235.085;  -78.650; -651.000; -443.000
235.229;  -67.800; -405.000; -410.000
235.372;  -48.350; -247.000; -191.000
235.516;  -71.550; -397.000; -321.000
235.659;   13.150;   92.000;  121.000
235.802;  -12.775;  -38.000;  -22.000
235.946;   14.800;  335.000;  215.000
236.089;   20.675;  126.000;  250.000
236.233;   46.000;  275.000;  298.000
236.376;  -39.125; -235.000; -378.000
236.519;  -52.050; -297.000; -319.000
236.663;   -7.100; -215.000; -117.000
236.806; -132.300;-1029.000; -999.000
236.949;   39.475;  543.000;  431.000
237.092;   68.125;  412.000;  391.000
237.236;  -76.325; -589.000; -502.000
237.379;   52.950;  352.000;  428.000
237.522; -119.825; -879.000; -768.000
237.666;  -10.225; -271.000;   18.000
237.809; -125.100; -851.000; -823.000
237.952;   25.825;  469.000;  271.000
238.095;  -64.500; -447.000; -442.000
238.238;   83.825;  688.000;  700.000
238.382;   -3.550;  166.000;  103.000
238.525;  -72.475; -598.000; -511.000
238.668; -128.250;-1060.000; -985.000
238.811;  -66.750; -638.000; -643.000
238.954;  -58.025; -483.000; -334.000
239.097;   91.350;  617.000;  664.000
239.241;   19.275;  394.000;  326.000
239.384;  -27.325; -254.000; -214.000
239.527;  -69.425; -424.000; -224.000
239.670; -151.575; -994.000;-1091.000
239.813; -109.650; -696.000; -658.000
239.956;   70.675;  579.000;  473.000
240.099;  -99.325; -778.000; -725.000
240.242;   55.875;  428.000;  432.000
240.385;   48.075;  466.000;  450.000
240.528;  -66.225; -706.000; -473.000
240.671;   29.200;  189.000;  134.000
240.814;  -49.250; -441.000; -158.000
240.957;  -99.400; -767.000; -578.000
241.100;  -92.050; -779.000; -755.000
241.243; -134.325;-1234.000; -893.000
241.386;  -75.425; -508.000; -379.000
241.529;  -93.575; -735.000; -547.000
241.672;  -53.075; -566.000; -495.000
241.815; -114.675; -832.000; -808.000
241.958;  -32.250; -125.000; -182.000
242.101;  -76.800; -545.000; -390.000
242.244;  -44.750; -270.000; -325.000
242.387;  -32.625; -304.000; -246.000
242.530;   43.750;  470.000;  134.000
242.673;  -52.575; -381.000; -309.000
242.815; -115.250; -925.000; -899.000
242.958;  -70.525; -482.000; -381.000
243.101;    2.650;  132.000;  187.000
243.244;  -85.100; -564.000; -521.000
243.387;  -50.775; -313.000; -316.000
243.530;  -98.100; -657.000; -674.000
243.672;  -10.300;   43.000;  -92.000
243.815;  -47.825; -355.000; -283.000
243.958;   -1.075;   98.000;  -26.000
244.101;    5.075;   59.000;  -16.000
244.243;   -7.250;  -47.000;  101.000
244.386; -112.275; -761.000; -630.000
244.529;  -35.825; -132.000; -139.000
244.672; -143.375;-1154.000; -951.000
244.814; -100.500; -621.000; -794.000
244.957;  -47.800; -380.000; -304.000
245.100;  -73.175; -489.000; -489.000
245.242;  -57.975; -387.000; -374.000
245.385;  -21.275;  -59.000;  -39.000
245.528; -118.725; -871.000; -705.000
245.670;   84.550;  612.000;  634.000
245.813;  -75.875; -599.000; -547.000
245.956;  -31.225; -324.000; -275.000
246.098;  -70.225; -508.000; -650.000
246.241;   -7.825;  194.000;   48.000
246.383;  -10.200; -119.000;  -73.000
246.526;  -67.600; -454.000; -525.000
246.669; -110.400; -889.000; -780.000
246.811;    7.700;  172.000;   -1.000
246.954;  -67.400; -512.000; -426.000
247.096;  -25.025;  -84.000;   -6.000
247.239;  -82.725; -482.000; -445.000
247.381;  -75.875; -647.000; -488.000
247.524;   81.100;  645.000;  679.000
247.666;   -6.550;   58.000;   11.000
247.809; -102.425; -887.000; -691.000
247.951;  -21.525;  -75.000;  138.000
248.094;   21.925;  432.000;  308.000
248.236; -152.050;-1262.000;-1238.000
248.378;  -10.825; -356.000;  -81.000
248.521;  -50.725; -334.000; -337.000
248.663;  -47.050; -236.000; -267.000
248.806;  -24.525; -300.000; -266.000
248.948; -108.450; -886.000; -763.000
249.090;  -59.700; -428.000; -398.000
249.233;  -69.475; -344.000; -381.000
249.375;  -55.950; -474.000; -451.000
249.518;  -26.625;  -83.000; -133.000
249.660;   -7.725; -103.000;    3.000
249.802; -153.875;-1303.000;-1189.000
249.945;  -69.800; -612.000; -540.000
250.087;  -96.650; -834.000; -768.000
250.229;  -51.525; -362.000; -480.000
250.371;  -69.575; -494.000; -439.000
250.514;  -47.125; -310.000; -244.000
250.656;  -62.825;   69.000;  102.000
250.798; -111.275; -849.000; -800.000
250.940;  -62.500; -322.000; -322.000
251.083;  -33.175; -335.000; -111.000
251.225;   44.475;  338.000;  310.000
251.367;  -48.875; -274.000; -373.000
251.509;  -20.600; -265.000; -210.000
251.651;  -92.800; -731.000; -671.000
251.794;   46.400;  538.000;  632.000
251.936; -103.850; -821.000; -747.000
252.078;  -77.975; -540.000; -461.000
252.220;  -68.700; -645.000; -477.000
252.362;   65.400;  344.000;  462.000
252.504;  -82.400; -677.000; -584.000
252.646; -110.825; -875.000; -722.000
252.788;  -27.400;   14.000; -128.000
252.931;  -51.375; -257.000; -253.000
253.073;  -42.975; -376.000; -317.000
253.215;   -5.575;  141.000;  122.000
253.357;  -10.650;   82.000; -153.000
253.499;  -43.475; -374.000; -234.000
253.641;  -81.375; -749.000; -594.000
253.783;  -86.550; -609.000; -527.000
253.925;  -76.600; -586.000; -591.000
254.067; -109.725; -744.000; -667.000
254.209;  -48.150; -391.000; -259.000
254.351; -128.150; -865.000; -883.000
254.493;  -62.425; -441.000; -417.000
254.635; -130.325; -936.000; -818.000
254.777; -103.675; -752.000; -687.000
254.918;  -68.575; -512.000; -430.000
255.060;  -50.800; -551.000; -395.000
255.202;  -57.275; -473.000; -261.000
255.344;  -64.750; -658.000; -455.000
255.486;  -68.850; -471.000; -406.000
255.628; -103.175; -780.000; -781.000
255.770;  -82.775; -676.000; -536.000
255.912;  -66.050; -559.000; -468.000
256.053;  -89.925; -730.000; -508.000
256.195;  134.600; 1008.000;  903.000
256.337; -107.275; -861.000; -595.000
256.479;   46.075;  532.000;  416.000
256.621;  -61.000; -394.000; -212.000
256.762;  -92.050; -789.000; -742.000
256.904;   52.550;  485.000;  487.000
257.046;  -46.275; -381.000; -271.000
257.188;  -43.900; -351.000; -264.000
257.329;  -74.650; -525.000; -464.000
257.471; -106.450; -939.000; -807.000
257.613;  -63.950; -584.000; -498.000
257.755; -144.275;-1073.000; -982.000
257.896;   28.425;  286.000;  392.000
258.038;  -67.750; -403.000; -352.000
258.180;  -41.525; -354.000; -279.000
258.321;  -86.850; -581.000; -457.000
258.463;   -3.025;  -71.000;  133.000
258.605;  -98.050; -562.000; -570.000
258.746;  -99.250; -886.000; -772.000
258.888; -150.975;-1026.000;-1020.000
259.029;    9.750;  121.000;   -8.000
259.171;  -90.050; -614.000; -550.000
259.313;   -8.175;  -49.000;  -47.000
259.454;  -65.875; -536.000; -414.000
259.596;  -61.400; -483.000; -390.000
259.737;  -75.500; -590.000; -474.000
259.879;   31.575;  217.000;  311.000
260.020;   77.225;  901.000;  636.000
260.162;  -46.725; -146.000; -253.000
260.303; -104.850; -768.000; -687.000
260.445;  -85.650; -609.000; -613.000
260.586;   15.975;  392.000;  157.000
260.728;  -56.500; -360.000; -248.000
260.869;  -75.175; -350.000; -343.000
261.011;   80.375;  706.000;  537.000
261.152;  -64.000; -479.000; -319.000
261.293;  -72.950; -576.000; -595.000
261.435;  -45.775; -219.000; -184.000
261.576;  -49.425; -455.000; -325.000
261.718;   36.975;  420.000;  470.000
261.859; -128.150; -940.000; -949.000
262.000; -126.800; -951.000;-1016.000
262.142;  -27.750;  -52.000;  -60.000
262.283; -113.550; -808.000; -691.000
262.424;  -85.100; -666.000; -625.000
262.566; -140.125;-1161.000; -983.000
262.707; -111.100; -840.000; -830.000
262.848; -115.425; -769.000; -726.000
262.990;  -52.400; -362.000; -345.000
263.131;   76.025;  650.000;  681.000
263.272;  -16.325;  -61.000;  -41.000
263.413;  -82.425; -589.000; -561.000
263.555;  -67.225; -669.000; -143.000
263.696;  -82.700; -550.000; -641.000
263.837;  -61.300; -449.000; -551.000
263.978;   -5.175;   -5.000;  -77.000
264.119;  -45.100; -283.000; -264.000
264.261; -107.600; -847.000; -630.000
264.402;  -18.825;   33.000;   40.000
264.543;  -80.500; -509.000; -524.000
264.684;  -15.775;   61.000;  -50.000
264.825;  -68.075; -816.000; -538.000
264.966;   -9.025;  -84.000;  -67.000
265.107; -108.425; -646.000; -670.000
265.248; -126.075; -825.000; -812.000
265.390;  -20.100;  152.000;   -9.000
265.531;  -18.400; -238.000; -107.000
265.672;  -78.125; -557.000; -630.000
265.813;   57.150;  563.000;  439.000
265.954; -145.375; -959.000; -940.000
266.095;  -18.275; -372.000; -322.000
266.236;  -86.775; -686.000; -548.000
266.377;  -49.200; -243.000; -297.000
266.518;  -77.575; -619.000; -547.000
266.659;   23.400;  170.000;  268.000
266.800;    2.875;   83.000;   85.000
266.941;  -84.525; -487.000; -478.000
267.082;    2.200;  354.000;   99.000
267.223;  -55.950; -344.000; -273.000
267.364; -114.400; -892.000; -686.000
267.504;  -12.850;    3.000;  135.000
267.645;    1.000;  160.000;   67.000
267.786;  -43.825; -147.000;  -86.000
267.927;  -75.000; -473.000; -379.000
268.068;  -32.175; -186.000;  -61.000
268.209;  -59.800; -175.000; -413.000
268.350;  -64.500; -388.000; -532.000
268.490;  -84.675; -648.000; -521.000
268.631;   20.225;  127.000;  225.000
268.772;  -99.100; -874.000; -647.000
268.913;  -52.300; -328.000; -476.000
269.054;  -28.225; -117.000;   12.000
269.194;  -42.200; -418.000; -402.000
269.335; -159.775;-1137.000;-1074.000
269.476;  -21.375;   33.000;  -35.000
269.617;  -51.000; -347.000; -392.000
269.757; -101.175; -713.000; -646.000
269.898; -104.225; -856.000; -613.000
270.039;  -59.900; -415.000; -405.000
270.180; -139.900; -952.000; -816.000
270.320;  -29.525; -190.000; -250.000
270.461;  -37.025; -277.000; -249.000
270.602;  -10.850; -186.000; -156.000
270.742; -124.950; -868.000; -943.000
270.883;  -63.375; -442.000; -390.000
271.023;  -60.250; -358.000; -357.000
271.164;  -82.175; -607.000; -528.000
271.305;  -89.825; -666.000; -654.000
271.445;  -94.400; -722.000; -683.000
271.586;  -64.700; -462.000; -283.000
271.726;  -40.075; -397.000; -322.000
271.867;  -68.150; -594.000; -534.000
272.008;   45.675; -473.000; -285.000
272.148;   73.750;  462.000;  468.000
272.289;  -15.300; -113.000; -181.000
272.429;  -14.575;   19.000;  185.000
272.570;  -89.400; -633.000; -737.000
272.710; -100.300; -825.000; -775.000
272.851;  -30.700;  113.000; -130.000
272.991; -157.800;-1173.000;-1077.000
273.131;  -62.050; -419.000; -459.000
273.272; -109.875; -683.000; -723.000
273.412;  -10.000; -143.000;  -31.000
273.553;  -55.275; -488.000; -507.000
273.693;  126.600;  913.000;  858.000
273.834; -117.075; -894.000; -692.000
273.974;  -84.300; -664.000; -615.000
274.114; -103.500; -772.000; -560.000
274.255;   52.625;  414.000;  373.000
274.395;  -32.050; -180.000; -125.000
274.535;   21.600;  199.000;  350.000
274.676;   17.575;  225.000;   94.000
274.816;  -11.650;  110.000;   34.000
274.956;  -96.350; -624.000; -690.000
275.097; -110.225;-1014.000; -922.000
275.237; -121.125; -913.000; -803.000
275.377;  -98.800; -778.000; -689.000
275.517; -133.950; -878.000; -937.000
275.658;  -72.900; -590.000; -555.000
275.798;  -81.200; -606.000; -413.000
275.938;   20.625;  215.000;  323.000
276.078;  -76.550; -626.000; -395.000
276.218;   -3.200;   99.000;  104.000
276.359; -137.725;-1026.000;-1024.000
276.499;  -82.850; -605.000; -446.000
276.639;  -29.025; -305.000; -151.000
276.779;  -51.425; -475.000; -357.000
276.919; -105.375; -783.000; -624.000
277.059;  -20.675; -261.000; -212.000
277.199;  -53.200; -357.000; -259.000
277.340;   27.850;  287.000;  175.000
277.480; -115.950; -840.000; -693.000
277.620;    3.750;  192.000;   16.000
277.760; -197.450;-1533.000;-1294.000
277.900;    1.150;  113.000;   33.000
278.040;    3.650;  137.000;  159.000
278.180;   29.300;  270.000;  170.000
278.320;   -3.225;   21.000;   56.000
278.460;  -77.250; -443.000; -469.000
278.600;  -93.075; -708.000; -598.000
278.740;   37.575;  448.000;  224.000
278.880; -103.700; -768.000; -791.000
279.020;  -34.175; -194.000; -144.000
279.160;  -89.350; -672.000; -595.000
279.300; -113.950; -926.000; -873.000
279.440;  -88.500; -709.000; -622.000
279.579; -102.800;-1014.000; -929.000
279.719;  -58.875; -410.000; -394.000
279.859;   31.050;   -4.000;   41.000
279.999;  -10.725; -208.000;  101.000
280.139;  -46.850; -435.000; -387.000
280.279;  -99.225; -708.000; -745.000
280.419;  -23.125; -229.000; -147.000
280.559;  -36.325; -259.000; -180.000
280.698;  -90.500; -790.000; -639.000
280.838; -111.400; -778.000; -800.000
280.978; -104.000; -846.000; -790.000
281.118; -107.850; -811.000; -704.000
281.257;  -13.150;   24.000;    6.000
281.397; -154.275;-1094.000; -960.000
281.537;  -96.100; -599.000; -712.000
281.677;  -33.525; -150.000; -101.000
281.816;  -98.350; -700.000; -630.000
281.956;  -30.050; -193.000; -257.000
282.096;  -63.200; -539.000; -396.000
282.235; -105.225; -672.000; -638.000
282.375;  -23.600; -243.000;  -98.000
282.515;  -94.325; -715.000; -707.000
282.654;   -2.650;   29.000;  106.000
282.794;   25.975;  388.000;  244.000
282.934;  -56.850; -530.000; -491.000
283.073; -122.675;-1030.000; -857.000
283.213;  -56.925; -460.000; -467.000
283.353;  -54.475; -408.000; -349.000
283.492;  -44.750; -264.000; -296.000
283.632;  -41.125; -254.000; -168.000
283.771;  -92.325; -859.000; -730.000
283.911;  -57.325; -369.000; -260.000
284.050; -103.975; -794.000; -748.000
284.190; -159.650;-1229.000;-1096.000
284.329; -141.950;-1055.000; -964.000
284.469;  -85.675; -516.000; -591.000
284.608;  -72.350; -559.000; -598.000
284.748;  -79.075; -614.000; -570.000
284.887;  -10.775;  -87.000;  -20.000
285.027; -125.250; -844.000; -892.000
285.166;  -52.275; -192.000; -249.000
285.306;  -20.575; -116.000;  -33.000
285.445;  -42.950; -229.000; -343.000
285.584;  -87.775; -630.000; -494.000
285.724;  -46.475; -282.000; -322.000
285.863; -100.675; -857.000; -507.000
286.002;  -51.525; -366.000; -276.000
286.142; -110.825; -715.000; -622.000
286.281;  -82.000; -525.000; -493.000
286.420;  -80.125; -554.000; -417.000
286.560;   78.125;  653.000;  623.000
286.699; -136.100; -958.000; -912.000
286.838;  -89.950; -590.000; -591.000
286.978;  -88.775; -533.000; -537.000
287.117; -136.700;-1085.000; -950.000
287.256;  -43.525; -228.000; -211.000
287.395;  -59.175; -197.000; -378.000
287.535;  -53.100; -370.000; -298.000
287.674;  -78.950; -509.000; -484.000
287.813;   45.325;  661.000;  533.000
287.952; -147.100;-1010.000; -871.000
288.091; -151.350;-1049.000; -915.000
288.231;    1.950;   13.000;   15.000
288.370; -169.900;-1217.000;-1200.000
288.509; -100.800; -728.000; -645.000
288.648;  -82.550; -770.000; -548.000
288.787;  -37.000; -243.000;  -87.000
288.926;  -78.575; -454.000; -475.000
289.065;   87.950;  859.000;  672.000
289.204;  -59.200; -377.000; -217.000
289.344; -101.875; -791.000; -690.000
289.483;    5.400;  416.000;  304.000
289.622;  -33.950; -291.000; -149.000
289.761;   -9.600; -309.000; -166.000
289.900; -107.275; -785.000; -626.000
290.039;  -31.350;  -12.000;  -95.000
290.178;  -33.450; -274.000; -180.000
290.317;  -85.825; -618.000; -479.000
290.456;  -68.000; -463.000; -451.000
290.595; -121.700; -961.000; -833.000
290.734; -131.125; -904.000; -891.000
290.873;  -73.350; -456.000; -420.000
291.011; -119.750; -833.000; -843.000
291.150; -118.550; -770.000; -682.000
291.289;  -32.025; -343.000; -110.000
291.428; -106.050; -599.000; -480.000
291.567;  -67.500; -370.000; -442.000
291.706;    1.800;  109.000;  154.000
291.845;  -84.200; -597.000; -505.000
291.984; -152.525;-1234.000;-1061.000
292.122;   69.850;  602.000;  582.000
292.261;   40.750;  620.000;  463.000
292.400;   12.700; -144.000;  211.000
292.539; -123.750; -959.000; -813.000
292.678;  -40.100; -325.000; -300.000
292.816; -150.675;-1136.000; -965.000
292.955; -106.175; -844.000; -684.000
293.094;  -36.200; -173.000; -337.000
293.233;  -61.150; -556.000; -400.000
293.371;  -33.200; -225.000;  -84.000
293.510; -105.500; -866.000; -780.000
293.649; -141.800; -959.000; -924.000
293.787; -132.300;-1083.000;-1012.000
293.926;  -12.350; -113.000;  -32.000
294.065;  -56.700; -379.000; -290.000
294.203;   32.775;  298.000;  406.000
294.342;   24.075;   74.000;  156.000
294.481; 6399.300;51180.000; -836.000
294.619;  -29.550; -425.000; -582.000
294.758; -153.225;-1230.000;-1137.000
294.896;    5.400; -125.000;    5.000
295.035; -128.475;-1040.000;-1006.000
295.174; -131.050;-1082.000; -954.000
295.312;  -41.500; -323.000; -203.000
295.451;  -59.475; -307.000; -428.000
295.589;  -69.400; -389.000; -518.000
295.728;   -5.050; -292.000; -165.000
295.866;  -21.375;  -36.000;  -51.000
296.005;  -61.575; -584.000; -341.000
296.143;  -94.200; -558.000; -596.000
296.282;  -93.575; -957.000; -881.000
296.420;  -89.175; -657.000; -557.000
296.559; -101.500; -892.000; -633.000
296.697;  -74.100; -847.000; -665.000
296.835; -104.450;-1141.000;-1002.000
296.974;   20.500;  -23.000;   39.000
297.112;  -48.000; -443.000; -504.000
297.251; -103.475; -815.000; -755.000
297.389;  -41.225; -576.000; -438.000
297.527;   -9.400; -145.000;  -83.000
297.666;  -73.225; -486.000; -438.000
297.804;  -62.200; -404.000; -264.000
297.942;   -4.450; -136.000; -161.000
298.081;  -21.975; -183.000;   63.000
298.219;   20.575;  -17.000;  -19.000
298.357;    2.650; -144.000;  -71.000
298.495;  -72.400; -810.000; -812.000
298.634;   17.650;  245.000;  219.000
298.772;  -36.300; -220.000; -338.000
298.910;  -45.350; -309.000; -182.000
299.048;  -18.275; -130.000; -153.000
299.187;  -37.450; -350.000; -250.000
299.325;   -5.250;   52.000;  122.000
299.463;  -44.400; -389.000; -299.000
299.601;  -25.300; -327.000; -271.000
299.739; -125.025; -908.000; -883.000
299.877;  -86.275; -791.000; -703.000
300.016; -103.450;-1095.000; -935.000
300.154;   28.150;  -19.000; -161.000
300.292;  -46.325; -428.000; -348.000
300.430;  -31.025; -408.000; -291.000
300.568; -129.100; -940.000; -874.000
300.706;  -69.750; -366.000; -469.000
300.844; -131.225;-1108.000; -979.000
300.982;   55.000;  246.000;  282.000
301.120; -128.050; -965.000; -866.000
301.258; -102.225; -812.000; -705.000
301.396;  -15.350;  104.000;  -41.000
301.534;  -38.125; -218.000; -293.000
301.672;  -87.575; -664.000; -521.000
301.810;  -64.850; -613.000; -545.000
301.948;    4.050;   53.000;  149.000
302.086;  176.375; -250.000;  -32.000
302.224;  204.500; -610.000; -585.000
302.362;  -59.700; -558.000; -622.000
302.500; -108.275; -923.000; -893.000
302.638;   20.350;  128.000;  245.000
302.776;  -45.175; -352.000; -408.000
302.913;   18.125;  447.000;  236.000
303.051;  -31.450;  -86.000;  -23.000
303.189;    5.575;   90.000;  118.000
303.327;  -52.100; -341.000; -256.000
303.465;  -83.575; -832.000; -588.000
303.603; -100.100; -805.000; -604.000
303.740;   40.375;  417.000;  241.000
303.878;  -77.250; -800.000; -759.000
304.016; -125.700; -915.000; -790.000
304.154; -158.850;-1123.000;-1152.000
304.291;  -67.750; -505.000; -554.000
304.429;    3.500;  102.000;   74.000
304.567; -134.975; -908.000; -893.000
304.705;  -75.500; -408.000; -515.000
304.842;  -48.400; -616.000; -540.000
304.980;   18.475;  215.000;   35.000
305.118;  -34.650; -367.000; -365.000
305.255; -121.550; -945.000; -927.000
305.393;   22.000;  178.000;  239.000
305.531; -132.550;-1173.000; -956.000
305.668;  -92.750; -663.000; -582.000
305.806;    0.325; -358.000; -439.000
305.943;  -26.050; -629.000; -637.000
306.081;  -15.550; -378.000; -267.000
306.219; -111.500; -863.000; -748.000
306.356;    9.325;  158.000;   27.000
306.494;  103.075;  981.000;  761.000
306.631;   -9.425;  -11.000;  -55.000
306.769;  -34.725; -613.000; -485.000
306.906;  -42.675; -284.000; -258.000
307.044;  -55.450; -473.000; -488.000
307.181;  -61.825; -410.000; -332.000
307.319;    4.050;  112.000;   87.000
307.456; -162.550;-1191.000;-1153.000
307.594; -113.675; -980.000; -727.000
307.731;  -30.800; -371.000; -164.000
307.868;  -17.100;  -15.000;   20.000
308.006; -138.050; -961.000; -847.000
308.143;  -78.750; -618.000; -330.000
308.281;   35.550;  -37.000; -254.000
308.418;  -69.275; -748.000; -640.000
308.555;  -69.400; -400.000; -250.000
308.693;  -73.450; -577.000; -573.000
308.830;  -96.425; -712.000; -657.000
308.967;  -14.250; -215.000;  -95.000
309.105;  -60.100; -507.000; -396.000
309.242;  -10.275; -468.000; -367.000
309.379;   26.825; -577.000; -655.000
309.517; -110.625; -936.000; -948.000
309.654; -103.275; -910.000; -734.000
309.791;  -61.500; -662.000; -580.000
309.928; -121.200; -977.000; -914.000
310.065;  113.275;  819.000;  697.000
310.203;  -79.550; -825.000; -850.000
310.340;  -42.675; -465.000; -321.000
310.477;  -79.700; -412.000; -516.000
310.614;  -57.750; -383.000; -473.000
310.751;  -62.300; -427.000; -518.000
310.889;  -20.850;    1.000;   11.000
311.026; -144.725;-1161.000; -939.000
311.163;  -56.250; -386.000; -380.000
311.300;  -75.400; -512.000; -479.000
311.437;  -72.075; -658.000; -619.000
311.574; -149.900;-1226.000; -985.000
311.711;  -70.050; -595.000; -433.000
311.848;  -46.000; -380.000; -388.000
311.985;    5.650;  270.000;   93.000
312.122; -124.900; -932.000; -762.000
312.259; -126.150; -941.000; -994.000
312.396;  -79.925; -508.000; -551.000
312.533;  -88.825; -812.000; -790.000
312.670; -136.200;-1070.000; -898.000
312.807;  -44.075; -352.000; -367.000
312.944;  -85.775; -513.000; -611.000
313.081;  -24.700; -150.000; -415.000
313.218;  -99.550;-1111.000; -867.000
313.355;  -24.275; -531.000; -449.000
313.492;  -20.825; -455.000; -292.000
313.629;  109.650;  815.000;  735.000
313.766; -141.925;-1176.000;-1008.000
313.902;  -14.150; -186.000;   21.000
314.039;  -51.375; -372.000; -289.000
314.176;   23.050;  286.000;  192.000
314.313;  -63.650; -569.000; -473.000
314.450;  -91.100; -788.000; -684.000
314.587;  -72.400; -468.000; -480.000
314.723;  -12.300;  -78.000;  130.000
314.860;   26.925;  318.000;  332.000
314.997;   21.750;  223.000;  142.000
315.134;  -33.700; -385.000; -368.000
315.270;  -35.200; -480.000; -496.000
315.407; -129.775;-1094.000; -967.000
315.544;  -53.125; -657.000; -538.000
315.681;  -54.050; -681.000; -565.000
315.817;   32.500; -133.000; -176.000
315.954;   28.400; -613.000; -392.000
316.091; -120.600;-1045.000;-1023.000
316.227;  -31.375;  -71.000; -179.000
316.364;  -15.600;   23.000;    6.000
316.500;  -41.925; -113.000; -300.000
316.637;  -46.700; -181.000; -302.000
316.774;  -94.600; -625.000; -358.000
316.910;  -87.875; -598.000; -629.000
317.047;  -74.525; -487.000; -351.000
317.183;  -67.475; -435.000; -566.000
317.320;   36.450; -367.000; -321.000
317.456;  -37.575; -733.000; -805.000
317.593;  -94.950; -598.000; -641.000
317.729;   -5.500;  168.000;  -67.000
317.866; -201.875;-1434.000;-1285.000
318.002;  -95.300; -708.000; -948.000
318.139; -117.300; -883.000; -867.000
318.275; -116.075;-1003.000; -738.000
318.412;  -75.725; -517.000; -336.000
318.548;  -78.325; -751.000; -720.000
318.685; -112.900; -985.000; -888.000
318.821;  -88.275; -762.000; -735.000
318.957;  -21.175;   34.000;  -23.000
319.094;   31.450;  297.000;  154.000
319.230;  -90.425; -756.000; -742.000
319.367;  -21.500; -471.000; -520.000
319.503;  -26.325; -538.000; -436.000
319.639; -113.175; -877.000; -793.000
319.775;  -92.700; -750.000; -685.000
319.912;  -74.050; -424.000; -519.000
320.048; -102.025;-1184.000;-1184.000
320.184;   79.625;   59.000;   70.000
320.321;  -58.875; -497.000; -467.000
320.457;   69.850;  475.000;  662.000
320.593;  -55.525; -375.000; -382.000
320.729; -120.800; -732.000; -734.000
320.866;  -77.400; -577.000; -635.000
321.002; -103.300; -759.000; -809.000
321.138;  -27.000; -135.000; -211.000
321.274;    4.550; -148.000; -115.000
321.410;  -55.525; -585.000; -353.000
321.546; -104.425;-1011.000; -911.000
321.683;   18.875;  400.000;  185.000
321.819;  -22.400;  -48.000; -117.000
321.955; -115.900; -743.000; -722.000
322.091;  -81.700; -585.000; -540.000
322.227;  -43.000; -382.000; -202.000
322.363;  -55.125; -320.000; -215.000
322.499;  -73.825; -343.000; -331.000
322.635;   88.800;  636.000;  443.000
322.771;  -14.050; -139.000;   12.000
322.907;   40.875;  129.000;  327.000
323.043;  -39.850; -115.000; -206.000
323.179;  -64.075; -394.000; -363.000
323.315;  -45.575; -401.000; -371.000
323.451;   12.525; -328.000; -236.000
323.587;   57.100;  -60.000;  -77.000
323.723;  -65.125; -682.000; -601.000
323.859;  -37.700; -258.000;  -76.000
323.995;  -57.525; -467.000; -409.000
324.131; -126.000; -967.000; -892.000
324.267;  -54.300; -254.000; -276.000
324.402; -133.475; -960.000; -983.000
324.538;  -45.675; -279.000; -104.000
324.674;   -9.625;  164.000;   77.000
324.810;   31.775;  226.000;  308.000
324.946;  -53.225; -810.000; -658.000
325.082;  -78.575; -568.000; -475.000
325.217;  -14.700;  -62.000;   16.000
325.353; -124.125; -764.000; -659.000
325.489;  -85.225; -540.000; -506.000
325.625;  -88.100; -579.000; -525.000
325.760;   81.825;  517.000;  376.000
325.896;   16.650; -515.000; -702.000
326.032;  -57.350; -403.000; -352.000
326.168;  -70.575; -462.000; -369.000
326.303;  -63.400; -352.000; -461.000
326.439;  -13.525; -336.000; -276.000
326.575;  -14.425; -190.000;  -29.000
326.710;  -19.700; -156.000;  -30.000
326.846;  -23.225;  146.000;  103.000
326.982;  -94.375; -530.000; -548.000
327.117;  -68.825; -481.000; -442.000
327.253;  -83.300; -745.000; -742.000
327.388; -127.800;-1137.000;-1153.000
327.524;  -95.425; -811.000; -578.000
327.659;  -21.775;  -58.000;  -22.000
327.795;  -22.000;   69.000;   45.000
327.931;  -78.150; -723.000; -499.000
328.066;  -35.250; -417.000; -276.000
328.202;  -24.175;   12.000; -129.000
328.337;   86.500;  957.000;  713.000
328.473;   24.700;  -12.000;  -74.000
328.608;  -27.000; -256.000; -267.000
328.743; -109.400; -799.000; -664.000
328.879;   -0.725;  214.000;  114.000
329.014;  -36.400; -102.000; -122.000
329.150;  -83.100; -358.000; -483.000
329.285;  -91.300; -465.000; -466.000
329.421;  -65.775; -548.000; -246.000
329.556;  -32.850;  -36.000;   85.000
329.691; -105.950; -633.000; -615.000
329.827;  -87.500; -626.000; -480.000
329.962;  -51.350;  131.000; -301.000
330.097;  -78.075; -673.000; -585.000
330.233;  -65.825; -410.000; -223.000
330.368; -129.375; -839.000; -628.000
330.503;  -23.100;    3.000;   98.000
330.638;   -9.325;  -93.000; -125.000
330.774;  -85.000; -609.000; -530.000
330.909;  -55.475; -434.000; -244.000
331.044;  -88.525; -714.000; -708.000
331.179; -168.275;-1217.000;-1109.000
331.315;   -4.050;   77.000;   20.000
331.450;    0.350;  157.000;  285.000
331.585;  -95.275; -805.000; -706.000
331.720;  -79.500; -510.000; -460.000
331.855;   -7.375;  -35.000; -102.000
331.990;  401.700;   62.000;  138.000
332.126;  213.300; -110.000;   71.000
332.261;   -0.225; -379.000; -265.000
332.396;   16.275; -135.000; -242.000
332.531;  -60.750;-1074.000;-1031.000
332.666;  102.500; -519.000; -363.000
332.801;  -93.275; -726.000; -807.000
332.936;  -26.350; -192.000; -122.000
333.071; -122.425; -870.000; -817.000
333.206;   -0.125;  307.000;  379.000
333.341;   27.825;  344.000;  418.000
333.476;  -91.975; -627.000; -623.000
333.611;  -41.850; -251.000; -173.000
333.746;  -55.975; -381.000; -464.000
333.881; -123.075; -973.000; -935.000
334.016; -120.950; -936.000; -917.000
334.151; -129.375; -746.000; -702.000
334.286;    3.825;  152.000;  186.000
334.421;  -21.275; -125.000; -178.000
334.556;  -88.400; -611.000; -567.000
334.690;  -94.050; -631.000; -577.000
334.825;   53.125;  381.000;   83.000
334.960;  -69.725; -285.000; -413.000
335.095;   -1.050;  135.000;  -91.000
335.230;  -97.600; -722.000; -738.000
335.365; -130.425;-1084.000; -990.000
335.499; -134.050;-1108.000;-1037.000
335.634;   13.175;    9.000;  534.000
335.769;  -87.550; -755.000; -720.000
335.904;  -55.800; -603.000; -561.000
336.038;  -50.625; -735.000; -657.000
336.173; -114.250;-1206.000;-1194.000
336.308;    4.075; -116.000; -189.000
336.443;   53.800; -544.000; -634.000
336.577;  -50.625; -936.000; -787.000
336.712;   69.150;   -4.000;  -12.000
336.847;  -24.400; -724.000; -607.000
336.981;   44.600; -272.000; -208.000
337.116;  297.450;  615.000;  501.000
337.250;  108.550; -434.000; -421.000
337.385;  472.875; -297.000; -208.000
337.520;  236.925; -632.000; -603.000
337.654;  -29.675; -215.000; -126.000
337.789; -120.700; -989.000; -933.000
337.923;  -36.025; -104.000; -205.000
338.058; -106.550; -673.000; -738.000
338.192;  -35.475; -611.000; -488.000
338.327;  -17.150;  -18.000; -155.000
338.461;  -69.700; -299.000; -469.000
338.596; -103.775; -780.000; -638.000
338.730;  -92.525; -767.000; -803.000
338.865;  163.600;  -46.000; -140.000
338.999;   11.500; -846.000; -702.000
339.134;   -1.950; -634.000; -536.000
339.268;   45.025; -741.000; -603.000
339.403;  572.125; -740.000; -775.000
339.537;  281.425; -894.000; -820.000
339.671; -106.475; -829.000; -813.000
339.806;  -31.450; -556.000; -512.000
339.940;   36.725; -261.000; -235.000
340.074;  -97.250; -685.000; -510.000
340.209;  -54.050; -351.000; -230.000
340.343;  -99.825; -517.000; -573.000
340.477;  124.925;  998.000; 1036.000
340.612;    8.675;-1033.000; -900.000
340.746;  249.775; -199.000; -243.000
340.880;  -97.700; -924.000; -785.000
341.014;  -29.175;  -45.000; -154.000
341.149; -122.475; -756.000; -718.000
341.283; -110.775; -839.000; -754.000
341.417; -134.850;-1124.000; -938.000
341.551;  -34.250; -768.000; -708.000
341.685;  -70.575; -633.000; -611.000
341.820;  -64.900; -562.000; -493.000
341.954;  -59.725; -218.000; -349.000
342.088; -147.275;-1102.000;-1019.000
342.222;   45.225;  565.000;  618.000
342.356;  -85.675; -395.000; -335.000
342.490; -114.175; -880.000; -841.000
342.624;  -58.500; -339.000; -242.000
342.758;  -53.625; -364.000; -312.000
342.892;  -96.050; -710.000; -585.000
343.026;  -47.925;  -58.000; -116.000
343.160;  -66.750; -426.000; -376.000
343.294;  -81.050; -474.000; -337.000
343.428;  -86.075; -488.000; -448.000
343.562;  -42.575; -172.000;  -23.000
343.696;  -52.850; -385.000; -314.000
343.830;  -64.225; -362.000; -356.000
343.964;  -24.750; -231.000; -168.000
344.098;  268.600;  199.000;   70.000
344.232;  229.575; -266.000; -127.000
344.366;   72.475; -567.000; -453.000
344.500;  -58.075; -665.000; -744.000
344.634;  -45.900; -324.000; -164.000
344.768;  -67.050; -531.000; -341.000
344.902;   -3.175;  278.000;  256.000
345.035;  -96.950; -556.000; -496.000
345.169; -146.875; -933.000; -656.000
345.303;  -67.100; -308.000; -482.000
345.437; -106.250; -826.000; -717.000
345.571;  -71.125; -675.000; -594.000
345.704;  -73.750; -309.000; -532.000
345.838;  -25.275; -331.000; -284.000
345.972;  -68.925; -543.000; -495.000
346.106;  234.675; -179.000; -190.000
346.239;  477.200; -312.000; -243.000
346.373;  -21.250; -343.000; -302.000
346.507; -135.525; -950.000; -962.000
346.640;    9.700;  -30.000;   13.000
346.774;  -86.900; -650.000; -797.000
346.908;  -31.925; -138.000;  -11.000
347.041; -107.500; -646.000; -593.000
347.175;   -6.200;  259.000;   27.000
347.309; -102.725; -698.000; -628.000
347.442; -130.025; -883.000; -732.000
347.576;  119.075;  670.000;  668.000
347.709;   27.975; -123.000;  -52.000
347.843; -124.050; -933.000; -825.000
347.976;   22.100;  235.000;  294.000
348.110; -176.575;-1268.000;-1186.000
348.243; -105.975; -679.000; -772.000
348.377;   -3.850;  -26.000;   60.000
348.510;   27.450;  403.000;  540.000
348.644;  -52.450;  -37.000; -159.000
348.777;  -15.575;  180.000;  191.000
348.911;  -62.100; -142.000; -112.000
349.044;   59.625;  471.000;  448.000
349.178;  -37.425;-1069.000;-1006.000
349.311;   90.475;  141.000;  255.000
349.444;   20.750; -927.000; -813.000
349.578;  -33.350; -347.000; -200.000
349.711; -117.600; -959.000; -862.000
349.845;  -73.450; -661.000; -591.000
349.978; -172.850;-1224.000;-1137.000
350.111; -104.250; -546.000; -612.000
350.244; -104.050; -596.000; -700.000
350.378;  -66.625; -392.000; -393.000
350.511;  -81.125; -393.000; -426.000
350.644; -114.050; -808.000; -806.000
350.778;    5.925;  168.000;  104.000
350.911;   -7.325;  134.000;  140.000
351.044;  -97.750; -685.000; -615.000
351.177;  -51.075; -321.000; -281.000
351.310;  -24.000;    3.000; -131.000
351.444; -116.025; -888.000; -788.000
351.577;   24.975;  140.000;   90.000
351.710;   60.125;  593.000;  417.000
351.843;  -44.550; -165.000;  -77.000
351.976;  -23.825;  149.000;  -79.000
352.109;  -98.050; -621.000; -612.000
352.242;  -72.375; -464.000; -419.000
352.376;  -86.475; -580.000; -636.000
352.509;    6.075; -437.000; -356.000
352.642; -100.275; -654.000; -604.000
352.775;   -5.650; -141.000;  -98.000
352.908; -128.150; -933.000; -904.000
353.041; -102.850; -814.000; -824.000
353.174;  -67.900; -551.000; -424.000
353.307; -101.225; -753.000; -764.000
353.440;   58.675;  541.000;  453.000
353.573; -105.300; -957.000;-1008.000
353.706;  -59.750; -384.000; -558.000
353.839;  -31.450; -264.000; -220.000
353.971;  -92.200; -657.000; -512.000
354.104; -121.500; -896.000; -835.000
354.237;  -93.225; -627.000; -662.000
354.370; -107.575; -846.000; -879.000
354.503; -177.150;-1231.000;-1308.000
354.636;  -37.525; -529.000; -348.000
354.769; -131.875; -937.000; -860.000
354.902;  -32.950; -230.000; -139.000
355.034;  -28.575; -164.000; -220.000
355.167;  -22.475; -262.000; -162.000
355.300;  -75.750;-1061.000; -880.000
355.433; 1410.125;  -71.000;  -14.000
355.565; 2206.200; -402.000; -384.000
355.698;  576.875; -356.000; -296.000
355.831;  -11.825; -882.000; -801.000
355.964;   11.325; -285.000; -170.000
356.096;  -74.000; -856.000; -843.000
356.229;  -11.075; -523.000; -530.000
356.362;  493.425; -373.000; -266.000
356.494;  894.700; -229.000; -162.000
356.627;  327.325;  269.000;  377.000
356.760;  869.375;  120.000;   53.000
356.892; 1492.800; -286.000; -601.000
357.025;  308.300;  403.000;  389.000
357.157;  210.825; -167.000; -179.000
357.290; 1238.575; -856.000; -713.000
357.423;  363.100; -667.000; -556.000
357.555;   82.950; -217.000; -228.000
357.688;  123.150; -483.000; -364.000
357.820;  143.700; -870.000; -877.000
357.953; 1430.100; -563.000; -589.000
358.085;  204.400; -632.000; -612.000
358.218;   83.400;-1131.000; -932.000
358.350;   36.700;  -58.000;  312.000
358.483; -163.975;-1300.000;-1187.000
358.615; -131.775;-1182.000;-1078.000
358.747; -152.300;-1187.000;-1058.000
358.880;  -67.725; -810.000; -744.000
359.012;  -38.625; -376.000; -202.000
359.145;  -67.350; -480.000; -511.000
359.277;  -72.150; -962.000; -913.000
359.409; 1200.650;  536.000;  231.000
359.542;  240.300; -738.000; -688.000
359.674;   21.900;   46.000;   13.000
359.806;  -69.650; -565.000; -438.000
359.939;  -35.925; -617.000; -516.000
360.071;   20.050; -583.000; -579.000
360.203;  -28.575; -411.000; -364.000
360.335;   24.700;  164.000;  -16.000
360.468;   73.275; -249.000; -307.000
360.600; 1264.275; -547.000; -454.000
360.732; 4227.400; -546.000; -423.000
360.864;  652.150;-1216.000;-1044.000
360.996;   60.100; -516.000; -554.000
361.129;  -49.700; -389.000; -598.000
361.261;   -1.900;  110.000; -113.000
361.393;  -57.125; -252.000; -214.000
361.525;   -8.475;   94.000;  244.000
361.657; -119.350; -821.000; -703.000
361.789;  -28.550; -139.000; -155.000
361.921;  -60.550; -642.000; -593.000
362.053;   78.600;  524.000;  541.000
362.185;   -3.275;  288.000;   72.000
362.318; -120.825; -709.000; -705.000
362.450;   34.200;  294.000;  444.000
362.582;  -98.900; -913.000; -870.000
362.714;  -72.200; -353.000; -332.000
362.846;  -86.275; -606.000; -490.000
362.978; -137.650; -941.000; -811.000
363.109;  -28.225; -161.000; -260.000
363.241;  143.725; -739.000; -749.000
363.373;  615.725; -649.000; -564.000
363.505; 1027.200; -186.000;  -91.000
363.637;  229.800; -787.000; -601.000
363.769; -134.275;-1067.000;-1080.000
363.901;  -86.575; -596.000; -654.000
364.033; -150.000;-1103.000;-1062.000
364.165;  -49.100; -283.000; -283.000
364.296;   95.475; -316.000; -177.000
364.428;  182.525;-1344.000;-1220.000
364.560;  -72.900; -679.000; -661.000
364.692;  -81.125; -738.000; -835.000
364.824;  -11.725; -588.000; -456.000
364.955;  506.150; -402.000; -564.000
365.087; 1724.225;-1097.000; -852.000
365.219;  108.775; -686.000; -816.000
365.351;  -71.950; -526.000; -572.000
365.482;   12.025;  300.000;  240.000
365.614;  -51.325; -402.000; -314.000
365.746; -101.875; -729.000; -752.000
365.877;  -93.900; -706.000; -672.000
366.009;  422.525;  -35.000;  -62.000
366.141;  -27.950;-1249.000;-1134.000
366.272; -108.725; -803.000; -719.000
366.404; -118.175;-1005.000; -874.000
366.535;   -5.475; -139.000;  -12.000
366.667;  -93.500; -644.000; -649.000
366.799;   17.825;  353.000;  203.000
366.930; -143.250; -862.000; -996.000
367.062;  187.925; -639.000; -613.000
367.193;  347.300; -872.000; -842.000
367.325;  -42.475; -580.000; -684.000
367.456;  -10.000; -246.000;   31.000
367.588;  251.600; -371.000; -318.000
367.719;   30.850;  -44.000;  -45.000
367.851;  -48.200; -222.000; -241.000
367.982; -119.650; -875.000; -732.000
368.113;  -17.250; -475.000; -358.000
368.245; -140.850; -960.000; -841.000
368.376;  -61.650; -254.000; -302.000
368.508;  -60.450; -188.000; -263.000
368.639; -155.375;-1166.000;-1034.000
368.770;  -93.825; -670.000; -589.000
368.902; -112.300; -836.000; -926.000
369.033; -129.825; -906.000; -855.000
369.164;  -38.775; -720.000; -653.000
369.296; -107.300; -452.000; -601.000
369.427;  -34.625; -209.000; -144.000
369.558;  -97.975; -593.000; -377.000
369.689; -100.400; -721.000; -569.000
369.821; -148.925; -951.000; -845.000
369.952;  -37.875;   42.000; -108.000
370.083;  -56.625; -229.000; -108.000
370.214; -100.275; -735.000; -650.000
370.345;  -26.025;   65.000;   81.000
370.477; -127.650; -810.000; -790.000
370.608;   21.725; -328.000; -264.000
370.739; -133.550;-1233.000;-1292.000
370.870; -119.300;-1102.000; -923.000
371.001;  -26.650; -378.000; -467.000
371.132;  -95.800; -754.000; -735.000
371.263;  -33.500;  -42.000; -148.000
371.394; -147.300; -841.000; -748.000
371.525;    2.525;  345.000;  225.000
371.657; -113.525; -808.000; -670.000
371.788;   20.900;  103.000;  199.000
371.919;    5.100; -384.000; -304.000
372.050; 1170.800;  -91.000; -156.000
372.181;  348.550; -188.000; -294.000
372.311;   81.450;   42.000; -127.000
372.442;  -57.800; -457.000; -451.000
372.573;  -53.500; -444.000; -340.000
372.704; -149.000;-1008.000; -980.000
372.835;  -35.500; -228.000; -289.000
372.966;  -89.925; -646.000; -554.000
373.097;  -98.550; -575.000; -711.000
373.228; -104.350; -717.000; -542.000
373.359;  -55.725; -824.000; -536.000
373.490;  140.950; -881.000; -727.000
373.620;  223.725;-1001.000; -803.000
373.751;  468.600; -332.000; -396.000
373.882;  171.175; -663.000; -733.000
374.013;  -29.150; -449.000; -262.000
374.143;  -80.850; -581.000; -659.000
374.274; -128.400; -987.000; -908.000
374.405;   38.825; -388.000; -276.000
374.536;  109.625; -526.000; -387.000
374.666;  250.850; -759.000; -807.000
374.797;  -12.925; -817.000; -868.000
374.928;  152.925; -710.000; -560.000
375.058;  160.850; -535.000; -500.000
375.189;   -0.150;  -59.000;  -93.000
375.320; -133.000; -928.000;-1034.000
375.450;  -65.200; -625.000; -616.000
375.581;  -45.600; -526.000; -436.000
375.712;  -65.900; -574.000; -250.000
375.842;   -8.475; -438.000; -415.000
375.973;  -28.800; -554.000; -513.000
376.103; -105.150; -665.000; -648.000
376.234; -106.700; -531.000; -552.000
376.364; -126.550; -944.000; -867.000
376.495;  135.175;  925.000;  529.000
376.625;  -61.875; -472.000; -485.000
376.756;  -77.975; -709.000; -678.000
376.886; -131.775;-1178.000;-1026.000
377.017;  135.150;-1048.000;-1061.000
377.147;  650.575; -786.000; -782.000
377.278;   75.875;  174.000;  228.000
377.408; -120.925; -801.000; -815.000
377.538;  -98.850; -707.000; -693.000
377.669;  -96.600; -537.000; -613.000
377.799; -107.700; -645.000; -635.000
377.929;  -89.600; -610.000; -428.000
378.060; -136.625; -781.000; -847.000
378.190;  -55.525; -726.000; -531.000
378.320;  -56.350; -401.000; -406.000
378.451;  -22.200; -131.000;  -22.000
378.581;  -24.350;  -67.000; -110.000
378.711;   94.825; 1035.000;  866.000
378.841;  -74.150; -533.000; -675.000
378.972; -112.950; -871.000; -751.000
379.102;  -73.925; -652.000; -579.000
379.232;  -40.950; -126.000;  -73.000
379.362; -140.175;-1001.000; -885.000
379.492;  -73.875; -373.000; -424.000
379.623;   28.425;    0.000;  111.000
379.753; -106.150;-1107.000; -974.000
379.883;   64.025;   59.000;  156.000
380.013;  -98.600;-1081.000;-1017.000
380.143; -136.850;-1097.000;-1056.000
380.273; -113.925; -985.000; -861.000
380.403;   10.825; -344.000; -257.000
380.533;  -50.875; -651.000; -664.000
380.663;    8.175;  173.000;  128.000
380.793; -146.400;-1027.000;-1074.000
380.923;  -39.725; -103.000;  -34.000
381.053; -112.725; -613.000; -623.000
381.183;  -52.350; -106.000; -248.000
381.313;  -72.325; -656.000; -470.000
381.443;  -59.325; -692.000; -473.000
381.573;  -54.425; -402.000; -409.000
381.703; -101.700;-1249.000;-1095.000
381.833; -180.750;-1454.000;-1336.000
381.963;   18.550; -134.000;  -87.000
382.093;  362.200; -925.000; -909.000
382.223;   79.925; -713.000; -602.000
382.353;  -87.650; -801.000; -608.000
382.482;  -18.125;-1091.000; -964.000
382.612;  155.725; -872.000; -644.000
382.742;   67.600; -695.000; -622.000
382.872;  -26.675; -565.000; -551.000
383.002;   17.450;  347.000; -132.000
383.131;  -30.500; -226.000; -160.000
383.261;  -50.875; -706.000; -768.000
383.391;  315.225; -552.000; -377.000
383.521; 5051.500;  451.000;  263.000
383.650; 1499.075; -947.000; -904.000
383.780;   28.250; -783.000; -656.000
383.910;   82.800;  880.000;  802.000
384.039; -103.800; -794.000; -656.000
384.169; -100.800;-1205.000;-1017.000
384.299;  -98.150; -650.000; -662.000
384.428; -126.025; -764.000; -680.000
384.558;  -69.175; -308.000; -275.000
384.687;  -78.475; -414.000; -334.000
384.817;  -34.275;   75.000;   -2.000
384.947;  -47.000; -234.000; -141.000
385.076;  149.225;  982.000;  912.000
385.206;   40.600;  369.000;  480.000
385.335;  -89.125; -549.000; -417.000
385.465; -118.700; -655.000; -663.000
385.594;   18.550;  -53.000;  -44.000
385.724;    5.100; -868.000; -838.000
385.853;  -17.275; -296.000; -270.000
385.982;  318.100; -743.000; -787.000
386.112;  602.100;-1052.000; -871.000
386.241;   -3.425; -307.000; -312.000
386.371;  -44.550; -174.000;  -87.000
386.500;  -68.250; -825.000; -789.000
386.629;  -16.625; -874.000; -817.000
386.759;   57.950;  -43.000;   68.000
386.888;  -38.925; -170.000; -250.000
387.017; -107.350; -648.000; -620.000
387.147; -124.250; -771.000; -798.000
387.276;  -63.525; -410.000; -397.000
387.405;  -46.175; -398.000; -342.000
387.535;  -72.725; -452.000; -361.000
387.664;  -78.000; -692.000; -620.000
387.793;  -29.125; -198.000; -113.000
387.922;  139.050;  255.000;  200.000
388.052;  -70.375; -576.000; -423.000
388.181;  -73.925; -342.000; -472.000
388.310; -117.625; -889.000; -710.000
388.439; -102.800; -749.000; -742.000
388.568;   27.975;  365.000;  244.000
388.697;  224.225; -756.000; -653.000
388.826;  -16.700; -768.000; -666.000
388.956;  -38.750; -285.000; -307.000
389.085;  -61.300; -347.000; -287.000
389.214; -130.150; -842.000; -872.000
389.343;  -74.400; -645.000; -413.000
389.472;  559.350;  126.000;  149.000
389.601;  602.100;   91.000;    0.000
389.730;  -38.875; -568.000; -687.000
389.859;   25.675;  226.000;   46.000
389.988;    7.250; -423.000; -408.000
390.117;   31.300; -168.000; -146.000
390.246;  -63.275; -331.000; -320.000
390.375;  -66.725; -673.000; -626.000
390.504; -107.225; -703.000; -621.000
390.633; -129.850; -672.000; -726.000
390.761; -115.725; -732.000; -645.000
390.890;  -39.225;   -4.000; -130.000
391.019;  -78.750; -421.000; -441.000
391.148; -131.825; -826.000; -855.000
391.277;  -96.175; -576.000; -493.000
391.406; -125.850; -821.000; -805.000
391.534;   -2.150;  574.000; -301.000
391.663; -103.900; -583.000; -645.000
391.792; -109.675; -673.000; -701.000
391.921;  -10.575;   -3.000;   15.000
392.050;  -20.400; -287.000; -228.000
392.178; -147.150;-1206.000;-1061.000
392.307;  -46.100; -758.000; -712.000
392.436;  -40.700; -427.000; -641.000
392.564;  -10.325;  166.000;   -6.000
392.693; -110.775; -860.000; -682.000
392.822;   -3.100; -529.000; -534.000
392.950;  -58.625; -880.000; -714.000
393.079;   40.700; -188.000; -328.000
393.208;  -56.325; -488.000; -511.000
393.336;  -26.075; -170.000; -145.000
393.465;  -69.775; -317.000; -199.000
393.593;   -5.950;   62.000;   79.000
393.722; -153.800;-1121.000; -916.000
393.850;  -38.800; -188.000;  -61.000
393.979; -139.900; -926.000; -805.000
394.107;  -69.400; -517.000; -537.000
394.236;  -74.800; -570.000; -507.000
394.364;   98.575;  383.000;  206.000
394.493;   47.325; -911.000; -767.000
394.621;   -3.425; -955.000; -916.000
394.750; 1152.475; -873.000; -923.000
394.878; 4376.600; -247.000; -149.000
395.007; 6297.425; -721.000; -807.000
395.135;  549.325; -790.000; -721.000
395.263;  -62.000;-1038.000;-1040.000
395.392;   -3.725;  -25.000; -107.000
395.520; -130.725; -818.000; -679.000
395.648; -114.850; -865.000; -915.000
395.777;  -86.050; -366.000; -405.000
395.905;  -84.675; -449.000; -564.000
396.033;  -27.625;  217.000;  172.000
396.162;  106.350; -399.000; -453.000
396.290;  100.975;  -17.000;   -2.000
396.418;  -59.325; -555.000; -514.000
396.546; -115.775; -571.000; -466.000
396.674; -125.275; -850.000; -878.000
396.803;  -27.450;  -72.000;  -23.000
396.931;  -38.500; -179.000; -199.000
397.059; -132.550;-1026.000; -989.000
397.187; -145.075;-1026.000; -975.000
397.315; -143.825; -884.000; -649.000
397.443; -110.025; -592.000; -443.000
397.572;  -87.450; -578.000; -424.000
397.700; -105.625; -607.000; -614.000
397.828;  -55.450;  120.000;  -90.000
397.956;  -29.950; -508.000; -478.000
398.084;  -25.600; -767.000; -626.000
398.212;  -11.950;  137.000;  124.000
398.340;  -20.450;  -56.000;  159.000
398.468;  -58.100; -390.000; -169.000
398.596; -144.275; -993.000; -953.000
398.724; -125.050; -762.000; -767.000
398.852; -166.425;-1024.000; -976.000
398.980;  -86.800; -560.000; -560.000
399.108; -109.800; -982.000; -735.000
399.236;   -5.700;   13.000;    8.000
399.363;    2.575;  222.000;  196.000
399.491;  -77.650; -404.000; -398.000
399.619; -127.525; -829.000; -800.000
399.747; -136.475; -859.000; -771.000
399.875;   35.225;  220.000;  234.000
400.003;  -71.425; -359.000; -284.000
400.130;  -90.625; -421.000; -341.000
400.258;  -45.075;  -83.000;   38.000
400.386;  -63.775; -352.000; -168.000
400.514;  -91.250; -526.000; -587.000
400.641; -138.725; -928.000; -802.000
400.769; -148.900; -979.000; -888.000
400.897; -126.425; -838.000; -793.000
401.025;  -52.650; -166.000; -152.000
401.152;  -10.200;  220.000;   38.000
401.280;  -75.700; -430.000; -429.000
401.408; -115.125; -712.000; -576.000
401.535; -112.100; -735.000; -758.000
401.663; -189.575;-1134.000;-1054.000
401.790; -106.975; -514.000; -525.000
401.918;    4.350;  436.000;  405.000
402.046;  -20.975;  134.000;  122.000
402.173;  -57.725;  -18.000;    7.000
402.301;  -91.300; -519.000; -397.000
402.428;   21.275;  528.000;  383.000
402.556; -149.250;-1188.000; -913.000
402.683;  -35.625;  -20.000;   -1.000
402.811;  -33.950;  -37.000; -206.000
402.938;  -11.750;   20.000;   27.000
403.066;   -5.000; -574.000; -558.000
403.193;   98.300;  299.000;  239.000
403.321;   23.325; -396.000; -574.000
403.448;  104.550;   83.000;   27.000
403.575;   20.825;  -90.000;  -46.000
403.703; -102.975; -732.000; -557.000
403.830;  -70.225; -531.000; -496.000
403.957; -138.950;-1117.000;-1023.000
404.085;   13.875;  -61.000; -172.000
404.212;   97.475;  -50.000;   63.000
404.339;  404.550; -566.000; -306.000
404.467; 8814.375; -612.000; -524.000
404.594; 5311.550; -287.000; -227.000
404.721;  887.800; -869.000; -764.000
404.848;   91.300; -113.000; -202.000
404.976; -116.800; -856.000; -783.000
405.103;  -14.000;  -14.000;  -82.000
405.230;   -1.700;  190.000;  226.000
405.357;   18.975;  117.000;   44.000
405.484;  410.275;  -49.000;    5.000
405.612;  109.925; -548.000; -563.000
405.739;  -60.350; -488.000; -243.000
405.866;   75.175;  669.000;  385.000
405.993;  -48.900; -398.000; -102.000
406.120; -143.825; -801.000; -887.000
406.247;  -75.950; -323.000; -342.000
406.374;   98.025;  540.000;  629.000
406.501;  -93.900; -632.000; -702.000
406.628;  -95.875; -621.000; -589.000
406.755; -131.025; -803.000; -620.000
406.882;  -62.100; -228.000; -277.000
407.009; -117.400; -719.000; -628.000
407.136;  -49.050; -480.000; -401.000
407.263;  -84.050; -939.000; -829.000
407.390; -100.025; -692.000; -614.000
407.517; -183.250;-1139.000;-1187.000
407.644;  -63.875; -332.000; -256.000
407.771;  -81.200; -249.000; -287.000
407.898;  -12.600;  168.000;  328.000
408.025;  -75.650; -421.000; -313.000
408.151;  -11.025;   82.000;  153.000
408.278;  -88.125; -267.000; -216.000
408.405; -135.325; -931.000; -899.000
408.532;  -96.625; -549.000; -542.000
408.659; -132.350; -677.000; -648.000
408.785; -193.575;-1298.000;-1170.000
408.912;  -65.025; -412.000; -296.000
409.039; -119.125; -610.000; -686.000
409.166; -108.275; -591.000; -555.000
409.292; -105.125; -571.000; -534.000
409.419; -117.225; -665.000; -649.000
409.546;  -83.400; -431.000; -192.000
409.672; -107.350; -713.000; -545.000
409.799;  -31.575;  -36.000;   34.000
409.926;  -52.425; -180.000; -179.000
410.052; -194.900;-1127.000;-1091.000
410.179;  -84.275; -368.000; -392.000
410.305;  -97.850; -375.000; -493.000
410.432;  -35.975; -220.000; -333.000
410.558;  -83.975; -305.000; -380.000
410.685; -122.750; -688.000; -431.000
410.812; -107.225; -409.000; -588.000
410.938; -142.625; -964.000; -808.000
411.065; -112.475; -671.000; -645.000
411.191;  -47.475; -189.000; -174.000
411.317; -143.500; -823.000; -742.000
411.444;  -73.625; -317.000; -246.000
411.570;  -69.250; -339.000; -294.000
411.697; -132.250; -758.000; -752.000
411.823; -170.375; -989.000; -999.000
411.949;  -55.050;  -56.000;   17.000
412.076; -104.750; -539.000; -519.000
412.202; -134.700; -758.000; -757.000
412.329; -139.875; -798.000; -752.000
412.455; -121.675; -821.000; -657.000
412.581;  -40.000;  -15.000;  172.000
412.707;  -86.525; -540.000; -457.000
412.834;   -8.200;  156.000;  219.000
412.960; -105.050; -785.000; -784.000
413.086; -104.375; -743.000; -701.000
413.212;  103.525;  604.000;  578.000
413.339; -101.100; -685.000; -701.000
413.465;  -63.350; -364.000; -310.000
413.591; -118.350; -757.000; -474.000
413.717;  -70.050; -358.000; -366.000
413.843; -137.925; -839.000; -861.000
413.969;  -56.550;  -47.000; -292.000
414.096;  -99.475; -679.000; -679.000
414.222;  -16.600;  -33.000;   85.000
414.348;  -85.125; -652.000; -385.000
414.474;  -10.850;   38.000;  -52.000
414.600;  -36.800; -126.000; -144.000
414.726;  -17.350;  -96.000;  -55.000
414.852;  -49.500; -365.000; -342.000
414.978;   25.425;  104.000;  -18.000
415.104;   51.725;   38.000;   80.000
415.230;   31.325; -329.000; -330.000
415.356;   44.650; -409.000; -514.000
415.482;  219.600;   13.000;  -35.000
415.608;  381.275; -247.000; -323.000
415.734; 1272.550;   67.000;   38.000
415.860;26841.500; -875.000; -767.000
415.986;21703.325; -685.000; -607.000
416.111; 2004.200; -798.000; -652.000
416.237;  435.925; -424.000; -571.000
416.363; 1653.325; -765.000; -733.000
416.489; 6563.950; -324.000; -251.000
416.615;  858.075; -707.000; -742.000
416.741;   51.450; -677.000; -784.000
416.866;  -74.025; -673.000; -736.000
416.992;  -95.975; -801.000; -818.000
417.118;  -30.775;  -41.000;  -80.000
417.244;  -83.725; -798.000; -531.000
417.369;  -91.950; -801.000; -612.000
417.495;  -33.425; -325.000; -254.000
417.621;  -91.450;-1015.000; -803.000
417.746;   -4.525; -579.000; -572.000
417.872;   75.725; -254.000; -144.000
417.998;  110.775; -515.000; -530.000
418.123; 1502.875;-1073.000; -845.000
418.249; 8292.325; -512.000; -601.000
418.374; 1382.300; -916.000; -824.000
418.500;  209.650; -383.000; -482.000
418.626;  162.800;   70.000;  -59.000
418.751;  155.550; -549.000; -448.000
418.877;  304.850; -637.000; -643.000
419.002; 2553.475; -688.000; -560.000
419.128;19083.100; -930.000; -721.000
419.253; 5301.400; -967.000; -837.000
419.379;  734.900; -391.000; -338.000
419.504;  568.925;  325.000;  415.000
419.629;  814.775; -393.000; -212.000
419.755; 5342.700; -317.000; -254.000
419.880;34285.975;  -98.000;   67.000
420.006;17145.250; -280.000; -221.000
420.131;42394.525; -662.000; -775.000
420.256; 6707.350; -315.000; -316.000
420.382;  933.325; -665.000; -687.000
420.507;  159.125; -649.000; -778.000
420.632;   24.400; -337.000; -339.000
420.758;   36.125; -251.000; -425.000
420.883; -101.150; -876.000; -672.000
421.008; -125.400; -775.000; -619.000
421.133;  -95.775; -509.000; -467.000
421.259;  -58.825; -325.000; -259.000
421.384; -127.825; -834.000; -693.000
421.509; -142.200;-1052.000; -862.000
421.634;  117.600; -936.000; -820.000
421.759;   48.425; -359.000; -327.000
421.885;  -91.950; -717.000; -656.000
422.010;  -91.400; -673.000; -542.000
422.135; -143.525; -695.000; -727.000
422.260;    9.925;  340.000;  280.000
422.385;  -61.825;   12.000;  -98.000
422.510;  -14.150;  151.000;  -26.000
422.635;  -31.600;  -87.000;  -43.000
422.760;  -33.275; -766.000; -791.000
422.885;   11.525;  -57.000;  -80.000
423.010;  -45.125; -112.000; -169.000
423.135;  -97.075; -481.000; -561.000
423.260;  -46.350; -150.000; -245.000
423.385;   17.600;  476.000;  222.000
423.510;   -9.600;   71.000;  -22.000
423.635;   -7.475;  133.000;   45.000
423.760;   37.950;  383.000;  328.000
423.885;   21.800;  336.000;  391.000
424.010;  -23.225;  -68.000;  -13.000
424.135;  -26.925;    5.000;  -33.000
424.259;  -71.925; -654.000; -457.000
424.384;  -45.975; -279.000; -272.000
424.509;  -29.950; -260.000; -186.000
424.634;  -82.300; -761.000; -623.000
424.759;  -39.250; -688.000; -544.000
424.883;    0.550; -506.000; -527.000
425.008;  186.625; -502.000; -410.000
425.133; 2811.575; -679.000; -653.000
425.258; 1480.725; -517.000; -381.000
425.382;  472.625; -867.000; -774.000
425.507; 1063.850; -487.000; -543.000
425.632;  365.775; -802.000; -663.000
425.756;  679.975; -256.000; -146.000
425.881;10129.350; -831.000; -857.000
426.006;30757.525; -604.000; -355.000
426.130; 4946.225; -696.000; -508.000
426.255;  669.575; -611.000; -491.000
426.379;  262.025; -189.000; -577.000
426.504;  494.350;  660.000;  544.000
426.629; 5494.850; -519.000; -466.000
426.753; 4230.250;   64.000;  -46.000
426.878;  522.125; -252.000; -288.000
427.002;  300.275; -651.000; -668.000
427.127; 2061.600;  -35.000; -158.000
427.251;16981.325;  372.000;  401.000
427.375; 5411.475; -191.000; -173.000
427.500; 1230.475; -616.000; -610.000
427.624;  383.700; -234.000; -400.000
427.749;   77.025; -216.000; -225.000
427.873;  -26.975; -499.000; -412.000
427.997;  -56.675; -222.000; -230.000
428.122;   73.150;  795.000;  703.000
428.246;   22.375;  433.000;  434.000
428.371; -138.350; -869.000; -773.000
428.495; -118.800; -624.000; -646.000
428.619;  -47.350; -186.000; -117.000
428.743;    0.450;   65.000;  132.000
428.868;  -68.000; -732.000; -643.000
428.992;  460.575; -219.000; -326.000
429.116;  160.750; -329.000; -357.000
429.240;   93.125;  419.000;  426.000
429.365;  -53.925; -454.000; -574.000
429.489;  -56.325; -638.000; -647.000
429.613;   31.925; -236.000; -177.000
429.737;   68.525; -563.000; -432.000
429.861;  368.750; -247.000; -133.000
429.985; 7794.950; -425.000; -305.000
430.109; 9754.000; -770.000; -908.000
430.234; 1176.275;   76.000;  -50.000
430.358;  130.725; -250.000; -160.000
430.482;  -58.750; -672.000; -564.000
430.606;  -88.100; -655.000; -375.000
430.730;  -62.625; -437.000; -388.000
430.854;  -98.825; -909.000; -835.000
430.978; -102.350; -795.000; -764.000
431.102;  -78.375; -499.000; -422.000
431.226; -141.150; -874.000; -815.000
431.350;   16.975;  345.000;  422.000
431.474; -100.100; -661.000; -373.000
431.597; -164.700;-1060.000; -848.000
431.721;  -79.625; -276.000; -267.000
431.845; -138.150; -704.000; -472.000
431.969;  -82.375; -304.000; -349.000
432.093;  -93.550; -395.000; -317.000
432.217;  -21.875;   32.000;   82.000
432.341;  -99.750; -523.000; -518.000
432.464;  -22.400;   96.000;   40.000
432.588;  -20.875; -401.000; -329.000
432.712;   14.575;  -52.000;  -52.000
432.836;   60.575;  213.000;  263.000
432.959;   17.275; -372.000; -311.000
433.083;  150.325;   11.000;    2.000
433.207;  543.850;  285.000;  930.000
433.330; 7495.875; -391.000; -200.000
433.454;10318.150; -654.000; -638.000
433.578; 5619.975;  583.000;  278.000
433.701; 1199.450; -623.000; -675.000
433.825;  137.450; -292.000; -299.000
433.949;   36.775;   28.000;  -72.000
434.072;  -28.375; -410.000; -323.000
434.196;  -13.325; -309.000; -117.000
434.319; 3534.500;25482.000;25124.000
434.443;  867.900; -656.000; -603.000
434.566; 4001.650;  281.000;   62.000
434.690;  864.075; -637.000; -383.000
434.813;  135.575; -251.000; -173.000
434.937;  -51.475; -569.000; -696.000
435.060;  -87.925; -423.000; -332.000
435.184;  -27.500; -492.000; -217.000
435.307;    3.450;  159.000;  102.000
435.431;  -42.575;  -40.000;   24.000
435.554;  -87.125; -399.000; -240.000
435.677;  -87.800; -350.000; -258.000
435.801;  -47.550;  -25.000;   49.000
435.924;  -57.225;    1.000;  -67.000
436.048; -153.750;-1019.000; -732.000
436.171;  -66.375; -240.000;  -66.000
436.294;  -12.775; -248.000; -229.000
436.417;  203.425; -963.000; -849.000
436.541;  -32.800; -814.000; -840.000
436.664;  -52.600; -242.000; -316.000
436.787;  -41.725;   13.000;  113.000
436.910; -110.825; -792.000; -422.000
437.034;   -7.275;  142.000;  143.000
437.157;  -11.625;  -11.000;    0.000
437.280;  -92.425; -392.000; -292.000
437.403; -151.675; -982.000; -869.000
437.526;  -26.625; -903.000; -865.000
437.649;  373.225; -505.000; -332.000
437.772;  -37.650; -692.000; -540.000
437.896;   46.325;  700.000;  544.000
438.019; -123.225; -758.000; -503.000
438.142; -107.800; -596.000; -506.000
438.265; -115.725; -639.000; -670.000
438.388;    5.750; -520.000; -410.000
438.511; -100.375; -597.000; -394.000
438.634;  -90.050; -247.000; -125.000
438.757; -149.350; -693.000; -619.000
438.880;  -49.225;  -34.000;  -57.000
439.003; -101.350; -417.000; -437.000
439.126;  -79.575; -287.000; -167.000
439.248;  -71.425;  -98.000; -139.000
439.371;  -50.575;    9.000;  -53.000
439.494;   16.200;  510.000;  439.000
439.617;  -65.775;   65.000;  -88.000
439.740; -188.475; -968.000; -816.000
439.863; -140.700; -755.000; -595.000
439.986; -121.450; -476.000; -431.000
440.108;  -47.100; -161.000; -112.000
440.231; -168.150; -950.000; -836.000
440.354;  -57.850;  -64.000; -150.000
440.477; -111.725; -566.000; -542.000
440.599;  -94.850; -200.000; -225.000
440.722; -137.400; -709.000; -586.000
440.845;   44.300;  751.000;  928.000
440.968; -116.300; -415.000; -311.000
441.090;  -75.275; -199.000;  -33.000
441.213; -168.625;-1021.000; -825.000
441.336;  -68.575; -159.000;   -5.000
441.458;  -98.550; -549.000; -396.000
441.581; -130.600; -628.000; -629.000
441.703;  -75.250; -152.000;   13.000
441.826; -123.625; -557.000; -400.000
441.948;  -60.550;   56.000;   51.000
442.071;    5.425;  555.000;  424.000
442.193; -122.675; -531.000; -485.000
442.316;   -1.950;  152.000;   97.000
442.438;   78.450; -233.000;  -10.000
442.561;   60.800;  272.000;  262.000
442.683;   25.025; -809.000; -522.000
442.806;  202.175;   -8.000;   74.000
442.928; -108.150; -859.000; -604.000
443.051;  -96.050; -577.000; -373.000
443.173; -106.575; -341.000; -339.000
443.295;  -95.200; -263.000; -371.000
443.418;  -77.450; -321.000;  -29.000
443.540;  -51.825; -106.000;   -4.000
443.662; -122.700; -563.000; -465.000
443.785;  -32.725;  335.000;  199.000
443.907; -105.925; -362.000; -208.000
444.029; -135.975; -767.000; -494.000
444.152; -121.725; -644.000; -554.000
444.274;  -50.275;  -18.000;  -24.000
444.396; -121.025; -461.000; -221.000
444.518; -137.375; -691.000; -454.000
444.640; -101.200; -268.000; -111.000
444.763;  -35.725;  388.000;  249.000
444.885; -117.950; -432.000; -392.000
445.007;  -43.950;   35.000;   86.000
445.129; -129.575; -610.000; -515.000
445.251; -108.625; -372.000; -439.000
445.373; -148.625; -537.000; -386.000
445.495;  -18.775;  242.000;  350.000
445.617;   29.400;  853.000;  753.000
445.739;  -86.425; -215.000;  -97.000
445.861;  -65.350; -245.000; -112.000
445.984;  -73.500; -267.000; -101.000
446.105;  -33.250; -418.000; -251.000
446.227;   81.100; -176.000;  -19.000
446.349;  -89.850; -358.000; -249.000
446.471; -128.125; -615.000; -448.000
446.593;  -90.550; -316.000;   19.000
446.715;  -62.825;  -67.000;   41.000
446.837;   35.000;  697.000;  832.000
446.959; -120.150; -457.000; -478.000
447.081; -147.500; -628.000; -518.000
447.203;   43.350;  862.000;  834.000
447.325;  -95.025; -270.000;   42.000
447.446;  -15.150;  286.000;  530.000
447.568; -161.475; -921.000; -803.000
447.690;  -94.500; -236.000; -245.000
447.812; -158.400; -798.000; -519.000
447.933;  -48.175;  155.000;  127.000
448.055;  -76.825; -306.000; -261.000
448.177;   11.300;   31.000;   79.000
448.299; -115.075; -935.000; -727.000
448.420;  -19.400;  -25.000;  159.000
448.542;  -68.325;   -3.000;   33.000
448.664;  -28.550;  109.000;  322.000
448.785;  -39.775;  265.000;   83.000
448.907; -104.450; -614.000; -353.000
449.028; -122.350; -771.000; -471.000
449.150;   20.075;  492.000;  589.000
449.272; -177.150;-1044.000; -913.000
449.393;   19.025;  612.000;  694.000
449.515; -144.625; -634.000; -581.000
449.636;  -75.550; -264.000; -155.000
449.758;   46.525;  763.000;  622.000
449.879; -107.900; -498.000; -396.000
450.001;  -82.275; -149.000;  -49.000
450.122;  -44.650;  -95.000;  162.000
450.244;  -18.625;   37.000;  364.000
450.365;  -80.575; -495.000; -301.000
450.486;   -9.950;   80.000;  268.000
450.608;   38.650;  393.000;  326.000
450.729;   98.125;  578.000;  645.000
450.850;   99.700; -574.000; -466.000
450.972; 1220.800; -552.000; -389.000
451.093; 7865.275;  190.000;  588.000
451.214; 3932.725; -516.000; -337.000
451.336;  665.225;  773.000;  579.000
451.457;   99.925;  264.000;  393.000
451.578;  -17.925; -118.000;  -74.000
451.699; -116.950; -546.000; -540.000
451.821;  -61.850; -284.000;  -50.000
451.942;   13.600;  278.000;  285.000
452.063;   33.325;  228.000;  419.000
452.184;  805.900;  -54.000;  -49.000
452.305; 1698.800;  103.000;  170.000
452.427;  313.750; -549.000; -301.000
452.548;    1.575;   23.000;   79.000
452.669;  -65.625; -257.000;  -89.000
452.790;  -67.625;    3.000;  -18.000
452.911;   -9.175;  195.000;  259.000
453.032;  -79.900; -289.000;  -60.000
453.153;  -68.150;  -29.000;   81.000
453.274;   42.725;  737.000;  868.000
453.395;  -71.500;  -51.000;  175.000
453.516;   83.400; 1317.000; 1388.000
453.637;  -97.350; -205.000; -150.000
453.758;  -61.950;   15.000;   69.000
453.879; -112.825; -462.000; -250.000
454.000;   71.225; 1086.000;  948.000
454.121; -120.750; -554.000; -326.000
454.242; -129.300; -599.000; -383.000
454.362;  -63.075;  -99.000;  114.000
454.483;  -31.875; -309.000; -229.000
454.604;   38.975;  512.000;  580.000
454.725; -131.875; -627.000; -555.000
454.846; -141.700; -474.000; -406.000
454.967;  -40.600;  230.000;  539.000
455.087;  -32.575;  179.000;  153.000
455.208;   17.325;  554.000;  856.000
455.329;  -53.925;  -22.000;   82.000
455.450;   65.425;  473.000;  633.000
455.570;  -55.600; -234.000; -211.000
455.691;  -40.675;  201.000;  407.000
455.812;  -98.975; -270.000;  -92.000
455.932;  -70.600;  107.000;  -97.000
456.053;  -79.300;   36.000;   24.000
456.173;  -99.900; -433.000; -355.000
456.294; -130.975; -476.000; -303.000
456.415;  -81.400;  -73.000;   70.000
456.535;  -48.875;  297.000;  273.000
456.656;  -55.175;  132.000;  240.000
456.776;  -75.600;    3.000;  298.000
456.897;    1.325;  308.000;  513.000
457.017;  -70.150; -153.000;   -3.000
457.138; -114.525; -402.000; -249.000
457.258;  -50.925;  263.000;  224.000
457.379;  -10.650;  509.000;  521.000
457.499;  -37.425;  443.000;  432.000
457.620; -119.475; -407.000; -231.000
457.740;  -98.850; -132.000;  -11.000
457.860;  -50.925;   87.000;   44.000
457.981;  -40.425;  132.000;  124.000
458.101;  -85.550;  -89.000;   40.000
458.221;  -22.675;  336.000;  402.000
458.342;  -55.050;   -4.000;  -37.000
458.462;   45.700;  617.000;  352.000
458.582;   24.900; -302.000; -294.000
458.703;   53.025;  303.000;  154.000
458.823;    3.675;   22.000;  163.000
458.943;   48.875;  341.000;  467.000
459.063;   21.150; 1124.000;  192.000
459.183;  -18.575;  328.000;  313.000
459.304;   -6.300;  315.000;  517.000
459.424;  -34.950; -246.000;  -89.000
459.544;  469.450;  388.000;  764.000
459.664; 1296.425;  499.000;  506.000
459.784;  497.075; 1004.000; 1175.000
459.904;   76.500;  867.000;  744.000
460.024;   56.100;  867.000;  684.000
460.144;  -14.350;  449.000;  554.000
460.264;  -22.250;  515.000;  327.000
460.385;  -89.600; -145.000; -119.000
460.505;   37.000;  905.000;  858.000
460.625;  -99.850;  -17.000;  -68.000
460.745;  -31.250;  396.000;  541.000
460.864;  -42.850;  153.000;  469.000
460.984;   25.525;  499.000;  573.000
461.104;  137.000; 1656.000; 1775.000
461.224;    0.075;  657.000;  650.000
461.344;  -39.775;  431.000;  360.000
461.464;  -46.625;  258.000;  513.000
461.584;  -29.675;  283.000;  466.000
461.704;  -61.625;   58.000;  108.000
461.824;  -65.200;  238.000;  259.000
461.943;  -43.725;  191.000;  130.000
462.063;  -62.850;    2.000;  324.000
462.183;   10.225;  639.000;  717.000
462.303;   79.925; 1678.000; 1230.000
462.422;   28.575;  781.000;  840.000
462.542;  -36.300;  271.000;  391.000
462.662;   33.925;  353.000;  380.000
462.782;  319.975;  833.000;  572.000
462.901;  720.400;  545.000;  717.000
463.021;  374.250; 1702.000; 1638.000
463.141;   10.400;  337.000;  770.000
463.260;  -23.250;  614.000;  474.000
463.380;    8.400;  902.000;  884.000
463.499;  -44.550;  342.000;  332.000
463.619;  -28.525;  581.000;  559.000
463.738;  102.750; 1644.000;  903.000
463.858;    4.425;  657.000;  811.000
463.978;  -32.900;  542.000;  396.000
464.097;   59.125;  921.000; 1114.000
464.217;  160.950; 1196.000; 1143.000
464.336;  145.500; 1068.000; 1130.000
464.455;  -30.725;  328.000;  659.000
464.575;    9.700;  597.000;  602.000
464.694;  121.825; 1204.000; 1179.000
464.814;  159.125; 1190.000; 1138.000
464.933;   79.900; 1095.000; 1027.000
465.052;   97.575; 1412.000; 1054.000
465.172;   74.425;  922.000;  799.000
465.291;  106.950; 1376.000; 1320.000
465.410;   -5.350;  462.000;  735.000
465.530;   70.550; 1355.000; 1310.000
465.649;   62.975; 1209.000; 1273.000
465.768;  123.125; 1673.000; 1508.000
465.888;   54.450;  941.000; 1174.000
466.007;   93.000; 1335.000; 1440.000
466.126;  -21.600;  721.000;  641.000
466.245;   40.625; 1176.000; 1187.000
466.364;    5.150;  950.000; 1060.000
466.484;   53.475; 1024.000; 1213.000
466.603;   18.625; 1101.000; 1222.000
466.722;  106.725; 1490.000; 1769.000
466.841;   57.275; 1151.000; 1401.000
466.960;   42.000; 1069.000;  972.000
467.079;  133.350; 1971.000; 1786.000
467.198;   43.250; 1238.000; 1181.000
467.317;   94.625; 1768.000; 1162.000
467.436;   65.900; 1709.000; 1261.000
467.555;  104.800; 1796.000; 1746.000
467.674;   56.850; 1227.000; 1329.000
467.793;   46.050; 1376.000; 1374.000
467.912;   95.950; 1658.000; 1539.000
468.031;  126.225; 2038.000; 1930.000
468.150;  121.375; 1842.000; 1837.000
468.269;  177.475; 2313.000; 2090.000
468.388;  171.675; 2168.000; 2339.000
468.507;  242.000; 2884.000; 2903.000
468.626;  261.625; 2555.000; 2541.000
468.744;  144.725; 2018.000; 2174.000
468.863;  193.625; 2312.000; 2523.000
468.982;   96.450; 1503.000; 1555.000
469.101;  209.375; 2788.000; 2692.000
469.220;  136.750; 2333.000; 2176.000
469.338;  249.975; 2935.000; 3051.000
469.457;  192.300; 2719.000; 2545.000
469.576;  326.825; 3953.000; 3784.000
469.695;  243.675; 2877.000; 3066.000
469.813;  406.175; 4148.000; 4192.000
469.932;  404.225; 4255.000; 4485.000
470.051;  432.700; 4075.000; 4161.000
470.169;  998.300; 4470.000; 4338.000
470.288; 1952.375; 4700.000; 4809.000
470.406; 1131.350; 5059.000; 5194.000
470.525;  677.800; 6101.000; 5787.000
470.644;  648.825; 6847.000; 6794.000
470.762;  789.175; 8397.000; 7873.000
470.881;  902.225; 8651.000; 8464.000
470.999; 1093.600; 9685.000; 9151.000
471.118; 1113.975;11174.000;10711.000

