
Integration time [ms]: 100.000
Averaging Nr. [scans]: 40
Smoothing Nr. [pixels]: 0
Data measured with spectrometer [name]: 2101012U2
Wave   ;Sample   ;Dark     ;Reference
[nm]   ;[counts] ;[counts] ;[counts] 

197.733;   55.200;  516.000;  404.000
197.879;  -88.375; -610.000; -634.000
198.025;  -43.300; -475.000; -420.000
198.171;  -56.475; -602.000; -612.000
198.317;  -35.800; -401.000; -316.000
198.463;  -65.175; -655.000; -404.000
198.609;   18.025;  181.000; -137.000
198.755;  -68.350; -644.000; -410.000
198.901;  -52.400; -505.000; -424.000
199.047;  -73.025; -615.000; -488.000
199.193;  -35.425; -230.000; -468.000
199.339;  -48.725; -222.000; -369.000
199.485;   35.975;  330.000;  271.000
199.631;   17.575;  227.000;  310.000
199.777;  -52.600; -466.000; -398.000
199.923;  -55.425; -610.000; -424.000
200.069;   -5.575; -141.000;  -58.000
200.215;   45.850;  128.000;  453.000
200.361;   35.875;  243.000;  477.000
200.507;  -56.475; -600.000; -373.000
200.653;  -22.500; -371.000; -194.000
200.798;  -25.950; -215.000; -125.000
200.944;    6.725; -146.000;  -41.000
201.090;   21.075;   61.000;  222.000
201.236;    3.825; -116.000; -158.000
201.382;  131.125;  874.000;  903.000
201.528;    2.950;  -58.000;  -48.000
201.674;  -50.075; -386.000; -293.000
201.819;  -70.275; -540.000; -439.000
201.965;  -76.250; -699.000; -447.000
202.111;  -32.550; -273.000; -226.000
202.257;  -31.100; -250.000; -238.000
202.402;   -2.200;   13.000;  -36.000
202.548;  -29.325; -169.000; -116.000
202.694;   78.175;  410.000; -183.000
202.840;  -72.400; -603.000; -531.000
202.985;  -63.000; -681.000; -639.000
203.131;  -99.400; -832.000; -666.000
203.277;  -31.425; -199.000; -262.000
203.423;  -50.950; -434.000; -520.000
203.568;  -43.325; -462.000; -237.000
203.714;  -63.950; -535.000; -542.000
203.860;  -79.875; -682.000; -641.000
204.005;   21.025;  112.000;  167.000
204.151;   75.325;  561.000;  556.000
204.296;  -41.825; -354.000; -221.000
204.442;  -67.200; -600.000; -547.000
204.588;  -67.850; -592.000; -579.000
204.733;   22.600;  178.000;  168.000
204.879; -108.450;-1018.000; -822.000
205.025;   17.175;  -99.000;  126.000
205.170;    5.600;  -17.000;   94.000
205.316;   74.250;  438.000;  661.000
205.461;  -75.825; -698.000; -554.000
205.607;   76.675;  609.000;  665.000
205.752;  -66.175; -626.000; -551.000
205.898;  -46.100; -501.000; -391.000
206.043;  -52.300; -578.000; -506.000
206.189;  -47.900; -243.000; -285.000
206.334;   80.025;  554.000;  606.000
206.480;   75.300;  409.000;  239.000
206.625;  -79.200; -529.000; -552.000
206.771;  -34.850; -451.000; -373.000
206.916;  -39.725; -210.000; -537.000
207.062;  -67.900; -545.000; -591.000
207.207;  -57.950; -546.000; -443.000
207.353;   58.450;  185.000;  460.000
207.498;    1.500;  196.000;   85.000
207.643;  -44.700; -501.000; -370.000
207.789; -130.975;-1069.000; -910.000
207.934;  -94.050; -665.000; -713.000
208.080;  -29.200; -154.000;   66.000
208.225;  -16.600;  -22.000;  -57.000
208.370;  -82.300; -727.000; -619.000
208.516;  -71.525; -741.000; -487.000
208.661;  -16.750; -127.000;  -69.000
208.806;  -15.000; -165.000; -171.000
208.952; -111.325;-1044.000; -731.000
209.097;   70.500;  378.000;  349.000
209.242;  -48.825; -307.000; -382.000
209.387;   77.950;  392.000;  350.000
209.533;  -44.675; -321.000; -350.000
209.678;   74.575;  472.000;  543.000
209.823;  -56.050; -408.000; -310.000
209.969; -101.050; -860.000; -757.000
210.114; -102.475; -907.000; -719.000
210.259; -109.625; -939.000; -889.000
210.404;  -14.150; -171.000;  103.000
210.549;   -3.850;  108.000;    3.000
210.695;  -11.250;   -3.000;  -95.000
210.840;   36.875;   94.000;   67.000
210.985;  -58.175; -484.000; -303.000
211.130;   63.675;  268.000;  406.000
211.275;    4.850;  207.000;  199.000
211.420;  -38.600; -300.000; -289.000
211.566;  -46.450; -536.000; -489.000
211.711;   27.700;  218.000;  157.000
211.856;  -55.250; -545.000; -519.000
212.001;   -2.475;  151.000;   44.000
212.146;   12.000;  153.000;   49.000
212.291;  -30.475; -210.000; -186.000
212.436;  -19.475; -280.000;   -6.000
212.581;  -94.200; -685.000; -653.000
212.726;  -58.525; -487.000; -538.000
212.871;  -48.125; -552.000; -217.000
213.016; -142.800;-1172.000;-1029.000
213.161;   67.450;  406.000;  291.000
213.306;  -71.800; -435.000; -577.000
213.451;  -92.800; -778.000; -689.000
213.596;  -36.650; -455.000; -347.000
213.741;  -45.550; -448.000; -538.000
213.886;  -75.625; -498.000; -517.000
214.031;  -35.200; -294.000; -124.000
214.176;  -41.225; -408.000; -341.000
214.321;   -3.850; -296.000; -157.000
214.466;  -25.675; -163.000;  -43.000
214.611;    5.150;  -61.000;  -10.000
214.756; -117.775; -948.000; -858.000
214.901;  -14.075; -388.000; -226.000
215.046; -106.900; -797.000; -825.000
215.191;   24.750;  128.000;   35.000
215.336;  -18.100; -157.000;  -19.000
215.480;  -70.200; -684.000; -505.000
215.625;  -10.900; -175.000;  -19.000
215.770;  -84.475; -757.000; -662.000
215.915;  -12.150;   -5.000;  -97.000
216.060;   -1.275; -113.000;  -21.000
216.205; -104.150; -731.000; -779.000
216.349;  -67.150; -470.000; -533.000
216.494; -123.425; -939.000; -867.000
216.639; -116.375; -823.000; -888.000
216.784;  -81.850; -577.000; -525.000
216.929;   43.225;  392.000;  281.000
217.073;  -19.225; -244.000;  -31.000
217.218;    2.525;   78.000;  -47.000
217.363;  -73.075; -656.000; -618.000
217.507;  -66.850; -623.000; -588.000
217.652; -112.125; -845.000; -874.000
217.797;  -87.300; -708.000; -659.000
217.942; -104.975; -856.000; -720.000
218.086;   83.975;  608.000;  539.000
218.231;  -16.350; -174.000;  -26.000
218.376;  -29.550; -337.000; -229.000
218.520;    8.625;  -41.000;   96.000
218.665;  -30.075; -338.000; -204.000
218.810;  -34.400; -275.000; -233.000
218.954;   15.150;  201.000;   35.000
219.099; -109.700; -713.000; -963.000
219.243;  -72.600; -589.000; -554.000
219.388;  -24.875; -264.000; -136.000
219.532;   -5.325; -116.000; -116.000
219.677;  -77.900; -564.000; -521.000
219.822;    0.800;   33.000;   89.000
219.966;   10.000;   17.000;  -99.000
220.111;  -19.075; -328.000;  -40.000
220.255;  -92.450; -797.000; -750.000
220.400;  -29.050; -180.000; -146.000
220.544;  -64.950; -516.000; -450.000
220.689;  -61.350; -422.000; -451.000
220.833;  -36.950; -123.000;  -58.000
220.978;  -46.950; -393.000; -563.000
221.122;   15.375;  319.000;  307.000
221.267; -110.525; -906.000; -837.000
221.411;  -64.500; -478.000; -394.000
221.555;   -9.300; -104.000;  -23.000
221.700;  -37.050; -329.000; -222.000
221.844;   24.450;  255.000;  272.000
221.989;  -42.150; -328.000; -311.000
222.133;  -39.550; -289.000; -307.000
222.277;  -10.475;    5.000;   78.000
222.422;    6.375;  227.000;  113.000
222.566;  -38.075; -381.000; -214.000
222.711;  -48.650; -414.000; -479.000
222.855;  -75.600; -643.000; -586.000
222.999;  -74.150; -642.000; -717.000
223.144;  -24.075; -195.000; -194.000
223.288;   48.900;  423.000;  251.000
223.432;   12.150;  184.000;  230.000
223.576;   21.025;  152.000;  -21.000
223.721;   25.775;  364.000;  273.000
223.865;  -40.225; -472.000; -475.000
224.009;  244.800; 1673.000; 1631.000
224.153;  -70.725; -660.000; -671.000
224.298;  -67.575; -531.000; -489.000
224.442;  -11.800;  -74.000;  -33.000
224.586;  -10.200; -169.000; -106.000
224.730;  -94.000; -858.000; -670.000
224.875; -100.975; -739.000; -688.000
225.019;   14.075;  102.000;  188.000
225.163;   51.300;  208.000;  341.000
225.307;   10.475;   97.000;  -91.000
225.451;   36.575;  360.000;  481.000
225.595;   28.450;  264.000;  176.000
225.739;  -23.775; -170.000;  -94.000
225.884;    0.200;   86.000;    5.000
226.028;  -97.925; -760.000; -626.000
226.172;  -36.850; -260.000; -273.000
226.316; -108.275; -941.000; -902.000
226.460;  -72.525; -645.000; -493.000
226.604;  -42.800; -406.000; -400.000
226.748;  -95.025; -836.000; -733.000
226.892;  -31.125; -227.000; -181.000
227.036;  -37.200; -537.000; -447.000
227.180;  -58.225; -551.000; -375.000
227.324;  -59.675; -561.000; -580.000
227.468;  -98.450; -819.000; -717.000
227.612;    4.975;  242.000;  -28.000
227.756;  -17.675; -845.000; -698.000
227.900;   59.150;  342.000;  441.000
228.044;  -52.125; -509.000; -290.000
228.188;   62.050;  448.000;  568.000
228.332;  -93.700; -546.000; -472.000
228.476;  -22.175; -223.000; -149.000
228.620;  -27.200; -210.000; -150.000
228.764;   76.975;  431.000;  349.000
228.908;  -13.750; -155.000;   30.000
229.052;  -64.950; -615.000; -528.000
229.195;  -10.725; -172.000;   13.000
229.339;  -34.500; -235.000; -305.000
229.483;  -31.825;    5.000; -162.000
229.627;  -11.125; -156.000;  139.000
229.771;  -57.700; -218.000; -294.000
229.915;   -9.225;  230.000;   79.000
230.059;  -90.300; -648.000; -663.000
230.202;  -38.475; -370.000; -317.000
230.346;  -33.550; -107.000;  107.000
230.490;  -61.125; -489.000; -521.000
230.634;  -96.550; -736.000; -553.000
230.777;   71.925;  478.000;  509.000
230.921;  -54.900; -450.000; -359.000
231.065;  -47.325; -246.000; -286.000
231.209;   34.250;  261.000;  265.000
231.352;    8.300;   54.000;   40.000
231.496;   19.250;  568.000;  188.000
231.640;  -66.125; -693.000; -621.000
231.783;   65.800;  546.000;  525.000
231.927;  -24.100; -294.000; -365.000
232.071; -116.275; -962.000; -736.000
232.214; -108.975; -980.000; -764.000
232.358;  -95.350; -683.000; -599.000
232.502;    8.075;  -19.000;    7.000
232.645; -126.375;-1090.000; -927.000
232.789;  -17.975; -257.000; -218.000
232.933;  -39.400; -407.000; -224.000
233.076; -122.725;-1038.000; -897.000
233.220; -103.475; -752.000; -777.000
233.363;  -68.100; -669.000; -477.000
233.507;   47.425;  371.000;  129.000
233.650;  -88.450; -764.000; -834.000
233.794;   39.625;  438.000;  461.000
233.938;  -48.600; -530.000; -362.000
234.081;  -30.875;  -93.000;   31.000
234.225;  -67.750; -631.000; -539.000
234.368; -106.925; -773.000; -723.000
234.512;  -41.825; -385.000; -299.000
234.655;  -73.675; -582.000; -555.000
234.798;  -60.600; -493.000; -466.000
234.942; -114.550; -884.000;-1002.000
235.085;  -78.075; -651.000; -443.000
235.229;  -65.450; -405.000; -410.000
235.372;  -53.600; -247.000; -191.000
235.516;  -61.200; -397.000; -321.000
235.659;   18.475;   92.000;  121.000
235.802;   -0.700;  -38.000;  -22.000
235.946;   23.100;  335.000;  215.000
236.089;   18.875;  126.000;  250.000
236.233;   57.775;  275.000;  298.000
236.376;  -47.050; -235.000; -378.000
236.519;  -46.225; -297.000; -319.000
236.663;  -22.550; -215.000; -117.000
236.806; -134.000;-1029.000; -999.000
236.949;   48.425;  543.000;  431.000
237.092;   62.850;  412.000;  391.000
237.236;  -80.925; -589.000; -502.000
237.379;   53.900;  352.000;  428.000
237.522;  -96.675; -879.000; -768.000
237.666;  -30.075; -271.000;   18.000
237.809; -105.925; -851.000; -823.000
237.952;   44.750;  469.000;  271.000
238.095;  -60.825; -447.000; -442.000
238.238;   69.675;  688.000;  700.000
238.382;   -3.600;  166.000;  103.000
238.525;  -65.125; -598.000; -511.000
238.668; -119.375;-1060.000; -985.000
238.811;  -82.700; -638.000; -643.000
238.954;  -56.100; -483.000; -334.000
239.097;   94.375;  617.000;  664.000
239.241;   26.300;  394.000;  326.000
239.384;  -36.300; -254.000; -214.000
239.527;  -54.050; -424.000; -224.000
239.670; -142.775; -994.000;-1091.000
239.813; -107.275; -696.000; -658.000
239.956;   62.025;  579.000;  473.000
240.099; -106.650; -778.000; -725.000
240.242;   56.775;  428.000;  432.000
240.385;   32.475;  466.000;  450.000
240.528;  -61.300; -706.000; -473.000
240.671;    6.375;  189.000;  134.000
240.814;  -28.825; -441.000; -158.000
240.957; -104.475; -767.000; -578.000
241.100;  -81.950; -779.000; -755.000
241.243; -131.000;-1234.000; -893.000
241.386;  -62.175; -508.000; -379.000
241.529;  -87.500; -735.000; -547.000
241.672;  -51.575; -566.000; -495.000
241.815; -106.850; -832.000; -808.000
241.958;   -7.175; -125.000; -182.000
242.101;  -78.275; -545.000; -390.000
242.244;  -40.125; -270.000; -325.000
242.387;  -50.900; -304.000; -246.000
242.530;   52.375;  470.000;  134.000
242.673;  -40.475; -381.000; -309.000
242.815; -118.100; -925.000; -899.000
242.958;  -77.625; -482.000; -381.000
243.101;   15.200;  132.000;  187.000
243.244;  -84.475; -564.000; -521.000
243.387;  -46.975; -313.000; -316.000
243.530;  -86.950; -657.000; -674.000
243.672;    1.225;   43.000;  -92.000
243.815;  -55.900; -355.000; -283.000
243.958;   -0.175;   98.000;  -26.000
244.101;   -0.375;   59.000;  -16.000
244.243;  -14.800;  -47.000;  101.000
244.386; -104.625; -761.000; -630.000
244.529;  -28.775; -132.000; -139.000
244.672; -149.400;-1154.000; -951.000
244.814;  -98.400; -621.000; -794.000
244.957;  -61.925; -380.000; -304.000
245.100;  -75.300; -489.000; -489.000
245.242;  -51.450; -387.000; -374.000
245.385;   -1.300;  -59.000;  -39.000
245.528; -115.725; -871.000; -705.000
245.670;   84.075;  612.000;  634.000
245.813;  -81.000; -599.000; -547.000
245.956;  -27.425; -324.000; -275.000
246.098;  -78.100; -508.000; -650.000
246.241;    8.250;  194.000;   48.000
246.383;  -21.875; -119.000;  -73.000
246.526;  -73.475; -454.000; -525.000
246.669; -110.550; -889.000; -780.000
246.811;   21.075;  172.000;   -1.000
246.954;  -66.825; -512.000; -426.000
247.096;  -23.050;  -84.000;   -6.000
247.239;  -81.350; -482.000; -445.000
247.381;  -82.925; -647.000; -488.000
247.524;   75.000;  645.000;  679.000
247.666;  -12.725;   58.000;   11.000
247.809; -108.050; -887.000; -691.000
247.951;  -14.400;  -75.000;  138.000
248.094;   24.750;  432.000;  308.000
248.236; -145.725;-1262.000;-1238.000
248.378;  -22.150; -356.000;  -81.000
248.521;  -29.500; -334.000; -337.000
248.663;  -39.625; -236.000; -267.000
248.806;  -37.650; -300.000; -266.000
248.948; -114.150; -886.000; -763.000
249.090;  -60.375; -428.000; -398.000
249.233;  -50.525; -344.000; -381.000
249.375;  -65.175; -474.000; -451.000
249.518;  -28.650;  -83.000; -133.000
249.660;  -17.250; -103.000;    3.000
249.802; -174.550;-1303.000;-1189.000
249.945;  -76.775; -612.000; -540.000
250.087;  -98.400; -834.000; -768.000
250.229;  -40.675; -362.000; -480.000
250.371;  -70.675; -494.000; -439.000
250.514;  -57.025; -310.000; -244.000
250.656;  -64.650;   69.000;  102.000
250.798; -119.200; -849.000; -800.000
250.940;  -75.175; -322.000; -322.000
251.083;  -43.125; -335.000; -111.000
251.225;   45.525;  338.000;  310.000
251.367;  -46.200; -274.000; -373.000
251.509;  -48.150; -265.000; -210.000
251.651;  -80.225; -731.000; -671.000
251.794;   57.150;  538.000;  632.000
251.936; -108.325; -821.000; -747.000
252.078;  -76.000; -540.000; -461.000
252.220;  -66.425; -645.000; -477.000
252.362;   40.875;  344.000;  462.000
252.504;  -85.350; -677.000; -584.000
252.646; -110.275; -875.000; -722.000
252.788;  -14.250;   14.000; -128.000
252.931;  -43.625; -257.000; -253.000
253.073;  -46.200; -376.000; -317.000
253.215;   -4.050;  141.000;  122.000
253.357;  -16.650;   82.000; -153.000
253.499;  -45.850; -374.000; -234.000
253.641;  -99.750; -749.000; -594.000
253.783;  -90.475; -609.000; -527.000
253.925;  -85.050; -586.000; -591.000
254.067; -118.500; -744.000; -667.000
254.209;  -43.600; -391.000; -259.000
254.351; -137.125; -865.000; -883.000
254.493;  -61.200; -441.000; -417.000
254.635; -128.025; -936.000; -818.000
254.777;  -91.825; -752.000; -687.000
254.918;  -72.750; -512.000; -430.000
255.060;  -53.250; -551.000; -395.000
255.202;  -53.625; -473.000; -261.000
255.344;  -80.150; -658.000; -455.000
255.486;  -75.850; -471.000; -406.000
255.628;  -99.275; -780.000; -781.000
255.770;  -85.900; -676.000; -536.000
255.912;  -72.200; -559.000; -468.000
256.053;  -94.525; -730.000; -508.000
256.195;  136.750; 1008.000;  903.000
256.337; -100.850; -861.000; -595.000
256.479;   60.650;  532.000;  416.000
256.621;  -39.250; -394.000; -212.000
256.762; -104.075; -789.000; -742.000
256.904;   40.075;  485.000;  487.000
257.046;  -37.425; -381.000; -271.000
257.188;  -61.300; -351.000; -264.000
257.329;  -78.100; -525.000; -464.000
257.471; -106.575; -939.000; -807.000
257.613;  -75.225; -584.000; -498.000
257.755; -144.725;-1073.000; -982.000
257.896;   35.275;  286.000;  392.000
258.038;  -75.650; -403.000; -352.000
258.180;  -45.550; -354.000; -279.000
258.321;  -88.100; -581.000; -457.000
258.463;   -0.175;  -71.000;  133.000
258.605;  -95.800; -562.000; -570.000
258.746;  -97.375; -886.000; -772.000
258.888; -146.700;-1026.000;-1020.000
259.029;   23.225;  121.000;   -8.000
259.171;  -87.850; -614.000; -550.000
259.313;   -1.525;  -49.000;  -47.000
259.454;  -82.600; -536.000; -414.000
259.596;  -63.150; -483.000; -390.000
259.737;  -86.600; -590.000; -474.000
259.879;   35.500;  217.000;  311.000
260.020;   76.475;  901.000;  636.000
260.162;  -32.500; -146.000; -253.000
260.303; -127.825; -768.000; -687.000
260.445;  -74.600; -609.000; -613.000
260.586;   22.900;  392.000;  157.000
260.728;  -47.100; -360.000; -248.000
260.869;  -64.775; -350.000; -343.000
261.011;   71.925;  706.000;  537.000
261.152;  -62.975; -479.000; -319.000
261.293;  -71.000; -576.000; -595.000
261.435;  -28.325; -219.000; -184.000
261.576;  -62.900; -455.000; -325.000
261.718;   53.450;  420.000;  470.000
261.859; -126.700; -940.000; -949.000
262.000; -121.075; -951.000;-1016.000
262.142;  -21.850;  -52.000;  -60.000
262.283; -112.675; -808.000; -691.000
262.424;  -86.600; -666.000; -625.000
262.566; -153.425;-1161.000; -983.000
262.707; -112.375; -840.000; -830.000
262.848; -111.875; -769.000; -726.000
262.990;  -49.325; -362.000; -345.000
263.131;   65.125;  650.000;  681.000
263.272;   -7.825;  -61.000;  -41.000
263.413;  -95.775; -589.000; -561.000
263.555;  -74.600; -669.000; -143.000
263.696;  -85.550; -550.000; -641.000
263.837;  -65.800; -449.000; -551.000
263.978;  -16.475;   -5.000;  -77.000
264.119;  -42.350; -283.000; -264.000
264.261; -101.225; -847.000; -630.000
264.402;   -4.000;   33.000;   40.000
264.543;  -69.850; -509.000; -524.000
264.684;  -10.100;   61.000;  -50.000
264.825; -101.500; -816.000; -538.000
264.966;   -1.950;  -84.000;  -67.000
265.107; -107.325; -646.000; -670.000
265.248; -107.125; -825.000; -812.000
265.390;  -19.225;  152.000;   -9.000
265.531;  -23.900; -238.000; -107.000
265.672;  -74.175; -557.000; -630.000
265.813;   46.125;  563.000;  439.000
265.954; -142.175; -959.000; -940.000
266.095;  -20.875; -372.000; -322.000
266.236; -100.850; -686.000; -548.000
266.377;  -31.375; -243.000; -297.000
266.518;  -68.950; -619.000; -547.000
266.659;   23.250;  170.000;  268.000
266.800;    1.325;   83.000;   85.000
266.941;  -64.400; -487.000; -478.000
267.082;   10.275;  354.000;   99.000
267.223;  -53.075; -344.000; -273.000
267.364; -118.125; -892.000; -686.000
267.504;  -16.400;    3.000;  135.000
267.645;    1.650;  160.000;   67.000
267.786;  -33.750; -147.000;  -86.000
267.927;  -73.000; -473.000; -379.000
268.068;  -35.625; -186.000;  -61.000
268.209;  -45.025; -175.000; -413.000
268.350;  -65.500; -388.000; -532.000
268.490;  -79.325; -648.000; -521.000
268.631;   24.150;  127.000;  225.000
268.772; -109.950; -874.000; -647.000
268.913;  -48.425; -328.000; -476.000
269.054;  -12.325; -117.000;   12.000
269.194;  -53.325; -418.000; -402.000
269.335; -158.025;-1137.000;-1074.000
269.476;  -16.975;   33.000;  -35.000
269.617;  -55.525; -347.000; -392.000
269.757;  -91.575; -713.000; -646.000
269.898; -102.200; -856.000; -613.000
270.039;  -67.425; -415.000; -405.000
270.180; -140.375; -952.000; -816.000
270.320;  -26.525; -190.000; -250.000
270.461;  -43.425; -277.000; -249.000
270.602;  -16.400; -186.000; -156.000
270.742; -116.025; -868.000; -943.000
270.883;  -52.900; -442.000; -390.000
271.023;  -56.450; -358.000; -357.000
271.164;  -74.150; -607.000; -528.000
271.305;  -89.375; -666.000; -654.000
271.445;  -94.875; -722.000; -683.000
271.586;  -65.500; -462.000; -283.000
271.726;  -42.100; -397.000; -322.000
271.867;  -69.850; -594.000; -534.000
272.008;   48.675; -473.000; -285.000
272.148;   74.625;  462.000;  468.000
272.289;  -25.450; -113.000; -181.000
272.429;   -1.950;   19.000;  185.000
272.570;  -95.275; -633.000; -737.000
272.710; -103.200; -825.000; -775.000
272.851;  -32.125;  113.000; -130.000
272.991; -147.525;-1173.000;-1077.000
273.131;  -70.675; -419.000; -459.000
273.272; -106.850; -683.000; -723.000
273.412;  -15.400; -143.000;  -31.000
273.553;  -66.150; -488.000; -507.000
273.693;  100.200;  913.000;  858.000
273.834; -119.700; -894.000; -692.000
273.974;  -87.900; -664.000; -615.000
274.114; -113.850; -772.000; -560.000
274.255;   44.000;  414.000;  373.000
274.395;  -28.475; -180.000; -125.000
274.535;   27.450;  199.000;  350.000
274.676;    9.350;  225.000;   94.000
274.816;  -21.000;  110.000;   34.000
274.956;  -87.025; -624.000; -690.000
275.097; -103.400;-1014.000; -922.000
275.237; -114.675; -913.000; -803.000
275.377;  -98.925; -778.000; -689.000
275.517; -145.475; -878.000; -937.000
275.658;  -76.975; -590.000; -555.000
275.798;  -78.000; -606.000; -413.000
275.938;   16.000;  215.000;  323.000
276.078;  -93.900; -626.000; -395.000
276.218;   -9.800;   99.000;  104.000
276.359; -135.275;-1026.000;-1024.000
276.499;  -77.600; -605.000; -446.000
276.639;  -36.325; -305.000; -151.000
276.779;  -64.175; -475.000; -357.000
276.919; -117.250; -783.000; -624.000
277.059;  -32.025; -261.000; -212.000
277.199;  -53.700; -357.000; -259.000
277.340;   16.825;  287.000;  175.000
277.480; -115.775; -840.000; -693.000
277.620;   24.025;  192.000;   16.000
277.760; -194.650;-1533.000;-1294.000
277.900;  -12.950;  113.000;   33.000
278.040;   -2.175;  137.000;  159.000
278.180;   14.325;  270.000;  170.000
278.320;   -7.875;   21.000;   56.000
278.460;  -70.475; -443.000; -469.000
278.600;  -89.525; -708.000; -598.000
278.740;   33.425;  448.000;  224.000
278.880; -122.975; -768.000; -791.000
279.020;  -24.000; -194.000; -144.000
279.160;  -85.325; -672.000; -595.000
279.300; -116.375; -926.000; -873.000
279.440;  -91.325; -709.000; -622.000
279.579;  -73.225;-1014.000; -929.000
279.719;  -69.575; -410.000; -394.000
279.859;   20.875;   -4.000;   41.000
279.999;   -6.600; -208.000;  101.000
280.139;  -54.075; -435.000; -387.000
280.279;  -95.925; -708.000; -745.000
280.419;  -16.800; -229.000; -147.000
280.559;  -44.000; -259.000; -180.000
280.698; -100.700; -790.000; -639.000
280.838; -107.925; -778.000; -800.000
280.978; -104.650; -846.000; -790.000
281.118; -106.250; -811.000; -704.000
281.257;   -8.700;   24.000;    6.000
281.397; -143.775;-1094.000; -960.000
281.537; -108.525; -599.000; -712.000
281.677;  -30.600; -150.000; -101.000
281.816; -100.325; -700.000; -630.000
281.956;  -42.250; -193.000; -257.000
282.096;  -62.950; -539.000; -396.000
282.235; -114.900; -672.000; -638.000
282.375;  -32.725; -243.000;  -98.000
282.515; -100.025; -715.000; -707.000
282.654;   13.375;   29.000;  106.000
282.794;   16.700;  388.000;  244.000
282.934;  -53.625; -530.000; -491.000
283.073; -128.625;-1030.000; -857.000
283.213;  -67.575; -460.000; -467.000
283.353;  -64.050; -408.000; -349.000
283.492;  -36.525; -264.000; -296.000
283.632;  -54.725; -254.000; -168.000
283.771;  -95.850; -859.000; -730.000
283.911;  -53.225; -369.000; -260.000
284.050;  -98.125; -794.000; -748.000
284.190; -154.550;-1229.000;-1096.000
284.329; -130.300;-1055.000; -964.000
284.469;  -98.975; -516.000; -591.000
284.608;  -68.600; -559.000; -598.000
284.748;  -81.200; -614.000; -570.000
284.887;   -0.925;  -87.000;  -20.000
285.027; -117.625; -844.000; -892.000
285.166;  -38.175; -192.000; -249.000
285.306;  -23.225; -116.000;  -33.000
285.445;  -47.700; -229.000; -343.000
285.584;  -95.575; -630.000; -494.000
285.724;  -47.350; -282.000; -322.000
285.863; -111.575; -857.000; -507.000
286.002;  -62.325; -366.000; -276.000
286.142; -101.550; -715.000; -622.000
286.281;  -68.050; -525.000; -493.000
286.420;  -87.025; -554.000; -417.000
286.560;   75.975;  653.000;  623.000
286.699; -126.650; -958.000; -912.000
286.838;  -92.525; -590.000; -591.000
286.978;  -83.500; -533.000; -537.000
287.117; -143.425;-1085.000; -950.000
287.256;  -38.700; -228.000; -211.000
287.395;  -59.000; -197.000; -378.000
287.535;  -68.150; -370.000; -298.000
287.674;  -90.475; -509.000; -484.000
287.813;   55.900;  661.000;  533.000
287.952; -124.175;-1010.000; -871.000
288.091; -150.925;-1049.000; -915.000
288.231;   -8.350;   13.000;   15.000
288.370; -167.550;-1217.000;-1200.000
288.509;  -97.050; -728.000; -645.000
288.648;  -83.200; -770.000; -548.000
288.787;  -44.050; -243.000;  -87.000
288.926;  -74.725; -454.000; -475.000
289.065;   92.725;  859.000;  672.000
289.204;  -49.950; -377.000; -217.000
289.344;  -99.050; -791.000; -690.000
289.483;    7.100;  416.000;  304.000
289.622;  -30.400; -291.000; -149.000
289.761;  -19.900; -309.000; -166.000
289.900; -117.175; -785.000; -626.000
290.039;  -25.875;  -12.000;  -95.000
290.178;  -41.650; -274.000; -180.000
290.317;  -94.675; -618.000; -479.000
290.456;  -64.175; -463.000; -451.000
290.595; -136.175; -961.000; -833.000
290.734; -130.400; -904.000; -891.000
290.873;  -65.550; -456.000; -420.000
291.011; -104.050; -833.000; -843.000
291.150; -116.150; -770.000; -682.000
291.289;  -37.125; -343.000; -110.000
291.428;  -97.775; -599.000; -480.000
291.567;  -61.550; -370.000; -442.000
291.706;  -22.450;  109.000;  154.000
291.845;  -94.675; -597.000; -505.000
291.984; -167.025;-1234.000;-1061.000
292.122;   41.450;  602.000;  582.000
292.261;   30.100;  620.000;  463.000
292.400;   -5.750; -144.000;  211.000
292.539; -124.275; -959.000; -813.000
292.678;  -37.525; -325.000; -300.000
292.816; -155.750;-1136.000; -965.000
292.955; -110.000; -844.000; -684.000
293.094;  -41.725; -173.000; -337.000
293.233;  -62.975; -556.000; -400.000
293.371;  -41.600; -225.000;  -84.000
293.510; -123.675; -866.000; -780.000
293.649; -132.775; -959.000; -924.000
293.787; -124.250;-1083.000;-1012.000
293.926;  -18.675; -113.000;  -32.000
294.065;  -58.700; -379.000; -290.000
294.203;   40.450;  298.000;  406.000
294.342;   14.250;   74.000;  156.000
294.481; 5023.775;51180.000; -836.000
294.619;  -36.575; -425.000; -582.000
294.758; -158.175;-1230.000;-1137.000
294.896;    3.625; -125.000;    5.000
295.035; -151.875;-1040.000;-1006.000
295.174; -126.625;-1082.000; -954.000
295.312;  -50.875; -323.000; -203.000
295.451;  -45.750; -307.000; -428.000
295.589;  -82.375; -389.000; -518.000
295.728;   -0.800; -292.000; -165.000
295.866;  -21.150;  -36.000;  -51.000
296.005;  -69.250; -584.000; -341.000
296.143;  -73.700; -558.000; -596.000
296.282; -103.250; -957.000; -881.000
296.420; -100.900; -657.000; -557.000
296.559; -107.525; -892.000; -633.000
296.697;  -67.850; -847.000; -665.000
296.835;  -84.225;-1141.000;-1002.000
296.974;    5.000;  -23.000;   39.000
297.112;  -49.550; -443.000; -504.000
297.251; -107.350; -815.000; -755.000
297.389;  -29.700; -576.000; -438.000
297.527;  -13.275; -145.000;  -83.000
297.666;  -71.000; -486.000; -438.000
297.804;  -56.225; -404.000; -264.000
297.942;    1.825; -136.000; -161.000
298.081;  -13.700; -183.000;   63.000
298.219;   -0.425;  -17.000;  -19.000
298.357;   -8.800; -144.000;  -71.000
298.495;  -54.100; -810.000; -812.000
298.634;    6.700;  245.000;  219.000
298.772;  -30.750; -220.000; -338.000
298.910;  -47.250; -309.000; -182.000
299.048;  -21.700; -130.000; -153.000
299.187;  -47.200; -350.000; -250.000
299.325;  -10.625;   52.000;  122.000
299.463;  -27.200; -389.000; -299.000
299.601;  -11.550; -327.000; -271.000
299.739; -123.400; -908.000; -883.000
299.877;  -99.100; -791.000; -703.000
300.016; -103.475;-1095.000; -935.000
300.154;   29.675;  -19.000; -161.000
300.292;  -43.175; -428.000; -348.000
300.430;  -27.175; -408.000; -291.000
300.568; -134.825; -940.000; -874.000
300.706;  -69.825; -366.000; -469.000
300.844; -125.775;-1108.000; -979.000
300.982;   64.625;  246.000;  282.000
301.120; -134.500; -965.000; -866.000
301.258;  -95.275; -812.000; -705.000
301.396;    0.225;  104.000;  -41.000
301.534;  -33.275; -218.000; -293.000
301.672;  -74.625; -664.000; -521.000
301.810;  -56.275; -613.000; -545.000
301.948;   21.800;   53.000;  149.000
302.086;  188.225; -250.000;  -32.000
302.224;  220.800; -610.000; -585.000
302.362;  -66.850; -558.000; -622.000
302.500;  -86.550; -923.000; -893.000
302.638;   23.375;  128.000;  245.000
302.776;  -42.325; -352.000; -408.000
302.913;   31.925;  447.000;  236.000
303.051;  -40.575;  -86.000;  -23.000
303.189;    4.350;   90.000;  118.000
303.327;  -48.925; -341.000; -256.000
303.465;  -98.225; -832.000; -588.000
303.603;  -97.750; -805.000; -604.000
303.740;   49.825;  417.000;  241.000
303.878;  -78.850; -800.000; -759.000
304.016; -106.975; -915.000; -790.000
304.154; -157.325;-1123.000;-1152.000
304.291;  -48.875; -505.000; -554.000
304.429;  -20.900;  102.000;   74.000
304.567; -129.400; -908.000; -893.000
304.705;  -58.500; -408.000; -515.000
304.842;  -40.125; -616.000; -540.000
304.980;   13.925;  215.000;   35.000
305.118;  -14.225; -367.000; -365.000
305.255; -119.925; -945.000; -927.000
305.393;   34.975;  178.000;  239.000
305.531; -144.275;-1173.000; -956.000
305.668;  -89.200; -663.000; -582.000
305.806;   -3.925; -358.000; -439.000
305.943;  -10.500; -629.000; -637.000
306.081;  -20.750; -378.000; -267.000
306.219; -110.050; -863.000; -748.000
306.356;    7.850;  158.000;   27.000
306.494;  100.825;  981.000;  761.000
306.631;   -7.250;  -11.000;  -55.000
306.769;  -30.025; -613.000; -485.000
306.906;  -47.225; -284.000; -258.000
307.044;  -61.050; -473.000; -488.000
307.181;  -65.600; -410.000; -332.000
307.319;   11.100;  112.000;   87.000
307.456; -175.575;-1191.000;-1153.000
307.594; -112.100; -980.000; -727.000
307.731;  -35.625; -371.000; -164.000
307.868;  -13.900;  -15.000;   20.000
308.006; -122.575; -961.000; -847.000
308.143;  -88.150; -618.000; -330.000
308.281;   37.000;  -37.000; -254.000
308.418;  -46.925; -748.000; -640.000
308.555;  -87.500; -400.000; -250.000
308.693;  -68.600; -577.000; -573.000
308.830; -104.450; -712.000; -657.000
308.967;  -28.000; -215.000;  -95.000
309.105;  -38.950; -507.000; -396.000
309.242;  -18.450; -468.000; -367.000
309.379;   56.200; -577.000; -655.000
309.517; -101.550; -936.000; -948.000
309.654; -104.400; -910.000; -734.000
309.791;  -61.850; -662.000; -580.000
309.928; -114.800; -977.000; -914.000
310.065;  117.325;  819.000;  697.000
310.203;  -89.125; -825.000; -850.000
310.340;  -38.750; -465.000; -321.000
310.477;  -77.325; -412.000; -516.000
310.614;  -55.425; -383.000; -473.000
310.751;  -63.075; -427.000; -518.000
310.889;  -17.650;    1.000;   11.000
311.026; -136.625;-1161.000; -939.000
311.163;  -50.800; -386.000; -380.000
311.300;  -75.650; -512.000; -479.000
311.437;  -59.425; -658.000; -619.000
311.574; -155.100;-1226.000; -985.000
311.711;  -60.525; -595.000; -433.000
311.848;  -37.425; -380.000; -388.000
311.985;   14.425;  270.000;   93.000
312.122; -126.600; -932.000; -762.000
312.259; -121.775; -941.000; -994.000
312.396;  -82.800; -508.000; -551.000
312.533;  -88.875; -812.000; -790.000
312.670; -132.850;-1070.000; -898.000
312.807;  -37.925; -352.000; -367.000
312.944;  -64.700; -513.000; -611.000
313.081;  -21.100; -150.000; -415.000
313.218;  -86.825;-1111.000; -867.000
313.355;  -12.175; -531.000; -449.000
313.492;   -9.000; -455.000; -292.000
313.629;  117.775;  815.000;  735.000
313.766; -153.025;-1176.000;-1008.000
313.902;   -7.900; -186.000;   21.000
314.039;  -49.650; -372.000; -289.000
314.176;   26.600;  286.000;  192.000
314.313;  -82.400; -569.000; -473.000
314.450;  -74.325; -788.000; -684.000
314.587;  -75.400; -468.000; -480.000
314.723;   -0.950;  -78.000;  130.000
314.860;   36.350;  318.000;  332.000
314.997;   33.350;  223.000;  142.000
315.134;  -44.325; -385.000; -368.000
315.270;  -27.725; -480.000; -496.000
315.407; -109.425;-1094.000; -967.000
315.544;  -28.450; -657.000; -538.000
315.681;  -61.875; -681.000; -565.000
315.817;   24.850; -133.000; -176.000
315.954;   21.225; -613.000; -392.000
316.091; -126.475;-1045.000;-1023.000
316.227;  -30.300;  -71.000; -179.000
316.364;  -22.850;   23.000;    6.000
316.500;  -61.300; -113.000; -300.000
316.637;  -47.925; -181.000; -302.000
316.774;  -86.450; -625.000; -358.000
316.910;  -87.775; -598.000; -629.000
317.047;  -74.275; -487.000; -351.000
317.183;  -63.750; -435.000; -566.000
317.320;   32.200; -367.000; -321.000
317.456;  -34.650; -733.000; -805.000
317.593;  -89.250; -598.000; -641.000
317.729;   -5.875;  168.000;  -67.000
317.866; -198.025;-1434.000;-1285.000
318.002;  -97.525; -708.000; -948.000
318.139; -123.875; -883.000; -867.000
318.275; -107.550;-1003.000; -738.000
318.412;  -83.525; -517.000; -336.000
318.548;  -84.100; -751.000; -720.000
318.685; -107.350; -985.000; -888.000
318.821;  -84.000; -762.000; -735.000
318.957;  -29.925;   34.000;  -23.000
319.094;   38.675;  297.000;  154.000
319.230;  -89.150; -756.000; -742.000
319.367;   -9.150; -471.000; -520.000
319.503;  -41.675; -538.000; -436.000
319.639; -105.850; -877.000; -793.000
319.775;  -94.800; -750.000; -685.000
319.912;  -63.000; -424.000; -519.000
320.048; -112.600;-1184.000;-1184.000
320.184;   81.875;   59.000;   70.000
320.321;  -54.875; -497.000; -467.000
320.457;   67.100;  475.000;  662.000
320.593;  -68.150; -375.000; -382.000
320.729; -100.750; -732.000; -734.000
320.866;  -67.625; -577.000; -635.000
321.002;  -93.650; -759.000; -809.000
321.138;  -32.150; -135.000; -211.000
321.274;   11.400; -148.000; -115.000
321.410;  -70.500; -585.000; -353.000
321.546; -103.300;-1011.000; -911.000
321.683;   10.900;  400.000;  185.000
321.819;  -14.650;  -48.000; -117.000
321.955; -123.925; -743.000; -722.000
322.091;  -66.200; -585.000; -540.000
322.227;  -49.900; -382.000; -202.000
322.363;  -42.500; -320.000; -215.000
322.499;  -70.900; -343.000; -331.000
322.635;   95.575;  636.000;  443.000
322.771;  -25.350; -139.000;   12.000
322.907;   45.900;  129.000;  327.000
323.043;  -36.050; -115.000; -206.000
323.179;  -61.900; -394.000; -363.000
323.315;  -46.225; -401.000; -371.000
323.451;   10.875; -328.000; -236.000
323.587;   52.975;  -60.000;  -77.000
323.723;  -57.650; -682.000; -601.000
323.859;  -34.375; -258.000;  -76.000
323.995;  -62.025; -467.000; -409.000
324.131; -120.450; -967.000; -892.000
324.267;  -37.450; -254.000; -276.000
324.402; -139.650; -960.000; -983.000
324.538;  -39.275; -279.000; -104.000
324.674;  -27.500;  164.000;   77.000
324.810;   55.525;  226.000;  308.000
324.946;  -50.525; -810.000; -658.000
325.082;  -77.425; -568.000; -475.000
325.217;  -28.400;  -62.000;   16.000
325.353; -116.650; -764.000; -659.000
325.489;  -88.400; -540.000; -506.000
325.625;  -70.350; -579.000; -525.000
325.760;   84.500;  517.000;  376.000
325.896;   -6.375; -515.000; -702.000
326.032;  -48.375; -403.000; -352.000
326.168;  -78.975; -462.000; -369.000
326.303;  -73.575; -352.000; -461.000
326.439;  -19.900; -336.000; -276.000
326.575;   -3.675; -190.000;  -29.000
326.710;  -34.000; -156.000;  -30.000
326.846;  -18.150;  146.000;  103.000
326.982;  -94.675; -530.000; -548.000
327.117;  -68.000; -481.000; -442.000
327.253;  -73.850; -745.000; -742.000
327.388; -167.675;-1137.000;-1153.000
327.524;  -84.750; -811.000; -578.000
327.659;  -28.550;  -58.000;  -22.000
327.795;  -29.050;   69.000;   45.000
327.931;  -78.500; -723.000; -499.000
328.066;  -35.150; -417.000; -276.000
328.202;  -21.925;   12.000; -129.000
328.337;   75.950;  957.000;  713.000
328.473;   40.325;  -12.000;  -74.000
328.608;  -37.125; -256.000; -267.000
328.743; -100.600; -799.000; -664.000
328.879;    1.400;  214.000;  114.000
329.014;  -21.775; -102.000; -122.000
329.150;  -93.050; -358.000; -483.000
329.285;  -84.800; -465.000; -466.000
329.421;  -54.450; -548.000; -246.000
329.556;  -29.350;  -36.000;   85.000
329.691; -104.050; -633.000; -615.000
329.827;  -92.850; -626.000; -480.000
329.962;  -42.775;  131.000; -301.000
330.097;  -90.250; -673.000; -585.000
330.233;  -62.925; -410.000; -223.000
330.368; -122.900; -839.000; -628.000
330.503;  -13.875;    3.000;   98.000
330.638;  -25.650;  -93.000; -125.000
330.774;  -87.650; -609.000; -530.000
330.909;  -59.500; -434.000; -244.000
331.044; -105.475; -714.000; -708.000
331.179; -169.875;-1217.000;-1109.000
331.315;   -2.625;   77.000;   20.000
331.450;    5.575;  157.000;  285.000
331.585;  -78.825; -805.000; -706.000
331.720;  -85.000; -510.000; -460.000
331.855;   -9.250;  -35.000; -102.000
331.990;  426.750;   62.000;  138.000
332.126;  213.725; -110.000;   71.000
332.261;    6.850; -379.000; -265.000
332.396;   12.050; -135.000; -242.000
332.531;  -49.050;-1074.000;-1031.000
332.666;   89.225; -519.000; -363.000
332.801; -111.350; -726.000; -807.000
332.936;  -36.350; -192.000; -122.000
333.071; -130.200; -870.000; -817.000
333.206;   14.700;  307.000;  379.000
333.341;   16.675;  344.000;  418.000
333.476;  -90.050; -627.000; -623.000
333.611;  -43.275; -251.000; -173.000
333.746;  -50.875; -381.000; -464.000
333.881; -130.725; -973.000; -935.000
334.016; -124.450; -936.000; -917.000
334.151; -122.925; -746.000; -702.000
334.286;   19.450;  152.000;  186.000
334.421;  -23.600; -125.000; -178.000
334.556;  -93.825; -611.000; -567.000
334.690;  -76.725; -631.000; -577.000
334.825;   36.150;  381.000;   83.000
334.960;  -64.525; -285.000; -413.000
335.095;    3.600;  135.000;  -91.000
335.230; -106.750; -722.000; -738.000
335.365; -134.125;-1084.000; -990.000
335.499; -150.075;-1108.000;-1037.000
335.634;   12.900;    9.000;  534.000
335.769;  -77.550; -755.000; -720.000
335.904;  -52.575; -603.000; -561.000
336.038;  -50.275; -735.000; -657.000
336.173; -104.325;-1206.000;-1194.000
336.308;   12.825; -116.000; -189.000
336.443;   69.175; -544.000; -634.000
336.577;  -53.675; -936.000; -787.000
336.712;   61.425;   -4.000;  -12.000
336.847;  -24.475; -724.000; -607.000
336.981;   66.150; -272.000; -208.000
337.116;  278.400;  615.000;  501.000
337.250;  115.550; -434.000; -421.000
337.385;  492.600; -297.000; -208.000
337.520;  218.225; -632.000; -603.000
337.654;  -44.525; -215.000; -126.000
337.789; -144.275; -989.000; -933.000
337.923;  -48.200; -104.000; -205.000
338.058; -111.350; -673.000; -738.000
338.192;  -61.200; -611.000; -488.000
338.327;  -18.525;  -18.000; -155.000
338.461;  -63.425; -299.000; -469.000
338.596;  -95.825; -780.000; -638.000
338.730;  -92.075; -767.000; -803.000
338.865;  165.275;  -46.000; -140.000
338.999;   19.425; -846.000; -702.000
339.134;    3.450; -634.000; -536.000
339.268;   30.750; -741.000; -603.000
339.403;  550.875; -740.000; -775.000
339.537;  263.300; -894.000; -820.000
339.671; -107.725; -829.000; -813.000
339.806;  -36.150; -556.000; -512.000
339.940;   48.050; -261.000; -235.000
340.074; -109.075; -685.000; -510.000
340.209;  -64.300; -351.000; -230.000
340.343; -107.000; -517.000; -573.000
340.477;  133.250;  998.000; 1036.000
340.612;   16.825;-1033.000; -900.000
340.746;  265.600; -199.000; -243.000
340.880;  -97.525; -924.000; -785.000
341.014;  -29.950;  -45.000; -154.000
341.149; -117.425; -756.000; -718.000
341.283; -117.150; -839.000; -754.000
341.417; -140.675;-1124.000; -938.000
341.551;  -46.400; -768.000; -708.000
341.685;  -57.400; -633.000; -611.000
341.820;  -52.025; -562.000; -493.000
341.954;  -60.200; -218.000; -349.000
342.088; -154.900;-1102.000;-1019.000
342.222;   38.275;  565.000;  618.000
342.356;  -89.925; -395.000; -335.000
342.490; -115.550; -880.000; -841.000
342.624;  -73.700; -339.000; -242.000
342.758;  -65.625; -364.000; -312.000
342.892; -107.475; -710.000; -585.000
343.026;  -41.100;  -58.000; -116.000
343.160;  -74.875; -426.000; -376.000
343.294; -100.700; -474.000; -337.000
343.428;  -87.400; -488.000; -448.000
343.562;  -37.275; -172.000;  -23.000
343.696;  -49.125; -385.000; -314.000
343.830;  -56.275; -362.000; -356.000
343.964;  -37.700; -231.000; -168.000
344.098;  287.325;  199.000;   70.000
344.232;  242.100; -266.000; -127.000
344.366;   68.475; -567.000; -453.000
344.500;  -53.500; -665.000; -744.000
344.634;  -45.700; -324.000; -164.000
344.768;  -60.775; -531.000; -341.000
344.902;    7.100;  278.000;  256.000
345.035;  -74.275; -556.000; -496.000
345.169; -132.150; -933.000; -656.000
345.303;  -58.500; -308.000; -482.000
345.437; -103.750; -826.000; -717.000
345.571;  -64.850; -675.000; -594.000
345.704;  -62.500; -309.000; -532.000
345.838;  -28.250; -331.000; -284.000
345.972;  -74.900; -543.000; -495.000
346.106;  253.675; -179.000; -190.000
346.239;  488.975; -312.000; -243.000
346.373;   -4.325; -343.000; -302.000
346.507; -142.700; -950.000; -962.000
346.640;   23.800;  -30.000;   13.000
346.774;  -96.775; -650.000; -797.000
346.908;  -30.350; -138.000;  -11.000
347.041; -106.200; -646.000; -593.000
347.175;   -7.650;  259.000;   27.000
347.309;  -97.625; -698.000; -628.000
347.442; -119.650; -883.000; -732.000
347.576;  126.150;  670.000;  668.000
347.709;   25.425; -123.000;  -52.000
347.843; -133.150; -933.000; -825.000
347.976;    5.750;  235.000;  294.000
348.110; -173.075;-1268.000;-1186.000
348.243;  -98.725; -679.000; -772.000
348.377;    7.575;  -26.000;   60.000
348.510;   41.075;  403.000;  540.000
348.644;  -56.750;  -37.000; -159.000
348.777;  -14.675;  180.000;  191.000
348.911;  -56.450; -142.000; -112.000
349.044;   75.100;  471.000;  448.000
349.178;  -42.025;-1069.000;-1006.000
349.311;  105.550;  141.000;  255.000
349.444;   33.325; -927.000; -813.000
349.578;  -31.650; -347.000; -200.000
349.711; -128.550; -959.000; -862.000
349.845;  -73.425; -661.000; -591.000
349.978; -177.650;-1224.000;-1137.000
350.111;  -84.850; -546.000; -612.000
350.244; -108.575; -596.000; -700.000
350.378;  -66.775; -392.000; -393.000
350.511;  -83.250; -393.000; -426.000
350.644;  -92.975; -808.000; -806.000
350.778;   -3.750;  168.000;  104.000
350.911;   -5.575;  134.000;  140.000
351.044;  -92.150; -685.000; -615.000
351.177;  -54.300; -321.000; -281.000
351.310;  -29.075;    3.000; -131.000
351.444; -113.075; -888.000; -788.000
351.577;   40.475;  140.000;   90.000
351.710;   58.975;  593.000;  417.000
351.843;  -40.825; -165.000;  -77.000
351.976;   -6.325;  149.000;  -79.000
352.109; -100.700; -621.000; -612.000
352.242;  -66.925; -464.000; -419.000
352.376;  -87.525; -580.000; -636.000
352.509;   15.550; -437.000; -356.000
352.642;  -89.950; -654.000; -604.000
352.775;   -8.175; -141.000;  -98.000
352.908; -124.950; -933.000; -904.000
353.041; -109.075; -814.000; -824.000
353.174;  -65.900; -551.000; -424.000
353.307;  -92.150; -753.000; -764.000
353.440;   49.700;  541.000;  453.000
353.573;  -91.675; -957.000;-1008.000
353.706;  -59.125; -384.000; -558.000
353.839;  -35.400; -264.000; -220.000
353.971;  -98.275; -657.000; -512.000
354.104; -100.025; -896.000; -835.000
354.237;  -71.600; -627.000; -662.000
354.370; -101.650; -846.000; -879.000
354.503; -171.225;-1231.000;-1308.000
354.636;  -37.175; -529.000; -348.000
354.769; -127.300; -937.000; -860.000
354.902;  -37.325; -230.000; -139.000
355.034;  -28.175; -164.000; -220.000
355.167;  -16.675; -262.000; -162.000
355.300;  -59.500;-1061.000; -880.000
355.433; 1435.675;  -71.000;  -14.000
355.565; 2236.775; -402.000; -384.000
355.698;  589.375; -356.000; -296.000
355.831;  -13.100; -882.000; -801.000
355.964;   14.550; -285.000; -170.000
356.096;  -77.475; -856.000; -843.000
356.229;  -11.325; -523.000; -530.000
356.362;  515.075; -373.000; -266.000
356.494;  928.400; -229.000; -162.000
356.627;  326.575;  269.000;  377.000
356.760;  895.475;  120.000;   53.000
356.892; 1526.150; -286.000; -601.000
357.025;  339.925;  403.000;  389.000
357.157;  224.550; -167.000; -179.000
357.290; 1203.550; -856.000; -713.000
357.423;  364.850; -667.000; -556.000
357.555;  101.400; -217.000; -228.000
357.688;  114.150; -483.000; -364.000
357.820;  160.625; -870.000; -877.000
357.953; 1489.800; -563.000; -589.000
358.085;  213.850; -632.000; -612.000
358.218;  119.825;-1131.000; -932.000
358.350;   26.425;  -58.000;  312.000
358.483; -166.850;-1300.000;-1187.000
358.615; -119.000;-1182.000;-1078.000
358.747; -156.725;-1187.000;-1058.000
358.880;  -63.350; -810.000; -744.000
359.012;  -40.600; -376.000; -202.000
359.145;  -80.650; -480.000; -511.000
359.277;  -54.075; -962.000; -913.000
359.409; 1241.900;  536.000;  231.000
359.542;  252.550; -738.000; -688.000
359.674;   17.325;   46.000;   13.000
359.806;  -79.100; -565.000; -438.000
359.939;  -36.525; -617.000; -516.000
360.071;   38.075; -583.000; -579.000
360.203;  -33.675; -411.000; -364.000
360.335;   26.475;  164.000;  -16.000
360.468;   88.625; -249.000; -307.000
360.600; 1301.300; -547.000; -454.000
360.732; 4302.950; -546.000; -423.000
360.864;  655.450;-1216.000;-1044.000
360.996;   73.125; -516.000; -554.000
361.129;  -41.050; -389.000; -598.000
361.261;  -16.950;  110.000; -113.000
361.393;  -43.450; -252.000; -214.000
361.525;   -5.450;   94.000;  244.000
361.657; -115.800; -821.000; -703.000
361.789;  -34.025; -139.000; -155.000
361.921;  -45.450; -642.000; -593.000
362.053;   88.850;  524.000;  541.000
362.185;  -12.275;  288.000;   72.000
362.318; -115.525; -709.000; -705.000
362.450;   33.300;  294.000;  444.000
362.582; -101.275; -913.000; -870.000
362.714;  -75.100; -353.000; -332.000
362.846;  -98.150; -606.000; -490.000
362.978; -135.100; -941.000; -811.000
363.109;  -38.100; -161.000; -260.000
363.241;  145.250; -739.000; -749.000
363.373;  619.025; -649.000; -564.000
363.505; 1041.625; -186.000;  -91.000
363.637;  240.550; -787.000; -601.000
363.769; -144.475;-1067.000;-1080.000
363.901;  -83.500; -596.000; -654.000
364.033; -150.450;-1103.000;-1062.000
364.165;  -46.325; -283.000; -283.000
364.296;   88.575; -316.000; -177.000
364.428;  191.675;-1344.000;-1220.000
364.560;  -64.600; -679.000; -661.000
364.692;  -91.750; -738.000; -835.000
364.824;   -6.300; -588.000; -456.000
364.955;  506.925; -402.000; -564.000
365.087; 1697.600;-1097.000; -852.000
365.219;   98.200; -686.000; -816.000
365.351;  -80.850; -526.000; -572.000
365.482;    8.625;  300.000;  240.000
365.614;  -71.675; -402.000; -314.000
365.746; -113.675; -729.000; -752.000
365.877;  -84.425; -706.000; -672.000
366.009;  422.575;  -35.000;  -62.000
366.141;  -15.700;-1249.000;-1134.000
366.272; -105.650; -803.000; -719.000
366.404; -116.225;-1005.000; -874.000
366.535;  -33.025; -139.000;  -12.000
366.667; -107.150; -644.000; -649.000
366.799;   17.500;  353.000;  203.000
366.930; -126.250; -862.000; -996.000
367.062;  188.675; -639.000; -613.000
367.193;  355.225; -872.000; -842.000
367.325;  -41.900; -580.000; -684.000
367.456;   -4.475; -246.000;   31.000
367.588;  255.000; -371.000; -318.000
367.719;   32.325;  -44.000;  -45.000
367.851;  -50.050; -222.000; -241.000
367.982; -122.850; -875.000; -732.000
368.113;  -17.775; -475.000; -358.000
368.245; -136.475; -960.000; -841.000
368.376;  -46.250; -254.000; -302.000
368.508;  -54.825; -188.000; -263.000
368.639; -157.200;-1166.000;-1034.000
368.770;  -96.350; -670.000; -589.000
368.902; -117.625; -836.000; -926.000
369.033; -127.375; -906.000; -855.000
369.164;  -43.100; -720.000; -653.000
369.296;  -98.300; -452.000; -601.000
369.427;  -44.900; -209.000; -144.000
369.558;  -97.550; -593.000; -377.000
369.689;  -85.150; -721.000; -569.000
369.821; -131.775; -951.000; -845.000
369.952;  -29.600;   42.000; -108.000
370.083;  -54.375; -229.000; -108.000
370.214; -109.925; -735.000; -650.000
370.345;  -24.600;   65.000;   81.000
370.477; -123.750; -810.000; -790.000
370.608;   24.975; -328.000; -264.000
370.739; -141.250;-1233.000;-1292.000
370.870; -117.850;-1102.000; -923.000
371.001;  -25.275; -378.000; -467.000
371.132; -106.425; -754.000; -735.000
371.263;  -33.825;  -42.000; -148.000
371.394; -143.400; -841.000; -748.000
371.525;   22.450;  345.000;  225.000
371.657; -115.000; -808.000; -670.000
371.788;    7.975;  103.000;  199.000
371.919;   -0.225; -384.000; -304.000
372.050; 1243.225;  -91.000; -156.000
372.181;  383.625; -188.000; -294.000
372.311;  107.250;   42.000; -127.000
372.442;  -53.150; -457.000; -451.000
372.573;  -54.875; -444.000; -340.000
372.704; -148.325;-1008.000; -980.000
372.835;  -35.825; -228.000; -289.000
372.966; -103.375; -646.000; -554.000
373.097;  -91.525; -575.000; -711.000
373.228; -102.450; -717.000; -542.000
373.359;  -38.300; -824.000; -536.000
373.490;  165.550; -881.000; -727.000
373.620;  222.025;-1001.000; -803.000
373.751;  494.600; -332.000; -396.000
373.882;  195.725; -663.000; -733.000
374.013;  -36.525; -449.000; -262.000
374.143;  -81.600; -581.000; -659.000
374.274; -131.875; -987.000; -908.000
374.405;   41.450; -388.000; -276.000
374.536;   93.725; -526.000; -387.000
374.666;  258.750; -759.000; -807.000
374.797;  -19.375; -817.000; -868.000
374.928;  171.550; -710.000; -560.000
375.058;  175.150; -535.000; -500.000
375.189;  -10.600;  -59.000;  -93.000
375.320; -126.425; -928.000;-1034.000
375.450;  -66.325; -625.000; -616.000
375.581;  -38.475; -526.000; -436.000
375.712;  -50.400; -574.000; -250.000
375.842;  -10.950; -438.000; -415.000
375.973;  -26.225; -554.000; -513.000
376.103; -113.025; -665.000; -648.000
376.234; -106.850; -531.000; -552.000
376.364; -129.975; -944.000; -867.000
376.495;  144.400;  925.000;  529.000
376.625;  -73.650; -472.000; -485.000
376.756;  -59.600; -709.000; -678.000
376.886; -132.600;-1178.000;-1026.000
377.017;  146.375;-1048.000;-1061.000
377.147;  665.700; -786.000; -782.000
377.278;   83.650;  174.000;  228.000
377.408; -123.875; -801.000; -815.000
377.538;  -96.600; -707.000; -693.000
377.669;  -85.075; -537.000; -613.000
377.799; -102.200; -645.000; -635.000
377.929;  -99.350; -610.000; -428.000
378.060; -138.850; -781.000; -847.000
378.190;  -41.125; -726.000; -531.000
378.320;  -37.050; -401.000; -406.000
378.451;  -26.925; -131.000;  -22.000
378.581;  -30.900;  -67.000; -110.000
378.711;   92.325; 1035.000;  866.000
378.841;  -80.975; -533.000; -675.000
378.972; -119.625; -871.000; -751.000
379.102;  -76.775; -652.000; -579.000
379.232;  -51.850; -126.000;  -73.000
379.362; -128.000;-1001.000; -885.000
379.492;  -63.250; -373.000; -424.000
379.623;   39.450;    0.000;  111.000
379.753; -121.750;-1107.000; -974.000
379.883;   67.650;   59.000;  156.000
380.013;  -85.550;-1081.000;-1017.000
380.143; -135.325;-1097.000;-1056.000
380.273; -113.200; -985.000; -861.000
380.403;   -6.775; -344.000; -257.000
380.533;  -48.625; -651.000; -664.000
380.663;   10.700;  173.000;  128.000
380.793; -160.300;-1027.000;-1074.000
380.923;  -44.300; -103.000;  -34.000
381.053; -111.625; -613.000; -623.000
381.183;  -47.775; -106.000; -248.000
381.313;  -67.175; -656.000; -470.000
381.443;  -55.700; -692.000; -473.000
381.573;  -36.475; -402.000; -409.000
381.703;  -97.575;-1249.000;-1095.000
381.833; -182.575;-1454.000;-1336.000
381.963;    4.325; -134.000;  -87.000
382.093;  378.975; -925.000; -909.000
382.223;   82.550; -713.000; -602.000
382.353;  -86.475; -801.000; -608.000
382.482;  -15.075;-1091.000; -964.000
382.612;  163.400; -872.000; -644.000
382.742;   51.775; -695.000; -622.000
382.872;  -20.000; -565.000; -551.000
383.002;   10.700;  347.000; -132.000
383.131;  -31.950; -226.000; -160.000
383.261;  -41.950; -706.000; -768.000
383.391;  316.700; -552.000; -377.000
383.521; 5096.125;  451.000;  263.000
383.650; 1541.925; -947.000; -904.000
383.780;   40.800; -783.000; -656.000
383.910;   88.275;  880.000;  802.000
384.039;  -95.150; -794.000; -656.000
384.169; -109.475;-1205.000;-1017.000
384.299; -101.000; -650.000; -662.000
384.428; -124.050; -764.000; -680.000
384.558;  -76.225; -308.000; -275.000
384.687;  -70.975; -414.000; -334.000
384.817;  -19.825;   75.000;   -2.000
384.947;  -55.750; -234.000; -141.000
385.076;  142.250;  982.000;  912.000
385.206;   42.350;  369.000;  480.000
385.335;  -69.375; -549.000; -417.000
385.465; -118.750; -655.000; -663.000
385.594;   -5.825;  -53.000;  -44.000
385.724;   12.825; -868.000; -838.000
385.853;  -12.075; -296.000; -270.000
385.982;  329.725; -743.000; -787.000
386.112;  636.875;-1052.000; -871.000
386.241;    2.050; -307.000; -312.000
386.371;  -35.500; -174.000;  -87.000
386.500;  -79.675; -825.000; -789.000
386.629;  -13.575; -874.000; -817.000
386.759;   69.050;  -43.000;   68.000
386.888;  -25.350; -170.000; -250.000
387.017; -115.225; -648.000; -620.000
387.147; -117.150; -771.000; -798.000
387.276;  -77.150; -410.000; -397.000
387.405;  -59.125; -398.000; -342.000
387.535;  -83.625; -452.000; -361.000
387.664;  -85.450; -692.000; -620.000
387.793;  -28.675; -198.000; -113.000
387.922;  136.650;  255.000;  200.000
388.052;  -64.175; -576.000; -423.000
388.181;  -76.850; -342.000; -472.000
388.310;  -93.950; -889.000; -710.000
388.439; -116.450; -749.000; -742.000
388.568;   28.450;  365.000;  244.000
388.697;  245.350; -756.000; -653.000
388.826;  -15.900; -768.000; -666.000
388.956;  -47.025; -285.000; -307.000
389.085;  -50.425; -347.000; -287.000
389.214; -134.350; -842.000; -872.000
389.343;  -84.350; -645.000; -413.000
389.472;  547.750;  126.000;  149.000
389.601;  643.300;   91.000;    0.000
389.730;  -30.150; -568.000; -687.000
389.859;   12.100;  226.000;   46.000
389.988;    5.225; -423.000; -408.000
390.117;   38.550; -168.000; -146.000
390.246;  -53.025; -331.000; -320.000
390.375;  -76.125; -673.000; -626.000
390.504;  -96.025; -703.000; -621.000
390.633; -124.950; -672.000; -726.000
390.761;  -98.800; -732.000; -645.000
390.890;  -38.075;   -4.000; -130.000
391.019;  -83.650; -421.000; -441.000
391.148; -128.250; -826.000; -855.000
391.277;  -98.650; -576.000; -493.000
391.406; -113.250; -821.000; -805.000
391.534;   -7.975;  574.000; -301.000
391.663;  -95.800; -583.000; -645.000
391.792; -111.600; -673.000; -701.000
391.921;  -23.225;   -3.000;   15.000
392.050;  -16.075; -287.000; -228.000
392.178; -143.525;-1206.000;-1061.000
392.307;  -43.850; -758.000; -712.000
392.436;  -51.750; -427.000; -641.000
392.564;  -14.925;  166.000;   -6.000
392.693; -132.350; -860.000; -682.000
392.822;    1.500; -529.000; -534.000
392.950;  -84.200; -880.000; -714.000
393.079;   50.250; -188.000; -328.000
393.208;  -51.550; -488.000; -511.000
393.336;  -38.000; -170.000; -145.000
393.465;  -40.825; -317.000; -199.000
393.593;    7.150;   62.000;   79.000
393.722; -159.600;-1121.000; -916.000
393.850;  -35.375; -188.000;  -61.000
393.979; -140.450; -926.000; -805.000
394.107;  -71.300; -517.000; -537.000
394.236;  -57.850; -570.000; -507.000
394.364;   98.250;  383.000;  206.000
394.493;   57.000; -911.000; -767.000
394.621;  -12.275; -955.000; -916.000
394.750; 1154.600; -873.000; -923.000
394.878; 4421.750; -247.000; -149.000
395.007; 6492.525; -721.000; -807.000
395.135;  583.300; -790.000; -721.000
395.263;  -70.775;-1038.000;-1040.000
395.392;   -8.725;  -25.000; -107.000
395.520; -132.600; -818.000; -679.000
395.648; -129.375; -865.000; -915.000
395.777;  -82.975; -366.000; -405.000
395.905;  -80.225; -449.000; -564.000
396.033;  -18.700;  217.000;  172.000
396.162;   89.475; -399.000; -453.000
396.290;  117.025;  -17.000;   -2.000
396.418;  -73.025; -555.000; -514.000
396.546;  -99.050; -571.000; -466.000
396.674; -137.525; -850.000; -878.000
396.803;  -30.900;  -72.000;  -23.000
396.931;  -29.625; -179.000; -199.000
397.059; -128.425;-1026.000; -989.000
397.187; -151.975;-1026.000; -975.000
397.315; -150.500; -884.000; -649.000
397.443; -103.050; -592.000; -443.000
397.572; -102.100; -578.000; -424.000
397.700;  -88.225; -607.000; -614.000
397.828;  -38.550;  120.000;  -90.000
397.956;  -45.325; -508.000; -478.000
398.084;  -43.775; -767.000; -626.000
398.212;    6.425;  137.000;  124.000
398.340;  -32.400;  -56.000;  159.000
398.468;  -53.975; -390.000; -169.000
398.596; -151.000; -993.000; -953.000
398.724; -132.100; -762.000; -767.000
398.852; -169.675;-1024.000; -976.000
398.980;  -96.375; -560.000; -560.000
399.108; -101.250; -982.000; -735.000
399.236;  -11.700;   13.000;    8.000
399.363;  -12.275;  222.000;  196.000
399.491;  -71.475; -404.000; -398.000
399.619; -122.225; -829.000; -800.000
399.747; -111.450; -859.000; -771.000
399.875;   26.400;  220.000;  234.000
400.003;  -75.500; -359.000; -284.000
400.130; -104.275; -421.000; -341.000
400.258;  -35.300;  -83.000;   38.000
400.386;  -69.975; -352.000; -168.000
400.514;  -87.350; -526.000; -587.000
400.641; -144.150; -928.000; -802.000
400.769; -152.750; -979.000; -888.000
400.897; -146.900; -838.000; -793.000
401.025;  -57.100; -166.000; -152.000
401.152;  -13.025;  220.000;   38.000
401.280;  -95.175; -430.000; -429.000
401.408; -122.375; -712.000; -576.000
401.535; -111.925; -735.000; -758.000
401.663; -185.550;-1134.000;-1054.000
401.790; -102.400; -514.000; -525.000
401.918;    6.550;  436.000;  405.000
402.046;  -29.650;  134.000;  122.000
402.173;  -57.500;  -18.000;    7.000
402.301;  -88.300; -519.000; -397.000
402.428;   26.775;  528.000;  383.000
402.556; -159.800;-1188.000; -913.000
402.683;  -53.275;  -20.000;   -1.000
402.811;  -39.250;  -37.000; -206.000
402.938;  -32.125;   20.000;   27.000
403.066;    0.375; -574.000; -558.000
403.193;   99.975;  299.000;  239.000
403.321;   54.250; -396.000; -574.000
403.448;   96.900;   83.000;   27.000
403.575;   30.600;  -90.000;  -46.000
403.703; -110.300; -732.000; -557.000
403.830;  -66.675; -531.000; -496.000
403.957; -134.225;-1117.000;-1023.000
404.085;    3.050;  -61.000; -172.000
404.212;   97.925;  -50.000;   63.000
404.339;  419.925; -566.000; -306.000
404.467; 8958.975; -612.000; -524.000
404.594; 5492.550; -287.000; -227.000
404.721;  925.325; -869.000; -764.000
404.848;  103.075; -113.000; -202.000
404.976; -107.400; -856.000; -783.000
405.103;   -9.175;  -14.000;  -82.000
405.230;  -17.575;  190.000;  226.000
405.357;   35.725;  117.000;   44.000
405.484;  417.225;  -49.000;    5.000
405.612;   99.100; -548.000; -563.000
405.739;  -68.325; -488.000; -243.000
405.866;   67.625;  669.000;  385.000
405.993;  -65.925; -398.000; -102.000
406.120; -140.200; -801.000; -887.000
406.247;  -78.475; -323.000; -342.000
406.374;   81.300;  540.000;  629.000
406.501;  -97.850; -632.000; -702.000
406.628; -104.250; -621.000; -589.000
406.755; -116.825; -803.000; -620.000
406.882;  -68.525; -228.000; -277.000
407.009; -119.050; -719.000; -628.000
407.136;  -49.775; -480.000; -401.000
407.263;  -64.775; -939.000; -829.000
407.390; -105.700; -692.000; -614.000
407.517; -182.700;-1139.000;-1187.000
407.644;  -83.075; -332.000; -256.000
407.771;  -75.600; -249.000; -287.000
407.898;   -7.475;  168.000;  328.000
408.025;  -89.000; -421.000; -313.000
408.151;  -22.300;   82.000;  153.000
408.278;  -75.700; -267.000; -216.000
408.405; -133.600; -931.000; -899.000
408.532;  -96.250; -549.000; -542.000
408.659; -126.775; -677.000; -648.000
408.785; -202.675;-1298.000;-1170.000
408.912;  -69.150; -412.000; -296.000
409.039; -115.050; -610.000; -686.000
409.166; -114.350; -591.000; -555.000
409.292; -129.800; -571.000; -534.000
409.419; -131.500; -665.000; -649.000
409.546;  -87.575; -431.000; -192.000
409.672; -117.550; -713.000; -545.000
409.799;  -31.300;  -36.000;   34.000
409.926;  -64.875; -180.000; -179.000
410.052; -194.650;-1127.000;-1091.000
410.179;  -84.525; -368.000; -392.000
410.305;  -92.675; -375.000; -493.000
410.432;  -52.975; -220.000; -333.000
410.558; -102.050; -305.000; -380.000
410.685; -122.900; -688.000; -431.000
410.812; -113.725; -409.000; -588.000
410.938; -144.325; -964.000; -808.000
411.065; -112.125; -671.000; -645.000
411.191;  -39.975; -189.000; -174.000
411.317; -133.400; -823.000; -742.000
411.444;  -78.350; -317.000; -246.000
411.570;  -87.725; -339.000; -294.000
411.697; -119.725; -758.000; -752.000
411.823; -181.275; -989.000; -999.000
411.949;  -55.200;  -56.000;   17.000
412.076; -117.550; -539.000; -519.000
412.202; -116.325; -758.000; -757.000
412.329; -128.425; -798.000; -752.000
412.455; -134.275; -821.000; -657.000
412.581;  -32.950;  -15.000;  172.000
412.707;  -83.975; -540.000; -457.000
412.834;  -17.500;  156.000;  219.000
412.960; -121.150; -785.000; -784.000
413.086; -109.200; -743.000; -701.000
413.212;   92.100;  604.000;  578.000
413.339; -108.225; -685.000; -701.000
413.465;  -58.450; -364.000; -310.000
413.591; -112.200; -757.000; -474.000
413.717;  -51.450; -358.000; -366.000
413.843; -139.825; -839.000; -861.000
413.969;  -60.925;  -47.000; -292.000
414.096;  -92.575; -679.000; -679.000
414.222;  -12.700;  -33.000;   85.000
414.348;  -86.500; -652.000; -385.000
414.474;   -8.350;   38.000;  -52.000
414.600;  -32.975; -126.000; -144.000
414.726;  -13.800;  -96.000;  -55.000
414.852;  -46.825; -365.000; -342.000
414.978;   49.175;  104.000;  -18.000
415.104;   52.125;   38.000;   80.000
415.230;   43.100; -329.000; -330.000
415.356;   66.075; -409.000; -514.000
415.482;  216.325;   13.000;  -35.000
415.608;  401.325; -247.000; -323.000
415.734; 1326.175;   67.000;   38.000
415.860;27214.075; -875.000; -767.000
415.986;22589.475; -685.000; -607.000
416.111; 2102.075; -798.000; -652.000
416.237;  470.725; -424.000; -571.000
416.363; 1664.950; -765.000; -733.000
416.489; 6769.550; -324.000; -251.000
416.615;  931.625; -707.000; -742.000
416.741;   43.200; -677.000; -784.000
416.866;  -75.325; -673.000; -736.000
416.992; -108.050; -801.000; -818.000
417.118;  -43.225;  -41.000;  -80.000
417.244;  -67.950; -798.000; -531.000
417.369;  -83.725; -801.000; -612.000
417.495;  -27.925; -325.000; -254.000
417.621;  -80.525;-1015.000; -803.000
417.746;   -1.825; -579.000; -572.000
417.872;   77.375; -254.000; -144.000
417.998;  124.600; -515.000; -530.000
418.123; 1511.800;-1073.000; -845.000
418.249; 8535.675; -512.000; -601.000
418.374; 1452.125; -916.000; -824.000
418.500;  209.825; -383.000; -482.000
418.626;  162.650;   70.000;  -59.000
418.751;  144.425; -549.000; -448.000
418.877;  311.100; -637.000; -643.000
419.002; 2542.875; -688.000; -560.000
419.128;19455.975; -930.000; -721.000
419.253; 5519.700; -967.000; -837.000
419.379;  776.300; -391.000; -338.000
419.504;  587.575;  325.000;  415.000
419.629;  823.825; -393.000; -212.000
419.755; 5328.050; -317.000; -254.000
419.880;34809.175;  -98.000;   67.000
420.006;17459.650; -280.000; -221.000
420.131;43389.875; -662.000; -775.000
420.256; 7019.075; -315.000; -316.000
420.382;  968.625; -665.000; -687.000
420.507;  161.825; -649.000; -778.000
420.632;   43.600; -337.000; -339.000
420.758;   27.850; -251.000; -425.000
420.883; -107.575; -876.000; -672.000
421.008; -100.625; -775.000; -619.000
421.133;  -95.975; -509.000; -467.000
421.259;  -55.200; -325.000; -259.000
421.384; -130.275; -834.000; -693.000
421.509; -123.725;-1052.000; -862.000
421.634;  132.375; -936.000; -820.000
421.759;   62.350; -359.000; -327.000
421.885;  -93.750; -717.000; -656.000
422.010;  -88.075; -673.000; -542.000
422.135; -157.475; -695.000; -727.000
422.260;    9.675;  340.000;  280.000
422.385;  -53.525;   12.000;  -98.000
422.510;   -5.425;  151.000;  -26.000
422.635;  -24.600;  -87.000;  -43.000
422.760;  -22.250; -766.000; -791.000
422.885;   21.225;  -57.000;  -80.000
423.010;  -40.025; -112.000; -169.000
423.135;  -96.575; -481.000; -561.000
423.260;  -53.775; -150.000; -245.000
423.385;    8.125;  476.000;  222.000
423.510;   -0.500;   71.000;  -22.000
423.635;   10.450;  133.000;   45.000
423.760;   40.050;  383.000;  328.000
423.885;   33.375;  336.000;  391.000
424.010;  -12.100;  -68.000;  -13.000
424.135;  -25.900;    5.000;  -33.000
424.259;  -74.225; -654.000; -457.000
424.384;  -54.425; -279.000; -272.000
424.509;  -28.700; -260.000; -186.000
424.634;  -76.825; -761.000; -623.000
424.759;  -43.275; -688.000; -544.000
424.883;    8.075; -506.000; -527.000
425.008;  184.250; -502.000; -410.000
425.133; 2880.650; -679.000; -653.000
425.258; 1561.625; -517.000; -381.000
425.382;  486.725; -867.000; -774.000
425.507; 1132.650; -487.000; -543.000
425.632;  359.600; -802.000; -663.000
425.756;  710.500; -256.000; -146.000
425.881;10110.775; -831.000; -857.000
426.006;31309.725; -604.000; -355.000
426.130; 5172.750; -696.000; -508.000
426.255;  695.100; -611.000; -491.000
426.379;  300.775; -189.000; -577.000
426.504;  488.650;  660.000;  544.000
426.629; 5581.975; -519.000; -466.000
426.753; 4412.825;   64.000;  -46.000
426.878;  534.050; -252.000; -288.000
427.002;  313.875; -651.000; -668.000
427.127; 2079.925;  -35.000; -158.000
427.251;17259.275;  372.000;  401.000
427.375; 5679.450; -191.000; -173.000
427.500; 1293.025; -616.000; -610.000
427.624;  409.225; -234.000; -400.000
427.749;   71.700; -216.000; -225.000
427.873;  -27.575; -499.000; -412.000
427.997;  -51.925; -222.000; -230.000
428.122;   59.225;  795.000;  703.000
428.246;   38.825;  433.000;  434.000
428.371; -143.375; -869.000; -773.000
428.495; -106.500; -624.000; -646.000
428.619;  -62.275; -186.000; -117.000
428.743;    3.150;   65.000;  132.000
428.868;  -76.450; -732.000; -643.000
428.992;  463.850; -219.000; -326.000
429.116;  179.700; -329.000; -357.000
429.240;   81.325;  419.000;  426.000
429.365;  -36.925; -454.000; -574.000
429.489;  -66.425; -638.000; -647.000
429.613;   31.450; -236.000; -177.000
429.737;   64.225; -563.000; -432.000
429.861;  369.850; -247.000; -133.000
429.985; 7859.900; -425.000; -305.000
430.109;10067.775; -770.000; -908.000
430.234; 1237.325;   76.000;  -50.000
430.358;  152.100; -250.000; -160.000
430.482;  -48.275; -672.000; -564.000
430.606;  -87.000; -655.000; -375.000
430.730;  -60.975; -437.000; -388.000
430.854;  -78.025; -909.000; -835.000
430.978; -101.275; -795.000; -764.000
431.102; -102.150; -499.000; -422.000
431.226; -123.200; -874.000; -815.000
431.350;   14.600;  345.000;  422.000
431.474; -105.150; -661.000; -373.000
431.597; -155.400;-1060.000; -848.000
431.721;  -80.250; -276.000; -267.000
431.845; -115.350; -704.000; -472.000
431.969;  -75.750; -304.000; -349.000
432.093;  -84.325; -395.000; -317.000
432.217;  -25.750;   32.000;   82.000
432.341;  -78.175; -523.000; -518.000
432.464;  -22.075;   96.000;   40.000
432.588;  -20.375; -401.000; -329.000
432.712;    5.375;  -52.000;  -52.000
432.836;   57.450;  213.000;  263.000
432.959;   29.550; -372.000; -311.000
433.083;  148.650;   11.000;    2.000
433.207;  574.625;  285.000;  930.000
433.330; 7661.475; -391.000; -200.000
433.454;10562.100; -654.000; -638.000
433.578; 5796.400;  583.000;  278.000
433.701; 1254.500; -623.000; -675.000
433.825;  142.925; -292.000; -299.000
433.949;   42.600;   28.000;  -72.000
434.072;  -36.075; -410.000; -323.000
434.196;   -9.525; -309.000; -117.000
434.319; 3461.950;25482.000;25124.000
434.443;  834.025; -656.000; -603.000
434.566; 4113.500;  281.000;   62.000
434.690;  913.825; -637.000; -383.000
434.813;  146.875; -251.000; -173.000
434.937;  -41.425; -569.000; -696.000
435.060;  -83.075; -423.000; -332.000
435.184;  -26.025; -492.000; -217.000
435.307;   -2.875;  159.000;  102.000
435.431;  -32.175;  -40.000;   24.000
435.554;  -92.725; -399.000; -240.000
435.677;  -85.700; -350.000; -258.000
435.801;  -46.175;  -25.000;   49.000
435.924;  -45.550;    1.000;  -67.000
436.048; -153.175;-1019.000; -732.000
436.171;  -73.975; -240.000;  -66.000
436.294;   -1.925; -248.000; -229.000
436.417;  212.300; -963.000; -849.000
436.541;  -29.475; -814.000; -840.000
436.664;  -52.675; -242.000; -316.000
436.787;  -37.725;   13.000;  113.000
436.910; -116.375; -792.000; -422.000
437.034;  -35.700;  142.000;  143.000
437.157;  -16.125;  -11.000;    0.000
437.280;  -80.925; -392.000; -292.000
437.403; -135.300; -982.000; -869.000
437.526;  -18.150; -903.000; -865.000
437.649;  409.550; -505.000; -332.000
437.772;  -31.500; -692.000; -540.000
437.896;   66.775;  700.000;  544.000
438.019; -121.450; -758.000; -503.000
438.142; -105.875; -596.000; -506.000
438.265; -125.800; -639.000; -670.000
438.388;   16.800; -520.000; -410.000
438.511;  -87.250; -597.000; -394.000
438.634;  -82.600; -247.000; -125.000
438.757; -143.775; -693.000; -619.000
438.880;  -53.375;  -34.000;  -57.000
439.003; -106.725; -417.000; -437.000
439.126;  -67.450; -287.000; -167.000
439.248;  -63.950;  -98.000; -139.000
439.371;  -41.525;    9.000;  -53.000
439.494;    1.825;  510.000;  439.000
439.617;  -45.575;   65.000;  -88.000
439.740; -180.525; -968.000; -816.000
439.863; -144.325; -755.000; -595.000
439.986; -109.400; -476.000; -431.000
440.108;  -47.125; -161.000; -112.000
440.231; -171.625; -950.000; -836.000
440.354;  -66.550;  -64.000; -150.000
440.477; -115.600; -566.000; -542.000
440.599; -106.500; -200.000; -225.000
440.722; -126.150; -709.000; -586.000
440.845;   53.200;  751.000;  928.000
440.968; -121.225; -415.000; -311.000
441.090;  -83.275; -199.000;  -33.000
441.213; -175.625;-1021.000; -825.000
441.336;  -62.025; -159.000;   -5.000
441.458;  -98.675; -549.000; -396.000
441.581; -131.050; -628.000; -629.000
441.703;  -95.925; -152.000;   13.000
441.826; -115.800; -557.000; -400.000
441.948;  -70.425;   56.000;   51.000
442.071;   19.975;  555.000;  424.000
442.193; -112.825; -531.000; -485.000
442.316;    7.950;  152.000;   97.000
442.438;   74.700; -233.000;  -10.000
442.561;   45.575;  272.000;  262.000
442.683;   16.575; -809.000; -522.000
442.806;  222.475;   -8.000;   74.000
442.928; -114.900; -859.000; -604.000
443.051;  -90.825; -577.000; -373.000
443.173; -108.825; -341.000; -339.000
443.295;  -93.950; -263.000; -371.000
443.418;  -79.350; -321.000;  -29.000
443.540;  -49.975; -106.000;   -4.000
443.662; -128.275; -563.000; -465.000
443.785;  -27.650;  335.000;  199.000
443.907; -104.875; -362.000; -208.000
444.029; -128.175; -767.000; -494.000
444.152; -142.850; -644.000; -554.000
444.274;  -48.800;  -18.000;  -24.000
444.396; -124.350; -461.000; -221.000
444.518; -146.200; -691.000; -454.000
444.640;  -96.375; -268.000; -111.000
444.763;  -42.625;  388.000;  249.000
444.885; -127.475; -432.000; -392.000
445.007;  -44.350;   35.000;   86.000
445.129; -137.525; -610.000; -515.000
445.251; -117.075; -372.000; -439.000
445.373; -139.025; -537.000; -386.000
445.495;   -9.400;  242.000;  350.000
445.617;   41.425;  853.000;  753.000
445.739;  -87.675; -215.000;  -97.000
445.861;  -75.050; -245.000; -112.000
445.984;  -67.675; -267.000; -101.000
446.105;  -28.975; -418.000; -251.000
446.227;   98.375; -176.000;  -19.000
446.349;  -92.425; -358.000; -249.000
446.471; -124.175; -615.000; -448.000
446.593;  -88.550; -316.000;   19.000
446.715;  -55.975;  -67.000;   41.000
446.837;   40.600;  697.000;  832.000
446.959; -125.000; -457.000; -478.000
447.081; -137.475; -628.000; -518.000
447.203;   43.125;  862.000;  834.000
447.325;  -88.975; -270.000;   42.000
447.446;  -13.500;  286.000;  530.000
447.568; -160.775; -921.000; -803.000
447.690;  -91.900; -236.000; -245.000
447.812; -153.100; -798.000; -519.000
447.933;  -41.075;  155.000;  127.000
448.055;  -63.525; -306.000; -261.000
448.177;   23.700;   31.000;   79.000
448.299; -102.200; -935.000; -727.000
448.420;  -11.975;  -25.000;  159.000
448.542;  -44.500;   -3.000;   33.000
448.664;  -35.375;  109.000;  322.000
448.785;  -42.600;  265.000;   83.000
448.907; -106.100; -614.000; -353.000
449.028; -105.300; -771.000; -471.000
449.150;   24.425;  492.000;  589.000
449.272; -178.525;-1044.000; -913.000
449.393;   21.525;  612.000;  694.000
449.515; -141.875; -634.000; -581.000
449.636;  -69.925; -264.000; -155.000
449.758;   45.100;  763.000;  622.000
449.879;  -89.600; -498.000; -396.000
450.001;  -84.725; -149.000;  -49.000
450.122;  -35.800;  -95.000;  162.000
450.244;   -9.600;   37.000;  364.000
450.365;  -55.850; -495.000; -301.000
450.486;  -13.450;   80.000;  268.000
450.608;   47.575;  393.000;  326.000
450.729;  108.975;  578.000;  645.000
450.850;  106.275; -574.000; -466.000
450.972; 1220.575; -552.000; -389.000
451.093; 7995.075;  190.000;  588.000
451.214; 4124.700; -516.000; -337.000
451.336;  704.650;  773.000;  579.000
451.457;  107.125;  264.000;  393.000
451.578;  -27.575; -118.000;  -74.000
451.699; -116.025; -546.000; -540.000
451.821;  -61.650; -284.000;  -50.000
451.942;   28.225;  278.000;  285.000
452.063;   49.250;  228.000;  419.000
452.184;  821.650;  -54.000;  -49.000
452.305; 1758.325;  103.000;  170.000
452.427;  332.525; -549.000; -301.000
452.548;   -3.750;   23.000;   79.000
452.669;  -76.200; -257.000;  -89.000
452.790;  -68.375;    3.000;  -18.000
452.911;  -23.750;  195.000;  259.000
453.032;  -90.650; -289.000;  -60.000
453.153;  -58.550;  -29.000;   81.000
453.274;   46.950;  737.000;  868.000
453.395;  -49.275;  -51.000;  175.000
453.516;   84.800; 1317.000; 1388.000
453.637;  -98.000; -205.000; -150.000
453.758;  -73.625;   15.000;   69.000
453.879; -118.825; -462.000; -250.000
454.000;   67.350; 1086.000;  948.000
454.121; -139.350; -554.000; -326.000
454.242; -102.000; -599.000; -383.000
454.362;  -49.975;  -99.000;  114.000
454.483;  -29.200; -309.000; -229.000
454.604;   55.500;  512.000;  580.000
454.725; -119.550; -627.000; -555.000
454.846; -125.800; -474.000; -406.000
454.967;  -26.375;  230.000;  539.000
455.087;  -51.275;  179.000;  153.000
455.208;   -0.375;  554.000;  856.000
455.329;  -45.825;  -22.000;   82.000
455.450;   69.425;  473.000;  633.000
455.570;  -62.100; -234.000; -211.000
455.691;  -39.425;  201.000;  407.000
455.812; -101.375; -270.000;  -92.000
455.932;  -70.225;  107.000;  -97.000
456.053;  -72.275;   36.000;   24.000
456.173; -110.475; -433.000; -355.000
456.294; -126.250; -476.000; -303.000
456.415;  -70.775;  -73.000;   70.000
456.535;  -36.725;  297.000;  273.000
456.656;  -51.975;  132.000;  240.000
456.776;  -50.925;    3.000;  298.000
456.897;  -10.850;  308.000;  513.000
457.017;  -72.725; -153.000;   -3.000
457.138; -114.075; -402.000; -249.000
457.258;  -45.000;  263.000;  224.000
457.379;  -11.850;  509.000;  521.000
457.499;  -53.000;  443.000;  432.000
457.620; -116.500; -407.000; -231.000
457.740;  -97.675; -132.000;  -11.000
457.860;  -52.200;   87.000;   44.000
457.981;  -26.350;  132.000;  124.000
458.101;  -82.525;  -89.000;   40.000
458.221;  -11.275;  336.000;  402.000
458.342;  -64.225;   -4.000;  -37.000
458.462;   36.400;  617.000;  352.000
458.582;   14.750; -302.000; -294.000
458.703;   57.200;  303.000;  154.000
458.823;    6.975;   22.000;  163.000
458.943;   43.525;  341.000;  467.000
459.063;   10.925; 1124.000;  192.000
459.183;  -30.150;  328.000;  313.000
459.304;   11.050;  315.000;  517.000
459.424;  -46.800; -246.000;  -89.000
459.544;  473.100;  388.000;  764.000
459.664; 1317.450;  499.000;  506.000
459.784;  513.575; 1004.000; 1175.000
459.904;   83.600;  867.000;  744.000
460.024;   51.950;  867.000;  684.000
460.144;  -18.225;  449.000;  554.000
460.264;  -31.975;  515.000;  327.000
460.385;  -84.475; -145.000; -119.000
460.505;   25.575;  905.000;  858.000
460.625; -108.550;  -17.000;  -68.000
460.745;  -29.725;  396.000;  541.000
460.864;  -64.375;  153.000;  469.000
460.984;   17.200;  499.000;  573.000
461.104;  138.975; 1656.000; 1775.000
461.224;   13.650;  657.000;  650.000
461.344;  -47.075;  431.000;  360.000
461.464;  -54.800;  258.000;  513.000
461.584;  -35.225;  283.000;  466.000
461.704;  -77.900;   58.000;  108.000
461.824;  -66.275;  238.000;  259.000
461.943;  -42.550;  191.000;  130.000
462.063;  -71.925;    2.000;  324.000
462.183;   25.725;  639.000;  717.000
462.303;   83.500; 1678.000; 1230.000
462.422;   15.550;  781.000;  840.000
462.542;  -40.900;  271.000;  391.000
462.662;   38.875;  353.000;  380.000
462.782;  327.650;  833.000;  572.000
462.901;  757.600;  545.000;  717.000
463.021;  389.325; 1702.000; 1638.000
463.141;   18.375;  337.000;  770.000
463.260;  -30.025;  614.000;  474.000
463.380;    4.625;  902.000;  884.000
463.499;  -42.950;  342.000;  332.000
463.619;  -24.725;  581.000;  559.000
463.738;  102.800; 1644.000;  903.000
463.858;    5.850;  657.000;  811.000
463.978;  -18.375;  542.000;  396.000
464.097;   52.250;  921.000; 1114.000
464.217;  156.275; 1196.000; 1143.000
464.336;  138.350; 1068.000; 1130.000
464.455;  -18.025;  328.000;  659.000
464.575;   15.700;  597.000;  602.000
464.694;  131.125; 1204.000; 1179.000
464.814;  167.675; 1190.000; 1138.000
464.933;   85.250; 1095.000; 1027.000
465.052;   86.850; 1412.000; 1054.000
465.172;   69.375;  922.000;  799.000
465.291;  120.550; 1376.000; 1320.000
465.410;   15.100;  462.000;  735.000
465.530;   70.475; 1355.000; 1310.000
465.649;   38.500; 1209.000; 1273.000
465.768;  131.350; 1673.000; 1508.000
465.888;   46.525;  941.000; 1174.000
466.007;   99.025; 1335.000; 1440.000
466.126;  -10.075;  721.000;  641.000
466.245;   55.125; 1176.000; 1187.000
466.364;   13.525;  950.000; 1060.000
466.484;   59.925; 1024.000; 1213.000
466.603;   23.400; 1101.000; 1222.000
466.722;  114.025; 1490.000; 1769.000
466.841;   64.425; 1151.000; 1401.000
466.960;   37.950; 1069.000;  972.000
467.079;  123.375; 1971.000; 1786.000
467.198;   52.800; 1238.000; 1181.000
467.317;   83.075; 1768.000; 1162.000
467.436;   74.975; 1709.000; 1261.000
467.555;  110.300; 1796.000; 1746.000
467.674;   57.750; 1227.000; 1329.000
467.793;   42.250; 1376.000; 1374.000
467.912;   82.375; 1658.000; 1539.000
468.031;  134.150; 2038.000; 1930.000
468.150;  128.275; 1842.000; 1837.000
468.269;  177.850; 2313.000; 2090.000
468.388;  192.325; 2168.000; 2339.000
468.507;  245.650; 2884.000; 2903.000
468.626;  258.750; 2555.000; 2541.000
468.744;  132.825; 2018.000; 2174.000
468.863;  204.875; 2312.000; 2523.000
468.982;   91.700; 1503.000; 1555.000
469.101;  242.075; 2788.000; 2692.000
469.220;  160.075; 2333.000; 2176.000
469.338;  234.775; 2935.000; 3051.000
469.457;  197.450; 2719.000; 2545.000
469.576;  336.675; 3953.000; 3784.000
469.695;  237.400; 2877.000; 3066.000
469.813;  427.700; 4148.000; 4192.000
469.932;  408.325; 4255.000; 4485.000
470.051;  444.425; 4075.000; 4161.000
470.169; 1022.250; 4470.000; 4338.000
470.288; 1989.150; 4700.000; 4809.000
470.406; 1174.025; 5059.000; 5194.000
470.525;  677.450; 6101.000; 5787.000
470.644;  649.850; 6847.000; 6794.000
470.762;  796.050; 8397.000; 7873.000
470.881;  914.525; 8651.000; 8464.000
470.999; 1095.150; 9685.000; 9151.000
471.118; 1099.975;11174.000;10711.000

