
Integration time [ms]: 100.000
Averaging Nr. [scans]: 40
Smoothing Nr. [pixels]: 0
Data measured with spectrometer [name]: 2101012U2
Wave   ;Sample   ;Dark     ;Reference
[nm]   ;[counts] ;[counts] ;[counts] 

197.733;   67.000;  516.000;  404.000
197.879;  -96.500; -610.000; -634.000
198.025;  -47.675; -475.000; -420.000
198.171;  -80.100; -602.000; -612.000
198.317;  -20.475; -401.000; -316.000
198.463;  -75.675; -655.000; -404.000
198.609;   30.700;  181.000; -137.000
198.755;  -80.700; -644.000; -410.000
198.901;  -70.750; -505.000; -424.000
199.047;  -65.150; -615.000; -488.000
199.193;  -21.725; -230.000; -468.000
199.339;  -45.150; -222.000; -369.000
199.485;   34.725;  330.000;  271.000
199.631;   12.475;  227.000;  310.000
199.777;  -43.325; -466.000; -398.000
199.923;  -57.800; -610.000; -424.000
200.069;    1.525; -141.000;  -58.000
200.215;   56.825;  128.000;  453.000
200.361;   51.550;  243.000;  477.000
200.507;  -70.700; -600.000; -373.000
200.653;   -7.925; -371.000; -194.000
200.798;  -49.400; -215.000; -125.000
200.944;    3.125; -146.000;  -41.000
201.090;   29.200;   61.000;  222.000
201.236;    2.475; -116.000; -158.000
201.382;  114.875;  874.000;  903.000
201.528;    9.375;  -58.000;  -48.000
201.674;  -47.075; -386.000; -293.000
201.819;  -57.150; -540.000; -439.000
201.965;  -87.150; -699.000; -447.000
202.111;  -14.325; -273.000; -226.000
202.257;  -38.775; -250.000; -238.000
202.402;   14.525;   13.000;  -36.000
202.548;  -38.125; -169.000; -116.000
202.694;   82.625;  410.000; -183.000
202.840;  -73.425; -603.000; -531.000
202.985;  -59.825; -681.000; -639.000
203.131; -103.250; -832.000; -666.000
203.277;  -17.000; -199.000; -262.000
203.423;  -49.475; -434.000; -520.000
203.568;  -32.200; -462.000; -237.000
203.714;  -60.750; -535.000; -542.000
203.860;  -82.750; -682.000; -641.000
204.005;    8.125;  112.000;  167.000
204.151;   72.475;  561.000;  556.000
204.296;  -41.450; -354.000; -221.000
204.442;  -77.975; -600.000; -547.000
204.588;  -82.975; -592.000; -579.000
204.733;   18.425;  178.000;  168.000
204.879; -132.125;-1018.000; -822.000
205.025;   20.275;  -99.000;  126.000
205.170;   -6.950;  -17.000;   94.000
205.316;   69.600;  438.000;  661.000
205.461;  -74.550; -698.000; -554.000
205.607;   80.575;  609.000;  665.000
205.752;  -84.275; -626.000; -551.000
205.898;  -44.750; -501.000; -391.000
206.043;  -62.575; -578.000; -506.000
206.189;  -30.400; -243.000; -285.000
206.334;   78.800;  554.000;  606.000
206.480;   81.225;  409.000;  239.000
206.625;  -83.025; -529.000; -552.000
206.771;  -35.750; -451.000; -373.000
206.916;  -23.975; -210.000; -537.000
207.062;  -68.725; -545.000; -591.000
207.207;  -70.200; -546.000; -443.000
207.353;   49.925;  185.000;  460.000
207.498;   14.425;  196.000;   85.000
207.643;  -45.750; -501.000; -370.000
207.789; -138.225;-1069.000; -910.000
207.934;  -86.275; -665.000; -713.000
208.080;  -36.875; -154.000;   66.000
208.225;   -5.200;  -22.000;  -57.000
208.370;  -84.250; -727.000; -619.000
208.516;  -74.375; -741.000; -487.000
208.661;  -33.200; -127.000;  -69.000
208.806;  -25.925; -165.000; -171.000
208.952; -121.250;-1044.000; -731.000
209.097;   74.550;  378.000;  349.000
209.242;  -48.575; -307.000; -382.000
209.387;   55.075;  392.000;  350.000
209.533;  -50.275; -321.000; -350.000
209.678;   85.400;  472.000;  543.000
209.823;  -54.100; -408.000; -310.000
209.969; -106.900; -860.000; -757.000
210.114; -111.375; -907.000; -719.000
210.259; -122.450; -939.000; -889.000
210.404;  -10.275; -171.000;  103.000
210.549;   -1.000;  108.000;    3.000
210.695;  -18.025;   -3.000;  -95.000
210.840;   25.950;   94.000;   67.000
210.985;  -53.725; -484.000; -303.000
211.130;   70.200;  268.000;  406.000
211.275;    3.350;  207.000;  199.000
211.420;  -52.975; -300.000; -289.000
211.566;  -75.400; -536.000; -489.000
211.711;   40.500;  218.000;  157.000
211.856;  -73.375; -545.000; -519.000
212.001;    0.975;  151.000;   44.000
212.146;   18.400;  153.000;   49.000
212.291;  -25.950; -210.000; -186.000
212.436;  -33.225; -280.000;   -6.000
212.581;  -82.025; -685.000; -653.000
212.726;  -81.000; -487.000; -538.000
212.871;  -33.225; -552.000; -217.000
213.016; -144.100;-1172.000;-1029.000
213.161;   67.725;  406.000;  291.000
213.306;  -75.450; -435.000; -577.000
213.451;  -88.850; -778.000; -689.000
213.596;  -46.800; -455.000; -347.000
213.741;  -55.375; -448.000; -538.000
213.886;  -73.700; -498.000; -517.000
214.031;  -25.425; -294.000; -124.000
214.176;  -42.350; -408.000; -341.000
214.321;  -18.675; -296.000; -157.000
214.466;  -25.225; -163.000;  -43.000
214.611;    1.900;  -61.000;  -10.000
214.756; -130.775; -948.000; -858.000
214.901;  -13.250; -388.000; -226.000
215.046; -120.975; -797.000; -825.000
215.191;   15.375;  128.000;   35.000
215.336;  -17.125; -157.000;  -19.000
215.480;  -68.475; -684.000; -505.000
215.625;  -13.425; -175.000;  -19.000
215.770;  -78.725; -757.000; -662.000
215.915;   -3.275;   -5.000;  -97.000
216.060;  -18.250; -113.000;  -21.000
216.205; -112.650; -731.000; -779.000
216.349;  -63.725; -470.000; -533.000
216.494; -126.400; -939.000; -867.000
216.639; -113.600; -823.000; -888.000
216.784;  -96.350; -577.000; -525.000
216.929;   57.625;  392.000;  281.000
217.073;  -11.375; -244.000;  -31.000
217.218;   -1.325;   78.000;  -47.000
217.363;  -93.300; -656.000; -618.000
217.507;  -79.025; -623.000; -588.000
217.652; -124.425; -845.000; -874.000
217.797;  -82.600; -708.000; -659.000
217.942; -115.475; -856.000; -720.000
218.086;   73.775;  608.000;  539.000
218.231;  -16.850; -174.000;  -26.000
218.376;  -25.100; -337.000; -229.000
218.520;  -10.350;  -41.000;   96.000
218.665;  -23.650; -338.000; -204.000
218.810;  -35.575; -275.000; -233.000
218.954;   15.250;  201.000;   35.000
219.099; -116.075; -713.000; -963.000
219.243;  -65.375; -589.000; -554.000
219.388;  -30.500; -264.000; -136.000
219.532;  -18.400; -116.000; -116.000
219.677;  -74.775; -564.000; -521.000
219.822;   13.700;   33.000;   89.000
219.966;   -6.650;   17.000;  -99.000
220.111;  -24.625; -328.000;  -40.000
220.255;  -93.000; -797.000; -750.000
220.400;   -8.525; -180.000; -146.000
220.544;  -75.900; -516.000; -450.000
220.689;  -43.900; -422.000; -451.000
220.833;  -32.975; -123.000;  -58.000
220.978;  -43.750; -393.000; -563.000
221.122;   15.825;  319.000;  307.000
221.267; -112.800; -906.000; -837.000
221.411;  -68.325; -478.000; -394.000
221.555;  -10.825; -104.000;  -23.000
221.700;  -48.850; -329.000; -222.000
221.844;   31.100;  255.000;  272.000
221.989;  -65.150; -328.000; -311.000
222.133;  -25.100; -289.000; -307.000
222.277;   -6.050;    5.000;   78.000
222.422;   15.150;  227.000;  113.000
222.566;  -52.475; -381.000; -214.000
222.711;  -67.525; -414.000; -479.000
222.855;  -91.075; -643.000; -586.000
222.999;  -83.950; -642.000; -717.000
223.144;  -33.425; -195.000; -194.000
223.288;   49.600;  423.000;  251.000
223.432;   30.375;  184.000;  230.000
223.576;   18.875;  152.000;  -21.000
223.721;   35.250;  364.000;  273.000
223.865;  -49.200; -472.000; -475.000
224.009;  257.775; 1673.000; 1631.000
224.153;  -67.600; -660.000; -671.000
224.298;  -73.100; -531.000; -489.000
224.442;   -8.025;  -74.000;  -33.000
224.586;  -14.950; -169.000; -106.000
224.730;  -85.050; -858.000; -670.000
224.875; -108.275; -739.000; -688.000
225.019;   14.725;  102.000;  188.000
225.163;   32.800;  208.000;  341.000
225.307;   23.250;   97.000;  -91.000
225.451;   34.975;  360.000;  481.000
225.595;   26.150;  264.000;  176.000
225.739;  -32.100; -170.000;  -94.000
225.884;   14.475;   86.000;    5.000
226.028; -103.300; -760.000; -626.000
226.172;  -34.625; -260.000; -273.000
226.316; -132.275; -941.000; -902.000
226.460;  -73.775; -645.000; -493.000
226.604;  -54.400; -406.000; -400.000
226.748;  -94.600; -836.000; -733.000
226.892;  -37.775; -227.000; -181.000
227.036;  -42.425; -537.000; -447.000
227.180;  -65.125; -551.000; -375.000
227.324;  -57.250; -561.000; -580.000
227.468; -130.225; -819.000; -717.000
227.612;   25.500;  242.000;  -28.000
227.756; -112.575; -845.000; -698.000
227.900;   63.500;  342.000;  441.000
228.044;  -61.525; -509.000; -290.000
228.188;   55.025;  448.000;  568.000
228.332;  -84.125; -546.000; -472.000
228.476;  -17.125; -223.000; -149.000
228.620;  -25.575; -210.000; -150.000
228.764;   62.950;  431.000;  349.000
228.908;  -28.075; -155.000;   30.000
229.052;  -59.800; -615.000; -528.000
229.195;  -18.775; -172.000;   13.000
229.339;  -29.075; -235.000; -305.000
229.483;  -23.025;    5.000; -162.000
229.627;    4.525; -156.000;  139.000
229.771;  -54.250; -218.000; -294.000
229.915;   18.275;  230.000;   79.000
230.059;  -84.675; -648.000; -663.000
230.202;  -37.575; -370.000; -317.000
230.346;  -10.200; -107.000;  107.000
230.490;  -73.775; -489.000; -521.000
230.634; -114.225; -736.000; -553.000
230.777;   68.775;  478.000;  509.000
230.921;  -59.200; -450.000; -359.000
231.065;  -39.075; -246.000; -286.000
231.209;   17.150;  261.000;  265.000
231.352;   18.900;   54.000;   40.000
231.496;   10.650;  568.000;  188.000
231.640;  -70.700; -693.000; -621.000
231.783;   59.125;  546.000;  525.000
231.927;  -33.525; -294.000; -365.000
232.071; -120.025; -962.000; -736.000
232.214; -114.125; -980.000; -764.000
232.358; -103.650; -683.000; -599.000
232.502;   -0.450;  -19.000;    7.000
232.645; -141.600;-1090.000; -927.000
232.789;  -32.600; -257.000; -218.000
232.933;  -51.400; -407.000; -224.000
233.076; -126.550;-1038.000; -897.000
233.220; -101.025; -752.000; -777.000
233.363;  -71.625; -669.000; -477.000
233.507;   56.300;  371.000;  129.000
233.650;  -98.500; -764.000; -834.000
233.794;   40.375;  438.000;  461.000
233.938;  -64.875; -530.000; -362.000
234.081;  -30.200;  -93.000;   31.000
234.225;  -62.350; -631.000; -539.000
234.368; -107.050; -773.000; -723.000
234.512;  -42.350; -385.000; -299.000
234.655;  -94.650; -582.000; -555.000
234.798;  -58.050; -493.000; -466.000
234.942; -131.550; -884.000;-1002.000
235.085;  -78.325; -651.000; -443.000
235.229;  -77.400; -405.000; -410.000
235.372;  -42.000; -247.000; -191.000
235.516;  -61.150; -397.000; -321.000
235.659;    9.275;   92.000;  121.000
235.802;  -11.300;  -38.000;  -22.000
235.946;   28.300;  335.000;  215.000
236.089;   30.475;  126.000;  250.000
236.233;   52.850;  275.000;  298.000
236.376;  -58.200; -235.000; -378.000
236.519;  -41.475; -297.000; -319.000
236.663;  -17.925; -215.000; -117.000
236.806; -126.275;-1029.000; -999.000
236.949;   62.275;  543.000;  431.000
237.092;   58.375;  412.000;  391.000
237.236;  -77.275; -589.000; -502.000
237.379;   62.325;  352.000;  428.000
237.522; -113.850; -879.000; -768.000
237.666;  -14.800; -271.000;   18.000
237.809; -121.825; -851.000; -823.000
237.952;   41.250;  469.000;  271.000
238.095;  -75.525; -447.000; -442.000
238.238;   85.475;  688.000;  700.000
238.382;   -5.625;  166.000;  103.000
238.525;  -67.150; -598.000; -511.000
238.668; -148.200;-1060.000; -985.000
238.811;  -83.575; -638.000; -643.000
238.954;  -61.375; -483.000; -334.000
239.097;   82.200;  617.000;  664.000
239.241;   32.275;  394.000;  326.000
239.384;  -30.550; -254.000; -214.000
239.527;  -51.675; -424.000; -224.000
239.670; -141.250; -994.000;-1091.000
239.813; -113.200; -696.000; -658.000
239.956;   61.875;  579.000;  473.000
240.099; -117.625; -778.000; -725.000
240.242;   62.900;  428.000;  432.000
240.385;   23.525;  466.000;  450.000
240.528;  -72.400; -706.000; -473.000
240.671;   -6.550;  189.000;  134.000
240.814;  -45.675; -441.000; -158.000
240.957; -103.125; -767.000; -578.000
241.100;  -90.400; -779.000; -755.000
241.243; -154.200;-1234.000; -893.000
241.386;  -61.700; -508.000; -379.000
241.529; -106.050; -735.000; -547.000
241.672;  -56.625; -566.000; -495.000
241.815; -132.200; -832.000; -808.000
241.958;  -21.100; -125.000; -182.000
242.101;  -91.500; -545.000; -390.000
242.244;  -40.850; -270.000; -325.000
242.387;  -42.925; -304.000; -246.000
242.530;   50.925;  470.000;  134.000
242.673;  -56.950; -381.000; -309.000
242.815; -119.625; -925.000; -899.000
242.958;  -79.175; -482.000; -381.000
243.101;   21.350;  132.000;  187.000
243.244;  -83.550; -564.000; -521.000
243.387;  -46.700; -313.000; -316.000
243.530;  -96.325; -657.000; -674.000
243.672;   10.275;   43.000;  -92.000
243.815;  -50.975; -355.000; -283.000
243.958;   -3.400;   98.000;  -26.000
244.101;   -6.500;   59.000;  -16.000
244.243;   -5.100;  -47.000;  101.000
244.386; -112.900; -761.000; -630.000
244.529;  -22.975; -132.000; -139.000
244.672; -146.175;-1154.000; -951.000
244.814;  -94.325; -621.000; -794.000
244.957;  -55.675; -380.000; -304.000
245.100;  -67.400; -489.000; -489.000
245.242;  -64.950; -387.000; -374.000
245.385;    4.650;  -59.000;  -39.000
245.528; -121.700; -871.000; -705.000
245.670;   93.575;  612.000;  634.000
245.813;  -93.625; -599.000; -547.000
245.956;  -40.200; -324.000; -275.000
246.098;  -86.325; -508.000; -650.000
246.241;   14.050;  194.000;   48.000
246.383;  -25.150; -119.000;  -73.000
246.526;  -73.225; -454.000; -525.000
246.669; -125.800; -889.000; -780.000
246.811;    9.025;  172.000;   -1.000
246.954;  -60.100; -512.000; -426.000
247.096;  -23.125;  -84.000;   -6.000
247.239;  -70.350; -482.000; -445.000
247.381;  -68.025; -647.000; -488.000
247.524;   87.625;  645.000;  679.000
247.666;   -1.475;   58.000;   11.000
247.809; -119.350; -887.000; -691.000
247.951;   -7.475;  -75.000;  138.000
248.094;   25.625;  432.000;  308.000
248.236; -153.425;-1262.000;-1238.000
248.378;    5.850; -356.000;  -81.000
248.521;  -18.975; -334.000; -337.000
248.663;  -34.575; -236.000; -267.000
248.806;  -28.425; -300.000; -266.000
248.948; -114.550; -886.000; -763.000
249.090;  -39.950; -428.000; -398.000
249.233;  -56.675; -344.000; -381.000
249.375;  -70.225; -474.000; -451.000
249.518;  -16.025;  -83.000; -133.000
249.660;   -1.800; -103.000;    3.000
249.802; -173.025;-1303.000;-1189.000
249.945;  -87.125; -612.000; -540.000
250.087; -118.600; -834.000; -768.000
250.229;  -46.175; -362.000; -480.000
250.371;  -81.550; -494.000; -439.000
250.514;  -47.825; -310.000; -244.000
250.656;  -66.025;   69.000;  102.000
250.798; -123.325; -849.000; -800.000
250.940;  -64.350; -322.000; -322.000
251.083;  -34.400; -335.000; -111.000
251.225;   49.925;  338.000;  310.000
251.367;  -39.875; -274.000; -373.000
251.509;  -41.900; -265.000; -210.000
251.651;  -93.550; -731.000; -671.000
251.794;   76.125;  538.000;  632.000
251.936; -109.425; -821.000; -747.000
252.078;  -83.750; -540.000; -461.000
252.220;  -67.825; -645.000; -477.000
252.362;   83.075;  344.000;  462.000
252.504;  -70.725; -677.000; -584.000
252.646; -121.800; -875.000; -722.000
252.788;   -1.925;   14.000; -128.000
252.931;  -52.875; -257.000; -253.000
253.073;  -44.700; -376.000; -317.000
253.215;  -13.125;  141.000;  122.000
253.357;  -13.750;   82.000; -153.000
253.499;  -47.100; -374.000; -234.000
253.641;  -82.125; -749.000; -594.000
253.783;  -91.125; -609.000; -527.000
253.925;  -91.375; -586.000; -591.000
254.067; -115.700; -744.000; -667.000
254.209;  -38.625; -391.000; -259.000
254.351; -126.625; -865.000; -883.000
254.493;  -52.025; -441.000; -417.000
254.635; -135.425; -936.000; -818.000
254.777;  -90.975; -752.000; -687.000
254.918;  -77.925; -512.000; -430.000
255.060;  -54.575; -551.000; -395.000
255.202;  -56.975; -473.000; -261.000
255.344;  -71.100; -658.000; -455.000
255.486;  -67.725; -471.000; -406.000
255.628; -111.075; -780.000; -781.000
255.770;  -98.550; -676.000; -536.000
255.912;  -65.100; -559.000; -468.000
256.053;  -95.425; -730.000; -508.000
256.195;  158.100; 1008.000;  903.000
256.337; -101.275; -861.000; -595.000
256.479;   61.325;  532.000;  416.000
256.621;  -69.375; -394.000; -212.000
256.762;  -95.350; -789.000; -742.000
256.904;   39.100;  485.000;  487.000
257.046;  -51.825; -381.000; -271.000
257.188;  -47.650; -351.000; -264.000
257.329;  -59.950; -525.000; -464.000
257.471; -125.925; -939.000; -807.000
257.613;  -49.475; -584.000; -498.000
257.755; -149.475;-1073.000; -982.000
257.896;   35.500;  286.000;  392.000
258.038;  -79.825; -403.000; -352.000
258.180;  -35.000; -354.000; -279.000
258.321;  -97.075; -581.000; -457.000
258.463;    4.175;  -71.000;  133.000
258.605;  -90.175; -562.000; -570.000
258.746;  -93.700; -886.000; -772.000
258.888; -145.725;-1026.000;-1020.000
259.029;   20.625;  121.000;   -8.000
259.171;  -92.625; -614.000; -550.000
259.313;    0.150;  -49.000;  -47.000
259.454;  -74.900; -536.000; -414.000
259.596;  -56.200; -483.000; -390.000
259.737;  -80.500; -590.000; -474.000
259.879;   33.925;  217.000;  311.000
260.020;   83.500;  901.000;  636.000
260.162;  -27.500; -146.000; -253.000
260.303; -110.525; -768.000; -687.000
260.445;  -82.250; -609.000; -613.000
260.586;   19.225;  392.000;  157.000
260.728;  -42.725; -360.000; -248.000
260.869; -116.050; -350.000; -343.000
261.011;   71.575;  706.000;  537.000
261.152;  -60.575; -479.000; -319.000
261.293;  -79.125; -576.000; -595.000
261.435;  -38.200; -219.000; -184.000
261.576;  -46.200; -455.000; -325.000
261.718;   40.050;  420.000;  470.000
261.859; -129.075; -940.000; -949.000
262.000; -139.675; -951.000;-1016.000
262.142;  -15.650;  -52.000;  -60.000
262.283; -103.650; -808.000; -691.000
262.424;  -94.875; -666.000; -625.000
262.566; -154.100;-1161.000; -983.000
262.707; -110.175; -840.000; -830.000
262.848; -133.875; -769.000; -726.000
262.990;  -45.625; -362.000; -345.000
263.131;   63.825;  650.000;  681.000
263.272;  -15.800;  -61.000;  -41.000
263.413;  -91.425; -589.000; -561.000
263.555;  -47.350; -669.000; -143.000
263.696;  -79.550; -550.000; -641.000
263.837;  -58.450; -449.000; -551.000
263.978;   -7.825;   -5.000;  -77.000
264.119;  -36.150; -283.000; -264.000
264.261; -115.725; -847.000; -630.000
264.402;   -3.675;   33.000;   40.000
264.543;  -88.500; -509.000; -524.000
264.684;  -18.325;   61.000;  -50.000
264.825;  -88.000; -816.000; -538.000
264.966;  -16.275;  -84.000;  -67.000
265.107; -117.800; -646.000; -670.000
265.248; -120.950; -825.000; -812.000
265.390;  -11.900;  152.000;   -9.000
265.531;  -25.050; -238.000; -107.000
265.672;  -84.775; -557.000; -630.000
265.813;   59.625;  563.000;  439.000
265.954; -147.275; -959.000; -940.000
266.095;   -7.775; -372.000; -322.000
266.236; -102.625; -686.000; -548.000
266.377;  -44.775; -243.000; -297.000
266.518;  -72.575; -619.000; -547.000
266.659;   28.225;  170.000;  268.000
266.800;    4.675;   83.000;   85.000
266.941;  -81.225; -487.000; -478.000
267.082;   20.200;  354.000;   99.000
267.223;  -36.600; -344.000; -273.000
267.364; -130.400; -892.000; -686.000
267.504;  -18.850;    3.000;  135.000
267.645;   -6.125;  160.000;   67.000
267.786;  -35.200; -147.000;  -86.000
267.927;  -67.700; -473.000; -379.000
268.068;  -22.175; -186.000;  -61.000
268.209;  -52.100; -175.000; -413.000
268.350;  -65.250; -388.000; -532.000
268.490;  -99.250; -648.000; -521.000
268.631;   27.750;  127.000;  225.000
268.772; -124.100; -874.000; -647.000
268.913;  -51.725; -328.000; -476.000
269.054;  -17.350; -117.000;   12.000
269.194;  -28.000; -418.000; -402.000
269.335; -172.275;-1137.000;-1074.000
269.476;  -15.650;   33.000;  -35.000
269.617;  -49.725; -347.000; -392.000
269.757;  -91.600; -713.000; -646.000
269.898; -109.775; -856.000; -613.000
270.039;  -63.450; -415.000; -405.000
270.180; -151.200; -952.000; -816.000
270.320;  -35.875; -190.000; -250.000
270.461;  -44.850; -277.000; -249.000
270.602;  -18.050; -186.000; -156.000
270.742; -139.300; -868.000; -943.000
270.883;  -63.250; -442.000; -390.000
271.023;  -59.475; -358.000; -357.000
271.164;  -78.000; -607.000; -528.000
271.305; -104.225; -666.000; -654.000
271.445;  -95.750; -722.000; -683.000
271.586;  -86.400; -462.000; -283.000
271.726;  -53.650; -397.000; -322.000
271.867;  -64.975; -594.000; -534.000
272.008;  176.875; -473.000; -285.000
272.148;  116.225;  462.000;  468.000
272.289;    8.250; -113.000; -181.000
272.429;   11.375;   19.000;  185.000
272.570;  -93.400; -633.000; -737.000
272.710; -105.750; -825.000; -775.000
272.851;  -21.325;  113.000; -130.000
272.991; -161.900;-1173.000;-1077.000
273.131;  -64.225; -419.000; -459.000
273.272; -115.025; -683.000; -723.000
273.412;    7.400; -143.000;  -31.000
273.553;  -64.675; -488.000; -507.000
273.693;  120.950;  913.000;  858.000
273.834; -105.350; -894.000; -692.000
273.974;  -85.200; -664.000; -615.000
274.114;  -94.800; -772.000; -560.000
274.255;   48.500;  414.000;  373.000
274.395;   -1.950; -180.000; -125.000
274.535;   35.725;  199.000;  350.000
274.676;   11.425;  225.000;   94.000
274.816;   -4.125;  110.000;   34.000
274.956;  -96.600; -624.000; -690.000
275.097;  -70.025;-1014.000; -922.000
275.237; -129.450; -913.000; -803.000
275.377;  -99.225; -778.000; -689.000
275.517; -151.375; -878.000; -937.000
275.658;  -60.275; -590.000; -555.000
275.798;  -82.575; -606.000; -413.000
275.938;   27.300;  215.000;  323.000
276.078; -107.575; -626.000; -395.000
276.218;   13.875;   99.000;  104.000
276.359; -124.325;-1026.000;-1024.000
276.499;  -68.450; -605.000; -446.000
276.639;  -44.025; -305.000; -151.000
276.779;  -56.825; -475.000; -357.000
276.919; -110.625; -783.000; -624.000
277.059;  -25.225; -261.000; -212.000
277.199;  -51.125; -357.000; -259.000
277.340;   49.400;  287.000;  175.000
277.480; -118.425; -840.000; -693.000
277.620;   27.175;  192.000;   16.000
277.760; -190.700;-1533.000;-1294.000
277.900;   12.925;  113.000;   33.000
278.040;   19.150;  137.000;  159.000
278.180;   27.100;  270.000;  170.000
278.320;  -19.800;   21.000;   56.000
278.460;  -72.425; -443.000; -469.000
278.600;  -81.225; -708.000; -598.000
278.740;   45.825;  448.000;  224.000
278.880;  -75.725; -768.000; -791.000
279.020;   -5.275; -194.000; -144.000
279.160; -100.975; -672.000; -595.000
279.300; -117.300; -926.000; -873.000
279.440;  -84.750; -709.000; -622.000
279.579;  -22.325;-1014.000; -929.000
279.719;  -54.425; -410.000; -394.000
279.859;   64.450;   -4.000;   41.000
279.999;   14.850; -208.000;  101.000
280.139;  -21.550; -435.000; -387.000
280.279;  -90.825; -708.000; -745.000
280.419;  -27.425; -229.000; -147.000
280.559;  -34.625; -259.000; -180.000
280.698;  -86.100; -790.000; -639.000
280.838; -109.575; -778.000; -800.000
280.978;  -95.250; -846.000; -790.000
281.118; -116.950; -811.000; -704.000
281.257;    1.200;   24.000;    6.000
281.397; -142.700;-1094.000; -960.000
281.537;  -88.825; -599.000; -712.000
281.677;  -33.600; -150.000; -101.000
281.816;  -85.375; -700.000; -630.000
281.956;  -27.125; -193.000; -257.000
282.096;  -70.400; -539.000; -396.000
282.235; -119.775; -672.000; -638.000
282.375;  -19.575; -243.000;  -98.000
282.515; -104.150; -715.000; -707.000
282.654;   15.450;   29.000;  106.000
282.794;   13.600;  388.000;  244.000
282.934;  -78.450; -530.000; -491.000
283.073; -141.100;-1030.000; -857.000
283.213;  -54.475; -460.000; -467.000
283.353;  -45.400; -408.000; -349.000
283.492;  -29.575; -264.000; -296.000
283.632;  -33.450; -254.000; -168.000
283.771;  -94.175; -859.000; -730.000
283.911;  -54.525; -369.000; -260.000
284.050; -116.525; -794.000; -748.000
284.190; -162.875;-1229.000;-1096.000
284.329; -139.375;-1055.000; -964.000
284.469;  -83.125; -516.000; -591.000
284.608;  -63.475; -559.000; -598.000
284.748; -102.775; -614.000; -570.000
284.887;   -9.275;  -87.000;  -20.000
285.027; -131.675; -844.000; -892.000
285.166;  -30.600; -192.000; -249.000
285.306;   -4.675; -116.000;  -33.000
285.445;  -30.300; -229.000; -343.000
285.584; -100.725; -630.000; -494.000
285.724;  -49.125; -282.000; -322.000
285.863; -121.200; -857.000; -507.000
286.002;  -50.200; -366.000; -276.000
286.142; -110.825; -715.000; -622.000
286.281;  -71.325; -525.000; -493.000
286.420;  -84.875; -554.000; -417.000
286.560;   91.225;  653.000;  623.000
286.699; -145.700; -958.000; -912.000
286.838;  -82.775; -590.000; -591.000
286.978; -108.075; -533.000; -537.000
287.117; -140.975;-1085.000; -950.000
287.256;  -44.025; -228.000; -211.000
287.395;  -47.600; -197.000; -378.000
287.535;  -44.225; -370.000; -298.000
287.674;  -91.400; -509.000; -484.000
287.813;   53.075;  661.000;  533.000
287.952; -127.400;-1010.000; -871.000
288.091; -169.125;-1049.000; -915.000
288.231;   13.825;   13.000;   15.000
288.370; -177.525;-1217.000;-1200.000
288.509; -107.625; -728.000; -645.000
288.648;  -96.300; -770.000; -548.000
288.787;  -43.850; -243.000;  -87.000
288.926;  -82.225; -454.000; -475.000
289.065;  110.525;  859.000;  672.000
289.204;  -72.325; -377.000; -217.000
289.344; -105.075; -791.000; -690.000
289.483;   12.900;  416.000;  304.000
289.622;  -24.550; -291.000; -149.000
289.761;  -32.850; -309.000; -166.000
289.900; -106.800; -785.000; -626.000
290.039;  -27.075;  -12.000;  -95.000
290.178;  -46.325; -274.000; -180.000
290.317;  -79.125; -618.000; -479.000
290.456;  -69.775; -463.000; -451.000
290.595; -143.925; -961.000; -833.000
290.734; -135.925; -904.000; -891.000
290.873;  -77.500; -456.000; -420.000
291.011;  -94.825; -833.000; -843.000
291.150; -114.150; -770.000; -682.000
291.289;  -21.400; -343.000; -110.000
291.428;  -92.250; -599.000; -480.000
291.567;  -56.400; -370.000; -442.000
291.706;  -17.150;  109.000;  154.000
291.845;  -88.725; -597.000; -505.000
291.984; -177.925;-1234.000;-1061.000
292.122;   62.375;  602.000;  582.000
292.261;   45.250;  620.000;  463.000
292.400;   13.850; -144.000;  211.000
292.539; -132.750; -959.000; -813.000
292.678;  -36.225; -325.000; -300.000
292.816; -165.650;-1136.000; -965.000
292.955;  -89.350; -844.000; -684.000
293.094;  -30.950; -173.000; -337.000
293.233;  -48.425; -556.000; -400.000
293.371;  -40.800; -225.000;  -84.000
293.510; -106.800; -866.000; -780.000
293.649; -143.725; -959.000; -924.000
293.787;  -80.450;-1083.000;-1012.000
293.926;   -6.250; -113.000;  -32.000
294.065;  -47.050; -379.000; -290.000
294.203;   33.900;  298.000;  406.000
294.342;   13.250;   74.000;  156.000
294.481; 6167.600;51180.000; -836.000
294.619;  -38.800; -425.000; -582.000
294.758; -157.175;-1230.000;-1137.000
294.896;   54.425; -125.000;    5.000
295.035; -139.450;-1040.000;-1006.000
295.174; -133.075;-1082.000; -954.000
295.312;  -51.200; -323.000; -203.000
295.451;  -18.875; -307.000; -428.000
295.589;  -59.100; -389.000; -518.000
295.728;   15.825; -292.000; -165.000
295.866;  -16.025;  -36.000;  -51.000
296.005;  -68.800; -584.000; -341.000
296.143;  -85.700; -558.000; -596.000
296.282; -110.675; -957.000; -881.000
296.420;  -91.825; -657.000; -557.000
296.559;  -77.600; -892.000; -633.000
296.697;  -10.475; -847.000; -665.000
296.835;   17.150;-1141.000;-1002.000
296.974;   37.525;  -23.000;   39.000
297.112;   -2.325; -443.000; -504.000
297.251;  -97.225; -815.000; -755.000
297.389;   68.550; -576.000; -438.000
297.527;   23.375; -145.000;  -83.000
297.666;  -61.450; -486.000; -438.000
297.804;  -60.400; -404.000; -264.000
297.942;    4.175; -136.000; -161.000
298.081;  -21.525; -183.000;   63.000
298.219;   54.900;  -17.000;  -19.000
298.357;   36.500; -144.000;  -71.000
298.495;   20.575; -810.000; -812.000
298.634;   52.450;  245.000;  219.000
298.772;   35.875; -220.000; -338.000
298.910;  -64.125; -309.000; -182.000
299.048;   -6.850; -130.000; -153.000
299.187;  -48.250; -350.000; -250.000
299.325;   -5.550;   52.000;  122.000
299.463;   16.400; -389.000; -299.000
299.601;   93.950; -327.000; -271.000
299.739; -112.225; -908.000; -883.000
299.877;  -89.425; -791.000; -703.000
300.016;  -53.400;-1095.000; -935.000
300.154;  143.000;  -19.000; -161.000
300.292;   18.150; -428.000; -348.000
300.430;   16.275; -408.000; -291.000
300.568; -118.025; -940.000; -874.000
300.706;  -48.875; -366.000; -469.000
300.844;  -97.225;-1108.000; -979.000
300.982;  107.500;  246.000;  282.000
301.120; -119.350; -965.000; -866.000
301.258;  -78.750; -812.000; -705.000
301.396;   31.750;  104.000;  -41.000
301.534;   61.350; -218.000; -293.000
301.672;  -28.725; -664.000; -521.000
301.810;   10.075; -613.000; -545.000
301.948;   89.925;   53.000;  149.000
302.086;  588.500; -250.000;  -32.000
302.224;  854.700; -610.000; -585.000
302.362;   27.375; -558.000; -622.000
302.500;  -36.125; -923.000; -893.000
302.638;   96.750;  128.000;  245.000
302.776;  -12.700; -352.000; -408.000
302.913;   42.025;  447.000;  236.000
303.051;  -16.175;  -86.000;  -23.000
303.189;   36.675;   90.000;  118.000
303.327;  -45.900; -341.000; -256.000
303.465;  -83.625; -832.000; -588.000
303.603; -104.200; -805.000; -604.000
303.740;  105.625;  417.000;  241.000
303.878;   -1.475; -800.000; -759.000
304.016;  -92.425; -915.000; -790.000
304.154; -122.950;-1123.000;-1152.000
304.291;  -35.725; -505.000; -554.000
304.429;   -4.625;  102.000;   74.000
304.567; -130.850; -908.000; -893.000
304.705;  -59.250; -408.000; -515.000
304.842;   69.825; -616.000; -540.000
304.980;   48.050;  215.000;   35.000
305.118;   37.225; -367.000; -365.000
305.255;  -84.300; -945.000; -927.000
305.393;   36.400;  178.000;  239.000
305.531; -119.550;-1173.000; -956.000
305.668;  -80.150; -663.000; -582.000
305.806;  104.400; -358.000; -439.000
305.943;   90.750; -629.000; -637.000
306.081;   41.450; -378.000; -267.000
306.219; -102.525; -863.000; -748.000
306.356;    4.400;  158.000;   27.000
306.494;  103.850;  981.000;  761.000
306.631;  -12.150;  -11.000;  -55.000
306.769;   -4.525; -613.000; -485.000
306.906;  -28.725; -284.000; -258.000
307.044;  -68.425; -473.000; -488.000
307.181;  -70.650; -410.000; -332.000
307.319;   -0.700;  112.000;   87.000
307.456; -182.125;-1191.000;-1153.000
307.594;  -96.500; -980.000; -727.000
307.731;  -23.450; -371.000; -164.000
307.868;   -0.950;  -15.000;   20.000
308.006; -144.725; -961.000; -847.000
308.143;  -77.275; -618.000; -330.000
308.281;  153.700;  -37.000; -254.000
308.418;  -22.500; -748.000; -640.000
308.555;  -75.150; -400.000; -250.000
308.693;  -77.250; -577.000; -573.000
308.830; -121.225; -712.000; -657.000
308.967;  -27.750; -215.000;  -95.000
309.105;  -61.475; -507.000; -396.000
309.242;   21.325; -468.000; -367.000
309.379;  264.975; -577.000; -655.000
309.517;  -75.050; -936.000; -948.000
309.654; -107.800; -910.000; -734.000
309.791;  -77.475; -662.000; -580.000
309.928; -127.150; -977.000; -914.000
310.065;  184.775;  819.000;  697.000
310.203;  -32.100; -825.000; -850.000
310.340;  -16.975; -465.000; -321.000
310.477;  -90.975; -412.000; -516.000
310.614;  -78.550; -383.000; -473.000
310.751;  -84.875; -427.000; -518.000
310.889;  -24.875;    1.000;   11.000
311.026; -159.100;-1161.000; -939.000
311.163;  -47.175; -386.000; -380.000
311.300;  -87.475; -512.000; -479.000
311.437;  -68.025; -658.000; -619.000
311.574; -170.700;-1226.000; -985.000
311.711;  -69.050; -595.000; -433.000
311.848;  -56.600; -380.000; -388.000
311.985;   -4.000;  270.000;   93.000
312.122; -134.750; -932.000; -762.000
312.259; -119.500; -941.000; -994.000
312.396;  -94.250; -508.000; -551.000
312.533;  -82.475; -812.000; -790.000
312.670; -143.950;-1070.000; -898.000
312.807;  -40.300; -352.000; -367.000
312.944;  -85.625; -513.000; -611.000
313.081;  -32.425; -150.000; -415.000
313.218; -115.900;-1111.000; -867.000
313.355;   11.375; -531.000; -449.000
313.492;  -12.925; -455.000; -292.000
313.629;  128.400;  815.000;  735.000
313.766; -165.825;-1176.000;-1008.000
313.902;  -19.050; -186.000;   21.000
314.039;  -71.475; -372.000; -289.000
314.176;   18.450;  286.000;  192.000
314.313;  -84.975; -569.000; -473.000
314.450;  -87.625; -788.000; -684.000
314.587;  -64.900; -468.000; -480.000
314.723;   -5.525;  -78.000;  130.000
314.860;   12.950;  318.000;  332.000
314.997;   30.250;  223.000;  142.000
315.134;  -55.875; -385.000; -368.000
315.270;  -35.050; -480.000; -496.000
315.407; -135.775;-1094.000; -967.000
315.544;  -51.875; -657.000; -538.000
315.681;  -71.775; -681.000; -565.000
315.817;   14.350; -133.000; -176.000
315.954;  -13.275; -613.000; -392.000
316.091; -116.725;-1045.000;-1023.000
316.227;  -37.075;  -71.000; -179.000
316.364;    2.500;   23.000;    6.000
316.500;  -47.425; -113.000; -300.000
316.637;  -34.600; -181.000; -302.000
316.774;  -89.625; -625.000; -358.000
316.910;  -90.275; -598.000; -629.000
317.047;  -76.900; -487.000; -351.000
317.183;  -58.175; -435.000; -566.000
317.320;  -21.250; -367.000; -321.000
317.456;  -74.350; -733.000; -805.000
317.593;  -92.975; -598.000; -641.000
317.729;    2.000;  168.000;  -67.000
317.866; -200.000;-1434.000;-1285.000
318.002;  -84.350; -708.000; -948.000
318.139; -109.725; -883.000; -867.000
318.275; -108.650;-1003.000; -738.000
318.412;  -73.400; -517.000; -336.000
318.548;  -47.500; -751.000; -720.000
318.685; -102.450; -985.000; -888.000
318.821;  -92.875; -762.000; -735.000
318.957;  -28.675;   34.000;  -23.000
319.094;   33.250;  297.000;  154.000
319.230;  -79.000; -756.000; -742.000
319.367;   99.525; -471.000; -520.000
319.503;   29.275; -538.000; -436.000
319.639;  -81.025; -877.000; -793.000
319.775;  -84.900; -750.000; -685.000
319.912;  -56.250; -424.000; -519.000
320.048;  -97.175;-1184.000;-1184.000
320.184;   83.800;   59.000;   70.000
320.321;  -76.800; -497.000; -467.000
320.457;   53.050;  475.000;  662.000
320.593;  -73.775; -375.000; -382.000
320.729; -103.900; -732.000; -734.000
320.866;  -84.875; -577.000; -635.000
321.002;  -84.975; -759.000; -809.000
321.138;  -26.650; -135.000; -211.000
321.274;   74.950; -148.000; -115.000
321.410;  -22.775; -585.000; -353.000
321.546;  -35.425;-1011.000; -911.000
321.683;   48.525;  400.000;  185.000
321.819;   -1.775;  -48.000; -117.000
321.955; -118.550; -743.000; -722.000
322.091;  -51.650; -585.000; -540.000
322.227;  -30.750; -382.000; -202.000
322.363;  -27.250; -320.000; -215.000
322.499;  -61.550; -343.000; -331.000
322.635;  154.025;  636.000;  443.000
322.771;   14.000; -139.000;   12.000
322.907;   72.575;  129.000;  327.000
323.043;  -39.775; -115.000; -206.000
323.179;  -41.000; -394.000; -363.000
323.315;   -8.125; -401.000; -371.000
323.451;   69.725; -328.000; -236.000
323.587;   39.050;  -60.000;  -77.000
323.723;   15.800; -682.000; -601.000
323.859;  -17.700; -258.000;  -76.000
323.995;  -43.700; -467.000; -409.000
324.131; -130.275; -967.000; -892.000
324.267;  -33.525; -254.000; -276.000
324.402; -141.025; -960.000; -983.000
324.538;  -30.675; -279.000; -104.000
324.674;   -1.350;  164.000;   77.000
324.810;  102.400;  226.000;  308.000
324.946;  -12.650; -810.000; -658.000
325.082;  -72.775; -568.000; -475.000
325.217;  -23.650;  -62.000;   16.000
325.353; -107.700; -764.000; -659.000
325.489; -105.225; -540.000; -506.000
325.625;  -72.025; -579.000; -525.000
325.760;   58.025;  517.000;  376.000
325.896;  -30.175; -515.000; -702.000
326.032;  -67.225; -403.000; -352.000
326.168;  -49.900; -462.000; -369.000
326.303;  -76.925; -352.000; -461.000
326.439;   -0.900; -336.000; -276.000
326.575;  -10.475; -190.000;  -29.000
326.710;  -22.925; -156.000;  -30.000
326.846;  -31.100;  146.000;  103.000
326.982;  -93.950; -530.000; -548.000
327.117;  -73.850; -481.000; -442.000
327.253;  -87.625; -745.000; -742.000
327.388; -182.150;-1137.000;-1153.000
327.524;  -67.300; -811.000; -578.000
327.659;  -34.650;  -58.000;  -22.000
327.795;  -15.775;   69.000;   45.000
327.931;  -89.650; -723.000; -499.000
328.066;  -21.575; -417.000; -276.000
328.202;  -34.125;   12.000; -129.000
328.337;  108.600;  957.000;  713.000
328.473;   15.475;  -12.000;  -74.000
328.608;  -28.775; -256.000; -267.000
328.743;  -84.850; -799.000; -664.000
328.879;   19.500;  214.000;  114.000
329.014;  -53.625; -102.000; -122.000
329.150;  -82.275; -358.000; -483.000
329.285;  -74.475; -465.000; -466.000
329.421;  -51.675; -548.000; -246.000
329.556;  -34.250;  -36.000;   85.000
329.691;  -96.250; -633.000; -615.000
329.827;  -96.275; -626.000; -480.000
329.962;  -46.625;  131.000; -301.000
330.097; -104.800; -673.000; -585.000
330.233;  -39.375; -410.000; -223.000
330.368; -125.775; -839.000; -628.000
330.503;  -12.800;    3.000;   98.000
330.638;   -2.500;  -93.000; -125.000
330.774;  -61.225; -609.000; -530.000
330.909;  -56.925; -434.000; -244.000
331.044;  -96.475; -714.000; -708.000
331.179; -178.225;-1217.000;-1109.000
331.315;   12.950;   77.000;   20.000
331.450;    9.075;  157.000;  285.000
331.585;  -94.100; -805.000; -706.000
331.720;  -95.225; -510.000; -460.000
331.855;  -19.025;  -35.000; -102.000
331.990;  258.125;   62.000;  138.000
332.126;  124.475; -110.000;   71.000
332.261;  -16.800; -379.000; -265.000
332.396;  -15.350; -135.000; -242.000
332.531;  -93.100;-1074.000;-1031.000
332.666;   35.925; -519.000; -363.000
332.801; -105.925; -726.000; -807.000
332.936;  -23.675; -192.000; -122.000
333.071; -160.625; -870.000; -817.000
333.206;    3.850;  307.000;  379.000
333.341;   25.475;  344.000;  418.000
333.476; -102.000; -627.000; -623.000
333.611;  -45.050; -251.000; -173.000
333.746;  -66.700; -381.000; -464.000
333.881; -131.600; -973.000; -935.000
334.016; -139.625; -936.000; -917.000
334.151; -139.925; -746.000; -702.000
334.286;   17.175;  152.000;  186.000
334.421;  -27.675; -125.000; -178.000
334.556;  -81.925; -611.000; -567.000
334.690;  -95.950; -631.000; -577.000
334.825;   50.750;  381.000;   83.000
334.960;  -81.400; -285.000; -413.000
335.095;   -4.100;  135.000;  -91.000
335.230; -125.600; -722.000; -738.000
335.365; -134.225;-1084.000; -990.000
335.499; -132.600;-1108.000;-1037.000
335.634;   15.075;    9.000;  534.000
335.769; -120.000; -755.000; -720.000
335.904;  -68.425; -603.000; -561.000
336.038;  -70.475; -735.000; -657.000
336.173; -121.775;-1206.000;-1194.000
336.308;   -9.975; -116.000; -189.000
336.443;   18.075; -544.000; -634.000
336.577;  -82.625; -936.000; -787.000
336.712;   55.075;   -4.000;  -12.000
336.847;  -50.875; -724.000; -607.000
336.981;   50.975; -272.000; -208.000
337.116;  250.200;  615.000;  501.000
337.250;  123.025; -434.000; -421.000
337.385;  284.975; -297.000; -208.000
337.520;  105.400; -632.000; -603.000
337.654;  -58.900; -215.000; -126.000
337.789; -130.325; -989.000; -933.000
337.923;  -46.500; -104.000; -205.000
338.058;  -87.800; -673.000; -738.000
338.192;  -44.525; -611.000; -488.000
338.327;   -6.725;  -18.000; -155.000
338.461;  -91.125; -299.000; -469.000
338.596;  -86.325; -780.000; -638.000
338.730; -117.950; -767.000; -803.000
338.865;  100.175;  -46.000; -140.000
338.999;  -46.775; -846.000; -702.000
339.134;  -29.675; -634.000; -536.000
339.268;   18.275; -741.000; -603.000
339.403;  391.100; -740.000; -775.000
339.537;  131.875; -894.000; -820.000
339.671; -107.850; -829.000; -813.000
339.806;  -70.675; -556.000; -512.000
339.940;    8.200; -261.000; -235.000
340.074;  -97.200; -685.000; -510.000
340.209;  -54.150; -351.000; -230.000
340.343;  -85.675; -517.000; -573.000
340.477;  139.800;  998.000; 1036.000
340.612;  -63.750;-1033.000; -900.000
340.746;  152.050; -199.000; -243.000
340.880;  -82.775; -924.000; -785.000
341.014;  -17.400;  -45.000; -154.000
341.149; -133.925; -756.000; -718.000
341.283; -121.325; -839.000; -754.000
341.417; -111.900;-1124.000; -938.000
341.551;  100.050; -768.000; -708.000
341.685;  -57.600; -633.000; -611.000
341.820;  -57.750; -562.000; -493.000
341.954;  -54.325; -218.000; -349.000
342.088; -141.375;-1102.000;-1019.000
342.222;   38.725;  565.000;  618.000
342.356;  -61.025; -395.000; -335.000
342.490; -108.675; -880.000; -841.000
342.624;  -44.975; -339.000; -242.000
342.758;  -16.200; -364.000; -312.000
342.892;  -72.925; -710.000; -585.000
343.026;  -54.775;  -58.000; -116.000
343.160;  -57.875; -426.000; -376.000
343.294;  -93.400; -474.000; -337.000
343.428;  -34.700; -488.000; -448.000
343.562;  -36.175; -172.000;  -23.000
343.696;  -28.175; -385.000; -314.000
343.830;  -52.450; -362.000; -356.000
343.964;    5.100; -231.000; -168.000
344.098;  800.000;  199.000;   70.000
344.232;  689.600; -266.000; -127.000
344.366;   86.375; -567.000; -453.000
344.500;   43.275; -665.000; -744.000
344.634;    4.100; -324.000; -164.000
344.768;  -26.150; -531.000; -341.000
344.902;    2.400;  278.000;  256.000
345.035;  -78.925; -556.000; -496.000
345.169; -140.700; -933.000; -656.000
345.303;  -28.450; -308.000; -482.000
345.437;  -94.925; -826.000; -717.000
345.571;  -74.750; -675.000; -594.000
345.704;  -77.600; -309.000; -532.000
345.838;  -28.750; -331.000; -284.000
345.972;  -53.725; -543.000; -495.000
346.106;  178.375; -179.000; -190.000
346.239;  415.950; -312.000; -243.000
346.373;  -11.025; -343.000; -302.000
346.507; -148.225; -950.000; -962.000
346.640;  123.675;  -30.000;   13.000
346.774;  -62.675; -650.000; -797.000
346.908;  -30.875; -138.000;  -11.000
347.041; -107.450; -646.000; -593.000
347.175;    0.450;  259.000;   27.000
347.309;  -80.500; -698.000; -628.000
347.442; -113.675; -883.000; -732.000
347.576;  231.775;  670.000;  668.000
347.709;  160.025; -123.000;  -52.000
347.843; -114.900; -933.000; -825.000
347.976;   30.875;  235.000;  294.000
348.110; -193.475;-1268.000;-1186.000
348.243; -105.950; -679.000; -772.000
348.377;  -15.175;  -26.000;   60.000
348.510;   41.500;  403.000;  540.000
348.644;  -44.575;  -37.000; -159.000
348.777;   -5.675;  180.000;  191.000
348.911;  -67.000; -142.000; -112.000
349.044;  150.525;  471.000;  448.000
349.178;  107.725;-1069.000;-1006.000
349.311;  113.350;  141.000;  255.000
349.444;  -11.475; -927.000; -813.000
349.578;  -33.675; -347.000; -200.000
349.711; -123.025; -959.000; -862.000
349.845;  -25.600; -661.000; -591.000
349.978; -150.750;-1224.000;-1137.000
350.111;  -83.625; -546.000; -612.000
350.244;  -85.250; -596.000; -700.000
350.378;   -8.775; -392.000; -393.000
350.511;  -72.450; -393.000; -426.000
350.644; -115.775; -808.000; -806.000
350.778;    4.600;  168.000;  104.000
350.911;    8.550;  134.000;  140.000
351.044; -105.775; -685.000; -615.000
351.177;  -29.300; -321.000; -281.000
351.310;  -43.375;    3.000; -131.000
351.444; -100.875; -888.000; -788.000
351.577;   92.200;  140.000;   90.000
351.710;   91.700;  593.000;  417.000
351.843;  -37.825; -165.000;  -77.000
351.976;    3.250;  149.000;  -79.000
352.109; -108.925; -621.000; -612.000
352.242;  -36.450; -464.000; -419.000
352.376;  -80.425; -580.000; -636.000
352.509;  137.450; -437.000; -356.000
352.642;  -11.750; -654.000; -604.000
352.775;   48.625; -141.000;  -98.000
352.908; -138.150; -933.000; -904.000
353.041; -108.150; -814.000; -824.000
353.174;  -80.475; -551.000; -424.000
353.307;  -93.575; -753.000; -764.000
353.440;   55.300;  541.000;  453.000
353.573; -121.675; -957.000;-1008.000
353.706;  -65.200; -384.000; -558.000
353.839;  -12.800; -264.000; -220.000
353.971; -112.475; -657.000; -512.000
354.104;  -93.150; -896.000; -835.000
354.237;  -50.400; -627.000; -662.000
354.370;  -87.000; -846.000; -879.000
354.503; -189.475;-1231.000;-1308.000
354.636;  -59.075; -529.000; -348.000
354.769; -129.525; -937.000; -860.000
354.902;  -23.550; -230.000; -139.000
355.034;  -21.150; -164.000; -220.000
355.167;  -24.725; -262.000; -162.000
355.300;  -93.950;-1061.000; -880.000
355.433; 1002.475;  -71.000;  -14.000
355.565; 1566.575; -402.000; -384.000
355.698;  405.850; -356.000; -296.000
355.831;   -3.775; -882.000; -801.000
355.964;   61.400; -285.000; -170.000
356.096;  -92.275; -856.000; -843.000
356.229;  -16.975; -523.000; -530.000
356.362;  318.875; -373.000; -266.000
356.494;  629.300; -229.000; -162.000
356.627;  433.850;  269.000;  377.000
356.760;  660.900;  120.000;   53.000
356.892;  985.375; -286.000; -601.000
357.025;  574.800;  403.000;  389.000
357.157;  511.125; -167.000; -179.000
357.290;  736.075; -856.000; -713.000
357.423;  214.800; -667.000; -556.000
357.555;   99.475; -217.000; -228.000
357.688;  109.500; -483.000; -364.000
357.820;  415.925; -870.000; -877.000
357.953; 3541.550; -563.000; -589.000
358.085;  758.150; -632.000; -612.000
358.218;  898.025;-1131.000; -932.000
358.350;  186.475;  -58.000;  312.000
358.483; -141.175;-1300.000;-1187.000
358.615;  -46.850;-1182.000;-1078.000
358.747;  -90.775;-1187.000;-1058.000
358.880;   -0.925; -810.000; -744.000
359.012;  -27.150; -376.000; -202.000
359.145;  -46.550; -480.000; -511.000
359.277;   49.750; -962.000; -913.000
359.409; 2882.675;  536.000;  231.000
359.542;  763.650; -738.000; -688.000
359.674;   69.975;   46.000;   13.000
359.806;  -70.000; -565.000; -438.000
359.939;  -48.750; -617.000; -516.000
360.071;   -5.100; -583.000; -579.000
360.203;  -15.500; -411.000; -364.000
360.335;   38.325;  164.000;  -16.000
360.468;  185.200; -249.000; -307.000
360.600; 2333.450; -547.000; -454.000
360.732; 3079.175; -546.000; -423.000
360.864;  417.000;-1216.000;-1044.000
360.996;  230.000; -516.000; -554.000
361.129;   25.825; -389.000; -598.000
361.261;   16.875;  110.000; -113.000
361.393;  -29.250; -252.000; -214.000
361.525;   26.925;   94.000;  244.000
361.657;  -60.175; -821.000; -703.000
361.789;   -6.600; -139.000; -155.000
361.921;  161.425; -642.000; -593.000
362.053;  216.425;  524.000;  541.000
362.185;   17.200;  288.000;   72.000
362.318;  -90.075; -709.000; -705.000
362.450;   84.475;  294.000;  444.000
362.582;   43.275; -913.000; -870.000
362.714;  -47.500; -353.000; -332.000
362.846;  -84.850; -606.000; -490.000
362.978; -142.050; -941.000; -811.000
363.109;   23.600; -161.000; -260.000
363.241;  358.200; -739.000; -749.000
363.373;  429.600; -649.000; -564.000
363.505;  728.875; -186.000;  -91.000
363.637;  172.300; -787.000; -601.000
363.769; -122.325;-1067.000;-1080.000
363.901;  -72.650; -596.000; -654.000
364.033; -135.775;-1103.000;-1062.000
364.165;  -13.425; -283.000; -283.000
364.296;   58.975; -316.000; -177.000
364.428;   91.100;-1344.000;-1220.000
364.560;  -76.225; -679.000; -661.000
364.692;  -64.700; -738.000; -835.000
364.824;  183.125; -588.000; -456.000
364.955;  434.400; -402.000; -564.000
365.087; 1013.275;-1097.000; -852.000
365.219;   38.200; -686.000; -816.000
365.351;  -82.975; -526.000; -572.000
365.482;   50.575;  300.000;  240.000
365.614;  -62.350; -402.000; -314.000
365.746; -104.375; -729.000; -752.000
365.877;  -98.550; -706.000; -672.000
366.009;  273.400;  -35.000;  -62.000
366.141;  -72.675;-1249.000;-1134.000
366.272; -106.150; -803.000; -719.000
366.404; -117.000;-1005.000; -874.000
366.535;  -11.650; -139.000;  -12.000
366.667; -110.600; -644.000; -649.000
366.799;   41.575;  353.000;  203.000
366.930; -126.100; -862.000; -996.000
367.062;  125.950; -639.000; -613.000
367.193;  180.550; -872.000; -842.000
367.325;  -69.525; -580.000; -684.000
367.456;   28.025; -246.000;   31.000
367.588;  167.425; -371.000; -318.000
367.719;   14.250;  -44.000;  -45.000
367.851;  -19.325; -222.000; -241.000
367.982;  -76.650; -875.000; -732.000
368.113;   78.125; -475.000; -358.000
368.245; -132.800; -960.000; -841.000
368.376;  -19.200; -254.000; -302.000
368.508;  -45.675; -188.000; -263.000
368.639; -148.150;-1166.000;-1034.000
368.770;  -42.000; -670.000; -589.000
368.902;  -60.550; -836.000; -926.000
369.033; -118.175; -906.000; -855.000
369.164;  -52.300; -720.000; -653.000
369.296; -122.125; -452.000; -601.000
369.427;  -22.875; -209.000; -144.000
369.558;  -78.775; -593.000; -377.000
369.689;  -81.125; -721.000; -569.000
369.821; -135.725; -951.000; -845.000
369.952;  -26.450;   42.000; -108.000
370.083;  -53.500; -229.000; -108.000
370.214;  -87.475; -735.000; -650.000
370.345;  -19.950;   65.000;   81.000
370.477;  -81.675; -810.000; -790.000
370.608;  161.550; -328.000; -264.000
370.739;  -64.550;-1233.000;-1292.000
370.870;  -74.300;-1102.000; -923.000
371.001;   62.125; -378.000; -467.000
371.132; -103.300; -754.000; -735.000
371.263;  -25.850;  -42.000; -148.000
371.394; -152.525; -841.000; -748.000
371.525;   24.600;  345.000;  225.000
371.657; -101.375; -808.000; -670.000
371.788;   57.925;  103.000;  199.000
371.919;  123.700; -384.000; -304.000
372.050; 3316.850;  -91.000; -156.000
372.181; 1005.350; -188.000; -294.000
372.311;  316.650;   42.000; -127.000
372.442;    6.450; -457.000; -451.000
372.573;  -24.900; -444.000; -340.000
372.704; -133.125;-1008.000; -980.000
372.835;   65.325; -228.000; -289.000
372.966;  -76.600; -646.000; -554.000
373.097;  -68.150; -575.000; -711.000
373.228;  -57.375; -717.000; -542.000
373.359;   78.125; -824.000; -536.000
373.490;  797.800; -881.000; -727.000
373.620; 1032.300;-1001.000; -803.000
373.751; 1549.000; -332.000; -396.000
373.882;  695.075; -663.000; -733.000
374.013;   34.225; -449.000; -262.000
374.143;  -43.800; -581.000; -659.000
374.274; -114.725; -987.000; -908.000
374.405;  124.200; -388.000; -276.000
374.536;  366.700; -526.000; -387.000
374.666;  947.650; -759.000; -807.000
374.797;  184.025; -817.000; -868.000
374.928;  706.475; -710.000; -560.000
375.058;  748.000; -535.000; -500.000
375.189;   68.700;  -59.000;  -93.000
375.320; -116.675; -928.000;-1034.000
375.450;  -49.700; -625.000; -616.000
375.581;  -63.750; -526.000; -436.000
375.712;  -37.775; -574.000; -250.000
375.842;  242.625; -438.000; -415.000
375.973;  176.025; -554.000; -513.000
376.103;  -61.375; -665.000; -648.000
376.234;  -93.225; -531.000; -552.000
376.364;  -54.275; -944.000; -867.000
376.495;  295.325;  925.000;  529.000
376.625;  -37.750; -472.000; -485.000
376.756;   24.075; -709.000; -678.000
376.886;  -99.250;-1178.000;-1026.000
377.017;   43.100;-1048.000;-1061.000
377.147;  380.525; -786.000; -782.000
377.278;   51.125;  174.000;  228.000
377.408; -124.675; -801.000; -815.000
377.538; -110.575; -707.000; -693.000
377.669;  -84.000; -537.000; -613.000
377.799; -102.475; -645.000; -635.000
377.929;  -67.475; -610.000; -428.000
378.060; -128.225; -781.000; -847.000
378.190;  -83.725; -726.000; -531.000
378.320;  -63.650; -401.000; -406.000
378.451;  -16.475; -131.000;  -22.000
378.581;  -23.200;  -67.000; -110.000
378.711;  113.250; 1035.000;  866.000
378.841;  -34.425; -533.000; -675.000
378.972; -108.025; -871.000; -751.000
379.102;  -17.100; -652.000; -579.000
379.232;  -39.625; -126.000;  -73.000
379.362; -118.000;-1001.000; -885.000
379.492;  -33.000; -373.000; -424.000
379.623;   98.350;    0.000;  111.000
379.753; -116.000;-1107.000; -974.000
379.883;  155.450;   59.000;  156.000
380.013;  -24.475;-1081.000;-1017.000
380.143; -112.325;-1097.000;-1056.000
380.273; -120.400; -985.000; -861.000
380.403;   -5.850; -344.000; -257.000
380.533;  -41.500; -651.000; -664.000
380.663;   50.300;  173.000;  128.000
380.793; -126.175;-1027.000;-1074.000
380.923;  -27.675; -103.000;  -34.000
381.053; -109.025; -613.000; -623.000
381.183;  -44.325; -106.000; -248.000
381.313;   -5.975; -656.000; -470.000
381.443;   14.475; -692.000; -473.000
381.573;  126.875; -402.000; -409.000
381.703;  202.450;-1249.000;-1095.000
381.833; -150.150;-1454.000;-1336.000
381.963;   86.900; -134.000;  -87.000
382.093; 1280.725; -925.000; -909.000
382.223;  412.775; -713.000; -602.000
382.353;  -36.025; -801.000; -608.000
382.482;  290.125;-1091.000; -964.000
382.612;  669.525; -872.000; -644.000
382.742;  391.000; -695.000; -622.000
382.872;  195.100; -565.000; -551.000
383.002;   42.475;  347.000; -132.000
383.131;  -31.025; -226.000; -160.000
383.261;  -47.175; -706.000; -768.000
383.391;  262.050; -552.000; -377.000
383.521; 3453.950;  451.000;  263.000
383.650;  878.750; -947.000; -904.000
383.780;  -16.025; -783.000; -656.000
383.910;   92.750;  880.000;  802.000
384.039;    3.600; -794.000; -656.000
384.169;  138.525;-1205.000;-1017.000
384.299;  -40.550; -650.000; -662.000
384.428; -105.775; -764.000; -680.000
384.558;  -51.075; -308.000; -275.000
384.687;  -52.500; -414.000; -334.000
384.817;   -2.425;   75.000;   -2.000
384.947;   -3.800; -234.000; -141.000
385.076;  250.325;  982.000;  912.000
385.206;   63.500;  369.000;  480.000
385.335;  -42.250; -549.000; -417.000
385.465;  -97.175; -655.000; -663.000
385.594;  121.925;  -53.000;  -44.000
385.724;  333.950; -868.000; -838.000
385.853;  100.400; -296.000; -270.000
385.982; 1150.900; -743.000; -787.000
386.112; 1937.425;-1052.000; -871.000
386.241;  102.300; -307.000; -312.000
386.371;    6.675; -174.000;  -87.000
386.500;  -22.250; -825.000; -789.000
386.629;    8.925; -874.000; -817.000
386.759;   45.625;  -43.000;   68.000
386.888;  -23.800; -170.000; -250.000
387.017; -101.175; -648.000; -620.000
387.147; -102.400; -771.000; -798.000
387.276;  -41.100; -410.000; -397.000
387.405;    3.700; -398.000; -342.000
387.535;  -62.875; -452.000; -361.000
387.664;  -57.300; -692.000; -620.000
387.793;   29.650; -198.000; -113.000
387.922;  436.475;  255.000;  200.000
388.052;  -16.850; -576.000; -423.000
388.181;  -20.400; -342.000; -472.000
388.310;  -62.325; -889.000; -710.000
388.439;  -68.775; -749.000; -742.000
388.568;  146.625;  365.000;  244.000
388.697;  940.375; -756.000; -653.000
388.826;  166.650; -768.000; -666.000
388.956;   40.625; -285.000; -307.000
389.085;  -55.375; -347.000; -287.000
389.214; -101.675; -842.000; -872.000
389.343;  -71.850; -645.000; -413.000
389.472;  412.125;  126.000;  149.000
389.601;  533.225;   91.000;    0.000
389.730;   10.050; -568.000; -687.000
389.859;   48.825;  226.000;   46.000
389.988;  161.875; -423.000; -408.000
390.117;  103.475; -168.000; -146.000
390.246;  -38.875; -331.000; -320.000
390.375;   60.000; -673.000; -626.000
390.504;  -61.750; -703.000; -621.000
390.633; -108.025; -672.000; -726.000
390.761;  -76.900; -732.000; -645.000
390.890;    9.925;   -4.000; -130.000
391.019;  -55.300; -421.000; -441.000
391.148; -137.975; -826.000; -855.000
391.277;  -82.325; -576.000; -493.000
391.406; -113.400; -821.000; -805.000
391.534;   17.450;  574.000; -301.000
391.663;  -84.650; -583.000; -645.000
391.792;  -85.300; -673.000; -701.000
391.921;   51.825;   -3.000;   15.000
392.050;  135.875; -287.000; -228.000
392.178;  -64.600;-1206.000;-1061.000
392.307;   94.200; -758.000; -712.000
392.436;   63.075; -427.000; -641.000
392.564;    1.650;  166.000;   -6.000
392.693; -102.425; -860.000; -682.000
392.822;  174.150; -529.000; -534.000
392.950;   52.350; -880.000; -714.000
393.079;  271.600; -188.000; -328.000
393.208;   -2.800; -488.000; -511.000
393.336;  -14.475; -170.000; -145.000
393.465;  -63.975; -317.000; -199.000
393.593;  -11.000;   62.000;   79.000
393.722; -161.050;-1121.000; -916.000
393.850;  -47.225; -188.000;  -61.000
393.979; -162.150; -926.000; -805.000
394.107;  -68.200; -517.000; -537.000
394.236;  -46.175; -570.000; -507.000
394.364;  186.225;  383.000;  206.000
394.493;  316.550; -911.000; -767.000
394.621;  -26.650; -955.000; -916.000
394.750;  739.700; -873.000; -923.000
394.878; 3066.625; -247.000; -149.000
395.007; 4284.775; -721.000; -807.000
395.135;  331.325; -790.000; -721.000
395.263; -100.875;-1038.000;-1040.000
395.392;    5.900;  -25.000; -107.000
395.520; -143.100; -818.000; -679.000
395.648; -113.025; -865.000; -915.000
395.777;  -32.475; -366.000; -405.000
395.905;  -55.275; -449.000; -564.000
396.033;  -12.975;  217.000;  172.000
396.162;  492.875; -399.000; -453.000
396.290;  464.150;  -17.000;   -2.000
396.418;   78.000; -555.000; -514.000
396.546;  -75.050; -571.000; -466.000
396.674; -105.900; -850.000; -878.000
396.803;    4.825;  -72.000;  -23.000
396.931;   56.150; -179.000; -199.000
397.059;    7.975;-1026.000; -989.000
397.187; -121.625;-1026.000; -975.000
397.315; -150.575; -884.000; -649.000
397.443; -104.125; -592.000; -443.000
397.572; -105.800; -578.000; -424.000
397.700;  -48.175; -607.000; -614.000
397.828;  -12.500;  120.000;  -90.000
397.956;  -50.575; -508.000; -478.000
398.084;  -71.325; -767.000; -626.000
398.212;   15.325;  137.000;  124.000
398.340;    2.150;  -56.000;  159.000
398.468;   10.150; -390.000; -169.000
398.596; -149.750; -993.000; -953.000
398.724; -126.625; -762.000; -767.000
398.852; -159.675;-1024.000; -976.000
398.980;  -79.050; -560.000; -560.000
399.108;  -79.400; -982.000; -735.000
399.236;   31.425;   13.000;    8.000
399.363;    7.100;  222.000;  196.000
399.491;  -65.500; -404.000; -398.000
399.619; -129.750; -829.000; -800.000
399.747; -104.850; -859.000; -771.000
399.875;   54.450;  220.000;  234.000
400.003;  -56.750; -359.000; -284.000
400.130;  -98.050; -421.000; -341.000
400.258;  -26.000;  -83.000;   38.000
400.386;  -78.850; -352.000; -168.000
400.514;  -54.150; -526.000; -587.000
400.641; -108.100; -928.000; -802.000
400.769; -158.875; -979.000; -888.000
400.897; -131.925; -838.000; -793.000
401.025;  -37.275; -166.000; -152.000
401.152;  -20.150;  220.000;   38.000
401.280;  -98.675; -430.000; -429.000
401.408; -115.650; -712.000; -576.000
401.535; -114.125; -735.000; -758.000
401.663; -186.450;-1134.000;-1054.000
401.790;  -96.100; -514.000; -525.000
401.918;   25.350;  436.000;  405.000
402.046;  -17.900;  134.000;  122.000
402.173;  -54.925;  -18.000;    7.000
402.301;  -84.950; -519.000; -397.000
402.428;   26.400;  528.000;  383.000
402.556; -131.250;-1188.000; -913.000
402.683;  -57.825;  -20.000;   -1.000
402.811;  -26.700;  -37.000; -206.000
402.938;  -18.575;   20.000;   27.000
403.066;  154.900; -574.000; -558.000
403.193;  291.875;  299.000;  239.000
403.321;  212.350; -396.000; -574.000
403.448;  282.225;   83.000;   27.000
403.575;  111.875;  -90.000;  -46.000
403.703; -111.850; -732.000; -557.000
403.830;  -74.525; -531.000; -496.000
403.957; -141.300;-1117.000;-1023.000
404.085;    8.400;  -61.000; -172.000
404.212;   89.450;  -50.000;   63.000
404.339;  275.025; -566.000; -306.000
404.467; 6050.150; -612.000; -524.000
404.594; 4004.450; -287.000; -227.000
404.721;  884.900; -869.000; -764.000
404.848;   81.950; -113.000; -202.000
404.976; -121.500; -856.000; -783.000
405.103;  -12.650;  -14.000;  -82.000
405.230;  -16.925;  190.000;  226.000
405.357;   22.775;  117.000;   44.000
405.484;  267.900;  -49.000;    5.000
405.612;   52.400; -548.000; -563.000
405.739;  -73.950; -488.000; -243.000
405.866;   75.825;  669.000;  385.000
405.993;  -51.950; -398.000; -102.000
406.120; -133.925; -801.000; -887.000
406.247;  -72.250; -323.000; -342.000
406.374;  341.200;  540.000;  629.000
406.501;   65.625; -632.000; -702.000
406.628;  -83.150; -621.000; -589.000
406.755; -105.300; -803.000; -620.000
406.882;  -30.900; -228.000; -277.000
407.009; -129.150; -719.000; -628.000
407.136;   28.525; -480.000; -401.000
407.263;   71.125; -939.000; -829.000
407.390;  -89.150; -692.000; -614.000
407.517; -186.350;-1139.000;-1187.000
407.644;  -62.350; -332.000; -256.000
407.771;  -84.875; -249.000; -287.000
407.898;   -2.650;  168.000;  328.000
408.025;  -84.100; -421.000; -313.000
408.151;   -9.375;   82.000;  153.000
408.278;  -87.525; -267.000; -216.000
408.405; -122.275; -931.000; -899.000
408.532;  -94.250; -549.000; -542.000
408.659; -115.825; -677.000; -648.000
408.785; -191.075;-1298.000;-1170.000
408.912;  -70.425; -412.000; -296.000
409.039; -117.200; -610.000; -686.000
409.166; -112.800; -591.000; -555.000
409.292; -124.225; -571.000; -534.000
409.419; -109.550; -665.000; -649.000
409.546; -101.225; -431.000; -192.000
409.672; -119.275; -713.000; -545.000
409.799;  -40.475;  -36.000;   34.000
409.926;  -44.275; -180.000; -179.000
410.052; -181.750;-1127.000;-1091.000
410.179;  -73.900; -368.000; -392.000
410.305;  -98.050; -375.000; -493.000
410.432;  -38.775; -220.000; -333.000
410.558;  -88.200; -305.000; -380.000
410.685; -106.150; -688.000; -431.000
410.812; -108.975; -409.000; -588.000
410.938; -135.100; -964.000; -808.000
411.065; -115.650; -671.000; -645.000
411.191;  -20.175; -189.000; -174.000
411.317; -130.100; -823.000; -742.000
411.444;  -66.650; -317.000; -246.000
411.570;  -78.825; -339.000; -294.000
411.697; -137.225; -758.000; -752.000
411.823; -184.000; -989.000; -999.000
411.949;  -46.375;  -56.000;   17.000
412.076; -132.225; -539.000; -519.000
412.202; -128.300; -758.000; -757.000
412.329; -143.500; -798.000; -752.000
412.455; -126.650; -821.000; -657.000
412.581;  -24.800;  -15.000;  172.000
412.707;  -87.450; -540.000; -457.000
412.834;   -6.850;  156.000;  219.000
412.960;  -91.875; -785.000; -784.000
413.086; -113.500; -743.000; -701.000
413.212;  134.125;  604.000;  578.000
413.339;  -87.025; -685.000; -701.000
413.465;  -21.350; -364.000; -310.000
413.591; -102.575; -757.000; -474.000
413.717;  -55.800; -358.000; -366.000
413.843; -145.925; -839.000; -861.000
413.969;  -69.450;  -47.000; -292.000
414.096; -112.225; -679.000; -679.000
414.222;  -19.250;  -33.000;   85.000
414.348;  -43.525; -652.000; -385.000
414.474;   68.475;   38.000;  -52.000
414.600;  -26.875; -126.000; -144.000
414.726;  -21.050;  -96.000;  -55.000
414.852;  -67.825; -365.000; -342.000
414.978;   41.500;  104.000;  -18.000
415.104;   39.850;   38.000;   80.000
415.230;    7.975; -329.000; -330.000
415.356;   28.225; -409.000; -514.000
415.482;  192.600;   13.000;  -35.000
415.608;  280.875; -247.000; -323.000
415.734;  984.375;   67.000;   38.000
415.860;20360.075; -875.000; -767.000
415.986;15603.975; -685.000; -607.000
416.111; 1373.875; -798.000; -652.000
416.237;  292.600; -424.000; -571.000
416.363; 1154.975; -765.000; -733.000
416.489; 4487.175; -324.000; -251.000
416.615;  523.050; -707.000; -742.000
416.741;  -14.725; -677.000; -784.000
416.866; -105.200; -673.000; -736.000
416.992; -115.575; -801.000; -818.000
417.118;  -51.700;  -41.000;  -80.000
417.244;  -64.850; -798.000; -531.000
417.369;  -93.050; -801.000; -612.000
417.495;  -19.525; -325.000; -254.000
417.621;  -99.725;-1015.000; -803.000
417.746;   -6.975; -579.000; -572.000
417.872;   32.875; -254.000; -144.000
417.998;   47.800; -515.000; -530.000
418.123; 1050.450;-1073.000; -845.000
418.249; 5751.350; -512.000; -601.000
418.374;  870.875; -916.000; -824.000
418.500;  138.250; -383.000; -482.000
418.626;  112.800;   70.000;  -59.000
418.751;  115.550; -549.000; -448.000
418.877;  192.725; -637.000; -643.000
419.002; 1818.825; -688.000; -560.000
419.128;13306.625; -930.000; -721.000
419.253; 3446.800; -967.000; -837.000
419.379;  459.425; -391.000; -338.000
419.504;  418.650;  325.000;  415.000
419.629;  564.450; -393.000; -212.000
419.755; 3657.625; -317.000; -254.000
419.880;22867.400;  -98.000;   67.000
420.006;12115.000; -280.000; -221.000
420.131;31389.550; -662.000; -775.000
420.256; 4763.925; -315.000; -316.000
420.382;  630.400; -665.000; -687.000
420.507;   67.025; -649.000; -778.000
420.632;   95.775; -337.000; -339.000
420.758;  191.675; -251.000; -425.000
420.883;  -82.900; -876.000; -672.000
421.008;  -94.125; -775.000; -619.000
421.133;  -85.100; -509.000; -467.000
421.259;  -42.800; -325.000; -259.000
421.384; -146.575; -834.000; -693.000
421.509;  -73.775;-1052.000; -862.000
421.634;  881.600; -936.000; -820.000
421.759;  420.375; -359.000; -327.000
421.885;  -78.900; -717.000; -656.000
422.010;  -87.125; -673.000; -542.000
422.135; -149.375; -695.000; -727.000
422.260;   30.925;  340.000;  280.000
422.385;  -58.875;   12.000;  -98.000
422.510;   -9.000;  151.000;  -26.000
422.635;   -4.025;  -87.000;  -43.000
422.760;   94.100; -766.000; -791.000
422.885;   46.300;  -57.000;  -80.000
423.010;  -30.225; -112.000; -169.000
423.135; -101.775; -481.000; -561.000
423.260;  -28.525; -150.000; -245.000
423.385;   36.275;  476.000;  222.000
423.510;   10.725;   71.000;  -22.000
423.635;   51.000;  133.000;   45.000
423.760;   55.050;  383.000;  328.000
423.885;   45.750;  336.000;  391.000
424.010;    5.350;  -68.000;  -13.000
424.135;  -36.275;    5.000;  -33.000
424.259;  -77.975; -654.000; -457.000
424.384;  -84.575; -279.000; -272.000
424.509;  -36.850; -260.000; -186.000
424.634; -105.300; -761.000; -623.000
424.759;  -28.425; -688.000; -544.000
424.883;  -17.425; -506.000; -527.000
425.008;  146.225; -502.000; -410.000
425.133; 2078.075; -679.000; -653.000
425.258; 1059.675; -517.000; -381.000
425.382;  907.425; -867.000; -774.000
425.507; 2450.775; -487.000; -543.000
425.632;  416.775; -802.000; -663.000
425.756;  492.450; -256.000; -146.000
425.881; 6847.100; -831.000; -857.000
426.006;19792.625; -604.000; -355.000
426.130; 3189.675; -696.000; -508.000
426.255;  416.900; -611.000; -491.000
426.379;  161.550; -189.000; -577.000
426.504;  370.425;  660.000;  544.000
426.629; 4043.650; -519.000; -466.000
426.753; 3001.550;   64.000;  -46.000
426.878;  340.100; -252.000; -288.000
427.002;  163.275; -651.000; -668.000
427.127; 1581.900;  -35.000; -158.000
427.251;12034.725;  372.000;  401.000
427.375; 3641.950; -191.000; -173.000
427.500; 2142.850; -616.000; -610.000
427.624;  758.050; -234.000; -400.000
427.749;   74.425; -216.000; -225.000
427.873;  -56.475; -499.000; -412.000
427.997;  -45.550; -222.000; -230.000
428.122;   51.775;  795.000;  703.000
428.246;   63.900;  433.000;  434.000
428.371; -139.075; -869.000; -773.000
428.495; -106.875; -624.000; -646.000
428.619;  -44.000; -186.000; -117.000
428.743;   14.050;   65.000;  132.000
428.868;  -18.900; -732.000; -643.000
428.992; 1263.550; -219.000; -326.000
429.116;  517.700; -329.000; -357.000
429.240;  228.250;  419.000;  426.000
429.365;  -39.975; -454.000; -574.000
429.489;  -50.950; -638.000; -647.000
429.613;   11.200; -236.000; -177.000
429.737;   18.175; -563.000; -432.000
429.861;  257.625; -247.000; -133.000
429.985; 5687.825; -425.000; -305.000
430.109; 6643.800; -770.000; -908.000
430.234;  782.500;   76.000;  -50.000
430.358;   75.200; -250.000; -160.000
430.482;  -66.525; -672.000; -564.000
430.606;  -64.850; -655.000; -375.000
430.730;   -7.050; -437.000; -388.000
430.854;   85.325; -909.000; -835.000
430.978;  -81.075; -795.000; -764.000
431.102;  -91.850; -499.000; -422.000
431.226; -128.500; -874.000; -815.000
431.350;    1.575;  345.000;  422.000
431.474;  -83.875; -661.000; -373.000
431.597; -170.650;-1060.000; -848.000
431.721; -100.450; -276.000; -267.000
431.845; -134.275; -704.000; -472.000
431.969;  -78.900; -304.000; -349.000
432.093;  -97.300; -395.000; -317.000
432.217;  -14.850;   32.000;   82.000
432.341; -100.225; -523.000; -518.000
432.464;    5.900;   96.000;   40.000
432.588;  133.300; -401.000; -329.000
432.712;   71.225;  -52.000;  -52.000
432.836;   27.700;  213.000;  263.000
432.959;  -11.725; -372.000; -311.000
433.083;   76.550;   11.000;    2.000
433.207;  369.525;  285.000;  930.000
433.330; 5235.275; -391.000; -200.000
433.454; 6822.000; -654.000; -638.000
433.578; 3854.425;  583.000;  278.000
433.701;  757.175; -623.000; -675.000
433.825;  123.325; -292.000; -299.000
433.949;  120.225;   28.000;  -72.000
434.072;   17.525; -410.000; -323.000
434.196;  -17.375; -309.000; -117.000
434.319; 3610.425;25482.000;25124.000
434.443;  695.275; -656.000; -603.000
434.566; 2842.925;  281.000;   62.000
434.690;  511.100; -637.000; -383.000
434.813;   48.575; -251.000; -173.000
434.937;  -83.825; -569.000; -696.000
435.060;  -58.800; -423.000; -332.000
435.184;  216.600; -492.000; -217.000
435.307;  113.775;  159.000;  102.000
435.431;  -14.150;  -40.000;   24.000
435.554;  -77.525; -399.000; -240.000
435.677;  -79.775; -350.000; -258.000
435.801;  -59.700;  -25.000;   49.000
435.924;  -21.825;    1.000;  -67.000
436.048; -132.425;-1019.000; -732.000
436.171;  -74.800; -240.000;  -66.000
436.294;  -47.975; -248.000; -229.000
436.417;  106.350; -963.000; -849.000
436.541;  -92.900; -814.000; -840.000
436.664;  -44.450; -242.000; -316.000
436.787;  -42.525;   13.000;  113.000
436.910; -117.150; -792.000; -422.000
437.034;  -10.525;  142.000;  143.000
437.157;   27.100;  -11.000;    0.000
437.280;  -80.375; -392.000; -292.000
437.403; -105.075; -982.000; -869.000
437.526;  436.175; -903.000; -865.000
437.649; 1746.850; -505.000; -332.000
437.772;  265.825; -692.000; -540.000
437.896;   88.925;  700.000;  544.000
438.019; -112.275; -758.000; -503.000
438.142;  -89.900; -596.000; -506.000
438.265;  -73.700; -639.000; -670.000
438.388;  441.700; -520.000; -410.000
438.511;   52.425; -597.000; -394.000
438.634;  -56.100; -247.000; -125.000
438.757; -143.175; -693.000; -619.000
438.880;  -25.600;  -34.000;  -57.000
439.003;  -99.375; -417.000; -437.000
439.126;  -66.825; -287.000; -167.000
439.248;  -68.175;  -98.000; -139.000
439.371;  -47.125;    9.000;  -53.000
439.494;   24.400;  510.000;  439.000
439.617;  -53.350;   65.000;  -88.000
439.740; -172.350; -968.000; -816.000
439.863; -138.175; -755.000; -595.000
439.986; -129.000; -476.000; -431.000
440.108;  -53.650; -161.000; -112.000
440.231; -149.900; -950.000; -836.000
440.354;  -46.425;  -64.000; -150.000
440.477;  -21.025; -566.000; -542.000
440.599;  -16.350; -200.000; -225.000
440.722; -139.150; -709.000; -586.000
440.845;   63.275;  751.000;  928.000
440.968; -111.500; -415.000; -311.000
441.090;  -67.925; -199.000;  -33.000
441.213; -172.350;-1021.000; -825.000
441.336;  -63.750; -159.000;   -5.000
441.458;  -89.850; -549.000; -396.000
441.581;  -95.525; -628.000; -629.000
441.703;  -88.200; -152.000;   13.000
441.826; -115.700; -557.000; -400.000
441.948;  -55.050;   56.000;   51.000
442.071;   27.150;  555.000;  424.000
442.193; -120.600; -531.000; -485.000
442.316;   11.475;  152.000;   97.000
442.438;   41.950; -233.000;  -10.000
442.561;   61.475;  272.000;  262.000
442.683;  373.325; -809.000; -522.000
442.806;  907.450;   -8.000;   74.000
442.928;   -9.500; -859.000; -604.000
443.051;  -83.775; -577.000; -373.000
443.173; -109.050; -341.000; -339.000
443.295;  -81.200; -263.000; -371.000
443.418;  -81.100; -321.000;  -29.000
443.540;   -6.700; -106.000;   -4.000
443.662; -121.525; -563.000; -465.000
443.785;  -11.375;  335.000;  199.000
443.907; -105.850; -362.000; -208.000
444.029; -131.300; -767.000; -494.000
444.152; -144.800; -644.000; -554.000
444.274;  -41.875;  -18.000;  -24.000
444.396; -112.725; -461.000; -221.000
444.518; -137.200; -691.000; -454.000
444.640; -124.150; -268.000; -111.000
444.763;  -17.500;  388.000;  249.000
444.885; -126.925; -432.000; -392.000
445.007;  -34.925;   35.000;   86.000
445.129; -118.275; -610.000; -515.000
445.251;  -89.875; -372.000; -439.000
445.373; -135.925; -537.000; -386.000
445.495;    6.950;  242.000;  350.000
445.617;   47.050;  853.000;  753.000
445.739;  -77.150; -215.000;  -97.000
445.861;  -44.275; -245.000; -112.000
445.984;  -48.950; -267.000; -101.000
446.105;  128.050; -418.000; -251.000
446.227;  487.150; -176.000;  -19.000
446.349;  -21.050; -358.000; -249.000
446.471; -110.225; -615.000; -448.000
446.593;  -77.975; -316.000;   19.000
446.715;  -21.225;  -67.000;   41.000
446.837;   54.650;  697.000;  832.000
446.959; -109.375; -457.000; -478.000
447.081; -132.850; -628.000; -518.000
447.203;   44.250;  862.000;  834.000
447.325; -107.350; -270.000;   42.000
447.446;  -25.225;  286.000;  530.000
447.568; -146.850; -921.000; -803.000
447.690;  -75.675; -236.000; -245.000
447.812; -157.850; -798.000; -519.000
447.933;  -42.500;  155.000;  127.000
448.055;  -78.325; -306.000; -261.000
448.177;   95.125;   31.000;   79.000
448.299;   31.500; -935.000; -727.000
448.420;    1.575;  -25.000;  159.000
448.542;  -66.050;   -3.000;   33.000
448.664;  -28.500;  109.000;  322.000
448.785;  -43.575;  265.000;   83.000
448.907;  -85.625; -614.000; -353.000
449.028;  -65.375; -771.000; -471.000
449.150;   47.775;  492.000;  589.000
449.272; -186.400;-1044.000; -913.000
449.393;   21.875;  612.000;  694.000
449.515; -155.000; -634.000; -581.000
449.636;  -49.800; -264.000; -155.000
449.758;   75.900;  763.000;  622.000
449.879;  -98.700; -498.000; -396.000
450.001;  -86.150; -149.000;  -49.000
450.122;  -47.025;  -95.000;  162.000
450.244;  -30.875;   37.000;  364.000
450.365;  -81.625; -495.000; -301.000
450.486;  -43.050;   80.000;  268.000
450.608;   13.050;  393.000;  326.000
450.729;   71.975;  578.000;  645.000
450.850;   -0.375; -574.000; -466.000
450.972;  776.775; -552.000; -389.000
451.093; 5279.950;  190.000;  588.000
451.214; 2457.300; -516.000; -337.000
451.336;  440.700;  773.000;  579.000
451.457;   63.575;  264.000;  393.000
451.578;  -36.075; -118.000;  -74.000
451.699; -123.900; -546.000; -540.000
451.821;  -56.350; -284.000;  -50.000
451.942;   -8.850;  278.000;  285.000
452.063;   31.550;  228.000;  419.000
452.184;  561.800;  -54.000;  -49.000
452.305; 1199.550;  103.000;  170.000
452.427;  155.000; -549.000; -301.000
452.548;  -11.250;   23.000;   79.000
452.669;  -54.575; -257.000;  -89.000
452.790;  -58.025;    3.000;  -18.000
452.911;   -3.000;  195.000;  259.000
453.032;  -71.625; -289.000;  -60.000
453.153;  -64.550;  -29.000;   81.000
453.274;   44.425;  737.000;  868.000
453.395;  -62.725;  -51.000;  175.000
453.516;  116.675; 1317.000; 1388.000
453.637;  -87.400; -205.000; -150.000
453.758;  -72.175;   15.000;   69.000
453.879; -116.050; -462.000; -250.000
454.000;   65.375; 1086.000;  948.000
454.121; -114.400; -554.000; -326.000
454.242; -122.425; -599.000; -383.000
454.362;  -68.425;  -99.000;  114.000
454.483;  -45.725; -309.000; -229.000
454.604;   46.000;  512.000;  580.000
454.725; -139.850; -627.000; -555.000
454.846; -117.525; -474.000; -406.000
454.967;  -19.350;  230.000;  539.000
455.087;  -58.775;  179.000;  153.000
455.208;    5.950;  554.000;  856.000
455.329;  -69.950;  -22.000;   82.000
455.450;   34.875;  473.000;  633.000
455.570;  -91.375; -234.000; -211.000
455.691;  -41.100;  201.000;  407.000
455.812; -123.100; -270.000;  -92.000
455.932;  -70.825;  107.000;  -97.000
456.053;  -94.325;   36.000;   24.000
456.173; -110.625; -433.000; -355.000
456.294; -127.000; -476.000; -303.000
456.415;  -57.800;  -73.000;   70.000
456.535;  -39.500;  297.000;  273.000
456.656;  -49.225;  132.000;  240.000
456.776;  -84.150;    3.000;  298.000
456.897;  -10.025;  308.000;  513.000
457.017;  -89.125; -153.000;   -3.000
457.138; -106.075; -402.000; -249.000
457.258;  -37.150;  263.000;  224.000
457.379;  -11.975;  509.000;  521.000
457.499;  -35.325;  443.000;  432.000
457.620; -122.500; -407.000; -231.000
457.740;  -99.050; -132.000;  -11.000
457.860;  -63.925;   87.000;   44.000
457.981;  -57.525;  132.000;  124.000
458.101;  -73.400;  -89.000;   40.000
458.221;  -28.900;  336.000;  402.000
458.342;  -74.800;   -4.000;  -37.000
458.462;   18.400;  617.000;  352.000
458.582;  -26.050; -302.000; -294.000
458.703;   16.400;  303.000;  154.000
458.823;  -27.575;   22.000;  163.000
458.943;    7.300;  341.000;  467.000
459.063;  -12.125; 1124.000;  192.000
459.183;  -35.300;  328.000;  313.000
459.304;   10.125;  315.000;  517.000
459.424;  -67.375; -246.000;  -89.000
459.544;  324.125;  388.000;  764.000
459.664;  878.025;  499.000;  506.000
459.784;  349.925; 1004.000; 1175.000
459.904;   54.750;  867.000;  744.000
460.024;   49.550;  867.000;  684.000
460.144;  -12.225;  449.000;  554.000
460.264;   -4.050;  515.000;  327.000
460.385; -104.100; -145.000; -119.000
460.505;   35.200;  905.000;  858.000
460.625; -108.000;  -17.000;  -68.000
460.745;  -29.700;  396.000;  541.000
460.864;  -66.250;  153.000;  469.000
460.984;   19.725;  499.000;  573.000
461.104;  139.525; 1656.000; 1775.000
461.224;    2.450;  657.000;  650.000
461.344;  -34.225;  431.000;  360.000
461.464;  -34.525;  258.000;  513.000
461.584;  -29.775;  283.000;  466.000
461.704;  -45.175;   58.000;  108.000
461.824;  -74.100;  238.000;  259.000
461.943;  -40.525;  191.000;  130.000
462.063;  -86.425;    2.000;  324.000
462.183;   17.075;  639.000;  717.000
462.303;   88.225; 1678.000; 1230.000
462.422;   28.350;  781.000;  840.000
462.542;  -53.300;  271.000;  391.000
462.662;   45.725;  353.000;  380.000
462.782;  250.275;  833.000;  572.000
462.901;  490.900;  545.000;  717.000
463.021;  291.175; 1702.000; 1638.000
463.141;   -4.025;  337.000;  770.000
463.260;  -31.425;  614.000;  474.000
463.380;    9.650;  902.000;  884.000
463.499;  -38.225;  342.000;  332.000
463.619;  -35.925;  581.000;  559.000
463.738;  104.100; 1644.000;  903.000
463.858;    3.500;  657.000;  811.000
463.978;  -34.325;  542.000;  396.000
464.097;   51.550;  921.000; 1114.000
464.217;  112.700; 1196.000; 1143.000
464.336;  114.150; 1068.000; 1130.000
464.455;  -32.200;  328.000;  659.000
464.575;   49.800;  597.000;  602.000
464.694;  144.325; 1204.000; 1179.000
464.814;  126.425; 1190.000; 1138.000
464.933;   72.675; 1095.000; 1027.000
465.052;   75.825; 1412.000; 1054.000
465.172;   72.400;  922.000;  799.000
465.291;  132.200; 1376.000; 1320.000
465.410;    5.550;  462.000;  735.000
465.530;   79.700; 1355.000; 1310.000
465.649;   68.625; 1209.000; 1273.000
465.768;  131.650; 1673.000; 1508.000
465.888;   38.950;  941.000; 1174.000
466.007;   93.475; 1335.000; 1440.000
466.126;  -18.725;  721.000;  641.000
466.245;   46.400; 1176.000; 1187.000
466.364;   30.725;  950.000; 1060.000
466.484;   36.625; 1024.000; 1213.000
466.603;   24.225; 1101.000; 1222.000
466.722;  120.250; 1490.000; 1769.000
466.841;   60.425; 1151.000; 1401.000
466.960;   44.675; 1069.000;  972.000
467.079;  127.725; 1971.000; 1786.000
467.198;   46.100; 1238.000; 1181.000
467.317;   92.000; 1768.000; 1162.000
467.436;   63.375; 1709.000; 1261.000
467.555;  113.950; 1796.000; 1746.000
467.674;   54.200; 1227.000; 1329.000
467.793;   28.900; 1376.000; 1374.000
467.912;   85.175; 1658.000; 1539.000
468.031;  118.050; 2038.000; 1930.000
468.150;  134.800; 1842.000; 1837.000
468.269;  167.050; 2313.000; 2090.000
468.388;  186.050; 2168.000; 2339.000
468.507;  227.475; 2884.000; 2903.000
468.626;  251.450; 2555.000; 2541.000
468.744;  127.650; 2018.000; 2174.000
468.863;  207.700; 2312.000; 2523.000
468.982;   86.675; 1503.000; 1555.000
469.101;  228.450; 2788.000; 2692.000
469.220;  144.000; 2333.000; 2176.000
469.338;  252.325; 2935.000; 3051.000
469.457;  187.775; 2719.000; 2545.000
469.576;  356.050; 3953.000; 3784.000
469.695;  236.250; 2877.000; 3066.000
469.813;  410.175; 4148.000; 4192.000
469.932;  395.450; 4255.000; 4485.000
470.051;  426.800; 4075.000; 4161.000
470.169;  871.275; 4470.000; 4338.000
470.288; 1520.100; 4700.000; 4809.000
470.406;  917.300; 5059.000; 5194.000
470.525;  623.725; 6101.000; 5787.000
470.644;  639.875; 6847.000; 6794.000
470.762;  807.000; 8397.000; 7873.000
470.881;  892.200; 8651.000; 8464.000
470.999; 1066.950; 9685.000; 9151.000
471.118; 1109.450;11174.000;10711.000

