
Integration time [ms]: 100.000
Averaging Nr. [scans]: 40
Smoothing Nr. [pixels]: 0
Data measured with spectrometer [name]: 2101012U2
Wave   ;Sample   ;Dark     ;Reference
[nm]   ;[counts] ;[counts] ;[counts] 

197.733;   58.350;  516.000;  404.000
197.879;  -74.725; -610.000; -634.000
198.025;  -45.300; -475.000; -420.000
198.171;  -84.625; -602.000; -612.000
198.317;  -29.125; -401.000; -316.000
198.463;  -69.975; -655.000; -404.000
198.609;   43.500;  181.000; -137.000
198.755;  -81.350; -644.000; -410.000
198.901;  -56.625; -505.000; -424.000
199.047;  -69.200; -615.000; -488.000
199.193;  -41.800; -230.000; -468.000
199.339;  -42.075; -222.000; -369.000
199.485;   23.925;  330.000;  271.000
199.631;   13.300;  227.000;  310.000
199.777;  -49.475; -466.000; -398.000
199.923;  -65.925; -610.000; -424.000
200.069;   -8.475; -141.000;  -58.000
200.215;   51.950;  128.000;  453.000
200.361;   48.850;  243.000;  477.000
200.507;  -69.600; -600.000; -373.000
200.653;  -20.100; -371.000; -194.000
200.798;  -26.975; -215.000; -125.000
200.944;   -6.950; -146.000;  -41.000
201.090;   34.275;   61.000;  222.000
201.236;  -10.900; -116.000; -158.000
201.382;  118.325;  874.000;  903.000
201.528;   -2.575;  -58.000;  -48.000
201.674;  -61.525; -386.000; -293.000
201.819;  -68.550; -540.000; -439.000
201.965;  -73.025; -699.000; -447.000
202.111;  -14.525; -273.000; -226.000
202.257;  -28.550; -250.000; -238.000
202.402;   12.475;   13.000;  -36.000
202.548;  -34.400; -169.000; -116.000
202.694;   87.650;  410.000; -183.000
202.840;  -80.050; -603.000; -531.000
202.985;  -68.825; -681.000; -639.000
203.131; -113.700; -832.000; -666.000
203.277;  -31.800; -199.000; -262.000
203.423;  -51.125; -434.000; -520.000
203.568;  -43.600; -462.000; -237.000
203.714;  -61.725; -535.000; -542.000
203.860;  -78.525; -682.000; -641.000
204.005;   19.625;  112.000;  167.000
204.151;   70.875;  561.000;  556.000
204.296;  -49.025; -354.000; -221.000
204.442;  -80.300; -600.000; -547.000
204.588;  -92.675; -592.000; -579.000
204.733;   15.075;  178.000;  168.000
204.879; -144.975;-1018.000; -822.000
205.025;   10.150;  -99.000;  126.000
205.170;  -14.400;  -17.000;   94.000
205.316;   83.675;  438.000;  661.000
205.461;  -73.450; -698.000; -554.000
205.607;   88.125;  609.000;  665.000
205.752;  -70.625; -626.000; -551.000
205.898;  -58.725; -501.000; -391.000
206.043;  -64.875; -578.000; -506.000
206.189;  -47.450; -243.000; -285.000
206.334;   76.600;  554.000;  606.000
206.480;   78.575;  409.000;  239.000
206.625;  -87.100; -529.000; -552.000
206.771;  -51.575; -451.000; -373.000
206.916;  -35.475; -210.000; -537.000
207.062;  -77.375; -545.000; -591.000
207.207;  -60.825; -546.000; -443.000
207.353;   50.925;  185.000;  460.000
207.498;   -2.150;  196.000;   85.000
207.643;  -51.750; -501.000; -370.000
207.789; -134.650;-1069.000; -910.000
207.934;  -89.075; -665.000; -713.000
208.080;  -24.375; -154.000;   66.000
208.225;  -14.350;  -22.000;  -57.000
208.370;  -94.575; -727.000; -619.000
208.516;  -82.875; -741.000; -487.000
208.661;  -27.000; -127.000;  -69.000
208.806;  -18.850; -165.000; -171.000
208.952; -128.850;-1044.000; -731.000
209.097;   70.050;  378.000;  349.000
209.242;  -64.450; -307.000; -382.000
209.387;   71.450;  392.000;  350.000
209.533;  -54.125; -321.000; -350.000
209.678;   82.425;  472.000;  543.000
209.823;  -59.800; -408.000; -310.000
209.969;  -99.400; -860.000; -757.000
210.114; -107.050; -907.000; -719.000
210.259; -118.550; -939.000; -889.000
210.404;  -19.050; -171.000;  103.000
210.549;   12.825;  108.000;    3.000
210.695;  -26.575;   -3.000;  -95.000
210.840;   33.150;   94.000;   67.000
210.985;  -67.425; -484.000; -303.000
211.130;   68.600;  268.000;  406.000
211.275;    5.675;  207.000;  199.000
211.420;  -58.625; -300.000; -289.000
211.566;  -74.700; -536.000; -489.000
211.711;   23.225;  218.000;  157.000
211.856;  -70.950; -545.000; -519.000
212.001;    2.900;  151.000;   44.000
212.146;   21.775;  153.000;   49.000
212.291;  -31.575; -210.000; -186.000
212.436;  -29.850; -280.000;   -6.000
212.581;  -81.975; -685.000; -653.000
212.726;  -82.675; -487.000; -538.000
212.871;  -41.700; -552.000; -217.000
213.016; -153.100;-1172.000;-1029.000
213.161;   60.050;  406.000;  291.000
213.306;  -78.375; -435.000; -577.000
213.451;  -89.375; -778.000; -689.000
213.596;  -48.550; -455.000; -347.000
213.741;  -51.500; -448.000; -538.000
213.886;  -86.875; -498.000; -517.000
214.031;  -22.275; -294.000; -124.000
214.176;  -51.350; -408.000; -341.000
214.321;  -15.500; -296.000; -157.000
214.466;  -33.425; -163.000;  -43.000
214.611;    6.375;  -61.000;  -10.000
214.756; -118.500; -948.000; -858.000
214.901;  -25.225; -388.000; -226.000
215.046; -136.075; -797.000; -825.000
215.191;    8.125;  128.000;   35.000
215.336;  -11.150; -157.000;  -19.000
215.480;  -54.250; -684.000; -505.000
215.625;  -15.100; -175.000;  -19.000
215.770;  -79.225; -757.000; -662.000
215.915;   -5.950;   -5.000;  -97.000
216.060;    5.225; -113.000;  -21.000
216.205; -116.525; -731.000; -779.000
216.349;  -68.350; -470.000; -533.000
216.494; -136.175; -939.000; -867.000
216.639; -112.000; -823.000; -888.000
216.784;  -92.800; -577.000; -525.000
216.929;   52.850;  392.000;  281.000
217.073;  -13.200; -244.000;  -31.000
217.218;    9.150;   78.000;  -47.000
217.363;  -95.850; -656.000; -618.000
217.507;  -80.050; -623.000; -588.000
217.652; -131.850; -845.000; -874.000
217.797;  -86.900; -708.000; -659.000
217.942; -110.200; -856.000; -720.000
218.086;   73.675;  608.000;  539.000
218.231;   -5.650; -174.000;  -26.000
218.376;  -43.650; -337.000; -229.000
218.520;    2.875;  -41.000;   96.000
218.665;  -29.350; -338.000; -204.000
218.810;  -45.125; -275.000; -233.000
218.954;   12.200;  201.000;   35.000
219.099; -116.300; -713.000; -963.000
219.243;  -68.100; -589.000; -554.000
219.388;  -36.100; -264.000; -136.000
219.532;  -10.325; -116.000; -116.000
219.677;  -84.450; -564.000; -521.000
219.822;    3.050;   33.000;   89.000
219.966;   17.300;   17.000;  -99.000
220.111;  -26.700; -328.000;  -40.000
220.255; -100.550; -797.000; -750.000
220.400;  -19.675; -180.000; -146.000
220.544;  -80.500; -516.000; -450.000
220.689;  -58.825; -422.000; -451.000
220.833;  -27.450; -123.000;  -58.000
220.978;  -48.025; -393.000; -563.000
221.122;   21.650;  319.000;  307.000
221.267; -126.550; -906.000; -837.000
221.411;  -69.350; -478.000; -394.000
221.555;    1.675; -104.000;  -23.000
221.700;  -56.450; -329.000; -222.000
221.844;   27.175;  255.000;  272.000
221.989;  -49.875; -328.000; -311.000
222.133;  -41.600; -289.000; -307.000
222.277;   -4.050;    5.000;   78.000
222.422;   17.000;  227.000;  113.000
222.566;  -34.550; -381.000; -214.000
222.711;  -48.550; -414.000; -479.000
222.855;  -90.400; -643.000; -586.000
222.999;  -97.875; -642.000; -717.000
223.144;  -34.825; -195.000; -194.000
223.288;   52.525;  423.000;  251.000
223.432;   20.300;  184.000;  230.000
223.576;   22.000;  152.000;  -21.000
223.721;   47.950;  364.000;  273.000
223.865;  -36.300; -472.000; -475.000
224.009;  235.975; 1673.000; 1631.000
224.153;  -85.850; -660.000; -671.000
224.298;  -76.075; -531.000; -489.000
224.442;  -10.925;  -74.000;  -33.000
224.586;   -3.625; -169.000; -106.000
224.730; -104.000; -858.000; -670.000
224.875; -118.550; -739.000; -688.000
225.019;   14.700;  102.000;  188.000
225.163;   52.900;  208.000;  341.000
225.307;    2.675;   97.000;  -91.000
225.451;   45.275;  360.000;  481.000
225.595;   27.400;  264.000;  176.000
225.739;  -25.350; -170.000;  -94.000
225.884;    2.625;   86.000;    5.000
226.028;  -97.500; -760.000; -626.000
226.172;  -37.000; -260.000; -273.000
226.316; -124.425; -941.000; -902.000
226.460;  -78.750; -645.000; -493.000
226.604;  -51.325; -406.000; -400.000
226.748;  -94.300; -836.000; -733.000
226.892;  -28.975; -227.000; -181.000
227.036;  -43.825; -537.000; -447.000
227.180;  -70.375; -551.000; -375.000
227.324;  -76.025; -561.000; -580.000
227.468; -121.725; -819.000; -717.000
227.612;    8.325;  242.000;  -28.000
227.756; -104.425; -845.000; -698.000
227.900;   49.350;  342.000;  441.000
228.044;  -64.975; -509.000; -290.000
228.188;   67.350;  448.000;  568.000
228.332;  -93.100; -546.000; -472.000
228.476;  -30.500; -223.000; -149.000
228.620;  -44.125; -210.000; -150.000
228.764;   68.975;  431.000;  349.000
228.908;  -23.725; -155.000;   30.000
229.052;  -58.425; -615.000; -528.000
229.195;  -26.450; -172.000;   13.000
229.339;  -23.475; -235.000; -305.000
229.483;  -20.950;    5.000; -162.000
229.627;  -24.325; -156.000;  139.000
229.771;  -61.575; -218.000; -294.000
229.915;   16.200;  230.000;   79.000
230.059;  -88.425; -648.000; -663.000
230.202;  -46.375; -370.000; -317.000
230.346;  -25.125; -107.000;  107.000
230.490;  -71.525; -489.000; -521.000
230.634; -120.100; -736.000; -553.000
230.777;   71.375;  478.000;  509.000
230.921;  -56.800; -450.000; -359.000
231.065;  -56.000; -246.000; -286.000
231.209;   20.450;  261.000;  265.000
231.352;   35.000;   54.000;   40.000
231.496;   12.800;  568.000;  188.000
231.640;  -95.900; -693.000; -621.000
231.783;   43.725;  546.000;  525.000
231.927;  -34.000; -294.000; -365.000
232.071; -125.325; -962.000; -736.000
232.214; -109.825; -980.000; -764.000
232.358; -117.825; -683.000; -599.000
232.502;    0.625;  -19.000;    7.000
232.645; -145.425;-1090.000; -927.000
232.789;  -20.250; -257.000; -218.000
232.933;  -40.100; -407.000; -224.000
233.076; -135.875;-1038.000; -897.000
233.220; -122.550; -752.000; -777.000
233.363;  -78.475; -669.000; -477.000
233.507;   54.425;  371.000;  129.000
233.650;  -99.475; -764.000; -834.000
233.794;   46.575;  438.000;  461.000
233.938;  -66.825; -530.000; -362.000
234.081;  -33.375;  -93.000;   31.000
234.225;  -72.325; -631.000; -539.000
234.368; -109.675; -773.000; -723.000
234.512;  -35.775; -385.000; -299.000
234.655; -102.150; -582.000; -555.000
234.798;  -72.075; -493.000; -466.000
234.942; -129.425; -884.000;-1002.000
235.085;  -84.275; -651.000; -443.000
235.229;  -71.175; -405.000; -410.000
235.372;  -49.075; -247.000; -191.000
235.516;  -66.925; -397.000; -321.000
235.659;   20.225;   92.000;  121.000
235.802;  -13.400;  -38.000;  -22.000
235.946;    7.800;  335.000;  215.000
236.089;   34.775;  126.000;  250.000
236.233;   45.075;  275.000;  298.000
236.376;  -50.250; -235.000; -378.000
236.519;  -32.850; -297.000; -319.000
236.663;  -18.400; -215.000; -117.000
236.806; -135.600;-1029.000; -999.000
236.949;   46.100;  543.000;  431.000
237.092;   61.875;  412.000;  391.000
237.236;  -87.650; -589.000; -502.000
237.379;   65.475;  352.000;  428.000
237.522; -104.250; -879.000; -768.000
237.666;  -19.875; -271.000;   18.000
237.809; -132.375; -851.000; -823.000
237.952;   38.225;  469.000;  271.000
238.095;  -61.050; -447.000; -442.000
238.238;   87.550;  688.000;  700.000
238.382;   -8.900;  166.000;  103.000
238.525;  -72.325; -598.000; -511.000
238.668; -142.300;-1060.000; -985.000
238.811;  -83.175; -638.000; -643.000
238.954;  -68.675; -483.000; -334.000
239.097;   93.450;  617.000;  664.000
239.241;   21.100;  394.000;  326.000
239.384;  -28.150; -254.000; -214.000
239.527;  -57.700; -424.000; -224.000
239.670; -152.100; -994.000;-1091.000
239.813; -107.625; -696.000; -658.000
239.956;   82.775;  579.000;  473.000
240.099; -110.800; -778.000; -725.000
240.242;   58.650;  428.000;  432.000
240.385;   37.100;  466.000;  450.000
240.528;  -76.350; -706.000; -473.000
240.671;   18.725;  189.000;  134.000
240.814;  -51.400; -441.000; -158.000
240.957;  -97.650; -767.000; -578.000
241.100;  -95.150; -779.000; -755.000
241.243; -153.625;-1234.000; -893.000
241.386;  -70.000; -508.000; -379.000
241.529;  -84.775; -735.000; -547.000
241.672;  -64.700; -566.000; -495.000
241.815; -124.400; -832.000; -808.000
241.958;  -15.850; -125.000; -182.000
242.101;  -97.900; -545.000; -390.000
242.244;  -47.575; -270.000; -325.000
242.387;  -41.575; -304.000; -246.000
242.530;   58.450;  470.000;  134.000
242.673;  -40.500; -381.000; -309.000
242.815; -115.975; -925.000; -899.000
242.958;  -70.225; -482.000; -381.000
243.101;    8.400;  132.000;  187.000
243.244;  -96.150; -564.000; -521.000
243.387;  -46.950; -313.000; -316.000
243.530; -121.325; -657.000; -674.000
243.672;    6.975;   43.000;  -92.000
243.815;  -56.725; -355.000; -283.000
243.958;    4.225;   98.000;  -26.000
244.101;   -6.400;   59.000;  -16.000
244.243;  -10.000;  -47.000;  101.000
244.386; -113.325; -761.000; -630.000
244.529;  -33.925; -132.000; -139.000
244.672; -164.875;-1154.000; -951.000
244.814; -113.600; -621.000; -794.000
244.957;  -53.050; -380.000; -304.000
245.100;  -76.800; -489.000; -489.000
245.242;  -65.500; -387.000; -374.000
245.385;    0.900;  -59.000;  -39.000
245.528; -119.925; -871.000; -705.000
245.670;   85.425;  612.000;  634.000
245.813;  -86.825; -599.000; -547.000
245.956;  -46.825; -324.000; -275.000
246.098;  -76.375; -508.000; -650.000
246.241;    9.025;  194.000;   48.000
246.383;  -47.975; -119.000;  -73.000
246.526;  -77.650; -454.000; -525.000
246.669; -143.475; -889.000; -780.000
246.811;   10.400;  172.000;   -1.000
246.954;  -70.025; -512.000; -426.000
247.096;  -21.375;  -84.000;   -6.000
247.239;  -75.175; -482.000; -445.000
247.381;  -78.950; -647.000; -488.000
247.524;   85.550;  645.000;  679.000
247.666;    9.100;   58.000;   11.000
247.809; -117.875; -887.000; -691.000
247.951;   -7.400;  -75.000;  138.000
248.094;   27.075;  432.000;  308.000
248.236; -170.600;-1262.000;-1238.000
248.378;   -7.750; -356.000;  -81.000
248.521;  -26.525; -334.000; -337.000
248.663;  -42.825; -236.000; -267.000
248.806;  -20.900; -300.000; -266.000
248.948; -106.225; -886.000; -763.000
249.090;  -54.025; -428.000; -398.000
249.233;  -52.800; -344.000; -381.000
249.375;  -70.425; -474.000; -451.000
249.518;  -23.500;  -83.000; -133.000
249.660;   -5.950; -103.000;    3.000
249.802; -170.950;-1303.000;-1189.000
249.945;  -72.850; -612.000; -540.000
250.087; -117.675; -834.000; -768.000
250.229;  -58.675; -362.000; -480.000
250.371;  -80.125; -494.000; -439.000
250.514;  -49.450; -310.000; -244.000
250.656;   -4.275;   69.000;  102.000
250.798; -125.450; -849.000; -800.000
250.940;  -71.175; -322.000; -322.000
251.083;  -37.575; -335.000; -111.000
251.225;   60.325;  338.000;  310.000
251.367;  -30.700; -274.000; -373.000
251.509;  -39.800; -265.000; -210.000
251.651; -104.125; -731.000; -671.000
251.794;   55.175;  538.000;  632.000
251.936; -119.375; -821.000; -747.000
252.078;  -85.200; -540.000; -461.000
252.220;  -77.225; -645.000; -477.000
252.362;   72.900;  344.000;  462.000
252.504;  -67.025; -677.000; -584.000
252.646; -113.425; -875.000; -722.000
252.788;    0.675;   14.000; -128.000
252.931;  -18.875; -257.000; -253.000
253.073;  -33.825; -376.000; -317.000
253.215;  -14.025;  141.000;  122.000
253.357;  -24.150;   82.000; -153.000
253.499;  -59.575; -374.000; -234.000
253.641;  -92.000; -749.000; -594.000
253.783;  -98.450; -609.000; -527.000
253.925;  -97.250; -586.000; -591.000
254.067; -114.525; -744.000; -667.000
254.209;  -44.675; -391.000; -259.000
254.351; -146.425; -865.000; -883.000
254.493;  -65.050; -441.000; -417.000
254.635; -129.125; -936.000; -818.000
254.777;  -88.275; -752.000; -687.000
254.918;  -71.075; -512.000; -430.000
255.060;  -60.800; -551.000; -395.000
255.202;  -63.275; -473.000; -261.000
255.344;  -73.825; -658.000; -455.000
255.486;  -69.675; -471.000; -406.000
255.628; -121.300; -780.000; -781.000
255.770;  -96.350; -676.000; -536.000
255.912;  -75.200; -559.000; -468.000
256.053;  -94.650; -730.000; -508.000
256.195;  154.375; 1008.000;  903.000
256.337; -103.400; -861.000; -595.000
256.479;   61.250;  532.000;  416.000
256.621;  -44.950; -394.000; -212.000
256.762; -105.800; -789.000; -742.000
256.904;   52.400;  485.000;  487.000
257.046;  -50.650; -381.000; -271.000
257.188;  -50.275; -351.000; -264.000
257.329;  -73.800; -525.000; -464.000
257.471; -123.825; -939.000; -807.000
257.613;  -77.100; -584.000; -498.000
257.755; -146.300;-1073.000; -982.000
257.896;   31.825;  286.000;  392.000
258.038;  -76.875; -403.000; -352.000
258.180;  -40.900; -354.000; -279.000
258.321;  -96.550; -581.000; -457.000
258.463;   -4.475;  -71.000;  133.000
258.605; -105.575; -562.000; -570.000
258.746; -101.100; -886.000; -772.000
258.888; -160.875;-1026.000;-1020.000
259.029;   15.550;  121.000;   -8.000
259.171; -101.200; -614.000; -550.000
259.313;   -6.150;  -49.000;  -47.000
259.454;  -83.750; -536.000; -414.000
259.596;  -55.525; -483.000; -390.000
259.737;  -89.175; -590.000; -474.000
259.879;   44.125;  217.000;  311.000
260.020;   82.950;  901.000;  636.000
260.162;  -27.425; -146.000; -253.000
260.303; -125.975; -768.000; -687.000
260.445;  -81.575; -609.000; -613.000
260.586;   25.075;  392.000;  157.000
260.728;  -38.750; -360.000; -248.000
260.869; -106.900; -350.000; -343.000
261.011;   83.925;  706.000;  537.000
261.152;  -70.025; -479.000; -319.000
261.293;  -85.325; -576.000; -595.000
261.435;  -36.375; -219.000; -184.000
261.576;  -59.875; -455.000; -325.000
261.718;   62.175;  420.000;  470.000
261.859; -126.375; -940.000; -949.000
262.000; -137.900; -951.000;-1016.000
262.142;  -26.950;  -52.000;  -60.000
262.283; -115.050; -808.000; -691.000
262.424;  -89.500; -666.000; -625.000
262.566; -174.450;-1161.000; -983.000
262.707; -119.850; -840.000; -830.000
262.848; -127.375; -769.000; -726.000
262.990;  -47.150; -362.000; -345.000
263.131;   77.175;  650.000;  681.000
263.272;  -10.025;  -61.000;  -41.000
263.413;  -87.550; -589.000; -561.000
263.555;  -69.650; -669.000; -143.000
263.696; -101.500; -550.000; -641.000
263.837;  -66.100; -449.000; -551.000
263.978;  -12.125;   -5.000;  -77.000
264.119;  -48.775; -283.000; -264.000
264.261; -119.475; -847.000; -630.000
264.402;  -12.800;   33.000;   40.000
264.543;  -86.050; -509.000; -524.000
264.684;  -16.975;   61.000;  -50.000
264.825;  -75.000; -816.000; -538.000
264.966;  -14.025;  -84.000;  -67.000
265.107; -116.725; -646.000; -670.000
265.248; -128.800; -825.000; -812.000
265.390;  -14.625;  152.000;   -9.000
265.531;  -26.125; -238.000; -107.000
265.672;  -87.000; -557.000; -630.000
265.813;   40.725;  563.000;  439.000
265.954; -136.575; -959.000; -940.000
266.095;  -13.925; -372.000; -322.000
266.236; -103.925; -686.000; -548.000
266.377;  -46.275; -243.000; -297.000
266.518;  -79.750; -619.000; -547.000
266.659;   19.850;  170.000;  268.000
266.800;    2.475;   83.000;   85.000
266.941;  -72.525; -487.000; -478.000
267.082;   25.825;  354.000;   99.000
267.223;  -49.850; -344.000; -273.000
267.364; -117.975; -892.000; -686.000
267.504;  -10.000;    3.000;  135.000
267.645;  -22.825;  160.000;   67.000
267.786;  -35.775; -147.000;  -86.000
267.927;  -75.350; -473.000; -379.000
268.068;  -20.700; -186.000;  -61.000
268.209;  -43.700; -175.000; -413.000
268.350;  -60.175; -388.000; -532.000
268.490;  -85.700; -648.000; -521.000
268.631;   33.825;  127.000;  225.000
268.772; -116.400; -874.000; -647.000
268.913;  -48.675; -328.000; -476.000
269.054;  -11.300; -117.000;   12.000
269.194;  -61.350; -418.000; -402.000
269.335; -162.000;-1137.000;-1074.000
269.476;   -0.475;   33.000;  -35.000
269.617;  -51.325; -347.000; -392.000
269.757; -108.600; -713.000; -646.000
269.898; -121.650; -856.000; -613.000
270.039;  -70.950; -415.000; -405.000
270.180; -143.575; -952.000; -816.000
270.320;  -25.750; -190.000; -250.000
270.461;  -37.900; -277.000; -249.000
270.602;  -21.750; -186.000; -156.000
270.742; -138.725; -868.000; -943.000
270.883;  -60.775; -442.000; -390.000
271.023;  -73.100; -358.000; -357.000
271.164;  -79.400; -607.000; -528.000
271.305;  -89.175; -666.000; -654.000
271.445;  -87.000; -722.000; -683.000
271.586;  -67.700; -462.000; -283.000
271.726;  -52.150; -397.000; -322.000
271.867;  -66.425; -594.000; -534.000
272.008;  169.950; -473.000; -285.000
272.148;  112.375;  462.000;  468.000
272.289;   11.725; -113.000; -181.000
272.429;    8.925;   19.000;  185.000
272.570; -104.400; -633.000; -737.000
272.710; -117.375; -825.000; -775.000
272.851;  -23.825;  113.000; -130.000
272.991; -176.475;-1173.000;-1077.000
273.131;  -72.750; -419.000; -459.000
273.272; -107.225; -683.000; -723.000
273.412;  -10.225; -143.000;  -31.000
273.553;  -61.000; -488.000; -507.000
273.693;  118.250;  913.000;  858.000
273.834; -104.775; -894.000; -692.000
273.974;  -78.400; -664.000; -615.000
274.114; -103.000; -772.000; -560.000
274.255;   69.200;  414.000;  373.000
274.395;  -15.150; -180.000; -125.000
274.535;   34.475;  199.000;  350.000
274.676;   23.050;  225.000;   94.000
274.816;    3.050;  110.000;   34.000
274.956;  -84.325; -624.000; -690.000
275.097;  -75.775;-1014.000; -922.000
275.237; -122.775; -913.000; -803.000
275.377; -104.725; -778.000; -689.000
275.517; -159.375; -878.000; -937.000
275.658;  -70.650; -590.000; -555.000
275.798;  -88.450; -606.000; -413.000
275.938;   13.625;  215.000;  323.000
276.078; -110.125; -626.000; -395.000
276.218;    1.600;   99.000;  104.000
276.359; -133.200;-1026.000;-1024.000
276.499;  -74.625; -605.000; -446.000
276.639;  -22.700; -305.000; -151.000
276.779;  -48.800; -475.000; -357.000
276.919; -132.800; -783.000; -624.000
277.059;  -18.925; -261.000; -212.000
277.199;  -61.450; -357.000; -259.000
277.340;   48.800;  287.000;  175.000
277.480; -109.650; -840.000; -693.000
277.620;   23.800;  192.000;   16.000
277.760; -210.850;-1533.000;-1294.000
277.900;   12.725;  113.000;   33.000
278.040;    2.850;  137.000;  159.000
278.180;   38.800;  270.000;  170.000
278.320;   10.825;   21.000;   56.000
278.460;  -64.425; -443.000; -469.000
278.600;  -97.850; -708.000; -598.000
278.740;   57.450;  448.000;  224.000
278.880;  -91.825; -768.000; -791.000
279.020;  -22.325; -194.000; -144.000
279.160;  -98.525; -672.000; -595.000
279.300; -123.075; -926.000; -873.000
279.440;  -93.675; -709.000; -622.000
279.579;  -40.425;-1014.000; -929.000
279.719;  -57.100; -410.000; -394.000
279.859;   59.525;   -4.000;   41.000
279.999;   10.925; -208.000;  101.000
280.139;  -24.350; -435.000; -387.000
280.279;  -90.650; -708.000; -745.000
280.419;  -17.275; -229.000; -147.000
280.559;  -30.275; -259.000; -180.000
280.698;  -99.775; -790.000; -639.000
280.838; -113.700; -778.000; -800.000
280.978; -109.550; -846.000; -790.000
281.118; -119.200; -811.000; -704.000
281.257;  -10.125;   24.000;    6.000
281.397; -130.300;-1094.000; -960.000
281.537;  -98.500; -599.000; -712.000
281.677;  -27.600; -150.000; -101.000
281.816; -101.150; -700.000; -630.000
281.956;  -43.250; -193.000; -257.000
282.096;  -74.550; -539.000; -396.000
282.235; -108.175; -672.000; -638.000
282.375;  -23.625; -243.000;  -98.000
282.515; -121.950; -715.000; -707.000
282.654;   10.325;   29.000;  106.000
282.794;   19.525;  388.000;  244.000
282.934;  -64.675; -530.000; -491.000
283.073; -146.850;-1030.000; -857.000
283.213;  -71.275; -460.000; -467.000
283.353;  -45.225; -408.000; -349.000
283.492;  -31.775; -264.000; -296.000
283.632;  -49.525; -254.000; -168.000
283.771; -106.700; -859.000; -730.000
283.911;  -56.875; -369.000; -260.000
284.050; -115.650; -794.000; -748.000
284.190; -161.475;-1229.000;-1096.000
284.329; -142.350;-1055.000; -964.000
284.469;  -83.250; -516.000; -591.000
284.608;  -69.475; -559.000; -598.000
284.748; -104.975; -614.000; -570.000
284.887;   -8.725;  -87.000;  -20.000
285.027; -129.700; -844.000; -892.000
285.166;  -32.475; -192.000; -249.000
285.306;  -11.025; -116.000;  -33.000
285.445;  -32.700; -229.000; -343.000
285.584; -115.350; -630.000; -494.000
285.724;  -58.525; -282.000; -322.000
285.863; -124.300; -857.000; -507.000
286.002;  -67.600; -366.000; -276.000
286.142; -118.325; -715.000; -622.000
286.281;  -77.925; -525.000; -493.000
286.420;  -85.700; -554.000; -417.000
286.560;   94.150;  653.000;  623.000
286.699; -144.300; -958.000; -912.000
286.838;  -98.600; -590.000; -591.000
286.978;  -91.050; -533.000; -537.000
287.117; -139.100;-1085.000; -950.000
287.256;  -33.775; -228.000; -211.000
287.395;  -50.650; -197.000; -378.000
287.535;  -55.000; -370.000; -298.000
287.674;  -84.775; -509.000; -484.000
287.813;   55.425;  661.000;  533.000
287.952; -144.250;-1010.000; -871.000
288.091; -156.275;-1049.000; -915.000
288.231;   12.775;   13.000;   15.000
288.370; -173.700;-1217.000;-1200.000
288.509;  -92.775; -728.000; -645.000
288.648;  -94.975; -770.000; -548.000
288.787;  -39.675; -243.000;  -87.000
288.926;  -81.350; -454.000; -475.000
289.065;  114.125;  859.000;  672.000
289.204;  -61.650; -377.000; -217.000
289.344; -104.900; -791.000; -690.000
289.483;   25.300;  416.000;  304.000
289.622;  -26.850; -291.000; -149.000
289.761;  -26.525; -309.000; -166.000
289.900; -110.075; -785.000; -626.000
290.039;  -30.500;  -12.000;  -95.000
290.178;  -45.075; -274.000; -180.000
290.317;  -92.625; -618.000; -479.000
290.456;  -74.875; -463.000; -451.000
290.595; -157.800; -961.000; -833.000
290.734; -140.225; -904.000; -891.000
290.873;  -71.325; -456.000; -420.000
291.011; -120.275; -833.000; -843.000
291.150; -112.500; -770.000; -682.000
291.289;  -39.275; -343.000; -110.000
291.428;  -98.100; -599.000; -480.000
291.567;  -79.975; -370.000; -442.000
291.706;   -8.200;  109.000;  154.000
291.845;  -92.100; -597.000; -505.000
291.984; -175.975;-1234.000;-1061.000
292.122;   61.925;  602.000;  582.000
292.261;   41.575;  620.000;  463.000
292.400;    8.025; -144.000;  211.000
292.539; -131.975; -959.000; -813.000
292.678;  -40.375; -325.000; -300.000
292.816; -159.825;-1136.000; -965.000
292.955; -101.050; -844.000; -684.000
293.094;  -28.700; -173.000; -337.000
293.233;  -54.925; -556.000; -400.000
293.371;  -51.650; -225.000;  -84.000
293.510; -112.600; -866.000; -780.000
293.649; -136.825; -959.000; -924.000
293.787;  -91.325;-1083.000;-1012.000
293.926;  -13.150; -113.000;  -32.000
294.065;  -52.250; -379.000; -290.000
294.203;   40.525;  298.000;  406.000
294.342;   21.525;   74.000;  156.000
294.481; 5271.275;51180.000; -836.000
294.619;  -42.850; -425.000; -582.000
294.758; -170.475;-1230.000;-1137.000
294.896;   51.275; -125.000;    5.000
295.035; -141.650;-1040.000;-1006.000
295.174; -127.500;-1082.000; -954.000
295.312;  -53.575; -323.000; -203.000
295.451;  -23.575; -307.000; -428.000
295.589;  -52.350; -389.000; -518.000
295.728;    8.325; -292.000; -165.000
295.866;   -6.800;  -36.000;  -51.000
296.005;  -63.850; -584.000; -341.000
296.143;  -69.725; -558.000; -596.000
296.282; -115.925; -957.000; -881.000
296.420;  -92.150; -657.000; -557.000
296.559;  -92.925; -892.000; -633.000
296.697;  -16.050; -847.000; -665.000
296.835;   -1.150;-1141.000;-1002.000
296.974;   37.700;  -23.000;   39.000
297.112;  -25.150; -443.000; -504.000
297.251;  -93.700; -815.000; -755.000
297.389;   57.250; -576.000; -438.000
297.527;   17.875; -145.000;  -83.000
297.666;  -61.600; -486.000; -438.000
297.804;  -55.600; -404.000; -264.000
297.942;   -3.025; -136.000; -161.000
298.081;   -9.950; -183.000;   63.000
298.219;   49.950;  -17.000;  -19.000
298.357;   24.050; -144.000;  -71.000
298.495;   -1.550; -810.000; -812.000
298.634;   49.000;  245.000;  219.000
298.772;   20.175; -220.000; -338.000
298.910;  -39.375; -309.000; -182.000
299.048;  -16.125; -130.000; -153.000
299.187;  -35.100; -350.000; -250.000
299.325;   11.050;   52.000;  122.000
299.463;   13.350; -389.000; -299.000
299.601;   78.025; -327.000; -271.000
299.739; -117.975; -908.000; -883.000
299.877;  -97.925; -791.000; -703.000
300.016;  -61.275;-1095.000; -935.000
300.154;  123.975;  -19.000; -161.000
300.292;   25.100; -428.000; -348.000
300.430;   14.625; -408.000; -291.000
300.568; -105.625; -940.000; -874.000
300.706;  -59.675; -366.000; -469.000
300.844; -102.650;-1108.000; -979.000
300.982;   97.625;  246.000;  282.000
301.120; -123.900; -965.000; -866.000
301.258;  -76.075; -812.000; -705.000
301.396;   15.125;  104.000;  -41.000
301.534;   36.325; -218.000; -293.000
301.672;  -29.100; -664.000; -521.000
301.810;   -0.950; -613.000; -545.000
301.948;   74.525;   53.000;  149.000
302.086;  507.200; -250.000;  -32.000
302.224;  790.825; -610.000; -585.000
302.362;    1.500; -558.000; -622.000
302.500;  -62.825; -923.000; -893.000
302.638;   84.050;  128.000;  245.000
302.776;  -33.225; -352.000; -408.000
302.913;   34.800;  447.000;  236.000
303.051;   -6.400;  -86.000;  -23.000
303.189;   18.725;   90.000;  118.000
303.327;  -47.425; -341.000; -256.000
303.465;  -95.075; -832.000; -588.000
303.603; -112.450; -805.000; -604.000
303.740;   88.300;  417.000;  241.000
303.878;  -16.225; -800.000; -759.000
304.016; -109.925; -915.000; -790.000
304.154; -136.975;-1123.000;-1152.000
304.291;  -48.200; -505.000; -554.000
304.429;   -3.500;  102.000;   74.000
304.567; -132.750; -908.000; -893.000
304.705;  -61.475; -408.000; -515.000
304.842;   63.400; -616.000; -540.000
304.980;   34.800;  215.000;   35.000
305.118;   13.125; -367.000; -365.000
305.255;  -84.025; -945.000; -927.000
305.393;   56.300;  178.000;  239.000
305.531; -119.575;-1173.000; -956.000
305.668;  -66.250; -663.000; -582.000
305.806;   81.825; -358.000; -439.000
305.943;   75.450; -629.000; -637.000
306.081;   26.650; -378.000; -267.000
306.219; -106.125; -863.000; -748.000
306.356;   -5.925;  158.000;   27.000
306.494;   99.900;  981.000;  761.000
306.631;    2.275;  -11.000;  -55.000
306.769;   -3.100; -613.000; -485.000
306.906;  -33.750; -284.000; -258.000
307.044;  -64.050; -473.000; -488.000
307.181;  -74.525; -410.000; -332.000
307.319;    6.450;  112.000;   87.000
307.456; -186.225;-1191.000;-1153.000
307.594; -106.450; -980.000; -727.000
307.731;  -23.775; -371.000; -164.000
307.868;  -15.275;  -15.000;   20.000
308.006; -158.650; -961.000; -847.000
308.143;  -84.525; -618.000; -330.000
308.281;   77.725;  -37.000; -254.000
308.418;  -37.625; -748.000; -640.000
308.555;  -79.800; -400.000; -250.000
308.693;  -88.400; -577.000; -573.000
308.830; -113.975; -712.000; -657.000
308.967;  -19.950; -215.000;  -95.000
309.105;  -66.800; -507.000; -396.000
309.242;    1.325; -468.000; -367.000
309.379;  157.525; -577.000; -655.000
309.517;  -91.125; -936.000; -948.000
309.654; -120.900; -910.000; -734.000
309.791;  -78.800; -662.000; -580.000
309.928; -138.450; -977.000; -914.000
310.065;  157.650;  819.000;  697.000
310.203;  -47.525; -825.000; -850.000
310.340;  -25.575; -465.000; -321.000
310.477;  -86.075; -412.000; -516.000
310.614;  -76.700; -383.000; -473.000
310.751;  -76.525; -427.000; -518.000
310.889;  -18.925;    1.000;   11.000
311.026; -166.500;-1161.000; -939.000
311.163;  -65.075; -386.000; -380.000
311.300;  -86.350; -512.000; -479.000
311.437;  -79.650; -658.000; -619.000
311.574; -165.825;-1226.000; -985.000
311.711;  -72.900; -595.000; -433.000
311.848;  -48.100; -380.000; -388.000
311.985;    9.975;  270.000;   93.000
312.122; -118.100; -932.000; -762.000
312.259; -130.475; -941.000; -994.000
312.396;  -90.775; -508.000; -551.000
312.533; -102.300; -812.000; -790.000
312.670; -148.425;-1070.000; -898.000
312.807;  -41.850; -352.000; -367.000
312.944; -108.625; -513.000; -611.000
313.081;  -48.025; -150.000; -415.000
313.218; -112.725;-1111.000; -867.000
313.355;   -8.800; -531.000; -449.000
313.492;  -23.425; -455.000; -292.000
313.629;  135.300;  815.000;  735.000
313.766; -170.150;-1176.000;-1008.000
313.902;  -26.325; -186.000;   21.000
314.039;  -58.950; -372.000; -289.000
314.176;   10.875;  286.000;  192.000
314.313; -100.175; -569.000; -473.000
314.450;  -85.175; -788.000; -684.000
314.587;  -70.950; -468.000; -480.000
314.723;  -24.225;  -78.000;  130.000
314.860;   11.700;  318.000;  332.000
314.997;   25.625;  223.000;  142.000
315.134;  -56.000; -385.000; -368.000
315.270;  -49.500; -480.000; -496.000
315.407; -134.500;-1094.000; -967.000
315.544;  -60.825; -657.000; -538.000
315.681;  -75.300; -681.000; -565.000
315.817;   10.800; -133.000; -176.000
315.954;    9.275; -613.000; -392.000
316.091; -124.175;-1045.000;-1023.000
316.227;  -38.575;  -71.000; -179.000
316.364;   -8.350;   23.000;    6.000
316.500;  -63.500; -113.000; -300.000
316.637;  -46.950; -181.000; -302.000
316.774; -101.050; -625.000; -358.000
316.910; -106.025; -598.000; -629.000
317.047;  -89.550; -487.000; -351.000
317.183;  -61.050; -435.000; -566.000
317.320;  -18.150; -367.000; -321.000
317.456;  -57.300; -733.000; -805.000
317.593;  -87.675; -598.000; -641.000
317.729;    7.125;  168.000;  -67.000
317.866; -208.875;-1434.000;-1285.000
318.002; -107.600; -708.000; -948.000
318.139; -116.625; -883.000; -867.000
318.275; -113.625;-1003.000; -738.000
318.412;  -75.175; -517.000; -336.000
318.548;  -41.200; -751.000; -720.000
318.685; -106.900; -985.000; -888.000
318.821; -106.075; -762.000; -735.000
318.957;  -34.650;   34.000;  -23.000
319.094;   38.950;  297.000;  154.000
319.230;  -75.675; -756.000; -742.000
319.367;   93.450; -471.000; -520.000
319.503;   25.825; -538.000; -436.000
319.639;  -99.600; -877.000; -793.000
319.775;  -70.500; -750.000; -685.000
319.912;  -55.750; -424.000; -519.000
320.048; -105.050;-1184.000;-1184.000
320.184;   78.525;   59.000;   70.000
320.321;  -64.275; -497.000; -467.000
320.457;   72.975;  475.000;  662.000
320.593;  -70.575; -375.000; -382.000
320.729; -119.550; -732.000; -734.000
320.866;  -76.475; -577.000; -635.000
321.002; -100.150; -759.000; -809.000
321.138;  -32.050; -135.000; -211.000
321.274;   56.475; -148.000; -115.000
321.410;  -35.425; -585.000; -353.000
321.546;  -52.100;-1011.000; -911.000
321.683;   45.675;  400.000;  185.000
321.819;   -4.225;  -48.000; -117.000
321.955; -118.350; -743.000; -722.000
322.091;  -56.225; -585.000; -540.000
322.227;  -19.450; -382.000; -202.000
322.363;  -26.925; -320.000; -215.000
322.499;  -45.425; -343.000; -331.000
322.635;  143.600;  636.000;  443.000
322.771;   11.300; -139.000;   12.000
322.907;   68.900;  129.000;  327.000
323.043;  -37.450; -115.000; -206.000
323.179;  -56.300; -394.000; -363.000
323.315;  -17.975; -401.000; -371.000
323.451;   51.550; -328.000; -236.000
323.587;   53.400;  -60.000;  -77.000
323.723;   -4.250; -682.000; -601.000
323.859;  -16.100; -258.000;  -76.000
323.995;  -45.100; -467.000; -409.000
324.131; -129.700; -967.000; -892.000
324.267;  -35.725; -254.000; -276.000
324.402; -142.575; -960.000; -983.000
324.538;  -31.825; -279.000; -104.000
324.674;    5.600;  164.000;   77.000
324.810;   68.175;  226.000;  308.000
324.946;  -36.550; -810.000; -658.000
325.082;  -70.775; -568.000; -475.000
325.217;  -13.375;  -62.000;   16.000
325.353; -108.850; -764.000; -659.000
325.489;  -95.800; -540.000; -506.000
325.625;  -93.525; -579.000; -525.000
325.760;   53.075;  517.000;  376.000
325.896;  -32.100; -515.000; -702.000
326.032;  -61.550; -403.000; -352.000
326.168;  -70.475; -462.000; -369.000
326.303;  -78.425; -352.000; -461.000
326.439;  -16.275; -336.000; -276.000
326.575;   -5.200; -190.000;  -29.000
326.710;  -14.600; -156.000;  -30.000
326.846;  -17.650;  146.000;  103.000
326.982; -101.225; -530.000; -548.000
327.117;  -78.800; -481.000; -442.000
327.253;  -93.800; -745.000; -742.000
327.388; -182.925;-1137.000;-1153.000
327.524;  -72.950; -811.000; -578.000
327.659;  -25.625;  -58.000;  -22.000
327.795;  -16.625;   69.000;   45.000
327.931; -107.575; -723.000; -499.000
328.066;  -42.400; -417.000; -276.000
328.202;  -29.750;   12.000; -129.000
328.337;  106.225;  957.000;  713.000
328.473;   38.275;  -12.000;  -74.000
328.608;  -22.675; -256.000; -267.000
328.743;  -94.825; -799.000; -664.000
328.879;   -0.075;  214.000;  114.000
329.014;  -30.275; -102.000; -122.000
329.150;  -89.225; -358.000; -483.000
329.285;  -87.525; -465.000; -466.000
329.421;  -51.500; -548.000; -246.000
329.556;  -29.025;  -36.000;   85.000
329.691; -105.950; -633.000; -615.000
329.827;  -91.225; -626.000; -480.000
329.962;  -46.600;  131.000; -301.000
330.097;  -97.450; -673.000; -585.000
330.233;  -54.825; -410.000; -223.000
330.368; -131.650; -839.000; -628.000
330.503;  -19.525;    3.000;   98.000
330.638;  -11.275;  -93.000; -125.000
330.774;  -72.375; -609.000; -530.000
330.909;  -57.125; -434.000; -244.000
331.044; -106.300; -714.000; -708.000
331.179; -176.225;-1217.000;-1109.000
331.315;   -3.675;   77.000;   20.000
331.450;   18.125;  157.000;  285.000
331.585;  -99.500; -805.000; -706.000
331.720;  -89.300; -510.000; -460.000
331.855;  -24.525;  -35.000; -102.000
331.990;  248.850;   62.000;  138.000
332.126;  126.925; -110.000;   71.000
332.261;  -20.550; -379.000; -265.000
332.396;  -20.750; -135.000; -242.000
332.531; -109.400;-1074.000;-1031.000
332.666;   41.800; -519.000; -363.000
332.801; -118.375; -726.000; -807.000
332.936;  -15.050; -192.000; -122.000
333.071; -137.400; -870.000; -817.000
333.206;   19.825;  307.000;  379.000
333.341;   16.200;  344.000;  418.000
333.476;  -91.650; -627.000; -623.000
333.611;  -45.150; -251.000; -173.000
333.746;  -59.800; -381.000; -464.000
333.881; -141.500; -973.000; -935.000
334.016; -131.400; -936.000; -917.000
334.151; -130.050; -746.000; -702.000
334.286;   15.825;  152.000;  186.000
334.421;  -25.275; -125.000; -178.000
334.556;  -91.100; -611.000; -567.000
334.690;  -96.225; -631.000; -577.000
334.825;   41.175;  381.000;   83.000
334.960;  -72.400; -285.000; -413.000
335.095;   -8.500;  135.000;  -91.000
335.230; -122.275; -722.000; -738.000
335.365; -141.325;-1084.000; -990.000
335.499; -158.925;-1108.000;-1037.000
335.634;   -6.925;    9.000;  534.000
335.769; -113.425; -755.000; -720.000
335.904;  -60.625; -603.000; -561.000
336.038;  -98.750; -735.000; -657.000
336.173; -140.175;-1206.000;-1194.000
336.308;  -10.500; -116.000; -189.000
336.443;    8.575; -544.000; -634.000
336.577;  -80.075; -936.000; -787.000
336.712;   38.575;   -4.000;  -12.000
336.847;  -67.650; -724.000; -607.000
336.981;   43.175; -272.000; -208.000
337.116;  243.000;  615.000;  501.000
337.250;  111.700; -434.000; -421.000
337.385;  263.375; -297.000; -208.000
337.520;   89.125; -632.000; -603.000
337.654;  -46.500; -215.000; -126.000
337.789; -131.525; -989.000; -933.000
337.923;  -47.300; -104.000; -205.000
338.058; -101.450; -673.000; -738.000
338.192;  -58.600; -611.000; -488.000
338.327;  -13.400;  -18.000; -155.000
338.461;  -90.025; -299.000; -469.000
338.596;  -94.625; -780.000; -638.000
338.730; -125.050; -767.000; -803.000
338.865;   81.975;  -46.000; -140.000
338.999;  -68.375; -846.000; -702.000
339.134;  -40.325; -634.000; -536.000
339.268;   12.075; -741.000; -603.000
339.403;  365.600; -740.000; -775.000
339.537;  111.850; -894.000; -820.000
339.671; -115.100; -829.000; -813.000
339.806;  -62.075; -556.000; -512.000
339.940;   10.275; -261.000; -235.000
340.074; -106.225; -685.000; -510.000
340.209;  -50.725; -351.000; -230.000
340.343; -102.350; -517.000; -573.000
340.477;  133.600;  998.000; 1036.000
340.612;  -68.800;-1033.000; -900.000
340.746;  147.975; -199.000; -243.000
340.880;  -85.075; -924.000; -785.000
341.014;  -18.125;  -45.000; -154.000
341.149; -119.175; -756.000; -718.000
341.283; -111.675; -839.000; -754.000
341.417; -129.325;-1124.000; -938.000
341.551;   72.400; -768.000; -708.000
341.685;  -51.400; -633.000; -611.000
341.820;  -76.425; -562.000; -493.000
341.954;  -62.600; -218.000; -349.000
342.088; -170.550;-1102.000;-1019.000
342.222;   44.150;  565.000;  618.000
342.356;  -64.400; -395.000; -335.000
342.490; -121.925; -880.000; -841.000
342.624;  -67.850; -339.000; -242.000
342.758;  -28.475; -364.000; -312.000
342.892;  -95.500; -710.000; -585.000
343.026;  -53.575;  -58.000; -116.000
343.160;  -57.375; -426.000; -376.000
343.294;  -91.575; -474.000; -337.000
343.428;  -45.700; -488.000; -448.000
343.562;  -36.925; -172.000;  -23.000
343.696;  -48.250; -385.000; -314.000
343.830;  -42.175; -362.000; -356.000
343.964;    6.900; -231.000; -168.000
344.098;  732.250;  199.000;   70.000
344.232;  625.775; -266.000; -127.000
344.366;   62.600; -567.000; -453.000
344.500;   19.250; -665.000; -744.000
344.634;    3.375; -324.000; -164.000
344.768;  -27.975; -531.000; -341.000
344.902;    4.600;  278.000;  256.000
345.035;  -71.575; -556.000; -496.000
345.169; -142.425; -933.000; -656.000
345.303;  -39.375; -308.000; -482.000
345.437;  -86.825; -826.000; -717.000
345.571;  -66.275; -675.000; -594.000
345.704;  -79.775; -309.000; -532.000
345.838;  -30.250; -331.000; -284.000
345.972;  -72.525; -543.000; -495.000
346.106;  146.875; -179.000; -190.000
346.239;  396.525; -312.000; -243.000
346.373;  -13.350; -343.000; -302.000
346.507; -151.350; -950.000; -962.000
346.640;  101.350;  -30.000;   13.000
346.774;  -62.725; -650.000; -797.000
346.908;  -23.550; -138.000;  -11.000
347.041; -104.150; -646.000; -593.000
347.175;    4.525;  259.000;   27.000
347.309;  -89.250; -698.000; -628.000
347.442; -106.225; -883.000; -732.000
347.576;  228.100;  670.000;  668.000
347.709;  158.950; -123.000;  -52.000
347.843; -103.150; -933.000; -825.000
347.976;   39.675;  235.000;  294.000
348.110; -191.250;-1268.000;-1186.000
348.243; -113.550; -679.000; -772.000
348.377;   -5.750;  -26.000;   60.000
348.510;   45.425;  403.000;  540.000
348.644;  -45.650;  -37.000; -159.000
348.777;   -5.950;  180.000;  191.000
348.911;  -55.100; -142.000; -112.000
349.044;  143.525;  471.000;  448.000
349.178;   89.975;-1069.000;-1006.000
349.311;  102.250;  141.000;  255.000
349.444;  -19.075; -927.000; -813.000
349.578;  -40.800; -347.000; -200.000
349.711; -103.525; -959.000; -862.000
349.845;  -21.475; -661.000; -591.000
349.978; -160.450;-1224.000;-1137.000
350.111;  -96.725; -546.000; -612.000
350.244;  -91.100; -596.000; -700.000
350.378;  -10.850; -392.000; -393.000
350.511;  -72.925; -393.000; -426.000
350.644; -110.375; -808.000; -806.000
350.778;   -7.775;  168.000;  104.000
350.911;   -1.400;  134.000;  140.000
351.044; -111.100; -685.000; -615.000
351.177;  -48.075; -321.000; -281.000
351.310;  -47.175;    3.000; -131.000
351.444;  -91.100; -888.000; -788.000
351.577;   83.250;  140.000;   90.000
351.710;   99.475;  593.000;  417.000
351.843;  -36.325; -165.000;  -77.000
351.976;  -26.000;  149.000;  -79.000
352.109; -101.475; -621.000; -612.000
352.242;  -36.525; -464.000; -419.000
352.376;  -86.150; -580.000; -636.000
352.509;  111.900; -437.000; -356.000
352.642;  -44.325; -654.000; -604.000
352.775;   31.525; -141.000;  -98.000
352.908; -134.350; -933.000; -904.000
353.041; -114.175; -814.000; -824.000
353.174;  -63.725; -551.000; -424.000
353.307;  -90.925; -753.000; -764.000
353.440;   55.550;  541.000;  453.000
353.573; -130.300; -957.000;-1008.000
353.706;  -69.325; -384.000; -558.000
353.839;  -26.950; -264.000; -220.000
353.971; -105.275; -657.000; -512.000
354.104; -101.375; -896.000; -835.000
354.237;  -51.175; -627.000; -662.000
354.370;  -97.375; -846.000; -879.000
354.503; -187.275;-1231.000;-1308.000
354.636;  -44.125; -529.000; -348.000
354.769; -136.525; -937.000; -860.000
354.902;  -21.625; -230.000; -139.000
355.034;  -18.450; -164.000; -220.000
355.167;  -26.675; -262.000; -162.000
355.300; -104.000;-1061.000; -880.000
355.433; 1001.700;  -71.000;  -14.000
355.565; 1529.000; -402.000; -384.000
355.698;  390.300; -356.000; -296.000
355.831;  -29.000; -882.000; -801.000
355.964;   43.075; -285.000; -170.000
356.096; -100.150; -856.000; -843.000
356.229;  -16.000; -523.000; -530.000
356.362;  327.075; -373.000; -266.000
356.494;  622.350; -229.000; -162.000
356.627;  401.400;  269.000;  377.000
356.760;  655.075;  120.000;   53.000
356.892;  979.725; -286.000; -601.000
357.025;  545.475;  403.000;  389.000
357.157;  476.925; -167.000; -179.000
357.290;  728.875; -856.000; -713.000
357.423;  190.600; -667.000; -556.000
357.555;   94.625; -217.000; -228.000
357.688;   85.650; -483.000; -364.000
357.820;  378.975; -870.000; -877.000
357.953; 3297.975; -563.000; -589.000
358.085;  654.025; -632.000; -612.000
358.218;  808.375;-1131.000; -932.000
358.350;  142.875;  -58.000;  312.000
358.483; -140.025;-1300.000;-1187.000
358.615;  -63.425;-1182.000;-1078.000
358.747; -104.800;-1187.000;-1058.000
358.880;  -17.800; -810.000; -744.000
359.012;  -21.400; -376.000; -202.000
359.145;  -59.825; -480.000; -511.000
359.277;   19.550; -962.000; -913.000
359.409; 2717.525;  536.000;  231.000
359.542;  677.600; -738.000; -688.000
359.674;   70.925;   46.000;   13.000
359.806;  -81.725; -565.000; -438.000
359.939;  -54.000; -617.000; -516.000
360.071;  -19.450; -583.000; -579.000
360.203;  -32.275; -411.000; -364.000
360.335;   50.525;  164.000;  -16.000
360.468;  178.125; -249.000; -307.000
360.600; 2205.625; -547.000; -454.000
360.732; 2983.300; -546.000; -423.000
360.864;  357.350;-1216.000;-1044.000
360.996;  193.300; -516.000; -554.000
361.129;   12.700; -389.000; -598.000
361.261;   20.525;  110.000; -113.000
361.393;  -48.800; -252.000; -214.000
361.525;   20.125;   94.000;  244.000
361.657;  -55.475; -821.000; -703.000
361.789;   -5.550; -139.000; -155.000
361.921;  117.325; -642.000; -593.000
362.053;  196.900;  524.000;  541.000
362.185;   25.150;  288.000;   72.000
362.318;  -98.350; -709.000; -705.000
362.450;   71.325;  294.000;  444.000
362.582;   16.450; -913.000; -870.000
362.714;  -63.350; -353.000; -332.000
362.846;  -88.625; -606.000; -490.000
362.978; -147.075; -941.000; -811.000
363.109;   18.125; -161.000; -260.000
363.241;  306.275; -739.000; -749.000
363.373;  411.250; -649.000; -564.000
363.505;  693.100; -186.000;  -91.000
363.637;  151.150; -787.000; -601.000
363.769; -148.525;-1067.000;-1080.000
363.901;  -77.750; -596.000; -654.000
364.033; -149.100;-1103.000;-1062.000
364.165;  -19.250; -283.000; -283.000
364.296;   48.800; -316.000; -177.000
364.428;   67.450;-1344.000;-1220.000
364.560;  -79.250; -679.000; -661.000
364.692;  -69.975; -738.000; -835.000
364.824;  171.600; -588.000; -456.000
364.955;  409.700; -402.000; -564.000
365.087; 1020.150;-1097.000; -852.000
365.219;   20.850; -686.000; -816.000
365.351;  -85.325; -526.000; -572.000
365.482;   47.575;  300.000;  240.000
365.614;  -60.350; -402.000; -314.000
365.746; -101.825; -729.000; -752.000
365.877; -115.575; -706.000; -672.000
366.009;  268.100;  -35.000;  -62.000
366.141;  -93.850;-1249.000;-1134.000
366.272; -114.800; -803.000; -719.000
366.404; -124.325;-1005.000; -874.000
366.535;  -18.100; -139.000;  -12.000
366.667; -116.325; -644.000; -649.000
366.799;   22.625;  353.000;  203.000
366.930; -140.200; -862.000; -996.000
367.062;  118.500; -639.000; -613.000
367.193;  138.850; -872.000; -842.000
367.325;  -68.375; -580.000; -684.000
367.456;   16.300; -246.000;   31.000
367.588;  152.200; -371.000; -318.000
367.719;   13.450;  -44.000;  -45.000
367.851;  -50.475; -222.000; -241.000
367.982;  -71.475; -875.000; -732.000
368.113;   59.575; -475.000; -358.000
368.245; -137.875; -960.000; -841.000
368.376;  -35.050; -254.000; -302.000
368.508;  -51.550; -188.000; -263.000
368.639; -152.125;-1166.000;-1034.000
368.770;  -51.150; -670.000; -589.000
368.902;  -76.275; -836.000; -926.000
369.033; -133.625; -906.000; -855.000
369.164;  -64.450; -720.000; -653.000
369.296; -128.225; -452.000; -601.000
369.427;   -8.925; -209.000; -144.000
369.558;  -71.275; -593.000; -377.000
369.689; -104.125; -721.000; -569.000
369.821; -146.700; -951.000; -845.000
369.952;  -33.900;   42.000; -108.000
370.083;  -49.075; -229.000; -108.000
370.214;  -89.550; -735.000; -650.000
370.345;  -12.600;   65.000;   81.000
370.477;  -99.375; -810.000; -790.000
370.608;  169.075; -328.000; -264.000
370.739;  -80.400;-1233.000;-1292.000
370.870;  -66.075;-1102.000; -923.000
371.001;   53.750; -378.000; -467.000
371.132; -103.050; -754.000; -735.000
371.263;  -30.350;  -42.000; -148.000
371.394; -155.675; -841.000; -748.000
371.525;   23.725;  345.000;  225.000
371.657;  -99.900; -808.000; -670.000
371.788;   42.050;  103.000;  199.000
371.919;  104.950; -384.000; -304.000
372.050; 3131.475;  -91.000; -156.000
372.181;  899.900; -188.000; -294.000
372.311;  294.325;   42.000; -127.000
372.442;   -8.975; -457.000; -451.000
372.573;  -32.175; -444.000; -340.000
372.704; -133.175;-1008.000; -980.000
372.835;   48.450; -228.000; -289.000
372.966;  -78.800; -646.000; -554.000
373.097;  -89.075; -575.000; -711.000
373.228;  -63.700; -717.000; -542.000
373.359;   70.375; -824.000; -536.000
373.490;  721.875; -881.000; -727.000
373.620;  909.725;-1001.000; -803.000
373.751; 1472.000; -332.000; -396.000
373.882;  631.250; -663.000; -733.000
374.013;   14.750; -449.000; -262.000
374.143;  -60.250; -581.000; -659.000
374.274; -122.975; -987.000; -908.000
374.405;  140.850; -388.000; -276.000
374.536;  339.950; -526.000; -387.000
374.666;  863.550; -759.000; -807.000
374.797;  138.975; -817.000; -868.000
374.928;  658.000; -710.000; -560.000
375.058;  683.550; -535.000; -500.000
375.189;   63.400;  -59.000;  -93.000
375.320; -115.400; -928.000;-1034.000
375.450;  -57.100; -625.000; -616.000
375.581;  -70.050; -526.000; -436.000
375.712;  -42.400; -574.000; -250.000
375.842;  219.775; -438.000; -415.000
375.973;  147.025; -554.000; -513.000
376.103;  -89.000; -665.000; -648.000
376.234;  -98.450; -531.000; -552.000
376.364;  -77.500; -944.000; -867.000
376.495;  257.050;  925.000;  529.000
376.625;  -30.175; -472.000; -485.000
376.756;   12.650; -709.000; -678.000
376.886; -113.525;-1178.000;-1026.000
377.017;   47.925;-1048.000;-1061.000
377.147;  370.925; -786.000; -782.000
377.278;   47.325;  174.000;  228.000
377.408; -131.550; -801.000; -815.000
377.538; -112.550; -707.000; -693.000
377.669;  -91.475; -537.000; -613.000
377.799; -109.425; -645.000; -635.000
377.929;  -89.150; -610.000; -428.000
378.060; -135.350; -781.000; -847.000
378.190;  -65.050; -726.000; -531.000
378.320;  -66.025; -401.000; -406.000
378.451;  -25.050; -131.000;  -22.000
378.581;  -38.925;  -67.000; -110.000
378.711;  130.225; 1035.000;  866.000
378.841;  -41.600; -533.000; -675.000
378.972;  -98.150; -871.000; -751.000
379.102;  -40.350; -652.000; -579.000
379.232;  -35.975; -126.000;  -73.000
379.362; -128.525;-1001.000; -885.000
379.492;  -11.775; -373.000; -424.000
379.623;   83.675;    0.000;  111.000
379.753; -126.325;-1107.000; -974.000
379.883;  151.325;   59.000;  156.000
380.013;  -38.825;-1081.000;-1017.000
380.143; -123.025;-1097.000;-1056.000
380.273; -120.525; -985.000; -861.000
380.403;  -20.000; -344.000; -257.000
380.533;  -38.450; -651.000; -664.000
380.663;   53.700;  173.000;  128.000
380.793; -127.800;-1027.000;-1074.000
380.923;  -44.250; -103.000;  -34.000
381.053; -111.375; -613.000; -623.000
381.183;  -42.600; -106.000; -248.000
381.313;   -0.700; -656.000; -470.000
381.443;   -0.950; -692.000; -473.000
381.573;  133.800; -402.000; -409.000
381.703;  165.825;-1249.000;-1095.000
381.833; -165.425;-1454.000;-1336.000
381.963;   70.600; -134.000;  -87.000
382.093; 1190.425; -925.000; -909.000
382.223;  338.250; -713.000; -602.000
382.353;  -58.975; -801.000; -608.000
382.482;  271.275;-1091.000; -964.000
382.612;  613.750; -872.000; -644.000
382.742;  340.425; -695.000; -622.000
382.872;  165.700; -565.000; -551.000
383.002;   29.875;  347.000; -132.000
383.131;  -35.750; -226.000; -160.000
383.261;  -45.850; -706.000; -768.000
383.391;  283.375; -552.000; -377.000
383.521; 3435.750;  451.000;  263.000
383.650;  773.750; -947.000; -904.000
383.780;  -35.375; -783.000; -656.000
383.910;   92.875;  880.000;  802.000
384.039;  -15.975; -794.000; -656.000
384.169;  111.950;-1205.000;-1017.000
384.299;  -47.400; -650.000; -662.000
384.428; -108.800; -764.000; -680.000
384.558;  -53.600; -308.000; -275.000
384.687;  -69.025; -414.000; -334.000
384.817;    8.925;   75.000;   -2.000
384.947;    0.450; -234.000; -141.000
385.076;  265.100;  982.000;  912.000
385.206;   88.125;  369.000;  480.000
385.335;  -52.825; -549.000; -417.000
385.465;  -99.000; -655.000; -663.000
385.594;   98.325;  -53.000;  -44.000
385.724;  292.975; -868.000; -838.000
385.853;   62.250; -296.000; -270.000
385.982; 1110.475; -743.000; -787.000
386.112; 1736.125;-1052.000; -871.000
386.241;   87.500; -307.000; -312.000
386.371;    4.525; -174.000;  -87.000
386.500;  -35.000; -825.000; -789.000
386.629;   -7.275; -874.000; -817.000
386.759;   56.425;  -43.000;   68.000
386.888;  -18.900; -170.000; -250.000
387.017; -102.475; -648.000; -620.000
387.147; -112.150; -771.000; -798.000
387.276;  -27.225; -410.000; -397.000
387.405;  -17.825; -398.000; -342.000
387.535;  -68.325; -452.000; -361.000
387.664;  -74.350; -692.000; -620.000
387.793;   25.450; -198.000; -113.000
387.922;  392.300;  255.000;  200.000
388.052;  -27.500; -576.000; -423.000
388.181;  -15.550; -342.000; -472.000
388.310;  -52.050; -889.000; -710.000
388.439;  -79.575; -749.000; -742.000
388.568;  138.950;  365.000;  244.000
388.697;  816.525; -756.000; -653.000
388.826;  141.000; -768.000; -666.000
388.956;   21.025; -285.000; -307.000
389.085;  -47.850; -347.000; -287.000
389.214; -126.725; -842.000; -872.000
389.343; -100.725; -645.000; -413.000
389.472;  406.750;  126.000;  149.000
389.601;  509.600;   91.000;    0.000
389.730;  -16.325; -568.000; -687.000
389.859;   43.050;  226.000;   46.000
389.988;  130.900; -423.000; -408.000
390.117;  104.275; -168.000; -146.000
390.246;  -37.075; -331.000; -320.000
390.375;   24.575; -673.000; -626.000
390.504;  -77.000; -703.000; -621.000
390.633; -126.675; -672.000; -726.000
390.761;  -87.700; -732.000; -645.000
390.890;    0.250;   -4.000; -130.000
391.019;  -49.575; -421.000; -441.000
391.148; -136.600; -826.000; -855.000
391.277;  -99.550; -576.000; -493.000
391.406; -110.000; -821.000; -805.000
391.534;    9.050;  574.000; -301.000
391.663;  -83.975; -583.000; -645.000
391.792; -105.300; -673.000; -701.000
391.921;   66.025;   -3.000;   15.000
392.050;  123.350; -287.000; -228.000
392.178;  -94.850;-1206.000;-1061.000
392.307;   84.225; -758.000; -712.000
392.436;   32.575; -427.000; -641.000
392.564;   13.025;  166.000;   -6.000
392.693; -113.100; -860.000; -682.000
392.822;  149.275; -529.000; -534.000
392.950;   38.100; -880.000; -714.000
393.079;  236.300; -188.000; -328.000
393.208;   -7.675; -488.000; -511.000
393.336;  -27.450; -170.000; -145.000
393.465;  -64.800; -317.000; -199.000
393.593;   -8.000;   62.000;   79.000
393.722; -157.050;-1121.000; -916.000
393.850;  -32.925; -188.000;  -61.000
393.979; -168.350; -926.000; -805.000
394.107;  -74.875; -517.000; -537.000
394.236;  -54.125; -570.000; -507.000
394.364;  163.075;  383.000;  206.000
394.493;  195.475; -911.000; -767.000
394.621;  -31.675; -955.000; -916.000
394.750;  742.075; -873.000; -923.000
394.878; 3082.450; -247.000; -149.000
395.007; 4102.050; -721.000; -807.000
395.135;  280.125; -790.000; -721.000
395.263; -101.075;-1038.000;-1040.000
395.392;   -1.900;  -25.000; -107.000
395.520; -151.025; -818.000; -679.000
395.648; -119.225; -865.000; -915.000
395.777;  -53.575; -366.000; -405.000
395.905;  -72.625; -449.000; -564.000
396.033;   -3.050;  217.000;  172.000
396.162;  349.925; -399.000; -453.000
396.290;  295.850;  -17.000;   -2.000
396.418;   36.100; -555.000; -514.000
396.546; -101.650; -571.000; -466.000
396.674; -104.000; -850.000; -878.000
396.803;   -9.800;  -72.000;  -23.000
396.931;   41.350; -179.000; -199.000
397.059;  -20.000;-1026.000; -989.000
397.187; -133.450;-1026.000; -975.000
397.315; -158.250; -884.000; -649.000
397.443; -103.375; -592.000; -443.000
397.572;  -91.700; -578.000; -424.000
397.700;  -45.500; -607.000; -614.000
397.828;   -5.975;  120.000;  -90.000
397.956;  -66.625; -508.000; -478.000
398.084;  -76.825; -767.000; -626.000
398.212;   11.425;  137.000;  124.000
398.340;   -3.200;  -56.000;  159.000
398.468;   -4.675; -390.000; -169.000
398.596; -148.075; -993.000; -953.000
398.724; -135.675; -762.000; -767.000
398.852; -174.575;-1024.000; -976.000
398.980;  -84.425; -560.000; -560.000
399.108;  -78.175; -982.000; -735.000
399.236;   17.575;   13.000;    8.000
399.363;   -0.425;  222.000;  196.000
399.491;  -86.075; -404.000; -398.000
399.619; -144.250; -829.000; -800.000
399.747; -109.725; -859.000; -771.000
399.875;   43.800;  220.000;  234.000
400.003;  -52.375; -359.000; -284.000
400.130; -107.300; -421.000; -341.000
400.258;  -38.900;  -83.000;   38.000
400.386;  -86.450; -352.000; -168.000
400.514;  -63.975; -526.000; -587.000
400.641; -115.950; -928.000; -802.000
400.769; -148.450; -979.000; -888.000
400.897; -137.875; -838.000; -793.000
401.025;  -33.375; -166.000; -152.000
401.152;  -29.575;  220.000;   38.000
401.280;  -96.275; -430.000; -429.000
401.408; -123.250; -712.000; -576.000
401.535; -135.650; -735.000; -758.000
401.663; -212.850;-1134.000;-1054.000
401.790; -100.725; -514.000; -525.000
401.918;   28.200;  436.000;  405.000
402.046;  -24.575;  134.000;  122.000
402.173;  -47.250;  -18.000;    7.000
402.301;  -91.125; -519.000; -397.000
402.428;   27.675;  528.000;  383.000
402.556; -168.375;-1188.000; -913.000
402.683;  -43.225;  -20.000;   -1.000
402.811;  -33.100;  -37.000; -206.000
402.938;   -2.575;   20.000;   27.000
403.066;  136.175; -574.000; -558.000
403.193;  262.425;  299.000;  239.000
403.321;  192.600; -396.000; -574.000
403.448;  251.900;   83.000;   27.000
403.575;  102.175;  -90.000;  -46.000
403.703;  -87.400; -732.000; -557.000
403.830;  -71.350; -531.000; -496.000
403.957; -153.375;-1117.000;-1023.000
404.085;   14.225;  -61.000; -172.000
404.212;   98.025;  -50.000;   63.000
404.339;  274.950; -566.000; -306.000
404.467; 6066.375; -612.000; -524.000
404.594; 3730.200; -287.000; -227.000
404.721;  779.400; -869.000; -764.000
404.848;   64.100; -113.000; -202.000
404.976; -122.875; -856.000; -783.000
405.103;  -21.650;  -14.000;  -82.000
405.230;   -7.900;  190.000;  226.000
405.357;   18.600;  117.000;   44.000
405.484;  269.600;  -49.000;    5.000
405.612;   29.500; -548.000; -563.000
405.739;  -65.700; -488.000; -243.000
405.866;   70.425;  669.000;  385.000
405.993;  -61.625; -398.000; -102.000
406.120; -140.850; -801.000; -887.000
406.247;  -74.875; -323.000; -342.000
406.374;  338.675;  540.000;  629.000
406.501;   31.550; -632.000; -702.000
406.628; -101.625; -621.000; -589.000
406.755; -110.150; -803.000; -620.000
406.882;  -59.650; -228.000; -277.000
407.009; -123.375; -719.000; -628.000
407.136;   12.300; -480.000; -401.000
407.263;   44.100; -939.000; -829.000
407.390;  -97.650; -692.000; -614.000
407.517; -192.250;-1139.000;-1187.000
407.644;  -62.300; -332.000; -256.000
407.771; -154.725; -249.000; -287.000
407.898;   10.325;  168.000;  328.000
408.025;  -87.450; -421.000; -313.000
408.151;  -14.100;   82.000;  153.000
408.278;  -79.350; -267.000; -216.000
408.405; -122.025; -931.000; -899.000
408.532;  -86.700; -549.000; -542.000
408.659; -122.600; -677.000; -648.000
408.785; -217.025;-1298.000;-1170.000
408.912;  -74.175; -412.000; -296.000
409.039; -119.400; -610.000; -686.000
409.166; -115.225; -591.000; -555.000
409.292; -122.350; -571.000; -534.000
409.419; -125.775; -665.000; -649.000
409.546;  -86.225; -431.000; -192.000
409.672; -116.275; -713.000; -545.000
409.799;  -27.400;  -36.000;   34.000
409.926;  -42.425; -180.000; -179.000
410.052; -180.600;-1127.000;-1091.000
410.179;  -63.650; -368.000; -392.000
410.305;  -93.800; -375.000; -493.000
410.432;  -59.975; -220.000; -333.000
410.558; -102.975; -305.000; -380.000
410.685; -118.400; -688.000; -431.000
410.812; -106.650; -409.000; -588.000
410.938; -155.200; -964.000; -808.000
411.065; -114.975; -671.000; -645.000
411.191;  -30.650; -189.000; -174.000
411.317; -136.850; -823.000; -742.000
411.444;  -72.125; -317.000; -246.000
411.570;  -68.900; -339.000; -294.000
411.697; -147.800; -758.000; -752.000
411.823; -179.250; -989.000; -999.000
411.949;  -48.475;  -56.000;   17.000
412.076; -122.625; -539.000; -519.000
412.202; -119.950; -758.000; -757.000
412.329; -149.150; -798.000; -752.000
412.455; -130.700; -821.000; -657.000
412.581;  -32.575;  -15.000;  172.000
412.707;  -82.275; -540.000; -457.000
412.834;    3.625;  156.000;  219.000
412.960; -101.775; -785.000; -784.000
413.086; -106.325; -743.000; -701.000
413.212;  118.850;  604.000;  578.000
413.339;  -89.975; -685.000; -701.000
413.465;  -36.175; -364.000; -310.000
413.591; -112.475; -757.000; -474.000
413.717;  -64.650; -358.000; -366.000
413.843; -146.325; -839.000; -861.000
413.969;  -58.275;  -47.000; -292.000
414.096; -117.850; -679.000; -679.000
414.222;  -11.975;  -33.000;   85.000
414.348;  -51.550; -652.000; -385.000
414.474;   60.175;   38.000;  -52.000
414.600;  -12.975; -126.000; -144.000
414.726;  -18.350;  -96.000;  -55.000
414.852;  -60.125; -365.000; -342.000
414.978;   14.175;  104.000;  -18.000
415.104;   26.875;   38.000;   80.000
415.230;   17.300; -329.000; -330.000
415.356;   20.375; -409.000; -514.000
415.482;  186.450;   13.000;  -35.000
415.608;  272.475; -247.000; -323.000
415.734;  983.675;   67.000;   38.000
415.860;20657.450; -875.000; -767.000
415.986;14456.750; -685.000; -607.000
416.111; 1198.750; -798.000; -652.000
416.237;  257.325; -424.000; -571.000
416.363; 1206.725; -765.000; -733.000
416.489; 4321.800; -324.000; -251.000
416.615;  421.450; -707.000; -742.000
416.741;  -26.125; -677.000; -784.000
416.866;  -93.250; -673.000; -736.000
416.992; -118.525; -801.000; -818.000
417.118;  -34.125;  -41.000;  -80.000
417.244;  -76.200; -798.000; -531.000
417.369;  -90.300; -801.000; -612.000
417.495;  -32.175; -325.000; -254.000
417.621; -111.400;-1015.000; -803.000
417.746;  -12.875; -579.000; -572.000
417.872;   38.575; -254.000; -144.000
417.998;   55.250; -515.000; -530.000
418.123; 1159.650;-1073.000; -845.000
418.249; 5610.000; -512.000; -601.000
418.374;  719.925; -916.000; -824.000
418.500;  116.625; -383.000; -482.000
418.626;  102.500;   70.000;  -59.000
418.751;   88.000; -549.000; -448.000
418.877;  189.625; -637.000; -643.000
419.002; 1905.700; -688.000; -560.000
419.128;13171.925; -930.000; -721.000
419.253; 3095.675; -967.000; -837.000
419.379;  430.175; -391.000; -338.000
419.504;  411.725;  325.000;  415.000
419.629;  556.550; -393.000; -212.000
419.755; 3959.500; -317.000; -254.000
419.880;22558.200;  -98.000;   67.000
420.006;12018.375; -280.000; -221.000
420.131;30235.725; -662.000; -775.000
420.256; 4156.125; -315.000; -316.000
420.382;  535.550; -665.000; -687.000
420.507;   53.200; -649.000; -778.000
420.632;   86.950; -337.000; -339.000
420.758;  170.325; -251.000; -425.000
420.883; -105.025; -876.000; -672.000
421.008; -118.750; -775.000; -619.000
421.133; -114.225; -509.000; -467.000
421.259;  -64.350; -325.000; -259.000
421.384; -131.650; -834.000; -693.000
421.509;  -74.500;-1052.000; -862.000
421.634;  811.300; -936.000; -820.000
421.759;  327.925; -359.000; -327.000
421.885;  -77.575; -717.000; -656.000
422.010;  -99.025; -673.000; -542.000
422.135; -153.025; -695.000; -727.000
422.260;   28.875;  340.000;  280.000
422.385;  -63.975;   12.000;  -98.000
422.510;   -3.950;  151.000;  -26.000
422.635;    4.225;  -87.000;  -43.000
422.760;   68.800; -766.000; -791.000
422.885;   40.125;  -57.000;  -80.000
423.010;  -49.450; -112.000; -169.000
423.135; -103.475; -481.000; -561.000
423.260;  -41.900; -150.000; -245.000
423.385;   33.275;  476.000;  222.000
423.510;   26.950;   71.000;  -22.000
423.635;   49.175;  133.000;   45.000
423.760;   34.925;  383.000;  328.000
423.885;   50.000;  336.000;  391.000
424.010;    7.000;  -68.000;  -13.000
424.135;  -28.950;    5.000;  -33.000
424.259; -106.450; -654.000; -457.000
424.384;  -80.500; -279.000; -272.000
424.509;  -33.900; -260.000; -186.000
424.634; -110.325; -761.000; -623.000
424.759;  -40.100; -688.000; -544.000
424.883;  -32.500; -506.000; -527.000
425.008;  151.625; -502.000; -410.000
425.133; 2045.250; -679.000; -653.000
425.258;  939.200; -517.000; -381.000
425.382;  907.650; -867.000; -774.000
425.507; 2218.850; -487.000; -543.000
425.632;  384.525; -802.000; -663.000
425.756;  496.300; -256.000; -146.000
425.881; 7345.875; -831.000; -857.000
426.006;19127.900; -604.000; -355.000
426.130; 2801.725; -696.000; -508.000
426.255;  353.650; -611.000; -491.000
426.379;  142.525; -189.000; -577.000
426.504;  388.075;  660.000;  544.000
426.629; 4150.000; -519.000; -466.000
426.753; 2757.150;   64.000;  -46.000
426.878;  300.325; -252.000; -288.000
427.002;  187.825; -651.000; -668.000
427.127; 1655.700;  -35.000; -158.000
427.251;11944.775;  372.000;  401.000
427.375; 3227.125; -191.000; -173.000
427.500; 2001.825; -616.000; -610.000
427.624;  654.200; -234.000; -400.000
427.749;   59.875; -216.000; -225.000
427.873;  -56.850; -499.000; -412.000
427.997;  -52.625; -222.000; -230.000
428.122;   63.525;  795.000;  703.000
428.246;   48.025;  433.000;  434.000
428.371; -138.025; -869.000; -773.000
428.495; -112.125; -624.000; -646.000
428.619;  -42.675; -186.000; -117.000
428.743;    6.000;   65.000;  132.000
428.868;  -16.875; -732.000; -643.000
428.992; 1174.450; -219.000; -326.000
429.116;  449.475; -329.000; -357.000
429.240;  196.275;  419.000;  426.000
429.365;  -36.500; -454.000; -574.000
429.489;  -61.950; -638.000; -647.000
429.613;   10.100; -236.000; -177.000
429.737;   26.150; -563.000; -432.000
429.861;  263.400; -247.000; -133.000
429.985; 5808.475; -425.000; -305.000
430.109; 6204.800; -770.000; -908.000
430.234;  686.900;   76.000;  -50.000
430.358;   43.625; -250.000; -160.000
430.482;  -76.175; -672.000; -564.000
430.606;  -68.675; -655.000; -375.000
430.730;  -19.250; -437.000; -388.000
430.854;   29.350; -909.000; -835.000
430.978;  -87.650; -795.000; -764.000
431.102; -109.950; -499.000; -422.000
431.226; -123.275; -874.000; -815.000
431.350;   -4.900;  345.000;  422.000
431.474;  -98.100; -661.000; -373.000
431.597; -155.000;-1060.000; -848.000
431.721;  -85.550; -276.000; -267.000
431.845; -150.025; -704.000; -472.000
431.969;  -89.625; -304.000; -349.000
432.093;  -94.650; -395.000; -317.000
432.217;  -21.300;   32.000;   82.000
432.341;  -92.575; -523.000; -518.000
432.464;   -0.975;   96.000;   40.000
432.588;  123.000; -401.000; -329.000
432.712;   53.350;  -52.000;  -52.000
432.836;   37.300;  213.000;  263.000
432.959;  -14.325; -372.000; -311.000
433.083;   94.800;   11.000;    2.000
433.207;  401.050;  285.000;  930.000
433.330; 5394.425; -391.000; -200.000
433.454; 6456.450; -654.000; -638.000
433.578; 3749.825;  583.000;  278.000
433.701;  639.100; -623.000; -675.000
433.825;  108.950; -292.000; -299.000
433.949;  105.900;   28.000;  -72.000
434.072;    2.800; -410.000; -323.000
434.196;  -32.525; -309.000; -117.000
434.319; 3792.175;25482.000;25124.000
434.443;  707.275; -656.000; -603.000
434.566; 2738.125;  281.000;   62.000
434.690;  432.400; -637.000; -383.000
434.813;   30.350; -251.000; -173.000
434.937; -102.000; -569.000; -696.000
435.060;  -85.900; -423.000; -332.000
435.184;  176.300; -492.000; -217.000
435.307;   83.350;  159.000;  102.000
435.431;  -40.300;  -40.000;   24.000
435.554;  -91.375; -399.000; -240.000
435.677; -102.750; -350.000; -258.000
435.801;  -48.700;  -25.000;   49.000
435.924;  -51.475;    1.000;  -67.000
436.048; -156.150;-1019.000; -732.000
436.171;  -86.675; -240.000;  -66.000
436.294;  -30.325; -248.000; -229.000
436.417;   80.900; -963.000; -849.000
436.541;  -96.250; -814.000; -840.000
436.664;  -63.200; -242.000; -316.000
436.787;  -40.450;   13.000;  113.000
436.910; -121.850; -792.000; -422.000
437.034;  -14.375;  142.000;  143.000
437.157;    8.250;  -11.000;    0.000
437.280;  -74.600; -392.000; -292.000
437.403; -112.150; -982.000; -869.000
437.526;  431.025; -903.000; -865.000
437.649; 1584.350; -505.000; -332.000
437.772;  159.550; -692.000; -540.000
437.896;   84.475;  700.000;  544.000
438.019; -111.050; -758.000; -503.000
438.142; -105.425; -596.000; -506.000
438.265;  -65.975; -639.000; -670.000
438.388;  387.025; -520.000; -410.000
438.511;   26.850; -597.000; -394.000
438.634;  -72.075; -247.000; -125.000
438.757; -144.700; -693.000; -619.000
438.880;  -28.400;  -34.000;  -57.000
439.003;  -93.500; -417.000; -437.000
439.126;  -59.825; -287.000; -167.000
439.248;  -68.975;  -98.000; -139.000
439.371;  -63.500;    9.000;  -53.000
439.494;   25.550;  510.000;  439.000
439.617;  -57.675;   65.000;  -88.000
439.740; -201.125; -968.000; -816.000
439.863; -162.075; -755.000; -595.000
439.986; -130.100; -476.000; -431.000
440.108;  -73.100; -161.000; -112.000
440.231; -171.925; -950.000; -836.000
440.354;  -48.375;  -64.000; -150.000
440.477;  -18.500; -566.000; -542.000
440.599;  -48.775; -200.000; -225.000
440.722; -134.150; -709.000; -586.000
440.845;   69.900;  751.000;  928.000
440.968; -139.850; -415.000; -311.000
441.090;  -84.050; -199.000;  -33.000
441.213; -195.125;-1021.000; -825.000
441.336;  -67.975; -159.000;   -5.000
441.458;  -86.125; -549.000; -396.000
441.581; -112.425; -628.000; -629.000
441.703;  -86.025; -152.000;   13.000
441.826; -122.650; -557.000; -400.000
441.948;  -65.625;   56.000;   51.000
442.071;   18.675;  555.000;  424.000
442.193; -132.875; -531.000; -485.000
442.316;    3.475;  152.000;   97.000
442.438;   25.425; -233.000;  -10.000
442.561;   56.250;  272.000;  262.000
442.683;  370.425; -809.000; -522.000
442.806;  812.000;   -8.000;   74.000
442.928;  -33.100; -859.000; -604.000
443.051;  -79.400; -577.000; -373.000
443.173;  -99.600; -341.000; -339.000
443.295;  -92.925; -263.000; -371.000
443.418;  -80.375; -321.000;  -29.000
443.540;  -21.525; -106.000;   -4.000
443.662; -140.525; -563.000; -465.000
443.785;  -26.475;  335.000;  199.000
443.907; -126.075; -362.000; -208.000
444.029; -135.450; -767.000; -494.000
444.152; -160.825; -644.000; -554.000
444.274;  -39.225;  -18.000;  -24.000
444.396; -118.750; -461.000; -221.000
444.518; -128.850; -691.000; -454.000
444.640; -113.250; -268.000; -111.000
444.763;  -21.575;  388.000;  249.000
444.885; -122.875; -432.000; -392.000
445.007;  -44.925;   35.000;   86.000
445.129; -117.500; -610.000; -515.000
445.251;  -98.550; -372.000; -439.000
445.373; -148.400; -537.000; -386.000
445.495;   -5.100;  242.000;  350.000
445.617;   48.900;  853.000;  753.000
445.739;  -84.350; -215.000;  -97.000
445.861;  -38.750; -245.000; -112.000
445.984;  -46.550; -267.000; -101.000
446.105;  112.225; -418.000; -251.000
446.227;  442.900; -176.000;  -19.000
446.349;  -28.800; -358.000; -249.000
446.471;  -96.525; -615.000; -448.000
446.593;  -84.300; -316.000;   19.000
446.715;  -56.300;  -67.000;   41.000
446.837;   40.350;  697.000;  832.000
446.959; -115.925; -457.000; -478.000
447.081; -153.100; -628.000; -518.000
447.203;   54.550;  862.000;  834.000
447.325;  -90.975; -270.000;   42.000
447.446;  -14.250;  286.000;  530.000
447.568; -166.825; -921.000; -803.000
447.690;  -91.400; -236.000; -245.000
447.812; -152.875; -798.000; -519.000
447.933;  -38.150;  155.000;  127.000
448.055;  -69.925; -306.000; -261.000
448.177;   96.075;   31.000;   79.000
448.299;    6.100; -935.000; -727.000
448.420;    0.875;  -25.000;  159.000
448.542;  -50.700;   -3.000;   33.000
448.664;  -25.525;  109.000;  322.000
448.785;  -32.075;  265.000;   83.000
448.907;  -98.725; -614.000; -353.000
449.028;  -51.950; -771.000; -471.000
449.150;   54.425;  492.000;  589.000
449.272; -187.950;-1044.000; -913.000
449.393;   27.375;  612.000;  694.000
449.515; -156.175; -634.000; -581.000
449.636;  -69.400; -264.000; -155.000
449.758;   54.150;  763.000;  622.000
449.879; -112.775; -498.000; -396.000
450.001;  -90.250; -149.000;  -49.000
450.122;  -35.625;  -95.000;  162.000
450.244;  -38.725;   37.000;  364.000
450.365;  -96.950; -495.000; -301.000
450.486;  -48.725;   80.000;  268.000
450.608;   22.250;  393.000;  326.000
450.729;   68.025;  578.000;  645.000
450.850;   12.725; -574.000; -466.000
450.972;  835.750; -552.000; -389.000
451.093; 5298.075;  190.000;  588.000
451.214; 2147.525; -516.000; -337.000
451.336;  393.000;  773.000;  579.000
451.457;   48.800;  264.000;  393.000
451.578;  -41.500; -118.000;  -74.000
451.699; -131.925; -546.000; -540.000
451.821;  -95.875; -284.000;  -50.000
451.942;   -0.225;  278.000;  285.000
452.063;   34.300;  228.000;  419.000
452.184;  586.650;  -54.000;  -49.000
452.305; 1115.475;  103.000;  170.000
452.427;  128.625; -549.000; -301.000
452.548;  -23.025;   23.000;   79.000
452.669;  -60.650; -257.000;  -89.000
452.790;  -40.500;    3.000;  -18.000
452.911;  -21.600;  195.000;  259.000
453.032;  -87.875; -289.000;  -60.000
453.153;  -66.800;  -29.000;   81.000
453.274;   54.150;  737.000;  868.000
453.395;  -73.275;  -51.000;  175.000
453.516;  120.325; 1317.000; 1388.000
453.637;  -97.700; -205.000; -150.000
453.758;  -68.025;   15.000;   69.000
453.879; -121.600; -462.000; -250.000
454.000;   55.625; 1086.000;  948.000
454.121; -134.625; -554.000; -326.000
454.242; -134.950; -599.000; -383.000
454.362;  -65.075;  -99.000;  114.000
454.483;  -41.400; -309.000; -229.000
454.604;   26.225;  512.000;  580.000
454.725; -147.950; -627.000; -555.000
454.846; -149.025; -474.000; -406.000
454.967;  -23.475;  230.000;  539.000
455.087;  -42.225;  179.000;  153.000
455.208;    7.050;  554.000;  856.000
455.329;  -70.775;  -22.000;   82.000
455.450;   26.800;  473.000;  633.000
455.570;  -89.075; -234.000; -211.000
455.691;  -54.200;  201.000;  407.000
455.812; -122.350; -270.000;  -92.000
455.932;  -63.025;  107.000;  -97.000
456.053;  -90.700;   36.000;   24.000
456.173; -125.900; -433.000; -355.000
456.294; -138.800; -476.000; -303.000
456.415;  -76.925;  -73.000;   70.000
456.535;  -45.275;  297.000;  273.000
456.656;  -56.550;  132.000;  240.000
456.776;  -87.750;    3.000;  298.000
456.897;  -10.775;  308.000;  513.000
457.017;  -81.500; -153.000;   -3.000
457.138; -121.150; -402.000; -249.000
457.258;  -46.475;  263.000;  224.000
457.379;  -15.450;  509.000;  521.000
457.499;  -32.375;  443.000;  432.000
457.620; -134.675; -407.000; -231.000
457.740; -101.475; -132.000;  -11.000
457.860;  -65.100;   87.000;   44.000
457.981;  -59.350;  132.000;  124.000
458.101;  -82.950;  -89.000;   40.000
458.221;  -26.825;  336.000;  402.000
458.342;  -61.150;   -4.000;  -37.000
458.462;   28.200;  617.000;  352.000
458.582;  -32.975; -302.000; -294.000
458.703;    9.250;  303.000;  154.000
458.823;  -32.375;   22.000;  163.000
458.943;    2.425;  341.000;  467.000
459.063;  -26.050; 1124.000;  192.000
459.183;  -39.325;  328.000;  313.000
459.304;   -2.125;  315.000;  517.000
459.424;  -79.325; -246.000;  -89.000
459.544;  349.525;  388.000;  764.000
459.664;  872.550;  499.000;  506.000
459.784;  317.525; 1004.000; 1175.000
459.904;   63.900;  867.000;  744.000
460.024;   57.625;  867.000;  684.000
460.144;   -5.875;  449.000;  554.000
460.264;  -17.925;  515.000;  327.000
460.385; -107.025; -145.000; -119.000
460.505;   21.900;  905.000;  858.000
460.625;  -90.175;  -17.000;  -68.000
460.745;  -34.700;  396.000;  541.000
460.864;  -57.425;  153.000;  469.000
460.984;   -1.275;  499.000;  573.000
461.104;  147.900; 1656.000; 1775.000
461.224;    5.275;  657.000;  650.000
461.344;  -37.700;  431.000;  360.000
461.464;  -40.500;  258.000;  513.000
461.584;  -34.250;  283.000;  466.000
461.704;  -50.875;   58.000;  108.000
461.824;  -78.700;  238.000;  259.000
461.943;  -53.175;  191.000;  130.000
462.063;  -86.425;    2.000;  324.000
462.183;   19.625;  639.000;  717.000
462.303;   89.125; 1678.000; 1230.000
462.422;   25.675;  781.000;  840.000
462.542;  -49.875;  271.000;  391.000
462.662;   21.800;  353.000;  380.000
462.782;  228.800;  833.000;  572.000
462.901;  500.100;  545.000;  717.000
463.021;  276.550; 1702.000; 1638.000
463.141;  -11.400;  337.000;  770.000
463.260;  -27.750;  614.000;  474.000
463.380;    2.750;  902.000;  884.000
463.499;  -66.225;  342.000;  332.000
463.619;  -38.375;  581.000;  559.000
463.738;  101.850; 1644.000;  903.000
463.858;   13.575;  657.000;  811.000
463.978;  -48.775;  542.000;  396.000
464.097;   44.275;  921.000; 1114.000
464.217;  114.725; 1196.000; 1143.000
464.336;  106.050; 1068.000; 1130.000
464.455;  -55.300;  328.000;  659.000
464.575;   18.400;  597.000;  602.000
464.694;  132.250; 1204.000; 1179.000
464.814;  117.050; 1190.000; 1138.000
464.933;   66.500; 1095.000; 1027.000
465.052;  110.375; 1412.000; 1054.000
465.172;   62.350;  922.000;  799.000
465.291;  127.900; 1376.000; 1320.000
465.410;    7.475;  462.000;  735.000
465.530;   80.550; 1355.000; 1310.000
465.649;   60.350; 1209.000; 1273.000
465.768;  136.775; 1673.000; 1508.000
465.888;   26.100;  941.000; 1174.000
466.007;   98.375; 1335.000; 1440.000
466.126;   -7.375;  721.000;  641.000
466.245;   46.150; 1176.000; 1187.000
466.364;   25.100;  950.000; 1060.000
466.484;   40.525; 1024.000; 1213.000
466.603;   20.550; 1101.000; 1222.000
466.722;  108.000; 1490.000; 1769.000
466.841;   62.800; 1151.000; 1401.000
466.960;   22.950; 1069.000;  972.000
467.079;  118.225; 1971.000; 1786.000
467.198;   38.200; 1238.000; 1181.000
467.317;   75.350; 1768.000; 1162.000
467.436;   54.625; 1709.000; 1261.000
467.555;  110.550; 1796.000; 1746.000
467.674;   73.400; 1227.000; 1329.000
467.793;   36.900; 1376.000; 1374.000
467.912;   91.775; 1658.000; 1539.000
468.031;  141.300; 2038.000; 1930.000
468.150;  129.425; 1842.000; 1837.000
468.269;  179.000; 2313.000; 2090.000
468.388;  177.575; 2168.000; 2339.000
468.507;  244.000; 2884.000; 2903.000
468.626;  221.050; 2555.000; 2541.000
468.744;  127.900; 2018.000; 2174.000
468.863;  195.925; 2312.000; 2523.000
468.982;   84.625; 1503.000; 1555.000
469.101;  198.225; 2788.000; 2692.000
469.220;  134.900; 2333.000; 2176.000
469.338;  248.375; 2935.000; 3051.000
469.457;  199.425; 2719.000; 2545.000
469.576;  349.175; 3953.000; 3784.000
469.695;  231.125; 2877.000; 3066.000
469.813;  420.475; 4148.000; 4192.000
469.932;  423.900; 4255.000; 4485.000
470.051;  413.525; 4075.000; 4161.000
470.169;  884.350; 4470.000; 4338.000
470.288; 1514.775; 4700.000; 4809.000
470.406;  851.125; 5059.000; 5194.000
470.525;  630.600; 6101.000; 5787.000
470.644;  649.450; 6847.000; 6794.000
470.762;  814.450; 8397.000; 7873.000
470.881;  902.525; 8651.000; 8464.000
470.999; 1040.850; 9685.000; 9151.000
471.118; 1120.025;11174.000;10711.000

