
Integration time [ms]: 200.000
Averaging Nr. [scans]: 10
Smoothing Nr. [pixels]: 0
Data measured with spectrometer [name]: 2101012U2
Wave   ;Sample   ;Dark     ;Reference
[nm]   ;[counts] ;[counts] ;[counts] 

197.733;  130.900;  516.000;  404.000
197.879; -218.400; -610.000; -634.000
198.025; -108.300; -475.000; -420.000
198.171; -156.200; -602.000; -612.000
198.317;  -63.200; -401.000; -316.000
198.463; -140.300; -655.000; -404.000
198.609;   39.700;  181.000; -137.000
198.755; -213.000; -644.000; -410.000
198.901; -143.200; -505.000; -424.000
199.047; -160.300; -615.000; -488.000
199.193;  -84.000; -230.000; -468.000
199.339;  -99.900; -222.000; -369.000
199.485;   89.900;  330.000;  271.000
199.631;   25.000;  227.000;  310.000
199.777; -121.600; -466.000; -398.000
199.923; -150.800; -610.000; -424.000
200.069;  -15.500; -141.000;  -58.000
200.215;  130.800;  128.000;  453.000
200.361;  101.400;  243.000;  477.000
200.507; -183.100; -600.000; -373.000
200.653;  -66.900; -371.000; -194.000
200.798; -112.300; -215.000; -125.000
200.944;  -23.300; -146.000;  -41.000
201.090;   23.800;   61.000;  222.000
201.236;  -10.600; -116.000; -158.000
201.382;  241.600;  874.000;  903.000
201.528;   11.800;  -58.000;  -48.000
201.674;  -82.700; -386.000; -293.000
201.819; -144.300; -540.000; -439.000
201.965; -193.300; -699.000; -447.000
202.111;  -32.500; -273.000; -226.000
202.257;  -90.300; -250.000; -238.000
202.402;   -2.000;   13.000;  -36.000
202.548;  -75.400; -169.000; -116.000
202.694;  166.000;  410.000; -183.000
202.840; -162.500; -603.000; -531.000
202.985; -170.900; -681.000; -639.000
203.131; -254.400; -832.000; -666.000
203.277;  -63.700; -199.000; -262.000
203.423; -132.700; -434.000; -520.000
203.568;  -98.800; -462.000; -237.000
203.714; -125.900; -535.000; -542.000
203.860; -143.900; -682.000; -641.000
204.005;   11.200;  112.000;  167.000
204.151;  182.600;  561.000;  556.000
204.296; -110.800; -354.000; -221.000
204.442; -141.500; -600.000; -547.000
204.588; -188.600; -592.000; -579.000
204.733;   50.000;  178.000;  168.000
204.879; -310.800;-1018.000; -822.000
205.025;   10.500;  -99.000;  126.000
205.170;   -4.400;  -17.000;   94.000
205.316;  160.600;  438.000;  661.000
205.461; -184.700; -698.000; -554.000
205.607;  175.300;  609.000;  665.000
205.752; -196.600; -626.000; -551.000
205.898; -127.100; -501.000; -391.000
206.043; -152.800; -578.000; -506.000
206.189;  -85.700; -243.000; -285.000
206.334;  139.500;  554.000;  606.000
206.480;  179.400;  409.000;  239.000
206.625; -196.900; -529.000; -552.000
206.771;  -96.600; -451.000; -373.000
206.916;  -87.900; -210.000; -537.000
207.062; -174.600; -545.000; -591.000
207.207; -145.500; -546.000; -443.000
207.353;  130.100;  185.000;  460.000
207.498;   -2.200;  196.000;   85.000
207.643; -100.700; -501.000; -370.000
207.789; -296.100;-1069.000; -910.000
207.934; -216.000; -665.000; -713.000
208.080;  -79.200; -154.000;   66.000
208.225;   -6.700;  -22.000;  -57.000
208.370; -191.700; -727.000; -619.000
208.516; -148.800; -741.000; -487.000
208.661;  -58.500; -127.000;  -69.000
208.806;  -33.100; -165.000; -171.000
208.952; -278.900;-1044.000; -731.000
209.097;  144.400;  378.000;  349.000
209.242; -122.000; -307.000; -382.000
209.387;  107.300;  392.000;  350.000
209.533; -124.900; -321.000; -350.000
209.678;  166.600;  472.000;  543.000
209.823; -102.900; -408.000; -310.000
209.969; -215.100; -860.000; -757.000
210.114; -248.400; -907.000; -719.000
210.259; -239.100; -939.000; -889.000
210.404;  -13.800; -171.000;  103.000
210.549;   43.200;  108.000;    3.000
210.695;  -78.700;   -3.000;  -95.000
210.840;   74.800;   94.000;   67.000
210.985; -172.100; -484.000; -303.000
211.130;  155.400;  268.000;  406.000
211.275;   35.000;  207.000;  199.000
211.420; -118.600; -300.000; -289.000
211.566; -164.200; -536.000; -489.000
211.711;   67.400;  218.000;  157.000
211.856; -146.500; -545.000; -519.000
212.001;   14.000;  151.000;   44.000
212.146;   -0.200;  153.000;   49.000
212.291;  -30.100; -210.000; -186.000
212.436;  -59.600; -280.000;   -6.000
212.581; -198.800; -685.000; -653.000
212.726; -156.400; -487.000; -538.000
212.871; -107.400; -552.000; -217.000
213.016; -333.300;-1172.000;-1029.000
213.161;  135.200;  406.000;  291.000
213.306; -177.100; -435.000; -577.000
213.451; -236.200; -778.000; -689.000
213.596; -117.400; -455.000; -347.000
213.741;  -94.800; -448.000; -538.000
213.886; -179.900; -498.000; -517.000
214.031;  -32.200; -294.000; -124.000
214.176; -144.600; -408.000; -341.000
214.321;  -43.300; -296.000; -157.000
214.466;  -91.700; -163.000;  -43.000
214.611;    2.300;  -61.000;  -10.000
214.756; -288.100; -948.000; -858.000
214.901;  -54.200; -388.000; -226.000
215.046; -287.600; -797.000; -825.000
215.191;   40.000;  128.000;   35.000
215.336;  -35.500; -157.000;  -19.000
215.480; -164.600; -684.000; -505.000
215.625;  -33.500; -175.000;  -19.000
215.770; -168.200; -757.000; -662.000
215.915;  -35.000;   -5.000;  -97.000
216.060;   26.600; -113.000;  -21.000
216.205; -231.000; -731.000; -779.000
216.349; -148.600; -470.000; -533.000
216.494; -303.800; -939.000; -867.000
216.639; -215.500; -823.000; -888.000
216.784; -181.700; -577.000; -525.000
216.929;  119.900;  392.000;  281.000
217.073;  -34.600; -244.000;  -31.000
217.218;   16.400;   78.000;  -47.000
217.363; -199.300; -656.000; -618.000
217.507; -175.200; -623.000; -588.000
217.652; -278.600; -845.000; -874.000
217.797; -192.900; -708.000; -659.000
217.942; -270.500; -856.000; -720.000
218.086;  194.300;  608.000;  539.000
218.231;  -52.200; -174.000;  -26.000
218.376;  -61.300; -337.000; -229.000
218.520;  -32.200;  -41.000;   96.000
218.665;  -50.600; -338.000; -204.000
218.810; -115.600; -275.000; -233.000
218.954;   32.900;  201.000;   35.000
219.099; -250.700; -713.000; -963.000
219.243; -117.500; -589.000; -554.000
219.388;  -73.300; -264.000; -136.000
219.532;  -15.200; -116.000; -116.000
219.677; -188.500; -564.000; -521.000
219.822;   -8.700;   33.000;   89.000
219.966;   -1.800;   17.000;  -99.000
220.111;  -69.500; -328.000;  -40.000
220.255; -226.400; -797.000; -750.000
220.400;  -24.700; -180.000; -146.000
220.544; -149.300; -516.000; -450.000
220.689; -123.200; -422.000; -451.000
220.833;  -57.100; -123.000;  -58.000
220.978;  -88.400; -393.000; -563.000
221.122;   57.200;  319.000;  307.000
221.267; -258.300; -906.000; -837.000
221.411; -156.800; -478.000; -394.000
221.555;   -2.200; -104.000;  -23.000
221.700; -119.600; -329.000; -222.000
221.844;  115.600;  255.000;  272.000
221.989;  -86.200; -328.000; -311.000
222.133;  -89.100; -289.000; -307.000
222.277;  -23.800;    5.000;   78.000
222.422;   55.700;  227.000;  113.000
222.566;  -96.500; -381.000; -214.000
222.711; -115.700; -414.000; -479.000
222.855; -170.700; -643.000; -586.000
222.999; -185.800; -642.000; -717.000
223.144;  -73.500; -195.000; -194.000
223.288;  126.000;  423.000;  251.000
223.432;    9.800;  184.000;  230.000
223.576;   33.500;  152.000;  -21.000
223.721;   82.500;  364.000;  273.000
223.865; -126.800; -472.000; -475.000
224.009;  448.300; 1673.000; 1631.000
224.153; -160.900; -660.000; -671.000
224.298; -156.900; -531.000; -489.000
224.442;    6.000;  -74.000;  -33.000
224.586;  -38.700; -169.000; -106.000
224.730; -198.400; -858.000; -670.000
224.875; -240.400; -739.000; -688.000
225.019;   75.000;  102.000;  188.000
225.163;  128.100;  208.000;  341.000
225.307;   55.100;   97.000;  -91.000
225.451;   79.300;  360.000;  481.000
225.595;   41.500;  264.000;  176.000
225.739;  -46.500; -170.000;  -94.000
225.884;   -5.900;   86.000;    5.000
226.028; -216.100; -760.000; -626.000
226.172;  -52.500; -260.000; -273.000
226.316; -249.100; -941.000; -902.000
226.460; -128.700; -645.000; -493.000
226.604; -130.100; -406.000; -400.000
226.748; -201.600; -836.000; -733.000
226.892;  -91.600; -227.000; -181.000
227.036;  -70.600; -537.000; -447.000
227.180; -147.900; -551.000; -375.000
227.324; -129.600; -561.000; -580.000
227.468; -258.200; -819.000; -717.000
227.612;   28.100;  242.000;  -28.000
227.756; -254.100; -845.000; -698.000
227.900;  130.900;  342.000;  441.000
228.044; -124.500; -509.000; -290.000
228.188;  130.900;  448.000;  568.000
228.332; -180.800; -546.000; -472.000
228.476;  -68.100; -223.000; -149.000
228.620;  -84.600; -210.000; -150.000
228.764;  157.200;  431.000;  349.000
228.908;  -34.700; -155.000;   30.000
229.052; -112.200; -615.000; -528.000
229.195;  -28.500; -172.000;   13.000
229.339;  -56.200; -235.000; -305.000
229.483;  -65.700;    5.000; -162.000
229.627;  -19.600; -156.000;  139.000
229.771; -103.100; -218.000; -294.000
229.915;    6.100;  230.000;   79.000
230.059; -221.600; -648.000; -663.000
230.202;  -74.900; -370.000; -317.000
230.346;  -38.400; -107.000;  107.000
230.490;  -96.400; -489.000; -521.000
230.634; -233.100; -736.000; -553.000
230.777;  151.600;  478.000;  509.000
230.921;  -84.000; -450.000; -359.000
231.065;  -69.700; -246.000; -286.000
231.209;   82.300;  261.000;  265.000
231.352;   49.800;   54.000;   40.000
231.496;   32.200;  568.000;  188.000
231.640; -188.000; -693.000; -621.000
231.783;  133.000;  546.000;  525.000
231.927;  -92.400; -294.000; -365.000
232.071; -282.700; -962.000; -736.000
232.214; -243.400; -980.000; -764.000
232.358; -203.000; -683.000; -599.000
232.502;   24.500;  -19.000;    7.000
232.645; -304.400;-1090.000; -927.000
232.789;  -37.100; -257.000; -218.000
232.933;  -98.000; -407.000; -224.000
233.076; -272.400;-1038.000; -897.000
233.220; -260.100; -752.000; -777.000
233.363; -172.800; -669.000; -477.000
233.507;  106.800;  371.000;  129.000
233.650; -181.800; -764.000; -834.000
233.794;   96.100;  438.000;  461.000
233.938; -123.400; -530.000; -362.000
234.081;  -51.700;  -93.000;   31.000
234.225; -144.400; -631.000; -539.000
234.368; -226.400; -773.000; -723.000
234.512;  -82.600; -385.000; -299.000
234.655; -204.600; -582.000; -555.000
234.798; -150.300; -493.000; -466.000
234.942; -288.900; -884.000;-1002.000
235.085; -147.800; -651.000; -443.000
235.229; -185.200; -405.000; -410.000
235.372; -106.600; -247.000; -191.000
235.516; -133.700; -397.000; -321.000
235.659;   62.600;   92.000;  121.000
235.802;  -30.300;  -38.000;  -22.000
235.946;   85.300;  335.000;  215.000
236.089;   55.000;  126.000;  250.000
236.233;  148.600;  275.000;  298.000
236.376; -121.500; -235.000; -378.000
236.519; -102.000; -297.000; -319.000
236.663;  -68.300; -215.000; -117.000
236.806; -264.900;-1029.000; -999.000
236.949;  133.600;  543.000;  431.000
237.092;  120.600;  412.000;  391.000
237.236; -199.400; -589.000; -502.000
237.379;  131.100;  352.000;  428.000
237.522; -262.300; -879.000; -768.000
237.666;  -38.700; -271.000;   18.000
237.809; -278.500; -851.000; -823.000
237.952;  120.700;  469.000;  271.000
238.095; -129.600; -447.000; -442.000
238.238;  208.600;  688.000;  700.000
238.382;  -10.400;  166.000;  103.000
238.525; -148.900; -598.000; -511.000
238.668; -306.200;-1060.000; -985.000
238.811; -171.400; -638.000; -643.000
238.954; -139.000; -483.000; -334.000
239.097;  187.600;  617.000;  664.000
239.241;   52.700;  394.000;  326.000
239.384;  -31.900; -254.000; -214.000
239.527; -129.300; -424.000; -224.000
239.670; -294.400; -994.000;-1091.000
239.813; -252.400; -696.000; -658.000
239.956;  175.200;  579.000;  473.000
240.099; -267.900; -778.000; -725.000
240.242;  158.300;  428.000;  432.000
240.385;  110.200;  466.000;  450.000
240.528; -139.500; -706.000; -473.000
240.671;   31.000;  189.000;  134.000
240.814;  -73.300; -441.000; -158.000
240.957; -201.300; -767.000; -578.000
241.100; -161.600; -779.000; -755.000
241.243; -325.800;-1234.000; -893.000
241.386; -121.500; -508.000; -379.000
241.529; -184.800; -735.000; -547.000
241.672; -118.700; -566.000; -495.000
241.815; -251.300; -832.000; -808.000
241.958;  -21.400; -125.000; -182.000
242.101; -199.800; -545.000; -390.000
242.244;  -63.000; -270.000; -325.000
242.387;  -93.400; -304.000; -246.000
242.530;  135.500;  470.000;  134.000
242.673;  -88.200; -381.000; -309.000
242.815; -254.500; -925.000; -899.000
242.958; -159.400; -482.000; -381.000
243.101;    9.700;  132.000;  187.000
243.244; -175.400; -564.000; -521.000
243.387;  -57.100; -313.000; -316.000
243.530; -197.900; -657.000; -674.000
243.672;  -11.200;   43.000;  -92.000
243.815; -116.200; -355.000; -283.000
243.958;   17.500;   98.000;  -26.000
244.101;   -4.100;   59.000;  -16.000
244.243;  -10.200;  -47.000;  101.000
244.386; -246.400; -761.000; -630.000
244.529;  -38.400; -132.000; -139.000
244.672; -334.300;-1154.000; -951.000
244.814; -201.900; -621.000; -794.000
244.957; -145.500; -380.000; -304.000
245.100; -153.400; -489.000; -489.000
245.242; -141.000; -387.000; -374.000
245.385;  -11.700;  -59.000;  -39.000
245.528; -285.900; -871.000; -705.000
245.670;  215.900;  612.000;  634.000
245.813; -204.500; -599.000; -547.000
245.956;  -45.500; -324.000; -275.000
246.098; -200.000; -508.000; -650.000
246.241;   35.900;  194.000;   48.000
246.383;  -53.800; -119.000;  -73.000
246.526; -157.700; -454.000; -525.000
246.669; -236.900; -889.000; -780.000
246.811;  120.200;  172.000;   -1.000
246.954; -138.000; -512.000; -426.000
247.096;  -18.800;  -84.000;   -6.000
247.239; -166.000; -482.000; -445.000
247.381; -168.600; -647.000; -488.000
247.524;  122.800;  645.000;  679.000
247.666;   10.900;   58.000;   11.000
247.809; -236.000; -887.000; -691.000
247.951;   -4.100;  -75.000;  138.000
248.094;   39.000;  432.000;  308.000
248.236; -337.700;-1262.000;-1238.000
248.378;  -13.200; -356.000;  -81.000
248.521;  -41.000; -334.000; -337.000
248.663; -111.400; -236.000; -267.000
248.806;  -45.500; -300.000; -266.000
248.948; -216.100; -886.000; -763.000
249.090;  -80.600; -428.000; -398.000
249.233; -123.200; -344.000; -381.000
249.375; -129.600; -474.000; -451.000
249.518;  -29.000;  -83.000; -133.000
249.660;   14.700; -103.000;    3.000
249.802; -381.900;-1303.000;-1189.000
249.945; -141.400; -612.000; -540.000
250.087; -271.000; -834.000; -768.000
250.229;  -86.500; -362.000; -480.000
250.371; -162.100; -494.000; -439.000
250.514;  -97.200; -310.000; -244.000
250.656;  -25.500;   69.000;  102.000
250.798; -237.900; -849.000; -800.000
250.940; -158.700; -322.000; -322.000
251.083;  -53.300; -335.000; -111.000
251.225;   94.600;  338.000;  310.000
251.367;  -79.900; -274.000; -373.000
251.509; -113.800; -265.000; -210.000
251.651; -188.200; -731.000; -671.000
251.794;   82.800;  538.000;  632.000
251.936; -224.100; -821.000; -747.000
252.078; -172.000; -540.000; -461.000
252.220; -133.000; -645.000; -477.000
252.362;  161.600;  344.000;  462.000
252.504; -117.300; -677.000; -584.000
252.646; -241.900; -875.000; -722.000
252.788;   13.300;   14.000; -128.000
252.931;  -39.200; -257.000; -253.000
253.073; -124.600; -376.000; -317.000
253.215;  -29.600;  141.000;  122.000
253.357;  -26.200;   82.000; -153.000
253.499; -150.200; -374.000; -234.000
253.641; -210.800; -749.000; -594.000
253.783; -197.700; -609.000; -527.000
253.925; -161.000; -586.000; -591.000
254.067; -230.600; -744.000; -667.000
254.209;  -20.400; -391.000; -259.000
254.351; -297.000; -865.000; -883.000
254.493; -109.000; -441.000; -417.000
254.635; -238.800; -936.000; -818.000
254.777; -159.800; -752.000; -687.000
254.918; -192.000; -512.000; -430.000
255.060; -121.900; -551.000; -395.000
255.202; -175.700; -473.000; -261.000
255.344; -149.800; -658.000; -455.000
255.486; -185.000; -471.000; -406.000
255.628; -231.100; -780.000; -781.000
255.770; -189.800; -676.000; -536.000
255.912; -112.100; -559.000; -468.000
256.053; -195.000; -730.000; -508.000
256.195;  325.100; 1008.000;  903.000
256.337; -254.000; -861.000; -595.000
256.479;  164.400;  532.000;  416.000
256.621; -133.500; -394.000; -212.000
256.762; -211.800; -789.000; -742.000
256.904;   88.800;  485.000;  487.000
257.046;  -78.400; -381.000; -271.000
257.188; -109.900; -351.000; -264.000
257.329; -129.300; -525.000; -464.000
257.471; -253.700; -939.000; -807.000
257.613; -111.400; -584.000; -498.000
257.755; -306.500;-1073.000; -982.000
257.896;   82.000;  286.000;  392.000
258.038; -140.900; -403.000; -352.000
258.180;  -65.900; -354.000; -279.000
258.321; -177.800; -581.000; -457.000
258.463;  -13.000;  -71.000;  133.000
258.605; -162.200; -562.000; -570.000
258.746; -239.000; -886.000; -772.000
258.888; -325.300;-1026.000;-1020.000
259.029;   82.900;  121.000;   -8.000
259.171; -195.200; -614.000; -550.000
259.313;   18.100;  -49.000;  -47.000
259.454; -161.400; -536.000; -414.000
259.596; -106.000; -483.000; -390.000
259.737; -157.500; -590.000; -474.000
259.879;   98.800;  217.000;  311.000
260.020;  163.300;  901.000;  636.000
260.162;  -47.900; -146.000; -253.000
260.303; -275.800; -768.000; -687.000
260.445; -161.300; -609.000; -613.000
260.586;   58.400;  392.000;  157.000
260.728;  -82.100; -360.000; -248.000
260.869; -146.700; -350.000; -343.000
261.011;  202.500;  706.000;  537.000
261.152; -129.400; -479.000; -319.000
261.293; -171.600; -576.000; -595.000
261.435;  -51.900; -219.000; -184.000
261.576;  -90.500; -455.000; -325.000
261.718;  115.800;  420.000;  470.000
261.859; -246.200; -940.000; -949.000
262.000; -295.200; -951.000;-1016.000
262.142;  -11.700;  -52.000;  -60.000
262.283; -232.700; -808.000; -691.000
262.424; -170.400; -666.000; -625.000
262.566; -325.800;-1161.000; -983.000
262.707; -222.400; -840.000; -830.000
262.848; -268.500; -769.000; -726.000
262.990;  -91.600; -362.000; -345.000
263.131;  162.600;  650.000;  681.000
263.272;  -13.400;  -61.000;  -41.000
263.413; -213.900; -589.000; -561.000
263.555; -110.400; -669.000; -143.000
263.696; -193.400; -550.000; -641.000
263.837; -102.300; -449.000; -551.000
263.978;  -17.700;   -5.000;  -77.000
264.119;  -73.700; -283.000; -264.000
264.261; -240.800; -847.000; -630.000
264.402;   -0.900;   33.000;   40.000
264.543; -155.300; -509.000; -524.000
264.684;   25.300;   61.000;  -50.000
264.825; -161.700; -816.000; -538.000
264.966;    3.100;  -84.000;  -67.000
265.107; -235.400; -646.000; -670.000
265.248; -252.300; -825.000; -812.000
265.390;    1.600;  152.000;   -9.000
265.531;  -17.400; -238.000; -107.000
265.672; -195.200; -557.000; -630.000
265.813;  164.300;  563.000;  439.000
265.954; -318.600; -959.000; -940.000
266.095;  -29.400; -372.000; -322.000
266.236; -206.900; -686.000; -548.000
266.377;  -72.500; -243.000; -297.000
266.518; -153.200; -619.000; -547.000
266.659;   69.600;  170.000;  268.000
266.800;   10.700;   83.000;   85.000
266.941; -131.800; -487.000; -478.000
267.082;   21.400;  354.000;   99.000
267.223; -105.500; -344.000; -273.000
267.364; -261.000; -892.000; -686.000
267.504;    1.400;    3.000;  135.000
267.645;   -2.900;  160.000;   67.000
267.786;  -81.700; -147.000;  -86.000
267.927; -147.300; -473.000; -379.000
268.068;  -55.000; -186.000;  -61.000
268.209; -107.000; -175.000; -413.000
268.350; -122.800; -388.000; -532.000
268.490; -186.200; -648.000; -521.000
268.631;  122.800;  127.000;  225.000
268.772; -242.200; -874.000; -647.000
268.913;  -91.900; -328.000; -476.000
269.054;  -18.700; -117.000;   12.000
269.194;  -77.800; -418.000; -402.000
269.335; -312.700;-1137.000;-1074.000
269.476;  -20.300;   33.000;  -35.000
269.617; -102.900; -347.000; -392.000
269.757; -187.500; -713.000; -646.000
269.898; -231.700; -856.000; -613.000
270.039;  -96.800; -415.000; -405.000
270.180; -306.700; -952.000; -816.000
270.320;  -54.800; -190.000; -250.000
270.461;  -65.900; -277.000; -249.000
270.602;  -20.000; -186.000; -156.000
270.742; -266.900; -868.000; -943.000
270.883;  -98.900; -442.000; -390.000
271.023; -121.800; -358.000; -357.000
271.164; -141.500; -607.000; -528.000
271.305; -197.400; -666.000; -654.000
271.445; -160.700; -722.000; -683.000
271.586; -135.900; -462.000; -283.000
271.726;  -69.200; -397.000; -322.000
271.867; -135.900; -594.000; -534.000
272.008;  347.700; -473.000; -285.000
272.148;  239.200;  462.000;  468.000
272.289;   57.600; -113.000; -181.000
272.429;   31.700;   19.000;  185.000
272.570; -166.200; -633.000; -737.000
272.710; -213.400; -825.000; -775.000
272.851;  -22.200;  113.000; -130.000
272.991; -362.100;-1173.000;-1077.000
273.131; -132.700; -419.000; -459.000
273.272; -195.500; -683.000; -723.000
273.412;   -1.500; -143.000;  -31.000
273.553; -124.800; -488.000; -507.000
273.693;  306.500;  913.000;  858.000
273.834; -216.400; -894.000; -692.000
273.974; -145.600; -664.000; -615.000
274.114; -238.100; -772.000; -560.000
274.255;  190.000;  414.000;  373.000
274.395;   10.200; -180.000; -125.000
274.535;   89.700;  199.000;  350.000
274.676;   66.700;  225.000;   94.000
274.816;   38.600;  110.000;   34.000
274.956; -161.700; -624.000; -690.000
275.097; -160.400;-1014.000; -922.000
275.237; -240.900; -913.000; -803.000
275.377; -186.100; -778.000; -689.000
275.517; -300.700; -878.000; -937.000
275.658; -103.400; -590.000; -555.000
275.798; -142.900; -606.000; -413.000
275.938;   75.900;  215.000;  323.000
276.078; -177.400; -626.000; -395.000
276.218;   42.500;   99.000;  104.000
276.359; -277.400;-1026.000;-1024.000
276.499; -158.800; -605.000; -446.000
276.639;  -81.400; -305.000; -151.000
276.779;  -70.400; -475.000; -357.000
276.919; -230.600; -783.000; -624.000
277.059;    8.600; -261.000; -212.000
277.199;  -75.500; -357.000; -259.000
277.340;  126.600;  287.000;  175.000
277.480; -249.100; -840.000; -693.000
277.620;   83.000;  192.000;   16.000
277.760; -442.200;-1533.000;-1294.000
277.900;   56.000;  113.000;   33.000
278.040;   59.500;  137.000;  159.000
278.180;   82.500;  270.000;  170.000
278.320;    9.600;   21.000;   56.000
278.460; -116.200; -443.000; -469.000
278.600; -171.600; -708.000; -598.000
278.740;  130.700;  448.000;  224.000
278.880; -140.100; -768.000; -791.000
279.020;   37.600; -194.000; -144.000
279.160; -225.700; -672.000; -595.000
279.300; -247.600; -926.000; -873.000
279.440; -200.600; -709.000; -622.000
279.579;  -67.400;-1014.000; -929.000
279.719; -116.000; -410.000; -394.000
279.859;  129.200;   -4.000;   41.000
279.999;   67.700; -208.000;  101.000
280.139;  -20.400; -435.000; -387.000
280.279; -145.600; -708.000; -745.000
280.419;   -8.800; -229.000; -147.000
280.559;  -92.000; -259.000; -180.000
280.698; -185.900; -790.000; -639.000
280.838; -223.900; -778.000; -800.000
280.978; -198.300; -846.000; -790.000
281.118; -232.000; -811.000; -704.000
281.257;   32.700;   24.000;    6.000
281.397; -259.300;-1094.000; -960.000
281.537; -171.500; -599.000; -712.000
281.677;  -45.600; -150.000; -101.000
281.816; -182.900; -700.000; -630.000
281.956;  -64.400; -193.000; -257.000
282.096;  -98.400; -539.000; -396.000
282.235; -216.300; -672.000; -638.000
282.375;  -19.900; -243.000;  -98.000
282.515; -190.700; -715.000; -707.000
282.654;   76.500;   29.000;  106.000
282.794;   57.700;  388.000;  244.000
282.934;  -95.200; -530.000; -491.000
283.073; -283.800;-1030.000; -857.000
283.213; -121.600; -460.000; -467.000
283.353;  -69.100; -408.000; -349.000
283.492;  -38.500; -264.000; -296.000
283.632;  -88.900; -254.000; -168.000
283.771; -187.500; -859.000; -730.000
283.911; -110.400; -369.000; -260.000
284.050; -196.300; -794.000; -748.000
284.190; -329.200;-1229.000;-1096.000
284.329; -277.200;-1055.000; -964.000
284.469; -176.500; -516.000; -591.000
284.608; -108.900; -559.000; -598.000
284.748; -160.800; -614.000; -570.000
284.887;  -11.000;  -87.000;  -20.000
285.027; -257.800; -844.000; -892.000
285.166;  -34.600; -192.000; -249.000
285.306;   18.100; -116.000;  -33.000
285.445;  -53.100; -229.000; -343.000
285.584; -198.800; -630.000; -494.000
285.724;  -49.600; -282.000; -322.000
285.863; -248.100; -857.000; -507.000
286.002;  -78.500; -366.000; -276.000
286.142; -227.200; -715.000; -622.000
286.281; -147.300; -525.000; -493.000
286.420; -167.800; -554.000; -417.000
286.560;  231.300;  653.000;  623.000
286.699; -295.400; -958.000; -912.000
286.838; -139.600; -590.000; -591.000
286.978; -175.400; -533.000; -537.000
287.117; -268.000;-1085.000; -950.000
287.256;  -47.800; -228.000; -211.000
287.395;  -97.200; -197.000; -378.000
287.535;  -87.900; -370.000; -298.000
287.674; -152.100; -509.000; -484.000
287.813;  146.100;  661.000;  533.000
287.952; -258.900;-1010.000; -871.000
288.091; -287.800;-1049.000; -915.000
288.231;   38.000;   13.000;   15.000
288.370; -366.600;-1217.000;-1200.000
288.509; -183.900; -728.000; -645.000
288.648; -173.300; -770.000; -548.000
288.787;  -42.900; -243.000;  -87.000
288.926; -138.500; -454.000; -475.000
289.065;  278.300;  859.000;  672.000
289.204; -105.300; -377.000; -217.000
289.344; -164.600; -791.000; -690.000
289.483;   57.800;  416.000;  304.000
289.622;  -24.100; -291.000; -149.000
289.761;  -35.400; -309.000; -166.000
289.900; -193.000; -785.000; -626.000
290.039;  -30.000;  -12.000;  -95.000
290.178;  -72.200; -274.000; -180.000
290.317; -171.900; -618.000; -479.000
290.456; -123.000; -463.000; -451.000
290.595; -305.000; -961.000; -833.000
290.734; -242.100; -904.000; -891.000
290.873; -117.000; -456.000; -420.000
291.011; -170.600; -833.000; -843.000
291.150; -205.200; -770.000; -682.000
291.289;  -20.700; -343.000; -110.000
291.428; -183.400; -599.000; -480.000
291.567;  -92.700; -370.000; -442.000
291.706;  -20.800;  109.000;  154.000
291.845; -195.300; -597.000; -505.000
291.984; -319.500;-1234.000;-1061.000
292.122;  185.200;  602.000;  582.000
292.261;  102.900;  620.000;  463.000
292.400;   34.300; -144.000;  211.000
292.539; -257.200; -959.000; -813.000
292.678;  -37.600; -325.000; -300.000
292.816; -315.900;-1136.000; -965.000
292.955; -178.800; -844.000; -684.000
293.094;  -85.600; -173.000; -337.000
293.233;  -65.000; -556.000; -400.000
293.371;  -78.800; -225.000;  -84.000
293.510; -219.400; -866.000; -780.000
293.649; -238.100; -959.000; -924.000
293.787; -122.600;-1083.000;-1012.000
293.926;   -4.700; -113.000;  -32.000
294.065;  -67.200; -379.000; -290.000
294.203;   89.800;  298.000;  406.000
294.342;   60.300;   74.000;  156.000
294.481;11998.500;51180.000; -836.000
294.619;  -40.100; -425.000; -582.000
294.758; -277.800;-1230.000;-1137.000
294.896;  179.700; -125.000;    5.000
295.035; -243.100;-1040.000;-1006.000
295.174; -247.600;-1082.000; -954.000
295.312;  -70.100; -323.000; -203.000
295.451;    3.600; -307.000; -428.000
295.589; -109.700; -389.000; -518.000
295.728;   91.100; -292.000; -165.000
295.866;    6.700;  -36.000;  -51.000
296.005; -124.400; -584.000; -341.000
296.143; -125.700; -558.000; -596.000
296.282; -208.500; -957.000; -881.000
296.420; -199.100; -657.000; -557.000
296.559; -163.400; -892.000; -633.000
296.697;   28.000; -847.000; -665.000
296.835;  103.400;-1141.000;-1002.000
296.974;  117.400;  -23.000;   39.000
297.112;   22.900; -443.000; -504.000
297.251; -160.900; -815.000; -755.000
297.389;  184.400; -576.000; -438.000
297.527;   61.400; -145.000;  -83.000
297.666; -110.100; -486.000; -438.000
297.804; -106.600; -404.000; -264.000
297.942;   -3.200; -136.000; -161.000
298.081;  -15.700; -183.000;   63.000
298.219;   99.000;  -17.000;  -19.000
298.357;   60.900; -144.000;  -71.000
298.495;   67.100; -810.000; -812.000
298.634;  132.000;  245.000;  219.000
298.772;  143.200; -220.000; -338.000
298.910;  -80.800; -309.000; -182.000
299.048;   -2.500; -130.000; -153.000
299.187;  -58.500; -350.000; -250.000
299.325;   53.600;   52.000;  122.000
299.463;   57.000; -389.000; -299.000
299.601;  236.100; -327.000; -271.000
299.739; -242.000; -908.000; -883.000
299.877; -137.300; -791.000; -703.000
300.016; -114.700;-1095.000; -935.000
300.154;  300.900;  -19.000; -161.000
300.292;   89.400; -428.000; -348.000
300.430;   65.600; -408.000; -291.000
300.568; -228.200; -940.000; -874.000
300.706;  -75.400; -366.000; -469.000
300.844; -192.900;-1108.000; -979.000
300.982;  254.800;  246.000;  282.000
301.120; -215.100; -965.000; -866.000
301.258; -136.600; -812.000; -705.000
301.396;  102.600;  104.000;  -41.000
301.534;  155.000; -218.000; -293.000
301.672;   -7.500; -664.000; -521.000
301.810;   36.500; -613.000; -545.000
301.948;  204.800;   53.000;  149.000
302.086; 1097.100; -250.000;  -32.000
302.224; 1710.400; -610.000; -585.000
302.362;   96.400; -558.000; -622.000
302.500;  -59.600; -923.000; -893.000
302.638;  224.000;  128.000;  245.000
302.776;   -5.300; -352.000; -408.000
302.913;   92.500;  447.000;  236.000
303.051;   16.300;  -86.000;  -23.000
303.189;  113.900;   90.000;  118.000
303.327;  -62.000; -341.000; -256.000
303.465; -139.300; -832.000; -588.000
303.603; -213.400; -805.000; -604.000
303.740;  239.800;  417.000;  241.000
303.878;    0.200; -800.000; -759.000
304.016; -135.000; -915.000; -790.000
304.154; -267.600;-1123.000;-1152.000
304.291;  -71.300; -505.000; -554.000
304.429;   29.100;  102.000;   74.000
304.567; -231.100; -908.000; -893.000
304.705; -122.000; -408.000; -515.000
304.842;  165.700; -616.000; -540.000
304.980;  113.900;  215.000;   35.000
305.118;   97.200; -367.000; -365.000
305.255; -145.400; -945.000; -927.000
305.393;  135.800;  178.000;  239.000
305.531; -213.800;-1173.000; -956.000
305.668; -116.200; -663.000; -582.000
305.806;  185.200; -358.000; -439.000
305.943;  168.500; -629.000; -637.000
306.081;  107.200; -378.000; -267.000
306.219; -184.400; -863.000; -748.000
306.356;   27.800;  158.000;   27.000
306.494;  268.800;  981.000;  761.000
306.631;   12.200;  -11.000;  -55.000
306.769;  -15.800; -613.000; -485.000
306.906;  -19.800; -284.000; -258.000
307.044; -104.800; -473.000; -488.000
307.181; -105.700; -410.000; -332.000
307.319;   41.500;  112.000;   87.000
307.456; -365.000;-1191.000;-1153.000
307.594; -179.500; -980.000; -727.000
307.731;  -21.000; -371.000; -164.000
307.868;   37.000;  -15.000;   20.000
308.006; -243.300; -961.000; -847.000
308.143; -102.200; -618.000; -330.000
308.281;  398.800;  -37.000; -254.000
308.418;   51.500; -748.000; -640.000
308.555; -142.700; -400.000; -250.000
308.693;  -97.000; -577.000; -573.000
308.830; -216.900; -712.000; -657.000
308.967;   14.700; -215.000;  -95.000
309.105;  -46.700; -507.000; -396.000
309.242;  104.200; -468.000; -367.000
309.379;  749.400; -577.000; -655.000
309.517;  -88.200; -936.000; -948.000
309.654; -190.700; -910.000; -734.000
309.791; -124.800; -662.000; -580.000
309.928; -199.500; -977.000; -914.000
310.065;  391.800;  819.000;  697.000
310.203;  -35.800; -825.000; -850.000
310.340;   50.300; -465.000; -321.000
310.477; -159.100; -412.000; -516.000
310.614; -102.600; -383.000; -473.000
310.751; -120.600; -427.000; -518.000
310.889;  -13.400;    1.000;   11.000
311.026; -298.100;-1161.000; -939.000
311.163;  -65.800; -386.000; -380.000
311.300; -115.500; -512.000; -479.000
311.437; -124.200; -658.000; -619.000
311.574; -319.000;-1226.000; -985.000
311.711; -118.600; -595.000; -433.000
311.848;  -70.100; -380.000; -388.000
311.985;   50.800;  270.000;   93.000
312.122; -227.200; -932.000; -762.000
312.259; -212.900; -941.000; -994.000
312.396; -154.600; -508.000; -551.000
312.533; -148.100; -812.000; -790.000
312.670; -242.200;-1070.000; -898.000
312.807;  -67.600; -352.000; -367.000
312.944; -124.400; -513.000; -611.000
313.081;  -21.500; -150.000; -415.000
313.218; -212.300;-1111.000; -867.000
313.355;   64.200; -531.000; -449.000
313.492;   11.200; -455.000; -292.000
313.629;  313.600;  815.000;  735.000
313.766; -299.400;-1176.000;-1008.000
313.902;   -3.500; -186.000;   21.000
314.039;  -76.400; -372.000; -289.000
314.176;  125.200;  286.000;  192.000
314.313; -131.600; -569.000; -473.000
314.450; -118.700; -788.000; -684.000
314.587; -103.500; -468.000; -480.000
314.723;   36.100;  -78.000;  130.000
314.860;  124.200;  318.000;  332.000
314.997;   89.400;  223.000;  142.000
315.134;  -61.700; -385.000; -368.000
315.270;  -58.000; -480.000; -496.000
315.407; -246.700;-1094.000; -967.000
315.544;  -74.100; -657.000; -538.000
315.681; -102.000; -681.000; -565.000
315.817;   81.800; -133.000; -176.000
315.954;   22.400; -613.000; -392.000
316.091; -236.500;-1045.000;-1023.000
316.227;  -53.000;  -71.000; -179.000
316.364;   20.200;   23.000;    6.000
316.500;  -40.800; -113.000; -300.000
316.637;  -85.300; -181.000; -302.000
316.774; -202.900; -625.000; -358.000
316.910; -132.300; -598.000; -629.000
317.047; -141.900; -487.000; -351.000
317.183;  -79.200; -435.000; -566.000
317.320;  -36.400; -367.000; -321.000
317.456; -101.700; -733.000; -805.000
317.593; -181.400; -598.000; -641.000
317.729;   72.900;  168.000;  -67.000
317.866; -406.800;-1434.000;-1285.000
318.002; -107.500; -708.000; -948.000
318.139; -204.500; -883.000; -867.000
318.275; -175.000;-1003.000; -738.000
318.412; -125.400; -517.000; -336.000
318.548;  -59.000; -751.000; -720.000
318.685; -200.900; -985.000; -888.000
318.821; -168.500; -762.000; -735.000
318.957;  -27.400;   34.000;  -23.000
319.094;  150.300;  297.000;  154.000
319.230; -129.300; -756.000; -742.000
319.367;  214.400; -471.000; -520.000
319.503;   88.600; -538.000; -436.000
319.639; -174.900; -877.000; -793.000
319.775; -144.000; -750.000; -685.000
319.912;  -55.100; -424.000; -519.000
320.048; -177.900;-1184.000;-1184.000
320.184;  187.700;   59.000;   70.000
320.321; -106.200; -497.000; -467.000
320.457;  176.600;  475.000;  662.000
320.593; -161.700; -375.000; -382.000
320.729; -180.100; -732.000; -734.000
320.866; -155.200; -577.000; -635.000
321.002; -137.300; -759.000; -809.000
321.138;  -48.700; -135.000; -211.000
321.274;  135.200; -148.000; -115.000
321.410;  -65.000; -585.000; -353.000
321.546;  -62.700;-1011.000; -911.000
321.683;  118.800;  400.000;  185.000
321.819;   29.300;  -48.000; -117.000
321.955; -219.300; -743.000; -722.000
322.091;  -89.400; -585.000; -540.000
322.227;  -39.300; -382.000; -202.000
322.363;  -35.600; -320.000; -215.000
322.499; -102.200; -343.000; -331.000
322.635;  355.400;  636.000;  443.000
322.771;   34.100; -139.000;   12.000
322.907;  192.300;  129.000;  327.000
323.043;  -34.300; -115.000; -206.000
323.179;  -19.900; -394.000; -363.000
323.315;   33.400; -401.000; -371.000
323.451;  188.500; -328.000; -236.000
323.587;   90.700;  -60.000;  -77.000
323.723;   36.500; -682.000; -601.000
323.859;  -65.900; -258.000;  -76.000
323.995;  -39.000; -467.000; -409.000
324.131; -244.300; -967.000; -892.000
324.267;  -44.400; -254.000; -276.000
324.402; -278.600; -960.000; -983.000
324.538;   -4.600; -279.000; -104.000
324.674;   62.100;  164.000;   77.000
324.810;  273.700;  226.000;  308.000
324.946;   45.100; -810.000; -658.000
325.082; -100.000; -568.000; -475.000
325.217;    1.100;  -62.000;   16.000
325.353; -172.500; -764.000; -659.000
325.489; -194.500; -540.000; -506.000
325.625; -130.300; -579.000; -525.000
325.760;  122.600;  517.000;  376.000
325.896;  -46.700; -515.000; -702.000
326.032;  -56.800; -403.000; -352.000
326.168;  -98.000; -462.000; -369.000
326.303; -128.000; -352.000; -461.000
326.439;   13.000; -336.000; -276.000
326.575;   19.500; -190.000;  -29.000
326.710;   10.100; -156.000;  -30.000
326.846;  -10.700;  146.000;  103.000
326.982; -142.300; -530.000; -548.000
327.117; -138.500; -481.000; -442.000
327.253; -152.700; -745.000; -742.000
327.388; -332.900;-1137.000;-1153.000
327.524;  -96.500; -811.000; -578.000
327.659;  -19.000;  -58.000;  -22.000
327.795;   10.300;   69.000;   45.000
327.931; -168.400; -723.000; -499.000
328.066;   -0.700; -417.000; -276.000
328.202;  -17.300;   12.000; -129.000
328.337;  214.000;  957.000;  713.000
328.473;   -2.400;  -12.000;  -74.000
328.608;   -2.800; -256.000; -267.000
328.743; -161.800; -799.000; -664.000
328.879;   62.200;  214.000;  114.000
329.014;  -98.200; -102.000; -122.000
329.150; -154.200; -358.000; -483.000
329.285; -117.400; -465.000; -466.000
329.421;  -77.000; -548.000; -246.000
329.556;  -27.400;  -36.000;   85.000
329.691; -145.700; -633.000; -615.000
329.827; -160.400; -626.000; -480.000
329.962;  -42.400;  131.000; -301.000
330.097; -166.100; -673.000; -585.000
330.233;  -93.200; -410.000; -223.000
330.368; -217.500; -839.000; -628.000
330.503;    8.000;    3.000;   98.000
330.638;    5.800;  -93.000; -125.000
330.774; -109.200; -609.000; -530.000
330.909;  -73.000; -434.000; -244.000
331.044; -182.500; -714.000; -708.000
331.179; -342.300;-1217.000;-1109.000
331.315;   71.200;   77.000;   20.000
331.450;   70.400;  157.000;  285.000
331.585; -149.900; -805.000; -706.000
331.720; -158.500; -510.000; -460.000
331.855;   26.800;  -35.000; -102.000
331.990;  467.300;   62.000;  138.000
332.126;  274.000; -110.000;   71.000
332.261;  -23.700; -379.000; -265.000
332.396;   16.200; -135.000; -242.000
332.531; -195.700;-1074.000;-1031.000
332.666;   88.300; -519.000; -363.000
332.801; -210.700; -726.000; -807.000
332.936;  -25.400; -192.000; -122.000
333.071; -309.300; -870.000; -817.000
333.206;   96.000;  307.000;  379.000
333.341;   93.800;  344.000;  418.000
333.476; -136.900; -627.000; -623.000
333.611;  -88.900; -251.000; -173.000
333.746;  -36.500; -381.000; -464.000
333.881; -241.700; -973.000; -935.000
334.016; -219.700; -936.000; -917.000
334.151; -233.000; -746.000; -702.000
334.286;   71.200;  152.000;  186.000
334.421;  -12.600; -125.000; -178.000
334.556; -131.600; -611.000; -567.000
334.690; -161.800; -631.000; -577.000
334.825;  156.200;  381.000;   83.000
334.960; -119.700; -285.000; -413.000
335.095;   56.300;  135.000;  -91.000
335.230; -202.800; -722.000; -738.000
335.365; -275.700;-1084.000; -990.000
335.499; -271.200;-1108.000;-1037.000
335.634;   87.400;    9.000;  534.000
335.769; -190.000; -755.000; -720.000
335.904; -117.500; -603.000; -561.000
336.038; -127.500; -735.000; -657.000
336.173; -229.900;-1206.000;-1194.000
336.308;   -9.700; -116.000; -189.000
336.443;   59.400; -544.000; -634.000
336.577; -192.400; -936.000; -787.000
336.712;  126.700;   -4.000;  -12.000
336.847;  -80.500; -724.000; -607.000
336.981;  136.000; -272.000; -208.000
337.116;  555.200;  615.000;  501.000
337.250;  268.100; -434.000; -421.000
337.385;  432.800; -297.000; -208.000
337.520;  168.000; -632.000; -603.000
337.654;  -39.100; -215.000; -126.000
337.789; -215.200; -989.000; -933.000
337.923;  -70.000; -104.000; -205.000
338.058; -130.500; -673.000; -738.000
338.192;  -64.900; -611.000; -488.000
338.327;   40.800;  -18.000; -155.000
338.461; -102.400; -299.000; -469.000
338.596; -164.000; -780.000; -638.000
338.730; -194.600; -767.000; -803.000
338.865;  165.700;  -46.000; -140.000
338.999; -131.600; -846.000; -702.000
339.134;  -35.500; -634.000; -536.000
339.268;   -4.500; -741.000; -603.000
339.403;  671.700; -740.000; -775.000
339.537;  182.200; -894.000; -820.000
339.671; -193.600; -829.000; -813.000
339.806; -105.200; -556.000; -512.000
339.940;   45.200; -261.000; -235.000
340.074; -202.200; -685.000; -510.000
340.209;  -39.400; -351.000; -230.000
340.343; -185.300; -517.000; -573.000
340.477;  364.800;  998.000; 1036.000
340.612; -143.300;-1033.000; -900.000
340.746;  244.000; -199.000; -243.000
340.880; -172.300; -924.000; -785.000
341.014;    4.200;  -45.000; -154.000
341.149; -207.000; -756.000; -718.000
341.283; -186.000; -839.000; -754.000
341.417; -199.000;-1124.000; -938.000
341.551;  235.100; -768.000; -708.000
341.685;  -83.700; -633.000; -611.000
341.820;  -80.900; -562.000; -493.000
341.954;  -97.500; -218.000; -349.000
342.088; -269.900;-1102.000;-1019.000
342.222;  102.500;  565.000;  618.000
342.356;  -78.700; -395.000; -335.000
342.490; -192.200; -880.000; -841.000
342.624;  -33.500; -339.000; -242.000
342.758;    7.600; -364.000; -312.000
342.892; -100.400; -710.000; -585.000
343.026;  -49.300;  -58.000; -116.000
343.160;  -92.000; -426.000; -376.000
343.294; -152.200; -474.000; -337.000
343.428;  -17.000; -488.000; -448.000
343.562;  -17.600; -172.000;  -23.000
343.696;  -18.100; -385.000; -314.000
343.830;  -26.800; -362.000; -356.000
343.964;   39.300; -231.000; -168.000
344.098; 1571.100;  199.000;   70.000
344.232; 1370.100; -266.000; -127.000
344.366;  126.100; -567.000; -453.000
344.500;  127.500; -665.000; -744.000
344.634;   26.000; -324.000; -164.000
344.768;  -14.300; -531.000; -341.000
344.902;   61.300;  278.000;  256.000
345.035; -122.200; -556.000; -496.000
345.169; -248.100; -933.000; -656.000
345.303;  -43.400; -308.000; -482.000
345.437; -119.400; -826.000; -717.000
345.571; -118.400; -675.000; -594.000
345.704; -130.200; -309.000; -532.000
345.838;   22.200; -331.000; -284.000
345.972;  -76.900; -543.000; -495.000
346.106;  313.200; -179.000; -190.000
346.239;  766.300; -312.000; -243.000
346.373;   10.900; -343.000; -302.000
346.507; -274.100; -950.000; -962.000
346.640;  278.700;  -30.000;   13.000
346.774; -103.700; -650.000; -797.000
346.908;   -3.300; -138.000;  -11.000
347.041; -185.100; -646.000; -593.000
347.175;   31.300;  259.000;   27.000
347.309; -151.700; -698.000; -628.000
347.442; -181.200; -883.000; -732.000
347.576;  531.200;  670.000;  668.000
347.709;  377.800; -123.000;  -52.000
347.843; -219.700; -933.000; -825.000
347.976;   79.600;  235.000;  294.000
348.110; -371.500;-1268.000;-1186.000
348.243; -174.300; -679.000; -772.000
348.377;   47.700;  -26.000;   60.000
348.510;  153.700;  403.000;  540.000
348.644;  -70.100;  -37.000; -159.000
348.777;   54.000;  180.000;  191.000
348.911;  -80.400; -142.000; -112.000
349.044;  308.400;  471.000;  448.000
349.178;  261.800;-1069.000;-1006.000
349.311;  251.400;  141.000;  255.000
349.444;   -5.400; -927.000; -813.000
349.578;  -27.800; -347.000; -200.000
349.711; -213.500; -959.000; -862.000
349.845;   11.600; -661.000; -591.000
349.978; -303.100;-1224.000;-1137.000
350.111; -154.600; -546.000; -612.000
350.244; -166.700; -596.000; -700.000
350.378;   43.500; -392.000; -393.000
350.511; -101.200; -393.000; -426.000
350.644; -182.100; -808.000; -806.000
350.778;   29.000;  168.000;  104.000
350.911;   41.400;  134.000;  140.000
351.044; -169.000; -685.000; -615.000
351.177;  -31.600; -321.000; -281.000
351.310;  -27.600;    3.000; -131.000
351.444; -124.400; -888.000; -788.000
351.577;  226.100;  140.000;   90.000
351.710;  228.900;  593.000;  417.000
351.843;  -35.200; -165.000;  -77.000
351.976;   39.500;  149.000;  -79.000
352.109; -163.900; -621.000; -612.000
352.242;  -18.800; -464.000; -419.000
352.376; -105.700; -580.000; -636.000
352.509;  339.000; -437.000; -356.000
352.642;  -20.800; -654.000; -604.000
352.775;  130.000; -141.000;  -98.000
352.908; -192.000; -933.000; -904.000
353.041; -168.900; -814.000; -824.000
353.174;  -88.400; -551.000; -424.000
353.307; -139.000; -753.000; -764.000
353.440;  156.700;  541.000;  453.000
353.573; -203.600; -957.000;-1008.000
353.706; -126.000; -384.000; -558.000
353.839;  -11.600; -264.000; -220.000
353.971; -168.200; -657.000; -512.000
354.104; -170.600; -896.000; -835.000
354.237; -101.100; -627.000; -662.000
354.370; -169.000; -846.000; -879.000
354.503; -364.800;-1231.000;-1308.000
354.636;  -56.500; -529.000; -348.000
354.769; -254.300; -937.000; -860.000
354.902;   11.600; -230.000; -139.000
355.034;  -22.900; -164.000; -220.000
355.167;  -13.200; -262.000; -162.000
355.300; -184.900;-1061.000; -880.000
355.433; 1923.100;  -71.000;  -14.000
355.565; 2800.100; -402.000; -384.000
355.698;  742.100; -356.000; -296.000
355.831;  -19.700; -882.000; -801.000
355.964;  151.700; -285.000; -170.000
356.096; -188.500; -856.000; -843.000
356.229;   23.800; -523.000; -530.000
356.362;  594.300; -373.000; -266.000
356.494; 1081.600; -229.000; -162.000
356.627;  896.700;  269.000;  377.000
356.760; 1240.500;  120.000;   53.000
356.892; 1765.900; -286.000; -601.000
357.025; 1243.200;  403.000;  389.000
357.157; 1052.400; -167.000; -179.000
357.290; 1206.800; -856.000; -713.000
357.423;  328.900; -667.000; -556.000
357.555;  217.800; -217.000; -228.000
357.688;  199.800; -483.000; -364.000
357.820;  739.200; -870.000; -877.000
357.953; 6416.500; -563.000; -589.000
358.085; 1321.500; -632.000; -612.000
358.218; 1987.800;-1131.000; -932.000
358.350;  382.000;  -58.000;  312.000
358.483; -253.800;-1300.000;-1187.000
358.615;   -0.200;-1182.000;-1078.000
358.747; -144.700;-1187.000;-1058.000
358.880;   68.800; -810.000; -744.000
359.012;    8.300; -376.000; -202.000
359.145;  -31.900; -480.000; -511.000
359.277;   57.700; -962.000; -913.000
359.409; 5327.300;  536.000;  231.000
359.542; 1296.800; -738.000; -688.000
359.674;  152.200;   46.000;   13.000
359.806; -128.600; -565.000; -438.000
359.939;  -41.300; -617.000; -516.000
360.071;  -24.000; -583.000; -579.000
360.203;  -11.100; -411.000; -364.000
360.335;  102.400;  164.000;  -16.000
360.468;  372.800; -249.000; -307.000
360.600; 4204.900; -547.000; -454.000
360.732; 5202.700; -546.000; -423.000
360.864;  664.000;-1216.000;-1044.000
360.996;  504.300; -516.000; -554.000
361.129;   88.300; -389.000; -598.000
361.261;   66.500;  110.000; -113.000
361.393;  -25.800; -252.000; -214.000
361.525;  130.200;   94.000;  244.000
361.657;  -82.600; -821.000; -703.000
361.789;   29.800; -139.000; -155.000
361.921;  414.400; -642.000; -593.000
362.053;  511.000;  524.000;  541.000
362.185;  122.400;  288.000;   72.000
362.318; -157.000; -709.000; -705.000
362.450;  280.600;  294.000;  444.000
362.582;  198.300; -913.000; -870.000
362.714;  -75.000; -353.000; -332.000
362.846; -160.900; -606.000; -490.000
362.978; -271.500; -941.000; -811.000
363.109;  111.100; -161.000; -260.000
363.241;  827.200; -739.000; -749.000
363.373;  793.000; -649.000; -564.000
363.505; 1291.300; -186.000;  -91.000
363.637;  338.500; -787.000; -601.000
363.769; -233.500;-1067.000;-1080.000
363.901;  -96.600; -596.000; -654.000
364.033; -259.100;-1103.000;-1062.000
364.165;   30.900; -283.000; -283.000
364.296;  177.000; -316.000; -177.000
364.428;  121.700;-1344.000;-1220.000
364.560; -140.400; -679.000; -661.000
364.692;  -85.000; -738.000; -835.000
364.824;  482.100; -588.000; -456.000
364.955;  864.600; -402.000; -564.000
365.087; 1668.100;-1097.000; -852.000
365.219;   66.800; -686.000; -816.000
365.351; -122.300; -526.000; -572.000
365.482;  149.500;  300.000;  240.000
365.614;  -76.500; -402.000; -314.000
365.746; -166.100; -729.000; -752.000
365.877; -146.300; -706.000; -672.000
366.009;  559.700;  -35.000;  -62.000
366.141; -207.000;-1249.000;-1134.000
366.272; -186.700; -803.000; -719.000
366.404; -216.900;-1005.000; -874.000
366.535;   43.900; -139.000;  -12.000
366.667; -228.600; -644.000; -649.000
366.799;  126.500;  353.000;  203.000
366.930; -256.500; -862.000; -996.000
367.062;  253.800; -639.000; -613.000
367.193;  257.100; -872.000; -842.000
367.325;  -98.800; -580.000; -684.000
367.456;   71.800; -246.000;   31.000
367.588;  334.400; -371.000; -318.000
367.719;   59.100;  -44.000;  -45.000
367.851;   52.800; -222.000; -241.000
367.982; -135.400; -875.000; -732.000
368.113;  202.900; -475.000; -358.000
368.245; -198.400; -960.000; -841.000
368.376;  -18.800; -254.000; -302.000
368.508;  -52.200; -188.000; -263.000
368.639; -233.000;-1166.000;-1034.000
368.770;  -32.900; -670.000; -589.000
368.902; -108.600; -836.000; -926.000
369.033; -195.400; -906.000; -855.000
369.164;  -63.600; -720.000; -653.000
369.296; -184.500; -452.000; -601.000
369.427;   46.100; -209.000; -144.000
369.558;  -83.400; -593.000; -377.000
369.689; -141.000; -721.000; -569.000
369.821; -254.300; -951.000; -845.000
369.952;   -1.400;   42.000; -108.000
370.083;  -86.900; -229.000; -108.000
370.214; -140.100; -735.000; -650.000
370.345;   38.100;   65.000;   81.000
370.477; -153.900; -810.000; -790.000
370.608;  366.000; -328.000; -264.000
370.739; -126.000;-1233.000;-1292.000
370.870;  -88.500;-1102.000; -923.000
371.001;  192.600; -378.000; -467.000
371.132; -136.700; -754.000; -735.000
371.263;  -32.800;  -42.000; -148.000
371.394; -268.200; -841.000; -748.000
371.525;  142.400;  345.000;  225.000
371.657; -156.200; -808.000; -670.000
371.788;  158.000;  103.000;  199.000
371.919;  234.900; -384.000; -304.000
372.050; 6417.700;  -91.000; -156.000
372.181; 1788.600; -188.000; -294.000
372.311;  692.900;   42.000; -127.000
372.442;   52.500; -457.000; -451.000
372.573;  -15.700; -444.000; -340.000
372.704; -238.900;-1008.000; -980.000
372.835;  175.800; -228.000; -289.000
372.966; -139.800; -646.000; -554.000
373.097; -106.800; -575.000; -711.000
373.228;  -76.600; -717.000; -542.000
373.359;  256.600; -824.000; -536.000
373.490; 1636.000; -881.000; -727.000
373.620; 2005.900;-1001.000; -803.000
373.751; 3115.900; -332.000; -396.000
373.882; 1304.000; -663.000; -733.000
374.013;  117.800; -449.000; -262.000
374.143;  -30.300; -581.000; -659.000
374.274; -200.100; -987.000; -908.000
374.405;  304.500; -388.000; -276.000
374.536;  777.700; -526.000; -387.000
374.666; 1897.600; -759.000; -807.000
374.797;  415.200; -817.000; -868.000
374.928; 1554.900; -710.000; -560.000
375.058; 1526.700; -535.000; -500.000
375.189;  176.600;  -59.000;  -93.000
375.320; -198.900; -928.000;-1034.000
375.450;  -37.700; -625.000; -616.000
375.581;  -60.300; -526.000; -436.000
375.712;  -11.700; -574.000; -250.000
375.842;  567.800; -438.000; -415.000
375.973;  399.900; -554.000; -513.000
376.103;  -99.900; -665.000; -648.000
376.234; -123.600; -531.000; -552.000
376.364;  -88.700; -944.000; -867.000
376.495;  644.700;  925.000;  529.000
376.625;   -2.000; -472.000; -485.000
376.756;  123.200; -709.000; -678.000
376.886; -189.800;-1178.000;-1026.000
377.017;   83.800;-1048.000;-1061.000
377.147;  651.800; -786.000; -782.000
377.278;  172.700;  174.000;  228.000
377.408; -232.700; -801.000; -815.000
377.538; -168.500; -707.000; -693.000
377.669; -146.600; -537.000; -613.000
377.799; -143.200; -645.000; -635.000
377.929; -137.800; -610.000; -428.000
378.060; -200.400; -781.000; -847.000
378.190;  -93.700; -726.000; -531.000
378.320;  -76.200; -401.000; -406.000
378.451;  -10.200; -131.000;  -22.000
378.581;    0.600;  -67.000; -110.000
378.711;  335.200; 1035.000;  866.000
378.841;  -23.600; -533.000; -675.000
378.972; -162.300; -871.000; -751.000
379.102;   42.000; -652.000; -579.000
379.232;  -53.900; -126.000;  -73.000
379.362; -186.400;-1001.000; -885.000
379.492;   13.900; -373.000; -424.000
379.623;  253.900;    0.000;  111.000
379.753; -201.800;-1107.000; -974.000
379.883;  399.600;   59.000;  156.000
380.013;  -61.300;-1081.000;-1017.000
380.143; -187.100;-1097.000;-1056.000
380.273; -193.000; -985.000; -861.000
380.403;   17.100; -344.000; -257.000
380.533;  -54.200; -651.000; -664.000
380.663;  182.700;  173.000;  128.000
380.793; -202.000;-1027.000;-1074.000
380.923;   -7.600; -103.000;  -34.000
381.053; -178.800; -613.000; -623.000
381.183;    9.400; -106.000; -248.000
381.313;   48.900; -656.000; -470.000
381.443;   97.900; -692.000; -473.000
381.573;  344.700; -402.000; -409.000
381.703;  507.000;-1249.000;-1095.000
381.833; -270.400;-1454.000;-1336.000
381.963;  243.200; -134.000;  -87.000
382.093; 2505.600; -925.000; -909.000
382.223;  713.700; -713.000; -602.000
382.353;  -41.000; -801.000; -608.000
382.482;  690.200;-1091.000; -964.000
382.612; 1316.500; -872.000; -644.000
382.742;  760.100; -695.000; -622.000
382.872;  477.100; -565.000; -551.000
383.002;  189.100;  347.000; -132.000
383.131;  -19.300; -226.000; -160.000
383.261;  -48.200; -706.000; -768.000
383.391;  493.400; -552.000; -377.000
383.521; 6120.500;  451.000;  263.000
383.650; 1313.000; -947.000; -904.000
383.780;   -7.800; -783.000; -656.000
383.910;  264.000;  880.000;  802.000
384.039;   45.400; -794.000; -656.000
384.169;  343.000;-1205.000;-1017.000
384.299;  -19.300; -650.000; -662.000
384.428; -178.200; -764.000; -680.000
384.558;  -31.900; -308.000; -275.000
384.687;  -56.800; -414.000; -334.000
384.817;   64.100;   75.000;   -2.000
384.947;   41.700; -234.000; -141.000
385.076;  594.700;  982.000;  912.000
385.206;  197.700;  369.000;  480.000
385.335;   -2.800; -549.000; -417.000
385.465; -138.300; -655.000; -663.000
385.594;  288.700;  -53.000;  -44.000
385.724;  689.000; -868.000; -838.000
385.853;  245.800; -296.000; -270.000
385.982; 2489.900; -743.000; -787.000
386.112; 3600.900;-1052.000; -871.000
386.241;  189.600; -307.000; -312.000
386.371;   93.200; -174.000;  -87.000
386.500;  -16.700; -825.000; -789.000
386.629;   83.000; -874.000; -817.000
386.759;  156.800;  -43.000;   68.000
386.888;   44.600; -170.000; -250.000
387.017; -124.500; -648.000; -620.000
387.147; -158.900; -771.000; -798.000
387.276;   24.500; -410.000; -397.000
387.405;   87.500; -398.000; -342.000
387.535;  -67.800; -452.000; -361.000
387.664;  -60.300; -692.000; -620.000
387.793;  160.900; -198.000; -113.000
387.922;  999.900;  255.000;  200.000
388.052;    2.100; -576.000; -423.000
388.181;   66.900; -342.000; -472.000
388.310;  -21.100; -889.000; -710.000
388.439;  -78.200; -749.000; -742.000
388.568;  393.300;  365.000;  244.000
388.697; 1803.700; -756.000; -653.000
388.826;  311.700; -768.000; -666.000
388.956;  109.100; -285.000; -307.000
389.085;  -55.500; -347.000; -287.000
389.214; -209.300; -842.000; -872.000
389.343; -122.300; -645.000; -413.000
389.472;  841.400;  126.000;  149.000
389.601;  921.100;   91.000;    0.000
389.730;   35.900; -568.000; -687.000
389.859;  155.600;  226.000;   46.000
389.988;  350.700; -423.000; -408.000
390.117;  248.800; -168.000; -146.000
390.246;   36.400; -331.000; -320.000
390.375;  195.000; -673.000; -626.000
390.504; -113.600; -703.000; -621.000
390.633; -223.300; -672.000; -726.000
390.761;  -85.900; -732.000; -645.000
390.890;   50.300;   -4.000; -130.000
391.019;  -16.200; -421.000; -441.000
391.148; -208.900; -826.000; -855.000
391.277;  -69.100; -576.000; -493.000
391.406; -178.700; -821.000; -805.000
391.534;   77.000;  574.000; -301.000
391.663; -122.200; -583.000; -645.000
391.792; -140.000; -673.000; -701.000
391.921;  215.700;   -3.000;   15.000
392.050;  363.400; -287.000; -228.000
392.178; -111.700;-1206.000;-1061.000
392.307;  276.700; -758.000; -712.000
392.436;  118.300; -427.000; -641.000
392.564;   87.400;  166.000;   -6.000
392.693; -165.700; -860.000; -682.000
392.822;  386.000; -529.000; -534.000
392.950;  129.000; -880.000; -714.000
393.079;  570.200; -188.000; -328.000
393.208;   24.200; -488.000; -511.000
393.336;   26.200; -170.000; -145.000
393.465;  -69.400; -317.000; -199.000
393.593;   41.100;   62.000;   79.000
393.722; -289.800;-1121.000; -916.000
393.850;  -11.900; -188.000;  -61.000
393.979; -265.700; -926.000; -805.000
394.107; -101.200; -517.000; -537.000
394.236;   -9.400; -570.000; -507.000
394.364;  529.100;  383.000;  206.000
394.493;  833.800; -911.000; -767.000
394.621;   -3.300; -955.000; -916.000
394.750; 1384.400; -873.000; -923.000
394.878; 5637.200; -247.000; -149.000
395.007; 7353.600; -721.000; -807.000
395.135;  550.800; -790.000; -721.000
395.263; -189.200;-1038.000;-1040.000
395.392;   52.100;  -25.000; -107.000
395.520; -243.300; -818.000; -679.000
395.648; -190.500; -865.000; -915.000
395.777;  -33.700; -366.000; -405.000
395.905;  -64.700; -449.000; -564.000
396.033;   65.500;  217.000;  172.000
396.162; 1480.000; -399.000; -453.000
396.290; 1192.300;  -17.000;   -2.000
396.418;  216.900; -555.000; -514.000
396.546; -142.700; -571.000; -466.000
396.674; -169.500; -850.000; -878.000
396.803;   39.700;  -72.000;  -23.000
396.931;  185.600; -179.000; -199.000
397.059;   78.800;-1026.000; -989.000
397.187; -176.800;-1026.000; -975.000
397.315; -257.100; -884.000; -649.000
397.443; -147.100; -592.000; -443.000
397.572; -166.200; -578.000; -424.000
397.700;    9.800; -607.000; -614.000
397.828;    8.600;  120.000;  -90.000
397.956;  -66.600; -508.000; -478.000
398.084; -125.300; -767.000; -626.000
398.212;  125.100;  137.000;  124.000
398.340;   59.000;  -56.000;  159.000
398.468;   24.700; -390.000; -169.000
398.596; -243.700; -993.000; -953.000
398.724; -189.400; -762.000; -767.000
398.852; -295.900;-1024.000; -976.000
398.980;  -64.500; -560.000; -560.000
399.108;  -82.900; -982.000; -735.000
399.236;  108.000;   13.000;    8.000
399.363;   62.200;  222.000;  196.000
399.491; -121.200; -404.000; -398.000
399.619; -207.100; -829.000; -800.000
399.747; -146.900; -859.000; -771.000
399.875;  204.200;  220.000;  234.000
400.003;  -78.100; -359.000; -284.000
400.130; -166.000; -421.000; -341.000
400.258;   18.700;  -83.000;   38.000
400.386; -101.300; -352.000; -168.000
400.514;  -54.500; -526.000; -587.000
400.641; -186.800; -928.000; -802.000
400.769; -240.200; -979.000; -888.000
400.897; -200.800; -838.000; -793.000
401.025;   24.500; -166.000; -152.000
401.152;    6.700;  220.000;   38.000
401.280;  -94.600; -430.000; -429.000
401.408; -225.700; -712.000; -576.000
401.535; -145.600; -735.000; -758.000
401.663; -388.900;-1134.000;-1054.000
401.790; -108.400; -514.000; -525.000
401.918;  105.200;  436.000;  405.000
402.046;   35.500;  134.000;  122.000
402.173;  -71.000;  -18.000;    7.000
402.301;  -89.100; -519.000; -397.000
402.428;  108.200;  528.000;  383.000
402.556; -244.300;-1188.000; -913.000
402.683;  -30.500;  -20.000;   -1.000
402.811;    5.800;  -37.000; -206.000
402.938;    6.000;   20.000;   27.000
403.066;  337.100; -574.000; -558.000
403.193;  598.100;  299.000;  239.000
403.321;  487.700; -396.000; -574.000
403.448;  576.200;   83.000;   27.000
403.575;  273.100;  -90.000;  -46.000
403.703; -187.000; -732.000; -557.000
403.830;  -62.500; -531.000; -496.000
403.957; -242.200;-1117.000;-1023.000
404.085;   87.600;  -61.000; -172.000
404.212;  212.100;  -50.000;   63.000
404.339;  601.700; -566.000; -306.000
404.467;11285.200; -612.000; -524.000
404.594; 6829.700; -287.000; -227.000
404.721; 1488.900; -869.000; -764.000
404.848;  208.600; -113.000; -202.000
404.976; -214.300; -856.000; -783.000
405.103;    8.100;  -14.000;  -82.000
405.230;   17.800;  190.000;  226.000
405.357;   90.900;  117.000;   44.000
405.484;  530.500;  -49.000;    5.000
405.612;  100.200; -548.000; -563.000
405.739;  -75.000; -488.000; -243.000
405.866;  270.400;  669.000;  385.000
405.993;  -63.800; -398.000; -102.000
406.120; -204.100; -801.000; -887.000
406.247;  -88.600; -323.000; -342.000
406.374;  919.400;  540.000;  629.000
406.501;  167.000; -632.000; -702.000
406.628; -114.100; -621.000; -589.000
406.755; -168.200; -803.000; -620.000
406.882;  -50.000; -228.000; -277.000
407.009; -182.500; -719.000; -628.000
407.136;  152.300; -480.000; -401.000
407.263;  250.100; -939.000; -829.000
407.390; -104.600; -692.000; -614.000
407.517; -304.100;-1139.000;-1187.000
407.644;  -74.400; -332.000; -256.000
407.771;  -95.300; -249.000; -287.000
407.898;   88.800;  168.000;  328.000
408.025; -109.500; -421.000; -313.000
408.151;   83.200;   82.000;  153.000
408.278;  -87.500; -267.000; -216.000
408.405; -147.000; -931.000; -899.000
408.532; -139.000; -549.000; -542.000
408.659; -192.100; -677.000; -648.000
408.785; -382.100;-1298.000;-1170.000
408.912;  -95.300; -412.000; -296.000
409.039; -235.700; -610.000; -686.000
409.166; -158.200; -591.000; -555.000
409.292; -186.600; -571.000; -534.000
409.419; -192.700; -665.000; -649.000
409.546; -134.500; -431.000; -192.000
409.672; -183.000; -713.000; -545.000
409.799;   -7.300;  -36.000;   34.000
409.926;  -63.500; -180.000; -179.000
410.052; -307.800;-1127.000;-1091.000
410.179;  -75.500; -368.000; -392.000
410.305;  -91.700; -375.000; -493.000
410.432;  -30.300; -220.000; -333.000
410.558; -186.600; -305.000; -380.000
410.685; -145.900; -688.000; -431.000
410.812; -179.400; -409.000; -588.000
410.938; -240.500; -964.000; -808.000
411.065; -158.000; -671.000; -645.000
411.191;    1.500; -189.000; -174.000
411.317; -216.900; -823.000; -742.000
411.444;  -74.600; -317.000; -246.000
411.570;  -91.400; -339.000; -294.000
411.697; -187.500; -758.000; -752.000
411.823; -337.500; -989.000; -999.000
411.949;    5.300;  -56.000;   17.000
412.076; -215.000; -539.000; -519.000
412.202; -181.800; -758.000; -757.000
412.329; -262.200; -798.000; -752.000
412.455; -187.400; -821.000; -657.000
412.581;   -7.700;  -15.000;  172.000
412.707; -102.200; -540.000; -457.000
412.834;   11.100;  156.000;  219.000
412.960; -143.600; -785.000; -784.000
413.086; -174.900; -743.000; -701.000
413.212;  362.300;  604.000;  578.000
413.339; -111.600; -685.000; -701.000
413.465;   48.000; -364.000; -310.000
413.591; -177.600; -757.000; -474.000
413.717;  -32.700; -358.000; -366.000
413.843; -265.800; -839.000; -861.000
413.969;  -82.100;  -47.000; -292.000
414.096; -172.500; -679.000; -679.000
414.222;   51.000;  -33.000;   85.000
414.348;  -53.000; -652.000; -385.000
414.474;  232.400;   38.000;  -52.000
414.600;   -1.000; -126.000; -144.000
414.726;   20.700;  -96.000;  -55.000
414.852;  -76.200; -365.000; -342.000
414.978;  106.900;  104.000;  -18.000
415.104;   94.600;   38.000;   80.000
415.230;   49.400; -329.000; -330.000
415.356;   83.400; -409.000; -514.000
415.482;  435.600;   13.000;  -35.000
415.608;  521.400; -247.000; -323.000
415.734; 1943.100;   67.000;   38.000
415.860;39786.000; -875.000; -767.000
415.986;26194.400; -685.000; -607.000
416.111; 2100.700; -798.000; -652.000
416.237;  501.100; -424.000; -571.000
416.363; 2343.800; -765.000; -733.000
416.489; 7793.500; -324.000; -251.000
416.615;  777.500; -707.000; -742.000
416.741;   -8.500; -677.000; -784.000
416.866; -169.900; -673.000; -736.000
416.992; -197.800; -801.000; -818.000
417.118;    1.400;  -41.000;  -80.000
417.244;  -95.300; -798.000; -531.000
417.369; -167.900; -801.000; -612.000
417.495;   45.500; -325.000; -254.000
417.621; -161.100;-1015.000; -803.000
417.746;   36.300; -579.000; -572.000
417.872;  105.600; -254.000; -144.000
417.998;  153.600; -515.000; -530.000
418.123; 2237.400;-1073.000; -845.000
418.249;10195.200; -512.000; -601.000
418.374; 1273.500; -916.000; -824.000
418.500;  235.500; -383.000; -482.000
418.626;  263.700;   70.000;  -59.000
418.751;  261.800; -549.000; -448.000
418.877;  401.500; -637.000; -643.000
419.002; 3869.100; -688.000; -560.000
419.128;24174.700; -930.000; -721.000
419.253; 5299.200; -967.000; -837.000
419.379;  740.100; -391.000; -338.000
419.504;  785.500;  325.000;  415.000
419.629; 1016.300; -393.000; -212.000
419.755; 7311.700; -317.000; -254.000
419.880;39555.800;  -98.000;   67.000
420.006;22229.800; -280.000; -221.000
420.131;54250.000; -662.000; -775.000
420.256; 7059.700; -315.000; -316.000
420.382;  959.100; -665.000; -687.000
420.507;  149.600; -649.000; -778.000
420.632;  232.800; -337.000; -339.000
420.758;  424.900; -251.000; -425.000
420.883; -144.600; -876.000; -672.000
421.008; -152.000; -775.000; -619.000
421.133; -128.400; -509.000; -467.000
421.259;  -59.700; -325.000; -259.000
421.384; -212.000; -834.000; -693.000
421.509;  -77.900;-1052.000; -862.000
421.634; 1952.700; -936.000; -820.000
421.759;  791.800; -359.000; -327.000
421.885; -115.000; -717.000; -656.000
422.010; -117.300; -673.000; -542.000
422.135; -290.500; -695.000; -727.000
422.260;  128.600;  340.000;  280.000
422.385;  -67.600;   12.000;  -98.000
422.510;   84.600;  151.000;  -26.000
422.635;   54.600;  -87.000;  -43.000
422.760;  260.900; -766.000; -791.000
422.885;  111.600;  -57.000;  -80.000
423.010;  -18.300; -112.000; -169.000
423.135; -150.600; -481.000; -561.000
423.260;   30.400; -150.000; -245.000
423.385;  200.800;  476.000;  222.000
423.510;  132.800;   71.000;  -22.000
423.635;  176.300;  133.000;   45.000
423.760;  199.400;  383.000;  328.000
423.885;  160.000;  336.000;  391.000
424.010;   52.300;  -68.000;  -13.000
424.135;  -14.300;    5.000;  -33.000
424.259; -124.700; -654.000; -457.000
424.384; -101.300; -279.000; -272.000
424.509;   -8.000; -260.000; -186.000
424.634; -157.800; -761.000; -623.000
424.759;   -8.600; -688.000; -544.000
424.883;   -7.400; -506.000; -527.000
425.008;  348.800; -502.000; -410.000
425.133; 3997.200; -679.000; -653.000
425.258; 1630.300; -517.000; -381.000
425.382; 1930.700; -867.000; -774.000
425.507; 4372.500; -487.000; -543.000
425.632;  753.100; -802.000; -663.000
425.756;  910.500; -256.000; -146.000
425.881;13469.000; -831.000; -857.000
426.006;32456.200; -604.000; -355.000
426.130; 4565.800; -696.000; -508.000
426.255;  622.600; -611.000; -491.000
426.379;  306.200; -189.000; -577.000
426.504;  769.200;  660.000;  544.000
426.629; 8035.300; -519.000; -466.000
426.753; 4946.800;   64.000;  -46.000
426.878;  585.400; -252.000; -288.000
427.002;  287.300; -651.000; -668.000
427.127; 3271.700;  -35.000; -158.000
427.251;22150.100;  372.000;  401.000
427.375; 5489.000; -191.000; -173.000
427.500; 4079.900; -616.000; -610.000
427.624; 1235.300; -234.000; -400.000
427.749;  226.200; -216.000; -225.000
427.873;  -67.500; -499.000; -412.000
427.997;  -16.900; -222.000; -230.000
428.122;  193.800;  795.000;  703.000
428.246;  208.700;  433.000;  434.000
428.371; -232.700; -869.000; -773.000
428.495; -130.400; -624.000; -646.000
428.619;    4.600; -186.000; -117.000
428.743;   97.500;   65.000;  132.000
428.868;   60.200; -732.000; -643.000
428.992; 2512.600; -219.000; -326.000
429.116;  901.700; -329.000; -357.000
429.240;  523.000;  419.000;  426.000
429.365;  -38.400; -454.000; -574.000
429.489;  -54.600; -638.000; -647.000
429.613;   91.700; -236.000; -177.000
429.737;   89.600; -563.000; -432.000
429.861;  548.200; -247.000; -133.000
429.985;11212.700; -425.000; -305.000
430.109;11133.200; -770.000; -908.000
430.234; 1240.600;   76.000;  -50.000
430.358;  153.500; -250.000; -160.000
430.482;  -68.400; -672.000; -564.000
430.606; -130.300; -655.000; -375.000
430.730;   99.000; -437.000; -388.000
430.854;  236.300; -909.000; -835.000
430.978;  -93.200; -795.000; -764.000
431.102; -145.500; -499.000; -422.000
431.226; -141.000; -874.000; -815.000
431.350;  115.600;  345.000;  422.000
431.474; -111.600; -661.000; -373.000
431.597; -287.900;-1060.000; -848.000
431.721; -109.400; -276.000; -267.000
431.845; -231.300; -704.000; -472.000
431.969; -107.200; -304.000; -349.000
432.093; -169.900; -395.000; -317.000
432.217;   44.300;   32.000;   82.000
432.341; -134.000; -523.000; -518.000
432.464;   52.400;   96.000;   40.000
432.588;  394.300; -401.000; -329.000
432.712;  202.800;  -52.000;  -52.000
432.836;  155.300;  213.000;  263.000
432.959;   31.000; -372.000; -311.000
433.083;  195.500;   11.000;    2.000
433.207;  799.600;  285.000;  930.000
433.330;10268.600; -391.000; -200.000
433.454;11439.500; -654.000; -638.000
433.578; 6739.200;  583.000;  278.000
433.701; 1161.500; -623.000; -675.000
433.825;  225.600; -292.000; -299.000
433.949;  332.300;   28.000;  -72.000
434.072;   99.900; -410.000; -323.000
434.196;   15.900; -309.000; -117.000
434.319; 7955.400;25482.000;25124.000
434.443; 1507.000; -656.000; -603.000
434.566; 5056.000;  281.000;   62.000
434.690;  759.500; -637.000; -383.000
434.813;  129.000; -251.000; -173.000
434.937; -130.000; -569.000; -696.000
435.060;  -54.300; -423.000; -332.000
435.184;  560.900; -492.000; -217.000
435.307;  288.700;  159.000;  102.000
435.431;   53.000;  -40.000;   24.000
435.554; -123.000; -399.000; -240.000
435.677; -121.300; -350.000; -258.000
435.801;  -38.400;  -25.000;   49.000
435.924;   27.100;    1.000;  -67.000
436.048; -187.100;-1019.000; -732.000
436.171;  -78.800; -240.000;  -66.000
436.294;  -18.900; -248.000; -229.000
436.417;  221.700; -963.000; -849.000
436.541; -150.600; -814.000; -840.000
436.664;   14.300; -242.000; -316.000
436.787;   20.900;   13.000;  113.000
436.910; -189.300; -792.000; -422.000
437.034;   51.000;  142.000;  143.000
437.157;  147.500;  -11.000;    0.000
437.280;  -97.200; -392.000; -292.000
437.403; -161.500; -982.000; -869.000
437.526; 1143.300; -903.000; -865.000
437.649; 3745.600; -505.000; -332.000
437.772;  449.700; -692.000; -540.000
437.896;  261.100;  700.000;  544.000
438.019; -172.400; -758.000; -503.000
438.142; -143.100; -596.000; -506.000
438.265;   -9.000; -639.000; -670.000
438.388; 1036.000; -520.000; -410.000
438.511;  146.100; -597.000; -394.000
438.634;  -94.900; -247.000; -125.000
438.757; -220.100; -693.000; -619.000
438.880;   46.600;  -34.000;  -57.000
439.003; -126.500; -417.000; -437.000
439.126;  -77.000; -287.000; -167.000
439.248;  -62.300;  -98.000; -139.000
439.371;  -23.000;    9.000;  -53.000
439.494;   77.100;  510.000;  439.000
439.617;  -39.900;   65.000;  -88.000
439.740; -330.400; -968.000; -816.000
439.863; -245.800; -755.000; -595.000
439.986; -211.800; -476.000; -431.000
440.108;  -15.900; -161.000; -112.000
440.231; -322.500; -950.000; -836.000
440.354;  -18.800;  -64.000; -150.000
440.477;  104.900; -566.000; -542.000
440.599;   31.000; -200.000; -225.000
440.722; -186.700; -709.000; -586.000
440.845;  216.800;  751.000;  928.000
440.968; -186.000; -415.000; -311.000
441.090; -109.600; -199.000;  -33.000
441.213; -300.900;-1021.000; -825.000
441.336;  -27.900; -159.000;   -5.000
441.458; -136.600; -549.000; -396.000
441.581;  -92.500; -628.000; -629.000
441.703; -110.300; -152.000;   13.000
441.826; -198.300; -557.000; -400.000
441.948;  -60.200;   56.000;   51.000
442.071;  137.900;  555.000;  424.000
442.193; -204.800; -531.000; -485.000
442.316;   93.000;  152.000;   97.000
442.438;   88.500; -233.000;  -10.000
442.561;  191.300;  272.000;  262.000
442.683;  962.200; -809.000; -522.000
442.806; 1937.900;   -8.000;   74.000
442.928;   17.800; -859.000; -604.000
443.051;  -82.600; -577.000; -373.000
443.173; -148.900; -341.000; -339.000
443.295; -106.900; -263.000; -371.000
443.418; -112.200; -321.000;  -29.000
443.540;   25.500; -106.000;   -4.000
443.662; -198.300; -563.000; -465.000
443.785;   40.700;  335.000;  199.000
443.907; -185.400; -362.000; -208.000
444.029; -212.100; -767.000; -494.000
444.152; -257.700; -644.000; -554.000
444.274;    1.400;  -18.000;  -24.000
444.396; -191.700; -461.000; -221.000
444.518; -217.700; -691.000; -454.000
444.640; -186.200; -268.000; -111.000
444.763;   39.200;  388.000;  249.000
444.885; -161.800; -432.000; -392.000
445.007;  -28.600;   35.000;   86.000
445.129; -192.100; -610.000; -515.000
445.251; -165.900; -372.000; -439.000
445.373; -249.500; -537.000; -386.000
445.495;  109.000;  242.000;  350.000
445.617;  188.400;  853.000;  753.000
445.739;  -71.200; -215.000;  -97.000
445.861;  -20.900; -245.000; -112.000
445.984;   -0.100; -267.000; -101.000
446.105;  384.900; -418.000; -251.000
446.227; 1050.400; -176.000;  -19.000
446.349;  -48.900; -358.000; -249.000
446.471; -178.100; -615.000; -448.000
446.593;  -95.400; -316.000;   19.000
446.715;   77.800;  -67.000;   41.000
446.837;  143.500;  697.000;  832.000
446.959; -141.600; -457.000; -478.000
447.081; -231.300; -628.000; -518.000
447.203;  176.400;  862.000;  834.000
447.325; -130.300; -270.000;   42.000
447.446;   62.700;  286.000;  530.000
447.568; -268.400; -921.000; -803.000
447.690; -109.200; -236.000; -245.000
447.812; -267.200; -798.000; -519.000
447.933;   30.500;  155.000;  127.000
448.055;  -77.600; -306.000; -261.000
448.177;  318.700;   31.000;   79.000
448.299;  119.400; -935.000; -727.000
448.420;   70.900;  -25.000;  159.000
448.542;  -41.200;   -3.000;   33.000
448.664;   13.900;  109.000;  322.000
448.785;  -47.000;  265.000;   83.000
448.907; -112.100; -614.000; -353.000
449.028;  -61.900; -771.000; -471.000
449.150;  185.000;  492.000;  589.000
449.272; -349.100;-1044.000; -913.000
449.393;  125.500;  612.000;  694.000
449.515; -242.700; -634.000; -581.000
449.636;  -75.000; -264.000; -155.000
449.758;  205.400;  763.000;  622.000
449.879; -138.300; -498.000; -396.000
450.001; -113.000; -149.000;  -49.000
450.122;  -27.200;  -95.000;  162.000
450.244;  -14.700;   37.000;  364.000
450.365; -121.500; -495.000; -301.000
450.486;  -31.600;   80.000;  268.000
450.608;   89.900;  393.000;  326.000
450.729;  193.700;  578.000;  645.000
450.850;   54.100; -574.000; -466.000
450.972; 1557.400; -552.000; -389.000
451.093; 9798.100;  190.000;  588.000
451.214; 3571.600; -516.000; -337.000
451.336;  745.700;  773.000;  579.000
451.457;  193.000;  264.000;  393.000
451.578;  -31.300; -118.000;  -74.000
451.699; -212.500; -546.000; -540.000
451.821;  -44.800; -284.000;  -50.000
451.942;   29.500;  278.000;  285.000
452.063;  119.400;  228.000;  419.000
452.184; 1244.800;  -54.000;  -49.000
452.305; 2056.500;  103.000;  170.000
452.427;  267.200; -549.000; -301.000
452.548;   16.400;   23.000;   79.000
452.669;  -61.100; -257.000;  -89.000
452.790;  -50.200;    3.000;  -18.000
452.911;   27.900;  195.000;  259.000
453.032;  -56.700; -289.000;  -60.000
453.153;  -50.300;  -29.000;   81.000
453.274;  195.800;  737.000;  868.000
453.395;  -42.700;  -51.000;  175.000
453.516;  345.900; 1317.000; 1388.000
453.637; -131.000; -205.000; -150.000
453.758;  -47.200;   15.000;   69.000
453.879; -211.200; -462.000; -250.000
454.000;  266.300; 1086.000;  948.000
454.121; -210.000; -554.000; -326.000
454.242; -172.900; -599.000; -383.000
454.362;  -51.100;  -99.000;  114.000
454.483;  -30.800; -309.000; -229.000
454.604;  146.100;  512.000;  580.000
454.725; -176.900; -627.000; -555.000
454.846; -206.700; -474.000; -406.000
454.967;    2.000;  230.000;  539.000
455.087;  -61.100;  179.000;  153.000
455.208;  120.400;  554.000;  856.000
455.329;  -73.300;  -22.000;   82.000
455.450;  145.400;  473.000;  633.000
455.570; -132.600; -234.000; -211.000
455.691;    5.000;  201.000;  407.000
455.812; -183.200; -270.000;  -92.000
455.932;  -39.900;  107.000;  -97.000
456.053; -120.100;   36.000;   24.000
456.173; -156.400; -433.000; -355.000
456.294; -204.500; -476.000; -303.000
456.415;  -69.700;  -73.000;   70.000
456.535;  -19.400;  297.000;  273.000
456.656;   -4.700;  132.000;  240.000
456.776;  -97.700;    3.000;  298.000
456.897;   74.300;  308.000;  513.000
457.017; -110.300; -153.000;   -3.000
457.138; -178.200; -402.000; -249.000
457.258;  -10.700;  263.000;  224.000
457.379;   16.800;  509.000;  521.000
457.499;   -9.400;  443.000;  432.000
457.620; -183.100; -407.000; -231.000
457.740; -152.100; -132.000;  -11.000
457.860;  -49.500;   87.000;   44.000
457.981;  -33.600;  132.000;  124.000
458.101;  -83.700;  -89.000;   40.000
458.221;   28.300;  336.000;  402.000
458.342;  -42.900;   -4.000;  -37.000
458.462;  124.300;  617.000;  352.000
458.582;  -44.700; -302.000; -294.000
458.703;   32.200;  303.000;  154.000
458.823;   26.200;   22.000;  163.000
458.943;   69.300;  341.000;  467.000
459.063;   16.400; 1124.000;  192.000
459.183;  -14.700;  328.000;  313.000
459.304;   80.400;  315.000;  517.000
459.424;  -79.100; -246.000;  -89.000
459.544;  783.700;  388.000;  764.000
459.664; 1652.300;  499.000;  506.000
459.784;  616.700; 1004.000; 1175.000
459.904;  160.300;  867.000;  744.000
460.024;  198.500;  867.000;  684.000
460.144;   42.500;  449.000;  554.000
460.264;   67.200;  515.000;  327.000
460.385; -159.800; -145.000; -119.000
460.505;  135.900;  905.000;  858.000
460.625; -135.400;  -17.000;  -68.000
460.745;    8.800;  396.000;  541.000
460.864;  -63.300;  153.000;  469.000
460.984;  106.500;  499.000;  573.000
461.104;  326.700; 1656.000; 1775.000
461.224;   95.200;  657.000;  650.000
461.344;   -2.600;  431.000;  360.000
461.464;   -4.500;  258.000;  513.000
461.584;   26.900;  283.000;  466.000
461.704;  -47.800;   58.000;  108.000
461.824;  -53.000;  238.000;  259.000
461.943;  -46.300;  191.000;  130.000
462.063; -135.400;    2.000;  324.000
462.183;  122.000;  639.000;  717.000
462.303;  275.600; 1678.000; 1230.000
462.422;  120.400;  781.000;  840.000
462.542;  -35.300;  271.000;  391.000
462.662;  104.800;  353.000;  380.000
462.782;  582.100;  833.000;  572.000
462.901;  973.300;  545.000;  717.000
463.021;  568.600; 1702.000; 1638.000
463.141;   56.800;  337.000;  770.000
463.260;   -3.500;  614.000;  474.000
463.380;   96.600;  902.000;  884.000
463.499;  -43.700;  342.000;  332.000
463.619;   -9.900;  581.000;  559.000
463.738;  301.600; 1644.000;  903.000
463.858;   94.500;  657.000;  811.000
463.978;  -37.400;  542.000;  396.000
464.097;  182.000;  921.000; 1114.000
464.217;  270.600; 1196.000; 1143.000
464.336;  296.400; 1068.000; 1130.000
464.455;  -35.600;  328.000;  659.000
464.575;  160.200;  597.000;  602.000
464.694;  354.300; 1204.000; 1179.000
464.814;  300.600; 1190.000; 1138.000
464.933;  159.400; 1095.000; 1027.000
465.052;  241.400; 1412.000; 1054.000
465.172;  216.000;  922.000;  799.000
465.291;  344.400; 1376.000; 1320.000
465.410;   62.400;  462.000;  735.000
465.530;  245.200; 1355.000; 1310.000
465.649;  228.500; 1209.000; 1273.000
465.768;  339.900; 1673.000; 1508.000
465.888;  191.700;  941.000; 1174.000
466.007;  245.200; 1335.000; 1440.000
466.126;   63.800;  721.000;  641.000
466.245;  132.000; 1176.000; 1187.000
466.364;   87.300;  950.000; 1060.000
466.484;  180.000; 1024.000; 1213.000
466.603;  132.400; 1101.000; 1222.000
466.722;  318.200; 1490.000; 1769.000
466.841;  192.200; 1151.000; 1401.000
466.960;  123.600; 1069.000;  972.000
467.079;  360.100; 1971.000; 1786.000
467.198;  190.800; 1238.000; 1181.000
467.317;  257.000; 1768.000; 1162.000
467.436;  219.200; 1709.000; 1261.000
467.555;  324.500; 1796.000; 1746.000
467.674;  187.300; 1227.000; 1329.000
467.793;  130.700; 1376.000; 1374.000
467.912;  238.000; 1658.000; 1539.000
468.031;  350.100; 2038.000; 1930.000
468.150;  344.200; 1842.000; 1837.000
468.269;  452.000; 2313.000; 2090.000
468.388;  427.300; 2168.000; 2339.000
468.507;  581.800; 2884.000; 2903.000
468.626;  626.900; 2555.000; 2541.000
468.744;  331.800; 2018.000; 2174.000
468.863;  484.500; 2312.000; 2523.000
468.982;  232.400; 1503.000; 1555.000
469.101;  493.800; 2788.000; 2692.000
469.220;  362.700; 2333.000; 2176.000
469.338;  581.300; 2935.000; 3051.000
469.457;  441.900; 2719.000; 2545.000
469.576;  826.400; 3953.000; 3784.000
469.695;  536.000; 2877.000; 3066.000
469.813;  975.800; 4148.000; 4192.000
469.932;  882.300; 4255.000; 4485.000
470.051;  961.500; 4075.000; 4161.000
470.169; 1798.200; 4470.000; 4338.000
470.288; 2943.300; 4700.000; 4809.000
470.406; 1670.200; 5059.000; 5194.000
470.525; 1312.900; 6101.000; 5787.000
470.644; 1370.700; 6847.000; 6794.000
470.762; 1755.100; 8397.000; 7873.000
470.881; 1881.500; 8651.000; 8464.000
470.999; 2210.200; 9685.000; 9151.000
471.118; 2315.500;11174.000;10711.000

