
Integration time [ms]: 100.000
Averaging Nr. [scans]: 40
Smoothing Nr. [pixels]: 0
Data measured with spectrometer [name]: 2101012U2
Wave   ;Sample   ;Dark     ;Reference
[nm]   ;[counts] ;[counts] ;[counts] 

197.733;   66.675;  516.000;  404.000
197.879;  -87.125; -610.000; -634.000
198.025;  -47.775; -475.000; -420.000
198.171;  -71.450; -602.000; -612.000
198.317;  -26.200; -401.000; -316.000
198.463;  -61.500; -655.000; -404.000
198.609;   40.750;  181.000; -137.000
198.755;  -82.825; -644.000; -410.000
198.901;  -68.475; -505.000; -424.000
199.047;  -68.975; -615.000; -488.000
199.193;  -35.125; -230.000; -468.000
199.339;  -35.825; -222.000; -369.000
199.485;   38.475;  330.000;  271.000
199.631;   24.200;  227.000;  310.000
199.777;  -39.025; -466.000; -398.000
199.923;  -68.375; -610.000; -424.000
200.069;   -6.100; -141.000;  -58.000
200.215;   57.450;  128.000;  453.000
200.361;   47.975;  243.000;  477.000
200.507;  -60.025; -600.000; -373.000
200.653;  -13.275; -371.000; -194.000
200.798;  -38.475; -215.000; -125.000
200.944;    8.250; -146.000;  -41.000
201.090;   48.450;   61.000;  222.000
201.236;    0.300; -116.000; -158.000
201.382;  130.400;  874.000;  903.000
201.528;    7.475;  -58.000;  -48.000
201.674;  -55.050; -386.000; -293.000
201.819;  -69.850; -540.000; -439.000
201.965;  -74.250; -699.000; -447.000
202.111;  -12.225; -273.000; -226.000
202.257;  -35.100; -250.000; -238.000
202.402;   12.550;   13.000;  -36.000
202.548;  -14.325; -169.000; -116.000
202.694;   94.650;  410.000; -183.000
202.840;  -79.550; -603.000; -531.000
202.985;  -64.350; -681.000; -639.000
203.131; -100.875; -832.000; -666.000
203.277;  -23.250; -199.000; -262.000
203.423;  -55.050; -434.000; -520.000
203.568;  -36.300; -462.000; -237.000
203.714;  -50.850; -535.000; -542.000
203.860;  -84.325; -682.000; -641.000
204.005;   10.725;  112.000;  167.000
204.151;   83.225;  561.000;  556.000
204.296;  -39.100; -354.000; -221.000
204.442;  -78.575; -600.000; -547.000
204.588;  -79.075; -592.000; -579.000
204.733;   24.575;  178.000;  168.000
204.879; -122.175;-1018.000; -822.000
205.025;    9.600;  -99.000;  126.000
205.170;    7.350;  -17.000;   94.000
205.316;   75.475;  438.000;  661.000
205.461;  -71.225; -698.000; -554.000
205.607;   99.750;  609.000;  665.000
205.752;  -63.875; -626.000; -551.000
205.898;  -45.150; -501.000; -391.000
206.043;  -55.875; -578.000; -506.000
206.189;  -31.275; -243.000; -285.000
206.334;   84.900;  554.000;  606.000
206.480;   84.550;  409.000;  239.000
206.625;  -78.875; -529.000; -552.000
206.771;  -58.525; -451.000; -373.000
206.916;  -34.025; -210.000; -537.000
207.062;  -75.775; -545.000; -591.000
207.207;  -58.250; -546.000; -443.000
207.353;   61.525;  185.000;  460.000
207.498;    8.200;  196.000;   85.000
207.643;  -47.250; -501.000; -370.000
207.789; -126.225;-1069.000; -910.000
207.934;  -97.825; -665.000; -713.000
208.080;   -7.225; -154.000;   66.000
208.225;  -10.975;  -22.000;  -57.000
208.370;  -77.400; -727.000; -619.000
208.516;  -79.100; -741.000; -487.000
208.661;  -31.800; -127.000;  -69.000
208.806;  -22.150; -165.000; -171.000
208.952; -115.525;-1044.000; -731.000
209.097;   77.175;  378.000;  349.000
209.242;  -35.200; -307.000; -382.000
209.387;   65.250;  392.000;  350.000
209.533;  -55.125; -321.000; -350.000
209.678;   84.125;  472.000;  543.000
209.823;  -54.525; -408.000; -310.000
209.969;  -97.775; -860.000; -757.000
210.114; -100.800; -907.000; -719.000
210.259; -121.250; -939.000; -889.000
210.404;    4.200; -171.000;  103.000
210.549;   14.750;  108.000;    3.000
210.695;  -15.550;   -3.000;  -95.000
210.840;   41.500;   94.000;   67.000
210.985;  -44.875; -484.000; -303.000
211.130;   63.275;  268.000;  406.000
211.275;   29.950;  207.000;  199.000
211.420;  -43.350; -300.000; -289.000
211.566;  -63.800; -536.000; -489.000
211.711;   32.425;  218.000;  157.000
211.856;  -54.350; -545.000; -519.000
212.001;   20.400;  151.000;   44.000
212.146;   29.450;  153.000;   49.000
212.291;  -13.075; -210.000; -186.000
212.436;  -16.875; -280.000;   -6.000
212.581;  -80.925; -685.000; -653.000
212.726;  -73.175; -487.000; -538.000
212.871;  -43.775; -552.000; -217.000
213.016; -133.000;-1172.000;-1029.000
213.161;   80.800;  406.000;  291.000
213.306;  -65.150; -435.000; -577.000
213.451;  -94.525; -778.000; -689.000
213.596;  -40.600; -455.000; -347.000
213.741;  -56.900; -448.000; -538.000
213.886;  -82.075; -498.000; -517.000
214.031;  -16.450; -294.000; -124.000
214.176;  -42.700; -408.000; -341.000
214.321;  -12.075; -296.000; -157.000
214.466;  -12.925; -163.000;  -43.000
214.611;    2.575;  -61.000;  -10.000
214.756; -120.700; -948.000; -858.000
214.901;  -27.325; -388.000; -226.000
215.046; -117.475; -797.000; -825.000
215.191;   20.500;  128.000;   35.000
215.336;   -8.850; -157.000;  -19.000
215.480;  -59.325; -684.000; -505.000
215.625;   -7.650; -175.000;  -19.000
215.770;  -68.375; -757.000; -662.000
215.915;    4.725;   -5.000;  -97.000
216.060;   -1.800; -113.000;  -21.000
216.205; -106.250; -731.000; -779.000
216.349;  -59.225; -470.000; -533.000
216.494; -138.350; -939.000; -867.000
216.639; -122.425; -823.000; -888.000
216.784;  -83.275; -577.000; -525.000
216.929;   46.250;  392.000;  281.000
217.073;   -9.675; -244.000;  -31.000
217.218;   18.450;   78.000;  -47.000
217.363;  -75.475; -656.000; -618.000
217.507;  -85.500; -623.000; -588.000
217.652; -130.400; -845.000; -874.000
217.797;  -87.175; -708.000; -659.000
217.942; -107.750; -856.000; -720.000
218.086;   82.950;  608.000;  539.000
218.231;  -18.025; -174.000;  -26.000
218.376;  -23.950; -337.000; -229.000
218.520;    2.800;  -41.000;   96.000
218.665;  -24.400; -338.000; -204.000
218.810;  -36.025; -275.000; -233.000
218.954;   28.825;  201.000;   35.000
219.099; -104.625; -713.000; -963.000
219.243;  -78.450; -589.000; -554.000
219.388;  -24.900; -264.000; -136.000
219.532;   -2.400; -116.000; -116.000
219.677;  -74.725; -564.000; -521.000
219.822;   20.425;   33.000;   89.000
219.966;   -0.925;   17.000;  -99.000
220.111;  -38.700; -328.000;  -40.000
220.255; -102.725; -797.000; -750.000
220.400;  -31.875; -180.000; -146.000
220.544;  -73.050; -516.000; -450.000
220.689;  -43.825; -422.000; -451.000
220.833;  -18.775; -123.000;  -58.000
220.978;  -44.750; -393.000; -563.000
221.122;   33.425;  319.000;  307.000
221.267; -111.400; -906.000; -837.000
221.411;  -54.825; -478.000; -394.000
221.555;  -12.450; -104.000;  -23.000
221.700;  -49.225; -329.000; -222.000
221.844;   35.075;  255.000;  272.000
221.989;  -34.750; -328.000; -311.000
222.133;  -36.725; -289.000; -307.000
222.277;    5.450;    5.000;   78.000
222.422;   18.325;  227.000;  113.000
222.566;  -20.150; -381.000; -214.000
222.711;  -54.975; -414.000; -479.000
222.855;  -88.800; -643.000; -586.000
222.999;  -86.525; -642.000; -717.000
223.144;  -25.500; -195.000; -194.000
223.288;   58.525;  423.000;  251.000
223.432;   30.325;  184.000;  230.000
223.576;   17.100;  152.000;  -21.000
223.721;   43.225;  364.000;  273.000
223.865;  -56.600; -472.000; -475.000
224.009;  258.225; 1673.000; 1631.000
224.153;  -74.850; -660.000; -671.000
224.298;  -57.225; -531.000; -489.000
224.442;  -11.125;  -74.000;  -33.000
224.586;   -2.150; -169.000; -106.000
224.730; -100.175; -858.000; -670.000
224.875; -102.200; -739.000; -688.000
225.019;   16.950;  102.000;  188.000
225.163;   59.975;  208.000;  341.000
225.307;   22.300;   97.000;  -91.000
225.451;   50.500;  360.000;  481.000
225.595;   35.425;  264.000;  176.000
225.739;   -2.050; -170.000;  -94.000
225.884;   16.175;   86.000;    5.000
226.028;  -92.500; -760.000; -626.000
226.172;  -28.575; -260.000; -273.000
226.316; -114.650; -941.000; -902.000
226.460;  -60.775; -645.000; -493.000
226.604;  -44.675; -406.000; -400.000
226.748;  -92.050; -836.000; -733.000
226.892;  -30.575; -227.000; -181.000
227.036;  -42.075; -537.000; -447.000
227.180;  -50.750; -551.000; -375.000
227.324;  -45.475; -561.000; -580.000
227.468; -115.150; -819.000; -717.000
227.612;   19.450;  242.000;  -28.000
227.756;  -93.575; -845.000; -698.000
227.900;   64.300;  342.000;  441.000
228.044;  -54.350; -509.000; -290.000
228.188;   65.450;  448.000;  568.000
228.332;  -85.725; -546.000; -472.000
228.476;  -28.100; -223.000; -149.000
228.620;  -18.875; -210.000; -150.000
228.764;   68.350;  431.000;  349.000
228.908;  -12.225; -155.000;   30.000
229.052;  -65.725; -615.000; -528.000
229.195;  -11.300; -172.000;   13.000
229.339;  -12.375; -235.000; -305.000
229.483;  -27.300;    5.000; -162.000
229.627;    7.375; -156.000;  139.000
229.771;  -35.375; -218.000; -294.000
229.915;   17.850;  230.000;   79.000
230.059;  -96.875; -648.000; -663.000
230.202;  -26.300; -370.000; -317.000
230.346;   -9.275; -107.000;  107.000
230.490;  -60.050; -489.000; -521.000
230.634; -112.300; -736.000; -553.000
230.777;   87.350;  478.000;  509.000
230.921;  -56.225; -450.000; -359.000
231.065;  -45.750; -246.000; -286.000
231.209;   36.525;  261.000;  265.000
231.352;   23.325;   54.000;   40.000
231.496;   25.700;  568.000;  188.000
231.640;  -77.100; -693.000; -621.000
231.783;   81.350;  546.000;  525.000
231.927;  -55.275; -294.000; -365.000
232.071; -106.150; -962.000; -736.000
232.214; -105.700; -980.000; -764.000
232.358;  -93.975; -683.000; -599.000
232.502;   13.150;  -19.000;    7.000
232.645; -132.800;-1090.000; -927.000
232.789;  -20.575; -257.000; -218.000
232.933;  -43.275; -407.000; -224.000
233.076; -127.800;-1038.000; -897.000
233.220; -100.075; -752.000; -777.000
233.363;  -68.675; -669.000; -477.000
233.507;   62.950;  371.000;  129.000
233.650;  -91.225; -764.000; -834.000
233.794;   49.575;  438.000;  461.000
233.938;  -58.475; -530.000; -362.000
234.081;  -10.650;  -93.000;   31.000
234.225;  -61.550; -631.000; -539.000
234.368; -104.950; -773.000; -723.000
234.512;  -31.900; -385.000; -299.000
234.655;  -90.025; -582.000; -555.000
234.798;  -59.125; -493.000; -466.000
234.942; -144.150; -884.000;-1002.000
235.085;  -75.375; -651.000; -443.000
235.229;  -69.125; -405.000; -410.000
235.372;  -46.650; -247.000; -191.000
235.516;  -53.175; -397.000; -321.000
235.659;   36.550;   92.000;  121.000
235.802;   -0.625;  -38.000;  -22.000
235.946;   30.000;  335.000;  215.000
236.089;   22.500;  126.000;  250.000
236.233;   57.150;  275.000;  298.000
236.376;  -46.775; -235.000; -378.000
236.519;  -45.350; -297.000; -319.000
236.663;  -19.625; -215.000; -117.000
236.806; -129.000;-1029.000; -999.000
236.949;   52.275;  543.000;  431.000
237.092;   69.575;  412.000;  391.000
237.236;  -71.700; -589.000; -502.000
237.379;   71.825;  352.000;  428.000
237.522; -113.600; -879.000; -768.000
237.666;  -13.300; -271.000;   18.000
237.809; -124.250; -851.000; -823.000
237.952;   45.975;  469.000;  271.000
238.095;  -64.475; -447.000; -442.000
238.238;   94.500;  688.000;  700.000
238.382;    0.475;  166.000;  103.000
238.525;  -65.700; -598.000; -511.000
238.668; -130.425;-1060.000; -985.000
238.811;  -77.125; -638.000; -643.000
238.954;  -63.050; -483.000; -334.000
239.097;   95.625;  617.000;  664.000
239.241;   36.525;  394.000;  326.000
239.384;  -24.725; -254.000; -214.000
239.527;  -58.250; -424.000; -224.000
239.670; -141.200; -994.000;-1091.000
239.813; -112.750; -696.000; -658.000
239.956;   90.225;  579.000;  473.000
240.099; -107.150; -778.000; -725.000
240.242;   56.900;  428.000;  432.000
240.385;   48.225;  466.000;  450.000
240.528;  -62.350; -706.000; -473.000
240.671;   17.100;  189.000;  134.000
240.814;  -38.800; -441.000; -158.000
240.957;  -93.200; -767.000; -578.000
241.100;  -81.025; -779.000; -755.000
241.243; -130.850;-1234.000; -893.000
241.386;  -62.150; -508.000; -379.000
241.529;  -86.275; -735.000; -547.000
241.672;  -66.975; -566.000; -495.000
241.815; -117.000; -832.000; -808.000
241.958;  -20.850; -125.000; -182.000
242.101;  -65.225; -545.000; -390.000
242.244;  -56.650; -270.000; -325.000
242.387;  -31.975; -304.000; -246.000
242.530;   67.025;  470.000;  134.000
242.673;  -46.200; -381.000; -309.000
242.815; -109.825; -925.000; -899.000
242.958;  -70.950; -482.000; -381.000
243.101;   14.175;  132.000;  187.000
243.244;  -84.575; -564.000; -521.000
243.387;  -46.400; -313.000; -316.000
243.530;  -99.875; -657.000; -674.000
243.672;    7.000;   43.000;  -92.000
243.815;  -62.475; -355.000; -283.000
243.958;    2.775;   98.000;  -26.000
244.101;    7.825;   59.000;  -16.000
244.243;  -14.025;  -47.000;  101.000
244.386; -109.375; -761.000; -630.000
244.529;  -27.250; -132.000; -139.000
244.672; -157.425;-1154.000; -951.000
244.814;  -99.325; -621.000; -794.000
244.957;  -46.675; -380.000; -304.000
245.100;  -76.525; -489.000; -489.000
245.242;  -48.925; -387.000; -374.000
245.385;    4.700;  -59.000;  -39.000
245.528; -118.650; -871.000; -705.000
245.670;   98.050;  612.000;  634.000
245.813;  -89.725; -599.000; -547.000
245.956;  -18.600; -324.000; -275.000
246.098;  -70.200; -508.000; -650.000
246.241;   18.875;  194.000;   48.000
246.383;  -18.425; -119.000;  -73.000
246.526;  -61.100; -454.000; -525.000
246.669; -120.175; -889.000; -780.000
246.811;   10.525;  172.000;   -1.000
246.954;  -54.750; -512.000; -426.000
247.096;  -15.400;  -84.000;   -6.000
247.239;  -62.500; -482.000; -445.000
247.381;  -52.400; -647.000; -488.000
247.524;   90.075;  645.000;  679.000
247.666;  -12.775;   58.000;   11.000
247.809;  -91.625; -887.000; -691.000
247.951;  -14.750;  -75.000;  138.000
248.094;   42.400;  432.000;  308.000
248.236; -158.400;-1262.000;-1238.000
248.378;    6.025; -356.000;  -81.000
248.521;  -25.925; -334.000; -337.000
248.663;  -27.050; -236.000; -267.000
248.806;   -9.925; -300.000; -266.000
248.948;  -88.800; -886.000; -763.000
249.090;  -45.300; -428.000; -398.000
249.233;  -50.075; -344.000; -381.000
249.375;  -63.950; -474.000; -451.000
249.518;   -3.800;  -83.000; -133.000
249.660;   -4.700; -103.000;    3.000
249.802; -164.025;-1303.000;-1189.000
249.945;  -74.350; -612.000; -540.000
250.087; -118.425; -834.000; -768.000
250.229;  -50.175; -362.000; -480.000
250.371;  -82.100; -494.000; -439.000
250.514;  -46.150; -310.000; -244.000
250.656;  -62.200;   69.000;  102.000
250.798; -117.825; -849.000; -800.000
250.940;  -68.800; -322.000; -322.000
251.083;  -32.175; -335.000; -111.000
251.225;   69.900;  338.000;  310.000
251.367;  -32.475; -274.000; -373.000
251.509;  -23.800; -265.000; -210.000
251.651;  -93.775; -731.000; -671.000
251.794;   46.325;  538.000;  632.000
251.936; -105.100; -821.000; -747.000
252.078;  -76.550; -540.000; -461.000
252.220;  -74.500; -645.000; -477.000
252.362;   89.375;  344.000;  462.000
252.504;  -64.900; -677.000; -584.000
252.646; -101.375; -875.000; -722.000
252.788;    7.125;   14.000; -128.000
252.931;  -23.100; -257.000; -253.000
253.073;  -34.150; -376.000; -317.000
253.215;    1.250;  141.000;  122.000
253.357;  -10.250;   82.000; -153.000
253.499;  -47.925; -374.000; -234.000
253.641;  -77.675; -749.000; -594.000
253.783;  -88.150; -609.000; -527.000
253.925;  -90.775; -586.000; -591.000
254.067; -102.275; -744.000; -667.000
254.209;  -22.575; -391.000; -259.000
254.351; -132.450; -865.000; -883.000
254.493;  -55.825; -441.000; -417.000
254.635; -122.000; -936.000; -818.000
254.777;  -86.775; -752.000; -687.000
254.918;  -63.525; -512.000; -430.000
255.060;  -62.100; -551.000; -395.000
255.202;  -64.400; -473.000; -261.000
255.344;  -83.775; -658.000; -455.000
255.486;  -67.600; -471.000; -406.000
255.628; -102.300; -780.000; -781.000
255.770;  -83.600; -676.000; -536.000
255.912;  -66.150; -559.000; -468.000
256.053;  -91.075; -730.000; -508.000
256.195;  160.225; 1008.000;  903.000
256.337; -114.500; -861.000; -595.000
256.479;   64.050;  532.000;  416.000
256.621;  -37.450; -394.000; -212.000
256.762;  -86.275; -789.000; -742.000
256.904;   40.925;  485.000;  487.000
257.046;  -36.400; -381.000; -271.000
257.188;  -39.525; -351.000; -264.000
257.329;  -60.225; -525.000; -464.000
257.471; -109.850; -939.000; -807.000
257.613;  -59.350; -584.000; -498.000
257.755; -145.750;-1073.000; -982.000
257.896;   35.775;  286.000;  392.000
258.038;  -58.225; -403.000; -352.000
258.180;  -42.800; -354.000; -279.000
258.321;  -85.650; -581.000; -457.000
258.463;   -8.100;  -71.000;  133.000
258.605;  -87.225; -562.000; -570.000
258.746; -106.200; -886.000; -772.000
258.888; -155.850;-1026.000;-1020.000
259.029;   28.000;  121.000;   -8.000
259.171; -102.650; -614.000; -550.000
259.313;    7.625;  -49.000;  -47.000
259.454;  -63.775; -536.000; -414.000
259.596;  -53.175; -483.000; -390.000
259.737;  -78.350; -590.000; -474.000
259.879;   27.425;  217.000;  311.000
260.020;  105.300;  901.000;  636.000
260.162;  -23.600; -146.000; -253.000
260.303; -114.275; -768.000; -687.000
260.445;  -84.500; -609.000; -613.000
260.586;   19.175;  392.000;  157.000
260.728;  -41.625; -360.000; -248.000
260.869; -120.650; -350.000; -343.000
261.011;   87.325;  706.000;  537.000
261.152;  -63.650; -479.000; -319.000
261.293;  -74.400; -576.000; -595.000
261.435;  -31.650; -219.000; -184.000
261.576;  -52.325; -455.000; -325.000
261.718;   60.950;  420.000;  470.000
261.859; -133.700; -940.000; -949.000
262.000; -127.475; -951.000;-1016.000
262.142;  -15.325;  -52.000;  -60.000
262.283; -125.775; -808.000; -691.000
262.424;  -85.675; -666.000; -625.000
262.566; -158.700;-1161.000; -983.000
262.707; -109.775; -840.000; -830.000
262.848; -114.900; -769.000; -726.000
262.990;  -57.050; -362.000; -345.000
263.131;   93.850;  650.000;  681.000
263.272;    3.050;  -61.000;  -41.000
263.413;  -81.275; -589.000; -561.000
263.555;  -52.650; -669.000; -143.000
263.696;  -86.950; -550.000; -641.000
263.837;  -54.450; -449.000; -551.000
263.978;   -4.125;   -5.000;  -77.000
264.119;  -44.700; -283.000; -264.000
264.261; -105.600; -847.000; -630.000
264.402;    4.600;   33.000;   40.000
264.543;  -75.800; -509.000; -524.000
264.684;  -18.925;   61.000;  -50.000
264.825;  -71.675; -816.000; -538.000
264.966;   -0.250;  -84.000;  -67.000
265.107; -105.175; -646.000; -670.000
265.248; -123.575; -825.000; -812.000
265.390;    1.650;  152.000;   -9.000
265.531;  -14.800; -238.000; -107.000
265.672;  -76.350; -557.000; -630.000
265.813;   64.350;  563.000;  439.000
265.954; -145.250; -959.000; -940.000
266.095;  -18.250; -372.000; -322.000
266.236;  -95.500; -686.000; -548.000
266.377;  -38.650; -243.000; -297.000
266.518;  -63.700; -619.000; -547.000
266.659;   32.750;  170.000;  268.000
266.800;   -1.175;   83.000;   85.000
266.941;  -80.225; -487.000; -478.000
267.082;   29.750;  354.000;   99.000
267.223;  -45.300; -344.000; -273.000
267.364; -124.275; -892.000; -686.000
267.504;  -18.875;    3.000;  135.000
267.645;    5.025;  160.000;   67.000
267.786;  -33.775; -147.000;  -86.000
267.927;  -80.900; -473.000; -379.000
268.068;  -10.300; -186.000;  -61.000
268.209;  -41.325; -175.000; -413.000
268.350;  -50.050; -388.000; -532.000
268.490;  -82.825; -648.000; -521.000
268.631;   35.975;  127.000;  225.000
268.772; -101.450; -874.000; -647.000
268.913;  -42.000; -328.000; -476.000
269.054;  -13.925; -117.000;   12.000
269.194;  -44.250; -418.000; -402.000
269.335; -149.625;-1137.000;-1074.000
269.476;   -5.250;   33.000;  -35.000
269.617;  -53.225; -347.000; -392.000
269.757;  -82.100; -713.000; -646.000
269.898; -108.150; -856.000; -613.000
270.039;  -56.525; -415.000; -405.000
270.180; -131.525; -952.000; -816.000
270.320;  -27.875; -190.000; -250.000
270.461;  -44.325; -277.000; -249.000
270.602;  -17.375; -186.000; -156.000
270.742; -117.850; -868.000; -943.000
270.883;  -50.150; -442.000; -390.000
271.023;  -50.450; -358.000; -357.000
271.164;  -80.125; -607.000; -528.000
271.305;  -97.125; -666.000; -654.000
271.445;  -95.350; -722.000; -683.000
271.586;  -58.850; -462.000; -283.000
271.726;  -47.650; -397.000; -322.000
271.867;  -56.475; -594.000; -534.000
272.008;  189.675; -473.000; -285.000
272.148;  123.725;  462.000;  468.000
272.289;   14.250; -113.000; -181.000
272.429;   32.100;   19.000;  185.000
272.570;  -72.775; -633.000; -737.000
272.710;  -87.450; -825.000; -775.000
272.851;   -5.925;  113.000; -130.000
272.991; -157.975;-1173.000;-1077.000
273.131;  -55.000; -419.000; -459.000
273.272; -105.750; -683.000; -723.000
273.412;   16.075; -143.000;  -31.000
273.553;  -45.425; -488.000; -507.000
273.693;  134.600;  913.000;  858.000
273.834;  -85.150; -894.000; -692.000
273.974;  -58.925; -664.000; -615.000
274.114; -109.250; -772.000; -560.000
274.255;   88.775;  414.000;  373.000
274.395;    3.550; -180.000; -125.000
274.535;   32.900;  199.000;  350.000
274.676;   27.800;  225.000;   94.000
274.816;   10.475;  110.000;   34.000
274.956;  -73.500; -624.000; -690.000
275.097;  -56.525;-1014.000; -922.000
275.237; -103.900; -913.000; -803.000
275.377;  -88.375; -778.000; -689.000
275.517; -134.650; -878.000; -937.000
275.658;  -52.100; -590.000; -555.000
275.798;  -62.625; -606.000; -413.000
275.938;   24.775;  215.000;  323.000
276.078;  -89.575; -626.000; -395.000
276.218;   31.200;   99.000;  104.000
276.359; -129.100;-1026.000;-1024.000
276.499;  -69.600; -605.000; -446.000
276.639;  -32.100; -305.000; -151.000
276.779;  -42.450; -475.000; -357.000
276.919; -103.900; -783.000; -624.000
277.059;  -16.400; -261.000; -212.000
277.199;  -34.575; -357.000; -259.000
277.340;   44.925;  287.000;  175.000
277.480; -108.300; -840.000; -693.000
277.620;   40.350;  192.000;   16.000
277.760; -179.700;-1533.000;-1294.000
277.900;   32.025;  113.000;   33.000
278.040;   19.225;  137.000;  159.000
278.180;   44.325;  270.000;  170.000
278.320;    4.600;   21.000;   56.000
278.460;  -58.125; -443.000; -469.000
278.600;  -79.400; -708.000; -598.000
278.740;   57.850;  448.000;  224.000
278.880;  -37.975; -768.000; -791.000
279.020;   13.225; -194.000; -144.000
279.160; -102.650; -672.000; -595.000
279.300; -123.075; -926.000; -873.000
279.440;  -85.600; -709.000; -622.000
279.579;  -10.375;-1014.000; -929.000
279.719;  -40.875; -410.000; -394.000
279.859;   76.500;   -4.000;   41.000
279.999;   34.725; -208.000;  101.000
280.139;  -21.500; -435.000; -387.000
280.279;  -69.100; -708.000; -745.000
280.419;   -5.775; -229.000; -147.000
280.559;  -20.725; -259.000; -180.000
280.698;  -69.525; -790.000; -639.000
280.838;  -84.950; -778.000; -800.000
280.978;  -89.925; -846.000; -790.000
281.118; -109.250; -811.000; -704.000
281.257;   16.075;   24.000;    6.000
281.397;  -98.050;-1094.000; -960.000
281.537;  -95.100; -599.000; -712.000
281.677;  -18.750; -150.000; -101.000
281.816;  -80.600; -700.000; -630.000
281.956;  -31.225; -193.000; -257.000
282.096;  -57.425; -539.000; -396.000
282.235; -101.025; -672.000; -638.000
282.375;  -11.700; -243.000;  -98.000
282.515;  -95.850; -715.000; -707.000
282.654;   29.375;   29.000;  106.000
282.794;   26.475;  388.000;  244.000
282.934;  -41.250; -530.000; -491.000
283.073; -130.225;-1030.000; -857.000
283.213;  -49.275; -460.000; -467.000
283.353;  -14.525; -408.000; -349.000
283.492;  -31.200; -264.000; -296.000
283.632;  -38.650; -254.000; -168.000
283.771;  -93.475; -859.000; -730.000
283.911;  -43.850; -369.000; -260.000
284.050; -119.150; -794.000; -748.000
284.190; -165.950;-1229.000;-1096.000
284.329; -137.125;-1055.000; -964.000
284.469;  -56.850; -516.000; -591.000
284.608;  -51.500; -559.000; -598.000
284.748;  -76.050; -614.000; -570.000
284.887;    4.850;  -87.000;  -20.000
285.027; -112.150; -844.000; -892.000
285.166;  -30.375; -192.000; -249.000
285.306;   12.900; -116.000;  -33.000
285.445;  -31.225; -229.000; -343.000
285.584;  -98.000; -630.000; -494.000
285.724;  -38.400; -282.000; -322.000
285.863; -110.950; -857.000; -507.000
286.002;  -42.350; -366.000; -276.000
286.142; -110.325; -715.000; -622.000
286.281;  -79.700; -525.000; -493.000
286.420;  -75.700; -554.000; -417.000
286.560;   96.075;  653.000;  623.000
286.699; -140.000; -958.000; -912.000
286.838;  -94.400; -590.000; -591.000
286.978;  -78.775; -533.000; -537.000
287.117; -140.200;-1085.000; -950.000
287.256;  -20.000; -228.000; -211.000
287.395;  -41.625; -197.000; -378.000
287.535;  -40.575; -370.000; -298.000
287.674;  -79.600; -509.000; -484.000
287.813;   42.850;  661.000;  533.000
287.952; -127.900;-1010.000; -871.000
288.091; -130.725;-1049.000; -915.000
288.231;   20.725;   13.000;   15.000
288.370; -158.575;-1217.000;-1200.000
288.509;  -92.525; -728.000; -645.000
288.648;  -88.100; -770.000; -548.000
288.787;  -19.050; -243.000;  -87.000
288.926;  -59.400; -454.000; -475.000
289.065;  113.700;  859.000;  672.000
289.204;  -60.350; -377.000; -217.000
289.344;  -97.600; -791.000; -690.000
289.483;   43.625;  416.000;  304.000
289.622;  -19.100; -291.000; -149.000
289.761;  -27.825; -309.000; -166.000
289.900;  -97.200; -785.000; -626.000
290.039;  -14.525;  -12.000;  -95.000
290.178;  -44.100; -274.000; -180.000
290.317;  -75.925; -618.000; -479.000
290.456;  -45.950; -463.000; -451.000
290.595; -130.900; -961.000; -833.000
290.734; -131.250; -904.000; -891.000
290.873;  -54.050; -456.000; -420.000
291.011;  -98.625; -833.000; -843.000
291.150;  -95.550; -770.000; -682.000
291.289;  -17.125; -343.000; -110.000
291.428;  -94.350; -599.000; -480.000
291.567;  -47.850; -370.000; -442.000
291.706;   -1.200;  109.000;  154.000
291.845;  -82.325; -597.000; -505.000
291.984; -160.850;-1234.000;-1061.000
292.122;   76.700;  602.000;  582.000
292.261;   49.025;  620.000;  463.000
292.400;    3.650; -144.000;  211.000
292.539; -111.500; -959.000; -813.000
292.678;  -26.650; -325.000; -300.000
292.816; -158.800;-1136.000; -965.000
292.955;  -92.975; -844.000; -684.000
293.094;  -20.000; -173.000; -337.000
293.233;  -50.125; -556.000; -400.000
293.371;  -28.550; -225.000;  -84.000
293.510; -103.275; -866.000; -780.000
293.649; -116.675; -959.000; -924.000
293.787;  -50.175;-1083.000;-1012.000
293.926;    5.825; -113.000;  -32.000
294.065;  -24.825; -379.000; -290.000
294.203;   48.575;  298.000;  406.000
294.342;   17.375;   74.000;  156.000
294.481; 7238.250;51180.000; -836.000
294.619;  -15.950; -425.000; -582.000
294.758; -136.500;-1230.000;-1137.000
294.896;   70.925; -125.000;    5.000
295.035; -117.475;-1040.000;-1006.000
295.174; -112.550;-1082.000; -954.000
295.312;  -31.175; -323.000; -203.000
295.451;    6.750; -307.000; -428.000
295.589;  -47.325; -389.000; -518.000
295.728;   20.925; -292.000; -165.000
295.866;   19.025;  -36.000;  -51.000
296.005;  -65.675; -584.000; -341.000
296.143;  -70.925; -558.000; -596.000
296.282; -107.075; -957.000; -881.000
296.420;  -80.200; -657.000; -557.000
296.559;  -82.575; -892.000; -633.000
296.697;   40.225; -847.000; -665.000
296.835;   84.825;-1141.000;-1002.000
296.974;   58.075;  -23.000;   39.000
297.112;   37.600; -443.000; -504.000
297.251;  -57.375; -815.000; -755.000
297.389;   97.100; -576.000; -438.000
297.527;   56.100; -145.000;  -83.000
297.666;  -33.725; -486.000; -438.000
297.804;  -52.450; -404.000; -264.000
297.942;   -0.275; -136.000; -161.000
298.081;    1.150; -183.000;   63.000
298.219;   70.750;  -17.000;  -19.000
298.357;   67.775; -144.000;  -71.000
298.495;   56.225; -810.000; -812.000
298.634;   97.150;  245.000;  219.000
298.772;   80.600; -220.000; -338.000
298.910;  -14.750; -309.000; -182.000
299.048;    7.150; -130.000; -153.000
299.187;  -20.875; -350.000; -250.000
299.325;   23.200;   52.000;  122.000
299.463;   50.850; -389.000; -299.000
299.601;  129.450; -327.000; -271.000
299.739;  -86.175; -908.000; -883.000
299.877;  -78.375; -791.000; -703.000
300.016;  -31.475;-1095.000; -935.000
300.154;  179.525;  -19.000; -161.000
300.292;   75.825; -428.000; -348.000
300.430;   38.075; -408.000; -291.000
300.568;  -95.075; -940.000; -874.000
300.706;  -36.900; -366.000; -469.000
300.844;  -64.675;-1108.000; -979.000
300.982;  120.025;  246.000;  282.000
301.120; -115.700; -965.000; -866.000
301.258;  -52.850; -812.000; -705.000
301.396;   38.475;  104.000;  -41.000
301.534;   92.325; -218.000; -293.000
301.672;   -2.675; -664.000; -521.000
301.810;   49.675; -613.000; -545.000
301.948;  108.950;   53.000;  149.000
302.086;  652.550; -250.000;  -32.000
302.224; 1055.600; -610.000; -585.000
302.362;   50.100; -558.000; -622.000
302.500;  -12.225; -923.000; -893.000
302.638;  122.025;  128.000;  245.000
302.776;    9.700; -352.000; -408.000
302.913;   40.775;  447.000;  236.000
303.051;   -0.200;  -86.000;  -23.000
303.189;   54.500;   90.000;  118.000
303.327;  -26.225; -341.000; -256.000
303.465;  -68.900; -832.000; -588.000
303.603;  -81.475; -805.000; -604.000
303.740;  108.375;  417.000;  241.000
303.878;   43.925; -800.000; -759.000
304.016;  -84.250; -915.000; -790.000
304.154; -123.675;-1123.000;-1152.000
304.291;  -23.625; -505.000; -554.000
304.429;   18.225;  102.000;   74.000
304.567; -124.175; -908.000; -893.000
304.705;  -48.950; -408.000; -515.000
304.842;  107.900; -616.000; -540.000
304.980;   69.850;  215.000;   35.000
305.118;   62.475; -367.000; -365.000
305.255;  -57.000; -945.000; -927.000
305.393;   61.650;  178.000;  239.000
305.531;  -93.250;-1173.000; -956.000
305.668;  -73.325; -663.000; -582.000
305.806;  110.425; -358.000; -439.000
305.943;  105.400; -629.000; -637.000
306.081;   74.350; -378.000; -267.000
306.219; -101.950; -863.000; -748.000
306.356;   14.175;  158.000;   27.000
306.494;  125.700;  981.000;  761.000
306.631;   11.650;  -11.000;  -55.000
306.769;   12.150; -613.000; -485.000
306.906;   -1.900; -284.000; -258.000
307.044;  -61.775; -473.000; -488.000
307.181;  -63.525; -410.000; -332.000
307.319;   17.800;  112.000;   87.000
307.456; -171.850;-1191.000;-1153.000
307.594;  -83.800; -980.000; -727.000
307.731;   -9.550; -371.000; -164.000
307.868;   -4.175;  -15.000;   20.000
308.006; -130.350; -961.000; -847.000
308.143;  -66.575; -618.000; -330.000
308.281;  155.275;  -37.000; -254.000
308.418;  -19.900; -748.000; -640.000
308.555;  -57.900; -400.000; -250.000
308.693;  -72.125; -577.000; -573.000
308.830; -101.400; -712.000; -657.000
308.967;   -1.900; -215.000;  -95.000
309.105;  -43.200; -507.000; -396.000
309.242;   44.475; -468.000; -367.000
309.379;  253.300; -577.000; -655.000
309.517;  -73.700; -936.000; -948.000
309.654;  -93.225; -910.000; -734.000
309.791;  -59.475; -662.000; -580.000
309.928; -115.925; -977.000; -914.000
310.065;  191.175;  819.000;  697.000
310.203;    4.350; -825.000; -850.000
310.340;   14.450; -465.000; -321.000
310.477;  -86.350; -412.000; -516.000
310.614;  -71.525; -383.000; -473.000
310.751;  -72.775; -427.000; -518.000
310.889;  -11.775;    1.000;   11.000
311.026; -155.975;-1161.000; -939.000
311.163;  -34.875; -386.000; -380.000
311.300;  -76.225; -512.000; -479.000
311.437;  -76.300; -658.000; -619.000
311.574; -135.900;-1226.000; -985.000
311.711;  -53.400; -595.000; -433.000
311.848;  -47.825; -380.000; -388.000
311.985;   15.050;  270.000;   93.000
312.122; -114.500; -932.000; -762.000
312.259; -109.975; -941.000; -994.000
312.396;  -74.375; -508.000; -551.000
312.533;  -81.500; -812.000; -790.000
312.670; -130.275;-1070.000; -898.000
312.807;  -31.625; -352.000; -367.000
312.944;  -78.200; -513.000; -611.000
313.081;  -26.350; -150.000; -415.000
313.218;  -94.000;-1111.000; -867.000
313.355;   23.525; -531.000; -449.000
313.492;    4.600; -455.000; -292.000
313.629;  143.825;  815.000;  735.000
313.766; -155.750;-1176.000;-1008.000
313.902;   -4.475; -186.000;   21.000
314.039;  -35.875; -372.000; -289.000
314.176;   42.100;  286.000;  192.000
314.313;  -61.175; -569.000; -473.000
314.450;  -70.225; -788.000; -684.000
314.587;  -61.400; -468.000; -480.000
314.723;    9.025;  -78.000;  130.000
314.860;   29.150;  318.000;  332.000
314.997;   26.250;  223.000;  142.000
315.134;  -36.825; -385.000; -368.000
315.270;  -29.100; -480.000; -496.000
315.407; -121.850;-1094.000; -967.000
315.544;  -43.300; -657.000; -538.000
315.681;  -54.375; -681.000; -565.000
315.817;   35.800; -133.000; -176.000
315.954;   24.425; -613.000; -392.000
316.091; -111.625;-1045.000;-1023.000
316.227;  -12.950;  -71.000; -179.000
316.364;   10.725;   23.000;    6.000
316.500;  -29.225; -113.000; -300.000
316.637;  -24.975; -181.000; -302.000
316.774;  -81.000; -625.000; -358.000
316.910;  -98.075; -598.000; -629.000
317.047;  -58.875; -487.000; -351.000
317.183;  -46.700; -435.000; -566.000
317.320;  -17.875; -367.000; -321.000
317.456;  -53.650; -733.000; -805.000
317.593;  -86.975; -598.000; -641.000
317.729;   10.850;  168.000;  -67.000
317.866; -197.350;-1434.000;-1285.000
318.002;  -81.800; -708.000; -948.000
318.139;  -82.725; -883.000; -867.000
318.275; -101.400;-1003.000; -738.000
318.412;  -44.825; -517.000; -336.000
318.548;  -25.575; -751.000; -720.000
318.685; -102.400; -985.000; -888.000
318.821;  -86.150; -762.000; -735.000
318.957;   -6.750;   34.000;  -23.000
319.094;   36.900;  297.000;  154.000
319.230;  -58.825; -756.000; -742.000
319.367;  156.000; -471.000; -520.000
319.503;   74.725; -538.000; -436.000
319.639;  -88.125; -877.000; -793.000
319.775;  -52.200; -750.000; -685.000
319.912;  -38.200; -424.000; -519.000
320.048;  -90.275;-1184.000;-1184.000
320.184;   86.350;   59.000;   70.000
320.321;  -60.175; -497.000; -467.000
320.457;   67.475;  475.000;  662.000
320.593;  -63.550; -375.000; -382.000
320.729;  -95.625; -732.000; -734.000
320.866;  -69.425; -577.000; -635.000
321.002;  -69.575; -759.000; -809.000
321.138;   -2.850; -135.000; -211.000
321.274;   80.100; -148.000; -115.000
321.410;  -16.950; -585.000; -353.000
321.546;  -13.150;-1011.000; -911.000
321.683;   53.325;  400.000;  185.000
321.819;    7.525;  -48.000; -117.000
321.955;  -97.950; -743.000; -722.000
322.091;  -45.300; -585.000; -540.000
322.227;   -9.550; -382.000; -202.000
322.363;  -17.300; -320.000; -215.000
322.499;  -35.750; -343.000; -331.000
322.635;  176.200;  636.000;  443.000
322.771;   42.375; -139.000;   12.000
322.907;  113.325;  129.000;  327.000
323.043;  -11.125; -115.000; -206.000
323.179;  -37.500; -394.000; -363.000
323.315;   38.950; -401.000; -371.000
323.451;  112.550; -328.000; -236.000
323.587;   74.425;  -60.000;  -77.000
323.723;   28.150; -682.000; -601.000
323.859;   -4.125; -258.000;  -76.000
323.995;  -21.625; -467.000; -409.000
324.131; -119.300; -967.000; -892.000
324.267;  -30.375; -254.000; -276.000
324.402; -127.150; -960.000; -983.000
324.538;  -12.850; -279.000; -104.000
324.674;   23.200;  164.000;   77.000
324.810;  132.225;  226.000;  308.000
324.946;   12.125; -810.000; -658.000
325.082;  -51.075; -568.000; -475.000
325.217;  -14.450;  -62.000;   16.000
325.353;  -95.600; -764.000; -659.000
325.489;  -73.975; -540.000; -506.000
325.625;  -72.250; -579.000; -525.000
325.760;   55.700;  517.000;  376.000
325.896;  -25.425; -515.000; -702.000
326.032;  -55.050; -403.000; -352.000
326.168;  -55.825; -462.000; -369.000
326.303;  -52.850; -352.000; -461.000
326.439;  -14.325; -336.000; -276.000
326.575;    3.700; -190.000;  -29.000
326.710;   -4.200; -156.000;  -30.000
326.846;   -7.100;  146.000;  103.000
326.982;  -82.850; -530.000; -548.000
327.117;  -58.075; -481.000; -442.000
327.253;  -89.250; -745.000; -742.000
327.388; -152.450;-1137.000;-1153.000
327.524;  -45.250; -811.000; -578.000
327.659;  -15.500;  -58.000;  -22.000
327.795;  -13.825;   69.000;   45.000
327.931;  -78.950; -723.000; -499.000
328.066;  -23.125; -417.000; -276.000
328.202;    0.000;   12.000; -129.000
328.337;  104.125;  957.000;  713.000
328.473;   50.975;  -12.000;  -74.000
328.608;  -11.300; -256.000; -267.000
328.743;  -80.875; -799.000; -664.000
328.879;   30.500;  214.000;  114.000
329.014;  -36.875; -102.000; -122.000
329.150;  -71.675; -358.000; -483.000
329.285;  -67.350; -465.000; -466.000
329.421;  -44.075; -548.000; -246.000
329.556;  -19.250;  -36.000;   85.000
329.691;  -82.350; -633.000; -615.000
329.827;  -78.850; -626.000; -480.000
329.962;  -40.650;  131.000; -301.000
330.097;  -78.950; -673.000; -585.000
330.233;  -37.500; -410.000; -223.000
330.368; -130.325; -839.000; -628.000
330.503;   -7.675;    3.000;   98.000
330.638;   18.675;  -93.000; -125.000
330.774;  -40.875; -609.000; -530.000
330.909;  -47.625; -434.000; -244.000
331.044;  -97.525; -714.000; -708.000
331.179; -179.850;-1217.000;-1109.000
331.315;   17.475;   77.000;   20.000
331.450;    9.925;  157.000;  285.000
331.585;  -84.400; -805.000; -706.000
331.720;  -89.125; -510.000; -460.000
331.855;  -11.775;  -35.000; -102.000
331.990;  236.950;   62.000;  138.000
332.126;  122.300; -110.000;   71.000
332.261;  -18.325; -379.000; -265.000
332.396;    8.750; -135.000; -242.000
332.531;  -94.600;-1074.000;-1031.000
332.666;   33.750; -519.000; -363.000
332.801; -112.000; -726.000; -807.000
332.936;  -14.800; -192.000; -122.000
333.071; -136.275; -870.000; -817.000
333.206;   22.250;  307.000;  379.000
333.341;   26.400;  344.000;  418.000
333.476;  -67.775; -627.000; -623.000
333.611;  -30.450; -251.000; -173.000
333.746;  -34.850; -381.000; -464.000
333.881; -108.375; -973.000; -935.000
334.016; -123.750; -936.000; -917.000
334.151; -125.150; -746.000; -702.000
334.286;   37.300;  152.000;  186.000
334.421;  -14.625; -125.000; -178.000
334.556;  -69.500; -611.000; -567.000
334.690;  -77.425; -631.000; -577.000
334.825;   72.150;  381.000;   83.000
334.960;  -46.325; -285.000; -413.000
335.095;   18.925;  135.000;  -91.000
335.230;  -78.675; -722.000; -738.000
335.365; -130.200;-1084.000; -990.000
335.499; -133.025;-1108.000;-1037.000
335.634;   27.875;    9.000;  534.000
335.769; -105.775; -755.000; -720.000
335.904;  -49.500; -603.000; -561.000
336.038;  -42.900; -735.000; -657.000
336.173; -105.150;-1206.000;-1194.000
336.308;   10.475; -116.000; -189.000
336.443;   29.450; -544.000; -634.000
336.577;  -57.825; -936.000; -787.000
336.712;   80.700;   -4.000;  -12.000
336.847;  -21.925; -724.000; -607.000
336.981;   86.750; -272.000; -208.000
337.116;  303.625;  615.000;  501.000
337.250;  179.175; -434.000; -421.000
337.385;  233.650; -297.000; -208.000
337.520;   92.400; -632.000; -603.000
337.654;  -50.100; -215.000; -126.000
337.789; -128.925; -989.000; -933.000
337.923;  -25.250; -104.000; -205.000
338.058;  -75.800; -673.000; -738.000
338.192;  -40.400; -611.000; -488.000
338.327;   -6.025;  -18.000; -155.000
338.461;  -63.725; -299.000; -469.000
338.596;  -88.400; -780.000; -638.000
338.730; -107.650; -767.000; -803.000
338.865;   84.025;  -46.000; -140.000
338.999;  -43.750; -846.000; -702.000
339.134;  -16.075; -634.000; -536.000
339.268;   23.050; -741.000; -603.000
339.403;  357.050; -740.000; -775.000
339.537;  101.900; -894.000; -820.000
339.671; -110.325; -829.000; -813.000
339.806;  -54.500; -556.000; -512.000
339.940;    0.825; -261.000; -235.000
340.074;  -97.700; -685.000; -510.000
340.209;  -40.050; -351.000; -230.000
340.343;  -91.325; -517.000; -573.000
340.477;  158.075;  998.000; 1036.000
340.612;  -43.050;-1033.000; -900.000
340.746;  142.875; -199.000; -243.000
340.880;  -61.625; -924.000; -785.000
341.014;    6.600;  -45.000; -154.000
341.149; -109.100; -756.000; -718.000
341.283; -109.775; -839.000; -754.000
341.417;  -89.000;-1124.000; -938.000
341.551;  154.350; -768.000; -708.000
341.685;  -34.200; -633.000; -611.000
341.820;  -44.600; -562.000; -493.000
341.954;  -51.175; -218.000; -349.000
342.088; -142.525;-1102.000;-1019.000
342.222;   71.800;  565.000;  618.000
342.356;  -59.900; -395.000; -335.000
342.490;  -89.450; -880.000; -841.000
342.624;  -43.125; -339.000; -242.000
342.758;    0.825; -364.000; -312.000
342.892;  -61.325; -710.000; -585.000
343.026;  -29.500;  -58.000; -116.000
343.160;  -51.250; -426.000; -376.000
343.294;  -69.125; -474.000; -337.000
343.428;    0.675; -488.000; -448.000
343.562;  -17.975; -172.000;  -23.000
343.696;   -8.000; -385.000; -314.000
343.830;  -10.475; -362.000; -356.000
343.964;   26.650; -231.000; -168.000
344.098;  989.300;  199.000;   70.000
344.232;  846.400; -266.000; -127.000
344.366;   97.475; -567.000; -453.000
344.500;   78.350; -665.000; -744.000
344.634;   48.000; -324.000; -164.000
344.768;    7.950; -531.000; -341.000
344.902;   24.900;  278.000;  256.000
345.035;  -56.175; -556.000; -496.000
345.169; -127.275; -933.000; -656.000
345.303;  -54.825; -308.000; -482.000
345.437;  -75.500; -826.000; -717.000
345.571;  -66.475; -675.000; -594.000
345.704;  -48.750; -309.000; -532.000
345.838;  -14.075; -331.000; -284.000
345.972;  -30.750; -543.000; -495.000
346.106;  159.425; -179.000; -190.000
346.239;  431.075; -312.000; -243.000
346.373;    2.875; -343.000; -302.000
346.507; -138.550; -950.000; -962.000
346.640;  153.325;  -30.000;   13.000
346.774;  -29.075; -650.000; -797.000
346.908;   -8.325; -138.000;  -11.000
347.041;  -97.425; -646.000; -593.000
347.175;   16.975;  259.000;   27.000
347.309;  -70.200; -698.000; -628.000
347.442;  -93.200; -883.000; -732.000
347.576;  304.375;  670.000;  668.000
347.709;  236.825; -123.000;  -52.000
347.843;  -86.225; -933.000; -825.000
347.976;   31.875;  235.000;  294.000
348.110; -179.100;-1268.000;-1186.000
348.243;  -88.725; -679.000; -772.000
348.377;    6.850;  -26.000;   60.000
348.510;   54.000;  403.000;  540.000
348.644;  -27.550;  -37.000; -159.000
348.777;   13.625;  180.000;  191.000
348.911;  -39.500; -142.000; -112.000
349.044;  194.775;  471.000;  448.000
349.178;  161.125;-1069.000;-1006.000
349.311;  114.325;  141.000;  255.000
349.444;  -11.000; -927.000; -813.000
349.578;  -15.100; -347.000; -200.000
349.711; -105.775; -959.000; -862.000
349.845;   12.725; -661.000; -591.000
349.978; -139.225;-1224.000;-1137.000
350.111;  -69.250; -546.000; -612.000
350.244;  -85.500; -596.000; -700.000
350.378;   17.525; -392.000; -393.000
350.511;  -70.325; -393.000; -426.000
350.644;  -90.175; -808.000; -806.000
350.778;    8.350;  168.000;  104.000
350.911;   13.950;  134.000;  140.000
351.044;  -98.400; -685.000; -615.000
351.177;  -12.900; -321.000; -281.000
351.310;   -6.950;    3.000; -131.000
351.444;  -76.350; -888.000; -788.000
351.577;  124.450;  140.000;   90.000
351.710;   96.175;  593.000;  417.000
351.843;  -37.775; -165.000;  -77.000
351.976;    1.725;  149.000;  -79.000
352.109;  -72.625; -621.000; -612.000
352.242;  -24.025; -464.000; -419.000
352.376;  -40.150; -580.000; -636.000
352.509;  206.925; -437.000; -356.000
352.642;   30.375; -654.000; -604.000
352.775;   82.575; -141.000;  -98.000
352.908; -106.850; -933.000; -904.000
353.041;  -97.475; -814.000; -824.000
353.174;  -56.450; -551.000; -424.000
353.307;  -76.700; -753.000; -764.000
353.440;   85.350;  541.000;  453.000
353.573; -112.075; -957.000;-1008.000
353.706;  -40.250; -384.000; -558.000
353.839;   -8.075; -264.000; -220.000
353.971;  -76.500; -657.000; -512.000
354.104;  -73.650; -896.000; -835.000
354.237;  -19.825; -627.000; -662.000
354.370;  -81.750; -846.000; -879.000
354.503; -162.225;-1231.000;-1308.000
354.636;  -42.975; -529.000; -348.000
354.769; -118.400; -937.000; -860.000
354.902;    7.875; -230.000; -139.000
355.034;  -10.425; -164.000; -220.000
355.167;   -5.400; -262.000; -162.000
355.300;  -95.150;-1061.000; -880.000
355.433;  943.550;  -71.000;  -14.000
355.565; 1467.125; -402.000; -384.000
355.698;  371.525; -356.000; -296.000
355.831;    5.950; -882.000; -801.000
355.964;  109.000; -285.000; -170.000
356.096;  -81.800; -856.000; -843.000
356.229;   25.750; -523.000; -530.000
356.362;  321.600; -373.000; -266.000
356.494;  587.125; -229.000; -162.000
356.627;  517.875;  269.000;  377.000
356.760;  678.525;  120.000;   53.000
356.892;  897.550; -286.000; -601.000
357.025;  733.000;  403.000;  389.000
357.157;  651.475; -167.000; -179.000
357.290;  647.850; -856.000; -713.000
357.423;  198.550; -667.000; -556.000
357.555;  115.200; -217.000; -228.000
357.688;  141.425; -483.000; -364.000
357.820;  498.700; -870.000; -877.000
357.953; 3974.275; -563.000; -589.000
358.085;  893.050; -632.000; -612.000
358.218; 1294.850;-1131.000; -932.000
358.350;  240.425;  -58.000;  312.000
358.483; -108.050;-1300.000;-1187.000
358.615;    2.375;-1182.000;-1078.000
358.747;  -40.775;-1187.000;-1058.000
358.880;   43.425; -810.000; -744.000
359.012;   -2.800; -376.000; -202.000
359.145;  -24.150; -480.000; -511.000
359.277;   79.975; -962.000; -913.000
359.409; 3274.825;  536.000;  231.000
359.542;  855.750; -738.000; -688.000
359.674;   87.275;   46.000;   13.000
359.806;  -52.700; -565.000; -438.000
359.939;  -37.175; -617.000; -516.000
360.071;  -12.725; -583.000; -579.000
360.203;  -20.950; -411.000; -364.000
360.335;   63.625;  164.000;  -16.000
360.468;  213.725; -249.000; -307.000
360.600; 2610.900; -547.000; -454.000
360.732; 2753.900; -546.000; -423.000
360.864;  382.950;-1216.000;-1044.000
360.996;  328.125; -516.000; -554.000
361.129;   52.325; -389.000; -598.000
361.261;   25.850;  110.000; -113.000
361.393;  -21.325; -252.000; -214.000
361.525;   36.925;   94.000;  244.000
361.657;  -39.775; -821.000; -703.000
361.789;   16.325; -139.000; -155.000
361.921;  266.500; -642.000; -593.000
362.053;  291.575;  524.000;  541.000
362.185;   58.425;  288.000;   72.000
362.318;  -57.375; -709.000; -705.000
362.450;  141.675;  294.000;  444.000
362.582;  133.050; -913.000; -870.000
362.714;  -28.750; -353.000; -332.000
362.846;  -78.325; -606.000; -490.000
362.978; -135.675; -941.000; -811.000
363.109;   70.900; -161.000; -260.000
363.241;  480.275; -739.000; -749.000
363.373;  429.900; -649.000; -564.000
363.505;  637.575; -186.000;  -91.000
363.637;  156.975; -787.000; -601.000
363.769; -111.600;-1067.000;-1080.000
363.901;  -60.625; -596.000; -654.000
364.033; -102.350;-1103.000;-1062.000
364.165;   20.200; -283.000; -283.000
364.296;   76.225; -316.000; -177.000
364.428;   74.450;-1344.000;-1220.000
364.560;  -77.750; -679.000; -661.000
364.692;  -56.250; -738.000; -835.000
364.824;  301.900; -588.000; -456.000
364.955;  446.100; -402.000; -564.000
365.087;  845.075;-1097.000; -852.000
365.219;   27.375; -686.000; -816.000
365.351;  -67.075; -526.000; -572.000
365.482;   67.875;  300.000;  240.000
365.614;  -47.150; -402.000; -314.000
365.746;  -98.900; -729.000; -752.000
365.877;  -89.700; -706.000; -672.000
366.009;  261.650;  -35.000;  -62.000
366.141;  -85.725;-1249.000;-1134.000
366.272; -115.075; -803.000; -719.000
366.404; -104.950;-1005.000; -874.000
366.535;    1.050; -139.000;  -12.000
366.667;  -92.875; -644.000; -649.000
366.799;   45.400;  353.000;  203.000
366.930; -109.600; -862.000; -996.000
367.062;  122.800; -639.000; -613.000
367.193;  150.625; -872.000; -842.000
367.325;  -56.750; -580.000; -684.000
367.456;   71.175; -246.000;   31.000
367.588;  156.725; -371.000; -318.000
367.719;   33.575;  -44.000;  -45.000
367.851;  -10.400; -222.000; -241.000
367.982;  -27.850; -875.000; -732.000
368.113;  129.875; -475.000; -358.000
368.245; -116.050; -960.000; -841.000
368.376;  -11.650; -254.000; -302.000
368.508;  -27.000; -188.000; -263.000
368.639; -137.475;-1166.000;-1034.000
368.770;   -7.400; -670.000; -589.000
368.902;  -50.000; -836.000; -926.000
369.033;  -98.000; -906.000; -855.000
369.164;  -41.675; -720.000; -653.000
369.296; -108.225; -452.000; -601.000
369.427;   20.825; -209.000; -144.000
369.558;  -41.575; -593.000; -377.000
369.689;  -84.150; -721.000; -569.000
369.821; -121.475; -951.000; -845.000
369.952;   -7.225;   42.000; -108.000
370.083;  -39.150; -229.000; -108.000
370.214;  -83.400; -735.000; -650.000
370.345;  -16.850;   65.000;   81.000
370.477;  -87.700; -810.000; -790.000
370.608;  262.000; -328.000; -264.000
370.739;  -34.125;-1233.000;-1292.000
370.870;  -25.250;-1102.000; -923.000
371.001;  118.500; -378.000; -467.000
371.132;  -68.625; -754.000; -735.000
371.263;  -19.550;  -42.000; -148.000
371.394; -121.900; -841.000; -748.000
371.525;   41.575;  345.000;  225.000
371.657;  -85.825; -808.000; -670.000
371.788;   82.000;  103.000;  199.000
371.919;  193.750; -384.000; -304.000
372.050; 3950.875;  -91.000; -156.000
372.181; 1177.500; -188.000; -294.000
372.311;  417.575;   42.000; -127.000
372.442;   43.025; -457.000; -451.000
372.573;  -22.125; -444.000; -340.000
372.704; -106.475;-1008.000; -980.000
372.835;   95.200; -228.000; -289.000
372.966;  -57.525; -646.000; -554.000
373.097;  -52.675; -575.000; -711.000
373.228;  -30.600; -717.000; -542.000
373.359;  160.700; -824.000; -536.000
373.490; 1058.075; -881.000; -727.000
373.620; 1278.425;-1001.000; -803.000
373.751; 1978.625; -332.000; -396.000
373.882;  888.600; -663.000; -733.000
374.013;   75.775; -449.000; -262.000
374.143;  -21.300; -581.000; -659.000
374.274;  -95.225; -987.000; -908.000
374.405;  200.400; -388.000; -276.000
374.536;  506.950; -526.000; -387.000
374.666; 1244.350; -759.000; -807.000
374.797;  273.850; -817.000; -868.000
374.928;  978.050; -710.000; -560.000
375.058;  991.925; -535.000; -500.000
375.189;   85.425;  -59.000;  -93.000
375.320;  -91.575; -928.000;-1034.000
375.450;  -36.925; -625.000; -616.000
375.581;  -49.375; -526.000; -436.000
375.712;  -19.125; -574.000; -250.000
375.842;  349.675; -438.000; -415.000
375.973;  258.350; -554.000; -513.000
376.103;  -44.225; -665.000; -648.000
376.234;  -78.975; -531.000; -552.000
376.364;  -26.675; -944.000; -867.000
376.495;  345.175;  925.000;  529.000
376.625;   16.450; -472.000; -485.000
376.756;   84.125; -709.000; -678.000
376.886;  -50.625;-1178.000;-1026.000
377.017;   43.075;-1048.000;-1061.000
377.147;  336.900; -786.000; -782.000
377.278;   58.975;  174.000;  228.000
377.408; -129.025; -801.000; -815.000
377.538;  -98.775; -707.000; -693.000
377.669;  -76.025; -537.000; -613.000
377.799;  -90.800; -645.000; -635.000
377.929;  -57.150; -610.000; -428.000
378.060; -121.075; -781.000; -847.000
378.190;  -49.800; -726.000; -531.000
378.320;  -47.450; -401.000; -406.000
378.451;    0.975; -131.000;  -22.000
378.581;   -1.850;  -67.000; -110.000
378.711;  175.025; 1035.000;  866.000
378.841;  -11.375; -533.000; -675.000
378.972;  -50.825; -871.000; -751.000
379.102;    9.100; -652.000; -579.000
379.232;  -13.650; -126.000;  -73.000
379.362; -100.850;-1001.000; -885.000
379.492;   19.600; -373.000; -424.000
379.623;  106.200;    0.000;  111.000
379.753;  -88.725;-1107.000; -974.000
379.883;  222.275;   59.000;  156.000
380.013;   32.800;-1081.000;-1017.000
380.143;  -89.950;-1097.000;-1056.000
380.273;  -97.225; -985.000; -861.000
380.403;    6.275; -344.000; -257.000
380.533;  -13.725; -651.000; -664.000
380.663;   96.025;  173.000;  128.000
380.793;  -71.300;-1027.000;-1074.000
380.923;  -24.600; -103.000;  -34.000
381.053;  -95.525; -613.000; -623.000
381.183;  -22.450; -106.000; -248.000
381.313;   48.925; -656.000; -470.000
381.443;   55.300; -692.000; -473.000
381.573;  236.800; -402.000; -409.000
381.703;  328.900;-1249.000;-1095.000
381.833; -117.650;-1454.000;-1336.000
381.963;  121.575; -134.000;  -87.000
382.093; 1533.800; -925.000; -909.000
382.223;  476.075; -713.000; -602.000
382.353;    2.375; -801.000; -608.000
382.482;  430.200;-1091.000; -964.000
382.612;  856.500; -872.000; -644.000
382.742;  484.025; -695.000; -622.000
382.872;  310.275; -565.000; -551.000
383.002;   78.725;  347.000; -132.000
383.131;  -10.925; -226.000; -160.000
383.261;  -40.375; -706.000; -768.000
383.391;  305.800; -552.000; -377.000
383.521; 3053.500;  451.000;  263.000
383.650;  723.700; -947.000; -904.000
383.780;  -28.975; -783.000; -656.000
383.910;  117.975;  880.000;  802.000
384.039;   36.850; -794.000; -656.000
384.169;  256.400;-1205.000;-1017.000
384.299;  -14.375; -650.000; -662.000
384.428;  -81.375; -764.000; -680.000
384.558;  -32.475; -308.000; -275.000
384.687;  -35.975; -414.000; -334.000
384.817;   16.925;   75.000;   -2.000
384.947;   38.825; -234.000; -141.000
385.076;  319.825;  982.000;  912.000
385.206;  113.975;  369.000;  480.000
385.335;  -12.000; -549.000; -417.000
385.465;  -69.950; -655.000; -663.000
385.594;  159.700;  -53.000;  -44.000
385.724;  493.100; -868.000; -838.000
385.853;  124.875; -296.000; -270.000
385.982; 1502.975; -743.000; -787.000
386.112; 2332.650;-1052.000; -871.000
386.241;  161.000; -307.000; -312.000
386.371;   34.875; -174.000;  -87.000
386.500;    6.400; -825.000; -789.000
386.629;   35.925; -874.000; -817.000
386.759;   70.550;  -43.000;   68.000
386.888;    0.500; -170.000; -250.000
387.017;  -64.100; -648.000; -620.000
387.147;  -87.400; -771.000; -798.000
387.276;   11.500; -410.000; -397.000
387.405;   19.275; -398.000; -342.000
387.535;  -37.975; -452.000; -361.000
387.664;  -46.100; -692.000; -620.000
387.793;   85.125; -198.000; -113.000
387.922;  575.200;  255.000;  200.000
388.052;   30.875; -576.000; -423.000
388.181;   33.275; -342.000; -472.000
388.310;    6.450; -889.000; -710.000
388.439;  -30.675; -749.000; -742.000
388.568;  206.525;  365.000;  244.000
388.697; 1174.125; -756.000; -653.000
388.826;  239.050; -768.000; -666.000
388.956;   71.450; -285.000; -307.000
389.085;  -27.650; -347.000; -287.000
389.214; -116.250; -842.000; -872.000
389.343;  -54.375; -645.000; -413.000
389.472;  395.925;  126.000;  149.000
389.601;  515.050;   91.000;    0.000
389.730;   25.950; -568.000; -687.000
389.859;   75.600;  226.000;   46.000
389.988;  193.200; -423.000; -408.000
390.117;  155.225; -168.000; -146.000
390.246;   -0.525; -331.000; -320.000
390.375;  131.100; -673.000; -626.000
390.504;  -55.100; -703.000; -621.000
390.633;  -79.925; -672.000; -726.000
390.761;  -51.325; -732.000; -645.000
390.890;   28.250;   -4.000; -130.000
391.019;  -19.550; -421.000; -441.000
391.148; -117.075; -826.000; -855.000
391.277;  -49.800; -576.000; -493.000
391.406;  -61.925; -821.000; -805.000
391.534;   23.775;  574.000; -301.000
391.663;  -61.550; -583.000; -645.000
391.792;  -82.375; -673.000; -701.000
391.921;  120.050;   -3.000;   15.000
392.050;  220.150; -287.000; -228.000
392.178;  -13.200;-1206.000;-1061.000
392.307;  186.325; -758.000; -712.000
392.436;   92.925; -427.000; -641.000
392.564;   16.525;  166.000;   -6.000
392.693;  -83.450; -860.000; -682.000
392.822;  239.700; -529.000; -534.000
392.950;  107.650; -880.000; -714.000
393.079;  381.175; -188.000; -328.000
393.208;   40.875; -488.000; -511.000
393.336;   -8.475; -170.000; -145.000
393.465;  -44.525; -317.000; -199.000
393.593;    3.125;   62.000;   79.000
393.722; -135.675;-1121.000; -916.000
393.850;  -28.575; -188.000;  -61.000
393.979; -132.825; -926.000; -805.000
394.107;  -54.900; -517.000; -537.000
394.236;  -32.500; -570.000; -507.000
394.364;  215.100;  383.000;  206.000
394.493;  300.925; -911.000; -767.000
394.621;  -24.000; -955.000; -916.000
394.750;  706.850; -873.000; -923.000
394.878; 2886.050; -247.000; -149.000
395.007; 3801.950; -721.000; -807.000
395.135;  280.925; -790.000; -721.000
395.263;  -84.550;-1038.000;-1040.000
395.392;    7.075;  -25.000; -107.000
395.520; -133.450; -818.000; -679.000
395.648;  -84.225; -865.000; -915.000
395.777;  -14.200; -366.000; -405.000
395.905;  -42.425; -449.000; -564.000
396.033;   18.700;  217.000;  172.000
396.162;  507.925; -399.000; -453.000
396.290;  445.525;  -17.000;   -2.000
396.418;  118.750; -555.000; -514.000
396.546;  -72.375; -571.000; -466.000
396.674;  -89.350; -850.000; -878.000
396.803;   16.875;  -72.000;  -23.000
396.931;  108.975; -179.000; -199.000
397.059;   71.650;-1026.000; -989.000
397.187;  -86.525;-1026.000; -975.000
397.315; -136.250; -884.000; -649.000
397.443;  -82.850; -592.000; -443.000
397.572;  -94.625; -578.000; -424.000
397.700;   -8.525; -607.000; -614.000
397.828;   21.125;  120.000;  -90.000
397.956;  -41.825; -508.000; -478.000
398.084;  -54.675; -767.000; -626.000
398.212;   50.025;  137.000;  124.000
398.340;   28.450;  -56.000;  159.000
398.468;   32.625; -390.000; -169.000
398.596; -137.950; -993.000; -953.000
398.724; -106.425; -762.000; -767.000
398.852; -157.850;-1024.000; -976.000
398.980;  -54.375; -560.000; -560.000
399.108;  -39.425; -982.000; -735.000
399.236;   44.550;   13.000;    8.000
399.363;   25.975;  222.000;  196.000
399.491;  -68.375; -404.000; -398.000
399.619; -117.000; -829.000; -800.000
399.747;  -96.050; -859.000; -771.000
399.875;   94.175;  220.000;  234.000
400.003;  -42.250; -359.000; -284.000
400.130;  -85.300; -421.000; -341.000
400.258;  -20.600;  -83.000;   38.000
400.386;  -62.175; -352.000; -168.000
400.514;  -28.125; -526.000; -587.000
400.641;  -78.250; -928.000; -802.000
400.769; -145.050; -979.000; -888.000
400.897; -108.475; -838.000; -793.000
401.025;  -11.250; -166.000; -152.000
401.152;    9.250;  220.000;   38.000
401.280;  -77.550; -430.000; -429.000
401.408; -116.450; -712.000; -576.000
401.535;  -96.225; -735.000; -758.000
401.663; -179.150;-1134.000;-1054.000
401.790;  -74.675; -514.000; -525.000
401.918;   50.875;  436.000;  405.000
402.046;  -14.200;  134.000;  122.000
402.173;  -28.825;  -18.000;    7.000
402.301;  -74.750; -519.000; -397.000
402.428;   42.275;  528.000;  383.000
402.556; -137.675;-1188.000; -913.000
402.683;  -22.475;  -20.000;   -1.000
402.811;  -21.100;  -37.000; -206.000
402.938;   -2.825;   20.000;   27.000
403.066;  228.175; -574.000; -558.000
403.193;  376.350;  299.000;  239.000
403.321;  294.075; -396.000; -574.000
403.448;  362.975;   83.000;   27.000
403.575;  160.125;  -90.000;  -46.000
403.703;  -98.375; -732.000; -557.000
403.830;  -59.250; -531.000; -496.000
403.957; -146.075;-1117.000;-1023.000
404.085;   16.025;  -61.000; -172.000
404.212;  105.325;  -50.000;   63.000
404.339;  259.925; -566.000; -306.000
404.467; 5643.375; -612.000; -524.000
404.594; 3803.675; -287.000; -227.000
404.721;  925.125; -869.000; -764.000
404.848;   81.350; -113.000; -202.000
404.976; -114.325; -856.000; -783.000
405.103;  -13.425;  -14.000;  -82.000
405.230;    1.250;  190.000;  226.000
405.357;   27.650;  117.000;   44.000
405.484;  261.700;  -49.000;    5.000
405.612;   51.325; -548.000; -563.000
405.739;  -48.925; -488.000; -243.000
405.866;   80.050;  669.000;  385.000
405.993;  -54.875; -398.000; -102.000
406.120; -126.150; -801.000; -887.000
406.247;  -47.375; -323.000; -342.000
406.374;  486.975;  540.000;  629.000
406.501;  131.675; -632.000; -702.000
406.628;  -83.375; -621.000; -589.000
406.755;  -95.825; -803.000; -620.000
406.882;  -40.050; -228.000; -277.000
407.009; -113.750; -719.000; -628.000
407.136;   77.600; -480.000; -401.000
407.263;  146.175; -939.000; -829.000
407.390;  -66.600; -692.000; -614.000
407.517; -167.575;-1139.000;-1187.000
407.644;  -56.475; -332.000; -256.000
407.771;  -45.975; -249.000; -287.000
407.898;   19.400;  168.000;  328.000
408.025;  -62.975; -421.000; -313.000
408.151;    0.575;   82.000;  153.000
408.278;  -50.600; -267.000; -216.000
408.405; -110.475; -931.000; -899.000
408.532;  -62.800; -549.000; -542.000
408.659; -120.400; -677.000; -648.000
408.785; -196.875;-1298.000;-1170.000
408.912;  -51.275; -412.000; -296.000
409.039; -106.950; -610.000; -686.000
409.166;  -96.700; -591.000; -555.000
409.292; -106.750; -571.000; -534.000
409.419; -115.300; -665.000; -649.000
409.546;  -93.925; -431.000; -192.000
409.672; -102.575; -713.000; -545.000
409.799;  -18.050;  -36.000;   34.000
409.926;  -34.425; -180.000; -179.000
410.052; -165.500;-1127.000;-1091.000
410.179;  -50.500; -368.000; -392.000
410.305;  -85.550; -375.000; -493.000
410.432;  -60.750; -220.000; -333.000
410.558;  -96.700; -305.000; -380.000
410.685; -105.475; -688.000; -431.000
410.812;  -99.675; -409.000; -588.000
410.938; -143.050; -964.000; -808.000
411.065;  -92.925; -671.000; -645.000
411.191;    0.150; -189.000; -174.000
411.317; -122.450; -823.000; -742.000
411.444;  -66.250; -317.000; -246.000
411.570;  -66.325; -339.000; -294.000
411.697; -118.625; -758.000; -752.000
411.823; -171.125; -989.000; -999.000
411.949;  -23.125;  -56.000;   17.000
412.076; -104.700; -539.000; -519.000
412.202; -123.350; -758.000; -757.000
412.329; -114.100; -798.000; -752.000
412.455; -109.025; -821.000; -657.000
412.581;  -18.575;  -15.000;  172.000
412.707;  -60.000; -540.000; -457.000
412.834;   35.650;  156.000;  219.000
412.960;  -73.400; -785.000; -784.000
413.086;  -94.800; -743.000; -701.000
413.212;  157.500;  604.000;  578.000
413.339;  -49.075; -685.000; -701.000
413.465;   18.425; -364.000; -310.000
413.591;  -84.250; -757.000; -474.000
413.717;  -39.000; -358.000; -366.000
413.843; -140.825; -839.000; -861.000
413.969;  -49.025;  -47.000; -292.000
414.096; -113.625; -679.000; -679.000
414.222;    7.125;  -33.000;   85.000
414.348;  -22.350; -652.000; -385.000
414.474;  118.225;   38.000;  -52.000
414.600;    6.400; -126.000; -144.000
414.726;   -0.750;  -96.000;  -55.000
414.852;  -54.450; -365.000; -342.000
414.978;   28.675;  104.000;  -18.000
415.104;   34.250;   38.000;   80.000
415.230;   31.325; -329.000; -330.000
415.356;   39.100; -409.000; -514.000
415.482;  199.450;   13.000;  -35.000
415.608;  274.450; -247.000; -323.000
415.734;  965.525;   67.000;   38.000
415.860;19753.925; -875.000; -767.000
415.986;14139.800; -685.000; -607.000
416.111; 1208.850; -798.000; -652.000
416.237;  232.925; -424.000; -571.000
416.363; 1112.325; -765.000; -733.000
416.489; 4035.875; -324.000; -251.000
416.615;  417.275; -707.000; -742.000
416.741;  -28.975; -677.000; -784.000
416.866;  -88.550; -673.000; -736.000
416.992; -122.450; -801.000; -818.000
417.118;  -28.100;  -41.000;  -80.000
417.244;  -67.300; -798.000; -531.000
417.369;  -78.250; -801.000; -612.000
417.495;    1.600; -325.000; -254.000
417.621;  -79.250;-1015.000; -803.000
417.746;    8.375; -579.000; -572.000
417.872;   64.025; -254.000; -144.000
417.998;   53.425; -515.000; -530.000
418.123; 1048.600;-1073.000; -845.000
418.249; 5288.450; -512.000; -601.000
418.374;  705.350; -916.000; -824.000
418.500;  108.425; -383.000; -482.000
418.626;  115.800;   70.000;  -59.000
418.751;  132.600; -549.000; -448.000
418.877;  184.100; -637.000; -643.000
419.002; 1770.050; -688.000; -560.000
419.128;12291.650; -930.000; -721.000
419.253; 2930.475; -967.000; -837.000
419.379;  394.125; -391.000; -338.000
419.504;  390.150;  325.000;  415.000
419.629;  496.650; -393.000; -212.000
419.755; 3512.375; -317.000; -254.000
419.880;20327.050;  -98.000;   67.000
420.006;11155.200; -280.000; -221.000
420.131;28693.725; -662.000; -775.000
420.256; 4042.500; -315.000; -316.000
420.382;  534.275; -665.000; -687.000
420.507;   67.725; -649.000; -778.000
420.632;  167.000; -337.000; -339.000
420.758;  290.175; -251.000; -425.000
420.883;  -80.900; -876.000; -672.000
421.008;  -85.375; -775.000; -619.000
421.133;  -74.300; -509.000; -467.000
421.259;  -28.725; -325.000; -259.000
421.384; -113.775; -834.000; -693.000
421.509;  -39.200;-1052.000; -862.000
421.634; 1333.450; -936.000; -820.000
421.759;  587.450; -359.000; -327.000
421.885;  -44.875; -717.000; -656.000
422.010;  -68.675; -673.000; -542.000
422.135; -152.800; -695.000; -727.000
422.260;   36.000;  340.000;  280.000
422.385;  -45.850;   12.000;  -98.000
422.510;   13.100;  151.000;  -26.000
422.635;   14.475;  -87.000;  -43.000
422.760;  119.300; -766.000; -791.000
422.885;   76.075;  -57.000;  -80.000
423.010;  -21.500; -112.000; -169.000
423.135;  -91.850; -481.000; -561.000
423.260;  -14.750; -150.000; -245.000
423.385;   65.325;  476.000;  222.000
423.510;   39.650;   71.000;  -22.000
423.635;   92.300;  133.000;   45.000
423.760;   57.275;  383.000;  328.000
423.885;   68.200;  336.000;  391.000
424.010;   22.675;  -68.000;  -13.000
424.135;   -2.525;    5.000;  -33.000
424.259;  -84.750; -654.000; -457.000
424.384;  -47.100; -279.000; -272.000
424.509;   -7.425; -260.000; -186.000
424.634;  -99.800; -761.000; -623.000
424.759;  -19.125; -688.000; -544.000
424.883;  -14.425; -506.000; -527.000
425.008;  172.375; -502.000; -410.000
425.133; 1958.000; -679.000; -653.000
425.258;  892.750; -517.000; -381.000
425.382; 1120.450; -867.000; -774.000
425.507; 2826.250; -487.000; -543.000
425.632;  448.100; -802.000; -663.000
425.756;  439.775; -256.000; -146.000
425.881; 6357.775; -831.000; -857.000
426.006;16838.925; -604.000; -355.000
426.130; 2595.750; -696.000; -508.000
426.255;  341.550; -611.000; -491.000
426.379;  164.375; -189.000; -577.000
426.504;  368.950;  660.000;  544.000
426.629; 4013.575; -519.000; -466.000
426.753; 2727.825;   64.000;  -46.000
426.878;  313.925; -252.000; -288.000
427.002;  157.700; -651.000; -668.000
427.127; 1612.000;  -35.000; -158.000
427.251;11121.250;  372.000;  401.000
427.375; 3095.325; -191.000; -173.000
427.500; 2504.525; -616.000; -610.000
427.624;  832.625; -234.000; -400.000
427.749;   97.925; -216.000; -225.000
427.873;  -28.750; -499.000; -412.000
427.997;  -35.025; -222.000; -230.000
428.122;   80.000;  795.000;  703.000
428.246;   78.250;  433.000;  434.000
428.371; -132.425; -869.000; -773.000
428.495; -106.975; -624.000; -646.000
428.619;  -25.650; -186.000; -117.000
428.743;   23.625;   65.000;  132.000
428.868;   37.700; -732.000; -643.000
428.992; 1538.225; -219.000; -326.000
429.116;  638.625; -329.000; -357.000
429.240;  308.400;  419.000;  426.000
429.365;   -8.550; -454.000; -574.000
429.489;  -31.200; -638.000; -647.000
429.613;   13.050; -236.000; -177.000
429.737;   49.925; -563.000; -432.000
429.861;  265.100; -247.000; -133.000
429.985; 5475.775; -425.000; -305.000
430.109; 5902.750; -770.000; -908.000
430.234;  696.875;   76.000;  -50.000
430.358;   56.550; -250.000; -160.000
430.482;  -65.000; -672.000; -564.000
430.606;  -56.850; -655.000; -375.000
430.730;   36.750; -437.000; -388.000
430.854;  150.750; -909.000; -835.000
430.978;  -56.550; -795.000; -764.000
431.102;  -85.075; -499.000; -422.000
431.226; -121.525; -874.000; -815.000
431.350;   44.175;  345.000;  422.000
431.474;  -68.150; -661.000; -373.000
431.597; -147.800;-1060.000; -848.000
431.721;  -80.975; -276.000; -267.000
431.845; -124.725; -704.000; -472.000
431.969;  -76.400; -304.000; -349.000
432.093;  -97.300; -395.000; -317.000
432.217;  -10.025;   32.000;   82.000
432.341;  -92.425; -523.000; -518.000
432.464;   19.325;   96.000;   40.000
432.588;  229.925; -401.000; -329.000
432.712;  117.525;  -52.000;  -52.000
432.836;   49.500;  213.000;  263.000
432.959;   -8.975; -372.000; -311.000
433.083;   84.800;   11.000;    2.000
433.207;  387.950;  285.000;  930.000
433.330; 4989.900; -391.000; -200.000
433.454; 6003.450; -654.000; -638.000
433.578; 3478.875;  583.000;  278.000
433.701;  618.750; -623.000; -675.000
433.825;  142.900; -292.000; -299.000
433.949;  209.975;   28.000;  -72.000
434.072;   70.950; -410.000; -323.000
434.196;   -2.375; -309.000; -117.000
434.319; 3768.050;25482.000;25124.000
434.443;  735.250; -656.000; -603.000
434.566; 2590.950;  281.000;   62.000
434.690;  400.750; -637.000; -383.000
434.813;   50.600; -251.000; -173.000
434.937;  -72.500; -569.000; -696.000
435.060;  -27.500; -423.000; -332.000
435.184;  387.525; -492.000; -217.000
435.307;  187.425;  159.000;  102.000
435.431;    5.400;  -40.000;   24.000
435.554;  -72.350; -399.000; -240.000
435.677;  -82.550; -350.000; -258.000
435.801;  -48.700;  -25.000;   49.000
435.924;   -6.250;    1.000;  -67.000
436.048; -106.500;-1019.000; -732.000
436.171;  -67.850; -240.000;  -66.000
436.294;  -15.550; -248.000; -229.000
436.417;   78.150; -963.000; -849.000
436.541;  -89.825; -814.000; -840.000
436.664;  -49.050; -242.000; -316.000
436.787;  -20.825;   13.000;  113.000
436.910; -111.625; -792.000; -422.000
437.034;   16.400;  142.000;  143.000
437.157;   54.800;  -11.000;    0.000
437.280;  -53.700; -392.000; -292.000
437.403;  -73.950; -982.000; -869.000
437.526;  728.275; -903.000; -865.000
437.649; 2576.800; -505.000; -332.000
437.772;  374.575; -692.000; -540.000
437.896;  148.175;  700.000;  544.000
438.019;  -89.600; -758.000; -503.000
438.142;  -75.950; -596.000; -506.000
438.265;   -3.300; -639.000; -670.000
438.388;  633.225; -520.000; -410.000
438.511;  120.275; -597.000; -394.000
438.634;  -43.500; -247.000; -125.000
438.757; -136.925; -693.000; -619.000
438.880;  -23.850;  -34.000;  -57.000
439.003;  -80.375; -417.000; -437.000
439.126;  -63.800; -287.000; -167.000
439.248;  -50.250;  -98.000; -139.000
439.371;  -39.650;    9.000;  -53.000
439.494;   30.900;  510.000;  439.000
439.617;  -44.650;   65.000;  -88.000
439.740; -181.875; -968.000; -816.000
439.863; -144.875; -755.000; -595.000
439.986; -119.050; -476.000; -431.000
440.108;  -36.750; -161.000; -112.000
440.231; -155.350; -950.000; -836.000
440.354;  -32.000;  -64.000; -150.000
440.477;   38.000; -566.000; -542.000
440.599;    3.950; -200.000; -225.000
440.722; -114.575; -709.000; -586.000
440.845;   69.425;  751.000;  928.000
440.968;  -98.500; -415.000; -311.000
441.090;  -67.775; -199.000;  -33.000
441.213; -164.100;-1021.000; -825.000
441.336;  -59.550; -159.000;   -5.000
441.458;  -84.525; -549.000; -396.000
441.581;  -76.425; -628.000; -629.000
441.703;  -65.400; -152.000;   13.000
441.826; -114.425; -557.000; -400.000
441.948;  -36.125;   56.000;   51.000
442.071;   41.825;  555.000;  424.000
442.193; -113.125; -531.000; -485.000
442.316;   31.300;  152.000;   97.000
442.438;   55.500; -233.000;  -10.000
442.561;   66.175;  272.000;  262.000
442.683;  631.625; -809.000; -522.000
442.806; 1277.725;   -8.000;   74.000
442.928;   31.600; -859.000; -604.000
443.051;  -52.200; -577.000; -373.000
443.173;  -85.975; -341.000; -339.000
443.295;  -73.150; -263.000; -371.000
443.418;  -74.300; -321.000;  -29.000
443.540;  -17.875; -106.000;   -4.000
443.662; -112.875; -563.000; -465.000
443.785;    1.950;  335.000;  199.000
443.907;  -87.600; -362.000; -208.000
444.029; -118.750; -767.000; -494.000
444.152; -131.575; -644.000; -554.000
444.274;  -24.975;  -18.000;  -24.000
444.396; -125.975; -461.000; -221.000
444.518; -131.350; -691.000; -454.000
444.640; -114.125; -268.000; -111.000
444.763;  -21.175;  388.000;  249.000
444.885; -114.975; -432.000; -392.000
445.007;  -33.275;   35.000;   86.000
445.129; -113.100; -610.000; -515.000
445.251;  -86.650; -372.000; -439.000
445.373; -131.750; -537.000; -386.000
445.495;    9.875;  242.000;  350.000
445.617;   47.500;  853.000;  753.000
445.739;  -64.775; -215.000;  -97.000
445.861;  -30.925; -245.000; -112.000
445.984;  -22.450; -267.000; -101.000
446.105;  238.875; -418.000; -251.000
446.227;  675.650; -176.000;  -19.000
446.349;   12.500; -358.000; -249.000
446.471;  -99.700; -615.000; -448.000
446.593;  -49.750; -316.000;   19.000
446.715;    4.625;  -67.000;   41.000
446.837;   63.600;  697.000;  832.000
446.959;  -98.275; -457.000; -478.000
447.081; -137.350; -628.000; -518.000
447.203;   52.975;  862.000;  834.000
447.325;  -89.125; -270.000;   42.000
447.446;   -2.350;  286.000;  530.000
447.568; -158.650; -921.000; -803.000
447.690;  -87.550; -236.000; -245.000
447.812; -157.500; -798.000; -519.000
447.933;  -24.525;  155.000;  127.000
448.055;  -68.500; -306.000; -261.000
448.177;  156.075;   31.000;   79.000
448.299;  106.375; -935.000; -727.000
448.420;   22.825;  -25.000;  159.000
448.542;  -57.725;   -3.000;   33.000
448.664;  -21.600;  109.000;  322.000
448.785;  -23.275;  265.000;   83.000
448.907;  -75.625; -614.000; -353.000
449.028;  -11.375; -771.000; -471.000
449.150;   67.425;  492.000;  589.000
449.272; -170.625;-1044.000; -913.000
449.393;   36.025;  612.000;  694.000
449.515; -136.075; -634.000; -581.000
449.636;  -70.925; -264.000; -155.000
449.758;   65.250;  763.000;  622.000
449.879;  -90.575; -498.000; -396.000
450.001;  -84.975; -149.000;  -49.000
450.122;  -33.200;  -95.000;  162.000
450.244;  -11.500;   37.000;  364.000
450.365;  -98.375; -495.000; -301.000
450.486;  -31.725;   80.000;  268.000
450.608;   13.375;  393.000;  326.000
450.729;   69.475;  578.000;  645.000
450.850;   -5.075; -574.000; -466.000
450.972;  733.975; -552.000; -389.000
451.093; 4727.775;  190.000;  588.000
451.214; 1984.675; -516.000; -337.000
451.336;  395.575;  773.000;  579.000
451.457;   68.825;  264.000;  393.000
451.578;  -43.200; -118.000;  -74.000
451.699; -116.100; -546.000; -540.000
451.821;  -59.850; -284.000;  -50.000
451.942;   -5.575;  278.000;  285.000
452.063;   33.200;  228.000;  419.000
452.184;  552.975;  -54.000;  -49.000
452.305; 1066.300;  103.000;  170.000
452.427;  133.650; -549.000; -301.000
452.548;  -23.650;   23.000;   79.000
452.669;  -43.575; -257.000;  -89.000
452.790;  -37.700;    3.000;  -18.000
452.911;   -5.050;  195.000;  259.000
453.032;  -49.400; -289.000;  -60.000
453.153;  -43.300;  -29.000;   81.000
453.274;   64.625;  737.000;  868.000
453.395;  -48.725;  -51.000;  175.000
453.516;  133.500; 1317.000; 1388.000
453.637;  -47.725; -205.000; -150.000
453.758;  -50.350;   15.000;   69.000
453.879; -118.375; -462.000; -250.000
454.000;   89.500; 1086.000;  948.000
454.121; -111.475; -554.000; -326.000
454.242; -123.475; -599.000; -383.000
454.362;  -53.550;  -99.000;  114.000
454.483;  -37.725; -309.000; -229.000
454.604;   56.950;  512.000;  580.000
454.725; -124.650; -627.000; -555.000
454.846; -120.950; -474.000; -406.000
454.967;  -32.975;  230.000;  539.000
455.087;  -38.625;  179.000;  153.000
455.208;    6.925;  554.000;  856.000
455.329;  -54.700;  -22.000;   82.000
455.450;   39.750;  473.000;  633.000
455.570;  -96.175; -234.000; -211.000
455.691;  -36.375;  201.000;  407.000
455.812; -106.375; -270.000;  -92.000
455.932;  -59.925;  107.000;  -97.000
456.053;  -79.700;   36.000;   24.000
456.173; -118.750; -433.000; -355.000
456.294; -128.625; -476.000; -303.000
456.415;  -57.075;  -73.000;   70.000
456.535;  -23.700;  297.000;  273.000
456.656;  -55.075;  132.000;  240.000
456.776;  -71.350;    3.000;  298.000
456.897;   -2.500;  308.000;  513.000
457.017;  -71.225; -153.000;   -3.000
457.138; -126.900; -402.000; -249.000
457.258;  -40.200;  263.000;  224.000
457.379;  -16.750;  509.000;  521.000
457.499;  -14.000;  443.000;  432.000
457.620; -123.475; -407.000; -231.000
457.740;  -93.600; -132.000;  -11.000
457.860;  -56.075;   87.000;   44.000
457.981;  -52.600;  132.000;  124.000
458.101;  -72.675;  -89.000;   40.000
458.221;  -21.375;  336.000;  402.000
458.342;  -62.175;   -4.000;  -37.000
458.462;   11.600;  617.000;  352.000
458.582;  -55.300; -302.000; -294.000
458.703;    8.400;  303.000;  154.000
458.823;  -22.325;   22.000;  163.000
458.943;   32.525;  341.000;  467.000
459.063;    1.775; 1124.000;  192.000
459.183;  -35.875;  328.000;  313.000
459.304;   17.100;  315.000;  517.000
459.424;  -63.000; -246.000;  -89.000
459.544;  319.100;  388.000;  764.000
459.664;  827.025;  499.000;  506.000
459.784;  292.800; 1004.000; 1175.000
459.904;   55.575;  867.000;  744.000
460.024;   68.075;  867.000;  684.000
460.144;   26.275;  449.000;  554.000
460.264;    7.525;  515.000;  327.000
460.385;  -90.475; -145.000; -119.000
460.505;   24.975;  905.000;  858.000
460.625; -100.950;  -17.000;  -68.000
460.745;  -28.875;  396.000;  541.000
460.864;  -32.675;  153.000;  469.000
460.984;    3.575;  499.000;  573.000
461.104;  127.750; 1656.000; 1775.000
461.224;   21.425;  657.000;  650.000
461.344;  -28.700;  431.000;  360.000
461.464;  -48.325;  258.000;  513.000
461.584;  -11.550;  283.000;  466.000
461.704;  -34.175;   58.000;  108.000
461.824;  -58.625;  238.000;  259.000
461.943;  -30.125;  191.000;  130.000
462.063;  -73.300;    2.000;  324.000
462.183;   40.875;  639.000;  717.000
462.303;   98.500; 1678.000; 1230.000
462.422;   26.850;  781.000;  840.000
462.542;  -31.700;  271.000;  391.000
462.662;   35.750;  353.000;  380.000
462.782;  256.400;  833.000;  572.000
462.901;  488.600;  545.000;  717.000
463.021;  272.175; 1702.000; 1638.000
463.141;  -18.100;  337.000;  770.000
463.260;  -18.850;  614.000;  474.000
463.380;   23.600;  902.000;  884.000
463.499;  -47.475;  342.000;  332.000
463.619;  -16.975;  581.000;  559.000
463.738;  126.400; 1644.000;  903.000
463.858;   11.650;  657.000;  811.000
463.978;  -23.800;  542.000;  396.000
464.097;   46.675;  921.000; 1114.000
464.217;  116.450; 1196.000; 1143.000
464.336;  130.775; 1068.000; 1130.000
464.455;  -36.725;  328.000;  659.000
464.575;   51.675;  597.000;  602.000
464.694;  186.000; 1204.000; 1179.000
464.814;  129.100; 1190.000; 1138.000
464.933;   73.300; 1095.000; 1027.000
465.052;   90.100; 1412.000; 1054.000
465.172;   91.350;  922.000;  799.000
465.291;  144.450; 1376.000; 1320.000
465.410;    4.925;  462.000;  735.000
465.530;   96.050; 1355.000; 1310.000
465.649;   72.900; 1209.000; 1273.000
465.768;  133.800; 1673.000; 1508.000
465.888;   48.425;  941.000; 1174.000
466.007;  105.925; 1335.000; 1440.000
466.126;    2.450;  721.000;  641.000
466.245;   41.325; 1176.000; 1187.000
466.364;   41.925;  950.000; 1060.000
466.484;   73.525; 1024.000; 1213.000
466.603;   48.050; 1101.000; 1222.000
466.722;  140.425; 1490.000; 1769.000
466.841;   72.025; 1151.000; 1401.000
466.960;   38.625; 1069.000;  972.000
467.079;  137.325; 1971.000; 1786.000
467.198;   46.925; 1238.000; 1181.000
467.317;   89.400; 1768.000; 1162.000
467.436;   65.325; 1709.000; 1261.000
467.555;  126.900; 1796.000; 1746.000
467.674;   57.150; 1227.000; 1329.000
467.793;   56.325; 1376.000; 1374.000
467.912;   80.900; 1658.000; 1539.000
468.031;  150.000; 2038.000; 1930.000
468.150;  156.250; 1842.000; 1837.000
468.269;  191.625; 2313.000; 2090.000
468.388;  187.775; 2168.000; 2339.000
468.507;  262.500; 2884.000; 2903.000
468.626;  244.625; 2555.000; 2541.000
468.744;  143.575; 2018.000; 2174.000
468.863;  205.600; 2312.000; 2523.000
468.982;  102.975; 1503.000; 1555.000
469.101;  239.425; 2788.000; 2692.000
469.220;  149.750; 2333.000; 2176.000
469.338;  255.150; 2935.000; 3051.000
469.457;  207.625; 2719.000; 2545.000
469.576;  338.275; 3953.000; 3784.000
469.695;  249.275; 2877.000; 3066.000
469.813;  420.000; 4148.000; 4192.000
469.932;  425.300; 4255.000; 4485.000
470.051;  419.200; 4075.000; 4161.000
470.169;  868.100; 4470.000; 4338.000
470.288; 1473.700; 4700.000; 4809.000
470.406;  862.775; 5059.000; 5194.000
470.525;  658.250; 6101.000; 5787.000
470.644;  658.525; 6847.000; 6794.000
470.762;  829.375; 8397.000; 7873.000
470.881;  916.900; 8651.000; 8464.000
470.999; 1054.275; 9685.000; 9151.000
471.118; 1115.075;11174.000;10711.000

