
Integration time [ms]: 100.000
Averaging Nr. [scans]: 40
Smoothing Nr. [pixels]: 0
Data measured with spectrometer [name]: 2101012U2
Wave   ;Sample   ;Dark     ;Reference
[nm]   ;[counts] ;[counts] ;[counts] 

197.733;   53.900;  516.000;  404.000
197.879;  -79.175; -610.000; -634.000
198.025;  -50.425; -475.000; -420.000
198.171;  -77.125; -602.000; -612.000
198.317;  -26.950; -401.000; -316.000
198.463;  -53.250; -655.000; -404.000
198.609;   22.100;  181.000; -137.000
198.755;  -68.525; -644.000; -410.000
198.901;  -53.775; -505.000; -424.000
199.047;  -51.500; -615.000; -488.000
199.193;  -38.050; -230.000; -468.000
199.339;  -43.225; -222.000; -369.000
199.485;   43.950;  330.000;  271.000
199.631;   16.750;  227.000;  310.000
199.777;  -38.925; -466.000; -398.000
199.923;  -62.925; -610.000; -424.000
200.069;    1.125; -141.000;  -58.000
200.215;   48.750;  128.000;  453.000
200.361;   40.650;  243.000;  477.000
200.507;  -56.225; -600.000; -373.000
200.653;  -32.800; -371.000; -194.000
200.798;  -29.350; -215.000; -125.000
200.944;   -1.025; -146.000;  -41.000
201.090;   46.325;   61.000;  222.000
201.236;   -1.700; -116.000; -158.000
201.382;  115.850;  874.000;  903.000
201.528;   -1.325;  -58.000;  -48.000
201.674;  -39.300; -386.000; -293.000
201.819;  -62.625; -540.000; -439.000
201.965;  -67.950; -699.000; -447.000
202.111;  -19.175; -273.000; -226.000
202.257;  -45.175; -250.000; -238.000
202.402;   11.225;   13.000;  -36.000
202.548;  -41.675; -169.000; -116.000
202.694;   84.200;  410.000; -183.000
202.840;  -62.775; -603.000; -531.000
202.985;  -58.300; -681.000; -639.000
203.131;  -98.650; -832.000; -666.000
203.277;  -25.025; -199.000; -262.000
203.423;  -53.850; -434.000; -520.000
203.568;  -49.125; -462.000; -237.000
203.714;  -71.275; -535.000; -542.000
203.860;  -73.250; -682.000; -641.000
204.005;   39.725;  112.000;  167.000
204.151;   73.350;  561.000;  556.000
204.296;  -54.450; -354.000; -221.000
204.442;  -65.800; -600.000; -547.000
204.588;  -69.800; -592.000; -579.000
204.733;   20.250;  178.000;  168.000
204.879; -124.425;-1018.000; -822.000
205.025;   18.175;  -99.000;  126.000
205.170;    0.550;  -17.000;   94.000
205.316;   77.175;  438.000;  661.000
205.461;  -78.175; -698.000; -554.000
205.607;   88.125;  609.000;  665.000
205.752;  -69.675; -626.000; -551.000
205.898;  -57.275; -501.000; -391.000
206.043;  -63.225; -578.000; -506.000
206.189;  -27.775; -243.000; -285.000
206.334;   76.875;  554.000;  606.000
206.480;   69.850;  409.000;  239.000
206.625;  -73.725; -529.000; -552.000
206.771;  -43.375; -451.000; -373.000
206.916;  -29.025; -210.000; -537.000
207.062;  -78.650; -545.000; -591.000
207.207;  -70.975; -546.000; -443.000
207.353;   45.675;  185.000;  460.000
207.498;   13.475;  196.000;   85.000
207.643;  -45.825; -501.000; -370.000
207.789; -119.225;-1069.000; -910.000
207.934;  -85.700; -665.000; -713.000
208.080;  -24.450; -154.000;   66.000
208.225;   -2.875;  -22.000;  -57.000
208.370;  -87.625; -727.000; -619.000
208.516;  -77.450; -741.000; -487.000
208.661;  -36.675; -127.000;  -69.000
208.806;  -20.575; -165.000; -171.000
208.952; -122.125;-1044.000; -731.000
209.097;   63.400;  378.000;  349.000
209.242;  -36.925; -307.000; -382.000
209.387;   83.200;  392.000;  350.000
209.533;  -48.175; -321.000; -350.000
209.678;   77.425;  472.000;  543.000
209.823;  -45.475; -408.000; -310.000
209.969;  -98.750; -860.000; -757.000
210.114; -107.450; -907.000; -719.000
210.259;  -98.025; -939.000; -889.000
210.404;  -11.625; -171.000;  103.000
210.549;    8.950;  108.000;    3.000
210.695;   -7.400;   -3.000;  -95.000
210.840;   33.100;   94.000;   67.000
210.985;  -57.675; -484.000; -303.000
211.130;   74.575;  268.000;  406.000
211.275;   11.800;  207.000;  199.000
211.420;  -49.000; -300.000; -289.000
211.566;  -56.400; -536.000; -489.000
211.711;   19.600;  218.000;  157.000
211.856;  -65.975; -545.000; -519.000
212.001;   16.000;  151.000;   44.000
212.146;   41.050;  153.000;   49.000
212.291;  -19.925; -210.000; -186.000
212.436;  -13.325; -280.000;   -6.000
212.581;  -89.175; -685.000; -653.000
212.726;  -70.900; -487.000; -538.000
212.871;  -39.550; -552.000; -217.000
213.016; -123.350;-1172.000;-1029.000
213.161;   48.175;  406.000;  291.000
213.306;  -70.200; -435.000; -577.000
213.451;  -89.300; -778.000; -689.000
213.596;  -37.450; -455.000; -347.000
213.741;  -55.850; -448.000; -538.000
213.886;  -83.150; -498.000; -517.000
214.031;  -24.275; -294.000; -124.000
214.176;  -48.650; -408.000; -341.000
214.321;  -14.475; -296.000; -157.000
214.466;  -22.125; -163.000;  -43.000
214.611;    5.925;  -61.000;  -10.000
214.756; -121.550; -948.000; -858.000
214.901;  -25.800; -388.000; -226.000
215.046; -107.650; -797.000; -825.000
215.191;   13.650;  128.000;   35.000
215.336;  -22.975; -157.000;  -19.000
215.480;  -60.050; -684.000; -505.000
215.625;   -9.050; -175.000;  -19.000
215.770;  -93.675; -757.000; -662.000
215.915;   -4.400;   -5.000;  -97.000
216.060;   -4.375; -113.000;  -21.000
216.205;  -99.750; -731.000; -779.000
216.349;  -66.625; -470.000; -533.000
216.494; -132.625; -939.000; -867.000
216.639; -100.450; -823.000; -888.000
216.784;  -92.550; -577.000; -525.000
216.929;   50.450;  392.000;  281.000
217.073;   -7.875; -244.000;  -31.000
217.218;    5.725;   78.000;  -47.000
217.363;  -75.575; -656.000; -618.000
217.507;  -77.425; -623.000; -588.000
217.652; -122.475; -845.000; -874.000
217.797;  -83.025; -708.000; -659.000
217.942;  -88.600; -856.000; -720.000
218.086;   71.425;  608.000;  539.000
218.231;  -22.000; -174.000;  -26.000
218.376;  -28.600; -337.000; -229.000
218.520;    5.850;  -41.000;   96.000
218.665;  -17.800; -338.000; -204.000
218.810;  -33.575; -275.000; -233.000
218.954;   12.100;  201.000;   35.000
219.099; -110.325; -713.000; -963.000
219.243;  -79.525; -589.000; -554.000
219.388;  -23.700; -264.000; -136.000
219.532;   -9.225; -116.000; -116.000
219.677;  -77.825; -564.000; -521.000
219.822;    0.800;   33.000;   89.000
219.966;    2.600;   17.000;  -99.000
220.111;  -24.625; -328.000;  -40.000
220.255;  -91.750; -797.000; -750.000
220.400;  -16.225; -180.000; -146.000
220.544;  -72.150; -516.000; -450.000
220.689;  -42.250; -422.000; -451.000
220.833;  -23.825; -123.000;  -58.000
220.978;  -43.350; -393.000; -563.000
221.122;   14.450;  319.000;  307.000
221.267;  -96.250; -906.000; -837.000
221.411;  -62.500; -478.000; -394.000
221.555;    3.250; -104.000;  -23.000
221.700;  -30.250; -329.000; -222.000
221.844;   31.400;  255.000;  272.000
221.989;  -56.200; -328.000; -311.000
222.133;  -28.800; -289.000; -307.000
222.277;  -10.150;    5.000;   78.000
222.422;    9.250;  227.000;  113.000
222.566;  -41.075; -381.000; -214.000
222.711;  -63.400; -414.000; -479.000
222.855;  -76.725; -643.000; -586.000
222.999;  -70.350; -642.000; -717.000
223.144;  -26.900; -195.000; -194.000
223.288;   57.900;  423.000;  251.000
223.432;   25.575;  184.000;  230.000
223.576;   22.375;  152.000;  -21.000
223.721;   38.250;  364.000;  273.000
223.865;  -52.250; -472.000; -475.000
224.009;  230.575; 1673.000; 1631.000
224.153;  -83.150; -660.000; -671.000
224.298;  -71.425; -531.000; -489.000
224.442;  -16.775;  -74.000;  -33.000
224.586;    1.725; -169.000; -106.000
224.730;  -86.100; -858.000; -670.000
224.875; -100.825; -739.000; -688.000
225.019;   19.600;  102.000;  188.000
225.163;   44.725;  208.000;  341.000
225.307;   24.400;   97.000;  -91.000
225.451;   41.475;  360.000;  481.000
225.595;   28.600;  264.000;  176.000
225.739;  -13.300; -170.000;  -94.000
225.884;   19.600;   86.000;    5.000
226.028;  -81.450; -760.000; -626.000
226.172;  -43.525; -260.000; -273.000
226.316; -127.175; -941.000; -902.000
226.460;  -68.375; -645.000; -493.000
226.604;  -48.150; -406.000; -400.000
226.748;  -93.125; -836.000; -733.000
226.892;  -24.075; -227.000; -181.000
227.036;  -48.025; -537.000; -447.000
227.180;  -43.325; -551.000; -375.000
227.324;  -61.600; -561.000; -580.000
227.468; -111.450; -819.000; -717.000
227.612;   19.650;  242.000;  -28.000
227.756;  -95.850; -845.000; -698.000
227.900;   44.725;  342.000;  441.000
228.044;  -58.075; -509.000; -290.000
228.188;   59.525;  448.000;  568.000
228.332;  -80.150; -546.000; -472.000
228.476;  -37.525; -223.000; -149.000
228.620;  -24.550; -210.000; -150.000
228.764;   58.725;  431.000;  349.000
228.908;  -24.725; -155.000;   30.000
229.052;  -50.875; -615.000; -528.000
229.195;  -14.675; -172.000;   13.000
229.339;  -35.025; -235.000; -305.000
229.483;  -14.400;    5.000; -162.000
229.627;   -2.675; -156.000;  139.000
229.771;  -45.100; -218.000; -294.000
229.915;   12.350;  230.000;   79.000
230.059;  -84.975; -648.000; -663.000
230.202;  -39.725; -370.000; -317.000
230.346;  -22.025; -107.000;  107.000
230.490;  -47.475; -489.000; -521.000
230.634; -106.250; -736.000; -553.000
230.777;   75.575;  478.000;  509.000
230.921;  -47.575; -450.000; -359.000
231.065;  -43.375; -246.000; -286.000
231.209;   12.550;  261.000;  265.000
231.352;   22.125;   54.000;   40.000
231.496;   24.800;  568.000;  188.000
231.640;  -71.000; -693.000; -621.000
231.783;   55.850;  546.000;  525.000
231.927;  -51.875; -294.000; -365.000
232.071; -108.425; -962.000; -736.000
232.214; -100.725; -980.000; -764.000
232.358; -105.525; -683.000; -599.000
232.502;   17.900;  -19.000;    7.000
232.645; -127.000;-1090.000; -927.000
232.789;  -15.250; -257.000; -218.000
232.933;  -41.800; -407.000; -224.000
233.076; -123.450;-1038.000; -897.000
233.220;  -98.225; -752.000; -777.000
233.363;  -64.225; -669.000; -477.000
233.507;   62.950;  371.000;  129.000
233.650;  -96.850; -764.000; -834.000
233.794;   33.150;  438.000;  461.000
233.938;  -67.450; -530.000; -362.000
234.081;  -27.725;  -93.000;   31.000
234.225;  -67.725; -631.000; -539.000
234.368;  -86.600; -773.000; -723.000
234.512;  -46.250; -385.000; -299.000
234.655;  -85.200; -582.000; -555.000
234.798;  -65.450; -493.000; -466.000
234.942; -127.700; -884.000;-1002.000
235.085;  -68.475; -651.000; -443.000
235.229;  -69.600; -405.000; -410.000
235.372;  -40.725; -247.000; -191.000
235.516;  -67.075; -397.000; -321.000
235.659;   20.375;   92.000;  121.000
235.802;   -7.150;  -38.000;  -22.000
235.946;   17.825;  335.000;  215.000
236.089;   20.975;  126.000;  250.000
236.233;   51.100;  275.000;  298.000
236.376;  -54.200; -235.000; -378.000
236.519;  -46.275; -297.000; -319.000
236.663;  -22.625; -215.000; -117.000
236.806; -122.675;-1029.000; -999.000
236.949;   47.800;  543.000;  431.000
237.092;   57.900;  412.000;  391.000
237.236;  -79.550; -589.000; -502.000
237.379;   71.025;  352.000;  428.000
237.522; -106.225; -879.000; -768.000
237.666;  -26.825; -271.000;   18.000
237.809; -118.400; -851.000; -823.000
237.952;   31.500;  469.000;  271.000
238.095;  -62.675; -447.000; -442.000
238.238;   85.925;  688.000;  700.000
238.382;   10.925;  166.000;  103.000
238.525;  -72.675; -598.000; -511.000
238.668; -127.325;-1060.000; -985.000
238.811;  -80.075; -638.000; -643.000
238.954;  -56.900; -483.000; -334.000
239.097;   96.900;  617.000;  664.000
239.241;   31.625;  394.000;  326.000
239.384;  -30.100; -254.000; -214.000
239.527;  -67.350; -424.000; -224.000
239.670; -144.200; -994.000;-1091.000
239.813;  -99.250; -696.000; -658.000
239.956;   76.975;  579.000;  473.000
240.099; -116.100; -778.000; -725.000
240.242;   57.625;  428.000;  432.000
240.385;   48.050;  466.000;  450.000
240.528;  -70.325; -706.000; -473.000
240.671;    7.300;  189.000;  134.000
240.814;  -42.825; -441.000; -158.000
240.957;  -89.350; -767.000; -578.000
241.100;  -93.175; -779.000; -755.000
241.243; -144.275;-1234.000; -893.000
241.386;  -65.325; -508.000; -379.000
241.529;  -84.000; -735.000; -547.000
241.672;  -53.400; -566.000; -495.000
241.815; -118.925; -832.000; -808.000
241.958;  -15.250; -125.000; -182.000
242.101;  -77.400; -545.000; -390.000
242.244;  -39.375; -270.000; -325.000
242.387;  -49.375; -304.000; -246.000
242.530;   49.500;  470.000;  134.000
242.673;  -47.925; -381.000; -309.000
242.815; -112.775; -925.000; -899.000
242.958;  -63.525; -482.000; -381.000
243.101;   11.325;  132.000;  187.000
243.244;  -86.725; -564.000; -521.000
243.387;  -60.525; -313.000; -316.000
243.530;  -86.750; -657.000; -674.000
243.672;    4.925;   43.000;  -92.000
243.815;  -44.800; -355.000; -283.000
243.958;   -0.375;   98.000;  -26.000
244.101;   -3.800;   59.000;  -16.000
244.243;  -16.225;  -47.000;  101.000
244.386; -102.175; -761.000; -630.000
244.529;  -20.425; -132.000; -139.000
244.672; -146.050;-1154.000; -951.000
244.814;  -89.975; -621.000; -794.000
244.957;  -48.925; -380.000; -304.000
245.100;  -65.950; -489.000; -489.000
245.242;  -65.125; -387.000; -374.000
245.385;   -0.150;  -59.000;  -39.000
245.528; -103.950; -871.000; -705.000
245.670;   77.500;  612.000;  634.000
245.813;  -89.825; -599.000; -547.000
245.956;  -34.000; -324.000; -275.000
246.098;  -71.950; -508.000; -650.000
246.241;   -2.700;  194.000;   48.000
246.383;  -22.875; -119.000;  -73.000
246.526;  -62.650; -454.000; -525.000
246.669; -107.300; -889.000; -780.000
246.811;   18.900;  172.000;   -1.000
246.954;  -61.050; -512.000; -426.000
247.096;  -18.825;  -84.000;   -6.000
247.239;  -71.050; -482.000; -445.000
247.381;  -71.425; -647.000; -488.000
247.524;   69.175;  645.000;  679.000
247.666;   -8.575;   58.000;   11.000
247.809; -117.500; -887.000; -691.000
247.951;  -15.600;  -75.000;  138.000
248.094;   26.975;  432.000;  308.000
248.236; -151.700;-1262.000;-1238.000
248.378;    4.125; -356.000;  -81.000
248.521;  -30.175; -334.000; -337.000
248.663;  -34.525; -236.000; -267.000
248.806;  -30.525; -300.000; -266.000
248.948;  -95.200; -886.000; -763.000
249.090;  -43.200; -428.000; -398.000
249.233;  -55.375; -344.000; -381.000
249.375;  -57.075; -474.000; -451.000
249.518;  -16.400;  -83.000; -133.000
249.660;   -0.300; -103.000;    3.000
249.802; -152.525;-1303.000;-1189.000
249.945;  -75.525; -612.000; -540.000
250.087; -112.825; -834.000; -768.000
250.229;  -54.075; -362.000; -480.000
250.371;  -52.875; -494.000; -439.000
250.514;  -56.425; -310.000; -244.000
250.656;   -2.875;   69.000;  102.000
250.798; -120.075; -849.000; -800.000
250.940;  -56.350; -322.000; -322.000
251.083;  -20.775; -335.000; -111.000
251.225;   49.625;  338.000;  310.000
251.367;  -37.900; -274.000; -373.000
251.509;  -38.950; -265.000; -210.000
251.651;  -99.250; -731.000; -671.000
251.794;   58.150;  538.000;  632.000
251.936; -105.650; -821.000; -747.000
252.078;  -70.800; -540.000; -461.000
252.220;  -57.225; -645.000; -477.000
252.362;   39.475;  344.000;  462.000
252.504;  -78.425; -677.000; -584.000
252.646; -105.425; -875.000; -722.000
252.788;  -10.875;   14.000; -128.000
252.931;  -57.525; -257.000; -253.000
253.073;  -34.575; -376.000; -317.000
253.215;   -8.250;  141.000;  122.000
253.357;  -14.600;   82.000; -153.000
253.499;  -57.675; -374.000; -234.000
253.641;  -88.550; -749.000; -594.000
253.783;  -92.825; -609.000; -527.000
253.925;  -85.700; -586.000; -591.000
254.067; -103.050; -744.000; -667.000
254.209;  -35.100; -391.000; -259.000
254.351; -136.225; -865.000; -883.000
254.493;  -61.750; -441.000; -417.000
254.635; -124.700; -936.000; -818.000
254.777;  -86.725; -752.000; -687.000
254.918;  -64.825; -512.000; -430.000
255.060;  -73.100; -551.000; -395.000
255.202;  -58.475; -473.000; -261.000
255.344;  -77.425; -658.000; -455.000
255.486;  -67.400; -471.000; -406.000
255.628; -100.175; -780.000; -781.000
255.770;  -98.825; -676.000; -536.000
255.912;  -56.300; -559.000; -468.000
256.053;  -87.275; -730.000; -508.000
256.195;  140.900; 1008.000;  903.000
256.337;  -97.750; -861.000; -595.000
256.479;   66.125;  532.000;  416.000
256.621;  -55.425; -394.000; -212.000
256.762;  -90.650; -789.000; -742.000
256.904;   32.900;  485.000;  487.000
257.046;  -51.925; -381.000; -271.000
257.188;  -49.175; -351.000; -264.000
257.329;  -76.925; -525.000; -464.000
257.471; -113.100; -939.000; -807.000
257.613;  -71.700; -584.000; -498.000
257.755; -141.825;-1073.000; -982.000
257.896;   33.450;  286.000;  392.000
258.038;  -77.750; -403.000; -352.000
258.180;  -46.000; -354.000; -279.000
258.321;  -84.475; -581.000; -457.000
258.463;   -6.100;  -71.000;  133.000
258.605;  -79.925; -562.000; -570.000
258.746; -103.000; -886.000; -772.000
258.888; -144.875;-1026.000;-1020.000
259.029;   11.550;  121.000;   -8.000
259.171;  -80.225; -614.000; -550.000
259.313;    0.275;  -49.000;  -47.000
259.454;  -67.725; -536.000; -414.000
259.596;  -54.600; -483.000; -390.000
259.737;  -78.450; -590.000; -474.000
259.879;   28.800;  217.000;  311.000
260.020;   85.250;  901.000;  636.000
260.162;  -40.750; -146.000; -253.000
260.303; -122.800; -768.000; -687.000
260.445;  -66.125; -609.000; -613.000
260.586;   24.750;  392.000;  157.000
260.728;  -50.125; -360.000; -248.000
260.869;  -63.725; -350.000; -343.000
261.011;   74.500;  706.000;  537.000
261.152;  -74.475; -479.000; -319.000
261.293;  -72.325; -576.000; -595.000
261.435;  -22.750; -219.000; -184.000
261.576;  -44.400; -455.000; -325.000
261.718;   54.000;  420.000;  470.000
261.859; -132.475; -940.000; -949.000
262.000; -113.950; -951.000;-1016.000
262.142;  -19.425;  -52.000;  -60.000
262.283; -119.250; -808.000; -691.000
262.424;  -99.500; -666.000; -625.000
262.566; -143.200;-1161.000; -983.000
262.707; -106.225; -840.000; -830.000
262.848; -117.800; -769.000; -726.000
262.990;  -53.325; -362.000; -345.000
263.131;   75.225;  650.000;  681.000
263.272;  -11.650;  -61.000;  -41.000
263.413;  -76.475; -589.000; -561.000
263.555;  -44.825; -669.000; -143.000
263.696;  -73.975; -550.000; -641.000
263.837;  -48.875; -449.000; -551.000
263.978;   -4.375;   -5.000;  -77.000
264.119;  -48.450; -283.000; -264.000
264.261; -126.275; -847.000; -630.000
264.402;   -8.800;   33.000;   40.000
264.543;  -77.925; -509.000; -524.000
264.684;  -13.325;   61.000;  -50.000
264.825;  -63.900; -816.000; -538.000
264.966;  -15.875;  -84.000;  -67.000
265.107; -103.125; -646.000; -670.000
265.248; -119.475; -825.000; -812.000
265.390;  -10.300;  152.000;   -9.000
265.531;  -24.000; -238.000; -107.000
265.672;  -77.700; -557.000; -630.000
265.813;   55.575;  563.000;  439.000
265.954; -131.325; -959.000; -940.000
266.095;  -21.125; -372.000; -322.000
266.236;  -90.875; -686.000; -548.000
266.377;  -41.000; -243.000; -297.000
266.518;  -75.625; -619.000; -547.000
266.659;   25.850;  170.000;  268.000
266.800;   -1.300;   83.000;   85.000
266.941;  -75.750; -487.000; -478.000
267.082;    4.425;  354.000;   99.000
267.223;  -33.275; -344.000; -273.000
267.364; -106.625; -892.000; -686.000
267.504;  -22.375;    3.000;  135.000
267.645;   -2.700;  160.000;   67.000
267.786;  -38.500; -147.000;  -86.000
267.927;  -73.775; -473.000; -379.000
268.068;  -35.850; -186.000;  -61.000
268.209;  -41.975; -175.000; -413.000
268.350;  -66.225; -388.000; -532.000
268.490;  -81.450; -648.000; -521.000
268.631;   32.975;  127.000;  225.000
268.772; -109.850; -874.000; -647.000
268.913;  -41.325; -328.000; -476.000
269.054;  -16.800; -117.000;   12.000
269.194;  -45.475; -418.000; -402.000
269.335; -143.275;-1137.000;-1074.000
269.476;  -11.775;   33.000;  -35.000
269.617;  -45.175; -347.000; -392.000
269.757;  -86.875; -713.000; -646.000
269.898;  -92.225; -856.000; -613.000
270.039;  -62.475; -415.000; -405.000
270.180; -128.450; -952.000; -816.000
270.320;  -29.975; -190.000; -250.000
270.461;  -38.400; -277.000; -249.000
270.602;  -11.250; -186.000; -156.000
270.742; -118.250; -868.000; -943.000
270.883;  -64.525; -442.000; -390.000
271.023;  -64.525; -358.000; -357.000
271.164;  -69.150; -607.000; -528.000
271.305;  -89.950; -666.000; -654.000
271.445;  -88.350; -722.000; -683.000
271.586;  -64.575; -462.000; -283.000
271.726;  -38.850; -397.000; -322.000
271.867;  -65.100; -594.000; -534.000
272.008;   74.575; -473.000; -285.000
272.148;   82.150;  462.000;  468.000
272.289;  -14.275; -113.000; -181.000
272.429;   14.225;   19.000;  185.000
272.570;  -99.875; -633.000; -737.000
272.710;  -94.825; -825.000; -775.000
272.851;  -30.150;  113.000; -130.000
272.991; -150.275;-1173.000;-1077.000
273.131;  -60.350; -419.000; -459.000
273.272; -102.950; -683.000; -723.000
273.412;  -18.150; -143.000;  -31.000
273.553;  -65.150; -488.000; -507.000
273.693;  108.650;  913.000;  858.000
273.834; -112.750; -894.000; -692.000
273.974;  -93.075; -664.000; -615.000
274.114; -106.250; -772.000; -560.000
274.255;   62.150;  414.000;  373.000
274.395;  -12.550; -180.000; -125.000
274.535;   31.025;  199.000;  350.000
274.676;   10.400;  225.000;   94.000
274.816;    8.050;  110.000;   34.000
274.956;  -73.625; -624.000; -690.000
275.097;  -81.750;-1014.000; -922.000
275.237; -108.825; -913.000; -803.000
275.377; -102.225; -778.000; -689.000
275.517; -141.975; -878.000; -937.000
275.658;  -74.675; -590.000; -555.000
275.798;  -70.175; -606.000; -413.000
275.938;   17.575;  215.000;  323.000
276.078;  -82.225; -626.000; -395.000
276.218;   -5.775;   99.000;  104.000
276.359; -141.725;-1026.000;-1024.000
276.499;  -64.375; -605.000; -446.000
276.639;  -23.275; -305.000; -151.000
276.779;  -61.200; -475.000; -357.000
276.919; -112.425; -783.000; -624.000
277.059;  -25.475; -261.000; -212.000
277.199;  -41.475; -357.000; -259.000
277.340;   49.800;  287.000;  175.000
277.480; -104.100; -840.000; -693.000
277.620;   22.625;  192.000;   16.000
277.760; -191.075;-1533.000;-1294.000
277.900;    8.650;  113.000;   33.000
278.040;    9.775;  137.000;  159.000
278.180;   13.900;  270.000;  170.000
278.320;   -2.900;   21.000;   56.000
278.460;  -77.800; -443.000; -469.000
278.600;  -93.900; -708.000; -598.000
278.740;   51.200;  448.000;  224.000
278.880; -115.025; -768.000; -791.000
279.020;  -21.000; -194.000; -144.000
279.160;  -95.025; -672.000; -595.000
279.300; -121.100; -926.000; -873.000
279.440;  -87.725; -709.000; -622.000
279.579;  -75.600;-1014.000; -929.000
279.719;  -65.325; -410.000; -394.000
279.859;   45.925;   -4.000;   41.000
279.999;   -1.875; -208.000;  101.000
280.139;  -25.600; -435.000; -387.000
280.279;  -77.300; -708.000; -745.000
280.419;  -13.325; -229.000; -147.000
280.559;  -45.300; -259.000; -180.000
280.698;  -95.400; -790.000; -639.000
280.838; -109.000; -778.000; -800.000
280.978; -103.800; -846.000; -790.000
281.118; -113.275; -811.000; -704.000
281.257;    3.075;   24.000;    6.000
281.397; -134.775;-1094.000; -960.000
281.537;  -89.025; -599.000; -712.000
281.677;  -18.825; -150.000; -101.000
281.816;  -81.300; -700.000; -630.000
281.956;  -34.800; -193.000; -257.000
282.096;  -64.450; -539.000; -396.000
282.235; -105.650; -672.000; -638.000
282.375;  -22.175; -243.000;  -98.000
282.515; -108.900; -715.000; -707.000
282.654;    5.825;   29.000;  106.000
282.794;   24.050;  388.000;  244.000
282.934;  -47.900; -530.000; -491.000
283.073; -129.550;-1030.000; -857.000
283.213;  -63.875; -460.000; -467.000
283.353;  -55.050; -408.000; -349.000
283.492;  -31.050; -264.000; -296.000
283.632;  -42.825; -254.000; -168.000
283.771;  -86.950; -859.000; -730.000
283.911;  -60.150; -369.000; -260.000
284.050;  -96.700; -794.000; -748.000
284.190; -143.150;-1229.000;-1096.000
284.329; -134.775;-1055.000; -964.000
284.469;  -68.100; -516.000; -591.000
284.608;  -71.550; -559.000; -598.000
284.748;  -77.175; -614.000; -570.000
284.887;    1.525;  -87.000;  -20.000
285.027; -118.900; -844.000; -892.000
285.166;  -18.575; -192.000; -249.000
285.306;   -4.425; -116.000;  -33.000
285.445;  -47.125; -229.000; -343.000
285.584;  -92.875; -630.000; -494.000
285.724;  -43.825; -282.000; -322.000
285.863; -104.100; -857.000; -507.000
286.002;  -60.850; -366.000; -276.000
286.142;  -92.050; -715.000; -622.000
286.281;  -69.775; -525.000; -493.000
286.420;  -87.425; -554.000; -417.000
286.560;   96.700;  653.000;  623.000
286.699; -134.375; -958.000; -912.000
286.838;  -82.800; -590.000; -591.000
286.978;  -90.125; -533.000; -537.000
287.117; -132.025;-1085.000; -950.000
287.256;  -15.625; -228.000; -211.000
287.395;  -43.325; -197.000; -378.000
287.535;  -53.025; -370.000; -298.000
287.674;  -83.400; -509.000; -484.000
287.813;   59.575;  661.000;  533.000
287.952; -122.125;-1010.000; -871.000
288.091; -142.775;-1049.000; -915.000
288.231;    0.600;   13.000;   15.000
288.370; -161.225;-1217.000;-1200.000
288.509;  -82.525; -728.000; -645.000
288.648;  -88.625; -770.000; -548.000
288.787;  -35.350; -243.000;  -87.000
288.926;  -66.450; -454.000; -475.000
289.065;  101.725;  859.000;  672.000
289.204;  -54.150; -377.000; -217.000
289.344;  -91.625; -791.000; -690.000
289.483;   22.650;  416.000;  304.000
289.622;  -24.900; -291.000; -149.000
289.761;  -20.225; -309.000; -166.000
289.900; -104.675; -785.000; -626.000
290.039;  -18.200;  -12.000;  -95.000
290.178;  -44.950; -274.000; -180.000
290.317;  -84.850; -618.000; -479.000
290.456;  -64.300; -463.000; -451.000
290.595; -129.775; -961.000; -833.000
290.734; -130.125; -904.000; -891.000
290.873;  -68.825; -456.000; -420.000
291.011;  -95.150; -833.000; -843.000
291.150;  -96.650; -770.000; -682.000
291.289;  -35.775; -343.000; -110.000
291.428;  -95.175; -599.000; -480.000
291.567;  -61.600; -370.000; -442.000
291.706;  -13.650;  109.000;  154.000
291.845;  -81.975; -597.000; -505.000
291.984; -155.100;-1234.000;-1061.000
292.122;   74.000;  602.000;  582.000
292.261;   45.025;  620.000;  463.000
292.400;   -8.225; -144.000;  211.000
292.539; -118.150; -959.000; -813.000
292.678;  -27.400; -325.000; -300.000
292.816; -148.975;-1136.000; -965.000
292.955;  -91.925; -844.000; -684.000
293.094;  -35.225; -173.000; -337.000
293.233;  -50.175; -556.000; -400.000
293.371;  -28.100; -225.000;  -84.000
293.510; -111.200; -866.000; -780.000
293.649; -128.150; -959.000; -924.000
293.787;  -98.975;-1083.000;-1012.000
293.926;  -16.600; -113.000;  -32.000
294.065;  -45.325; -379.000; -290.000
294.203;   40.600;  298.000;  406.000
294.342;   30.100;   74.000;  156.000
294.481; 5932.150;51180.000; -836.000
294.619;  -21.250; -425.000; -582.000
294.758; -147.850;-1230.000;-1137.000
294.896;   30.450; -125.000;    5.000
295.035; -129.325;-1040.000;-1006.000
295.174; -127.200;-1082.000; -954.000
295.312;  -37.175; -323.000; -203.000
295.451;  -36.125; -307.000; -428.000
295.589;  -69.875; -389.000; -518.000
295.728;   22.025; -292.000; -165.000
295.866;   -7.925;  -36.000;  -51.000
296.005;  -65.825; -584.000; -341.000
296.143;  -70.300; -558.000; -596.000
296.282;  -91.450; -957.000; -881.000
296.420;  -86.300; -657.000; -557.000
296.559;  -87.875; -892.000; -633.000
296.697;  -56.000; -847.000; -665.000
296.835;  -64.275;-1141.000;-1002.000
296.974;   21.625;  -23.000;   39.000
297.112;  -30.875; -443.000; -504.000
297.251;  -92.500; -815.000; -755.000
297.389;  -13.450; -576.000; -438.000
297.527;   13.300; -145.000;  -83.000
297.666;  -52.150; -486.000; -438.000
297.804;  -51.925; -404.000; -264.000
297.942;    1.550; -136.000; -161.000
298.081;   -6.200; -183.000;   63.000
298.219;   20.500;  -17.000;  -19.000
298.357;   -5.900; -144.000;  -71.000
298.495;  -58.500; -810.000; -812.000
298.634;   20.800;  245.000;  219.000
298.772;  -27.800; -220.000; -338.000
298.910;  -55.225; -309.000; -182.000
299.048;  -25.350; -130.000; -153.000
299.187;  -28.050; -350.000; -250.000
299.325;   -2.575;   52.000;  122.000
299.463;  -16.900; -389.000; -299.000
299.601;   10.125; -327.000; -271.000
299.739; -116.625; -908.000; -883.000
299.877;  -77.925; -791.000; -703.000
300.016;  -85.425;-1095.000; -935.000
300.154;   64.725;  -19.000; -161.000
300.292;  -18.900; -428.000; -348.000
300.430;  -30.825; -408.000; -291.000
300.568; -115.500; -940.000; -874.000
300.706;  -56.400; -366.000; -469.000
300.844; -114.900;-1108.000; -979.000
300.982;   77.800;  246.000;  282.000
301.120; -122.575; -965.000; -866.000
301.258;  -90.575; -812.000; -705.000
301.396;   16.675;  104.000;  -41.000
301.534;   -4.950; -218.000; -293.000
301.672;  -54.825; -664.000; -521.000
301.810;  -52.250; -613.000; -545.000
301.948;   37.050;   53.000;  149.000
302.086;  271.100; -250.000;  -32.000
302.224;  338.825; -610.000; -585.000
302.362;  -41.250; -558.000; -622.000
302.500;  -89.475; -923.000; -893.000
302.638;   42.125;  128.000;  245.000
302.776;  -34.375; -352.000; -408.000
302.913;   40.925;  447.000;  236.000
303.051;  -24.425;  -86.000;  -23.000
303.189;   17.850;   90.000;  118.000
303.327;  -42.550; -341.000; -256.000
303.465;  -74.300; -832.000; -588.000
303.603; -101.200; -805.000; -604.000
303.740;   55.050;  417.000;  241.000
303.878;  -47.500; -800.000; -759.000
304.016;  -98.250; -915.000; -790.000
304.154; -137.950;-1123.000;-1152.000
304.291;  -56.025; -505.000; -554.000
304.429;   -2.100;  102.000;   74.000
304.567; -126.275; -908.000; -893.000
304.705;  -60.875; -408.000; -515.000
304.842;  -16.125; -616.000; -540.000
304.980;   22.775;  215.000;   35.000
305.118;   -5.175; -367.000; -365.000
305.255;  -96.700; -945.000; -927.000
305.393;   45.750;  178.000;  239.000
305.531; -126.800;-1173.000; -956.000
305.668;  -72.600; -663.000; -582.000
305.806;   12.450; -358.000; -439.000
305.943;    1.500; -629.000; -637.000
306.081;   -5.325; -378.000; -267.000
306.219;  -85.475; -863.000; -748.000
306.356;   12.600;  158.000;   27.000
306.494;  123.525;  981.000;  761.000
306.631;    1.525;  -11.000;  -55.000
306.769;  -22.650; -613.000; -485.000
306.906;  -23.975; -284.000; -258.000
307.044;  -57.450; -473.000; -488.000
307.181;  -54.575; -410.000; -332.000
307.319;   19.175;  112.000;   87.000
307.456; -157.575;-1191.000;-1153.000
307.594; -105.675; -980.000; -727.000
307.731;  -20.825; -371.000; -164.000
307.868;   10.425;  -15.000;   20.000
308.006; -121.975; -961.000; -847.000
308.143;  -77.400; -618.000; -330.000
308.281;   77.450;  -37.000; -254.000
308.418;  -62.675; -748.000; -640.000
308.555;  -74.150; -400.000; -250.000
308.693;  -55.250; -577.000; -573.000
308.830;  -98.825; -712.000; -657.000
308.967;  -10.200; -215.000;  -95.000
309.105;  -24.750; -507.000; -396.000
309.242;    1.525; -468.000; -367.000
309.379;  102.525; -577.000; -655.000
309.517;  -80.400; -936.000; -948.000
309.654;  -92.675; -910.000; -734.000
309.791;  -56.400; -662.000; -580.000
309.928; -109.925; -977.000; -914.000
310.065;  142.625;  819.000;  697.000
310.203;  -63.000; -825.000; -850.000
310.340;  -26.600; -465.000; -321.000
310.477;  -71.800; -412.000; -516.000
310.614;  -49.900; -383.000; -473.000
310.751;  -59.775; -427.000; -518.000
310.889;  -21.050;    1.000;   11.000
311.026; -140.875;-1161.000; -939.000
311.163;  -35.375; -386.000; -380.000
311.300;  -65.150; -512.000; -479.000
311.437;  -56.750; -658.000; -619.000
311.574; -145.475;-1226.000; -985.000
311.711;  -45.050; -595.000; -433.000
311.848;  -39.875; -380.000; -388.000
311.985;   27.650;  270.000;   93.000
312.122; -110.225; -932.000; -762.000
312.259; -101.800; -941.000; -994.000
312.396;  -62.800; -508.000; -551.000
312.533;  -74.600; -812.000; -790.000
312.670; -130.075;-1070.000; -898.000
312.807;   -8.525; -352.000; -367.000
312.944;  -71.700; -513.000; -611.000
313.081;  -15.400; -150.000; -415.000
313.218;  -87.425;-1111.000; -867.000
313.355;   -9.925; -531.000; -449.000
313.492;    3.050; -455.000; -292.000
313.629;  139.550;  815.000;  735.000
313.766; -139.550;-1176.000;-1008.000
313.902;    0.550; -186.000;   21.000
314.039;  -53.450; -372.000; -289.000
314.176;   40.400;  286.000;  192.000
314.313;  -70.525; -569.000; -473.000
314.450;  -64.625; -788.000; -684.000
314.587;  -54.925; -468.000; -480.000
314.723;    7.350;  -78.000;  130.000
314.860;   50.150;  318.000;  332.000
314.997;   32.425;  223.000;  142.000
315.134;  -29.050; -385.000; -368.000
315.270;   -8.375; -480.000; -496.000
315.407; -100.125;-1094.000; -967.000
315.544;  -25.775; -657.000; -538.000
315.681;  -45.700; -681.000; -565.000
315.817;   72.975; -133.000; -176.000
315.954;   71.425; -613.000; -392.000
316.091; -112.625;-1045.000;-1023.000
316.227;   -7.975;  -71.000; -179.000
316.364;   -3.775;   23.000;    6.000
316.500;  -38.725; -113.000; -300.000
316.637;  -43.675; -181.000; -302.000
316.774;  -88.050; -625.000; -358.000
316.910;  -70.050; -598.000; -629.000
317.047;  -63.225; -487.000; -351.000
317.183;  -44.600; -435.000; -566.000
317.320;   27.950; -367.000; -321.000
317.456;  -30.325; -733.000; -805.000
317.593;  -89.300; -598.000; -641.000
317.729;    1.075;  168.000;  -67.000
317.866; -190.800;-1434.000;-1285.000
318.002;  -74.350; -708.000; -948.000
318.139; -119.725; -883.000; -867.000
318.275; -119.875;-1003.000; -738.000
318.412;  -60.875; -517.000; -336.000
318.548;  -65.375; -751.000; -720.000
318.685;  -95.550; -985.000; -888.000
318.821;  -80.900; -762.000; -735.000
318.957;  -27.125;   34.000;  -23.000
319.094;   29.825;  297.000;  154.000
319.230;  -80.825; -756.000; -742.000
319.367;   17.350; -471.000; -520.000
319.503;  -15.775; -538.000; -436.000
319.639;  -96.250; -877.000; -793.000
319.775;  -87.950; -750.000; -685.000
319.912;  -48.425; -424.000; -519.000
320.048;  -94.825;-1184.000;-1184.000
320.184;   81.850;   59.000;   70.000
320.321;  -50.175; -497.000; -467.000
320.457;   66.650;  475.000;  662.000
320.593;  -70.475; -375.000; -382.000
320.729; -105.275; -732.000; -734.000
320.866;  -71.800; -577.000; -635.000
321.002;  -85.400; -759.000; -809.000
321.138;  -32.625; -135.000; -211.000
321.274;   31.075; -148.000; -115.000
321.410;  -43.050; -585.000; -353.000
321.546;  -91.450;-1011.000; -911.000
321.683;   35.650;  400.000;  185.000
321.819;   -1.425;  -48.000; -117.000
321.955; -111.575; -743.000; -722.000
322.091;  -63.125; -585.000; -540.000
322.227;  -35.200; -382.000; -202.000
322.363;  -43.275; -320.000; -215.000
322.499;  -52.475; -343.000; -331.000
322.635;  106.525;  636.000;  443.000
322.771;   -4.825; -139.000;   12.000
322.907;   60.900;  129.000;  327.000
323.043;  -38.200; -115.000; -206.000
323.179;  -56.650; -394.000; -363.000
323.315;  -34.375; -401.000; -371.000
323.451;   38.025; -328.000; -236.000
323.587;   56.200;  -60.000;  -77.000
323.723;  -37.800; -682.000; -601.000
323.859;  -19.175; -258.000;  -76.000
323.995;  -40.025; -467.000; -409.000
324.131; -122.325; -967.000; -892.000
324.267;  -42.775; -254.000; -276.000
324.402; -121.075; -960.000; -983.000
324.538;  -28.675; -279.000; -104.000
324.674;    1.350;  164.000;   77.000
324.810;   53.925;  226.000;  308.000
324.946;  -48.800; -810.000; -658.000
325.082;  -66.275; -568.000; -475.000
325.217;  -21.800;  -62.000;   16.000
325.353;  -92.400; -764.000; -659.000
325.489;  -90.725; -540.000; -506.000
325.625;  -76.425; -579.000; -525.000
325.760;   65.325;  517.000;  376.000
325.896;    6.375; -515.000; -702.000
326.032;  -46.150; -403.000; -352.000
326.168;  -55.525; -462.000; -369.000
326.303;  -60.100; -352.000; -461.000
326.439;  -16.275; -336.000; -276.000
326.575;  -11.375; -190.000;  -29.000
326.710;  -16.875; -156.000;  -30.000
326.846;  -14.775;  146.000;  103.000
326.982;  -70.875; -530.000; -548.000
327.117;  -68.150; -481.000; -442.000
327.253;  -73.250; -745.000; -742.000
327.388; -136.425;-1137.000;-1153.000
327.524;  -76.200; -811.000; -578.000
327.659;  -27.150;  -58.000;  -22.000
327.795;  -10.600;   69.000;   45.000
327.931;  -70.450; -723.000; -499.000
328.066;  -14.175; -417.000; -276.000
328.202;  -27.600;   12.000; -129.000
328.337;  105.000;  957.000;  713.000
328.473;   39.025;  -12.000;  -74.000
328.608;  -26.875; -256.000; -267.000
328.743;  -97.250; -799.000; -664.000
328.879;   13.800;  214.000;  114.000
329.014;  -41.500; -102.000; -122.000
329.150;  -88.700; -358.000; -483.000
329.285;  -76.200; -465.000; -466.000
329.421;  -53.525; -548.000; -246.000
329.556;  -29.475;  -36.000;   85.000
329.691;  -89.125; -633.000; -615.000
329.827;  -82.025; -626.000; -480.000
329.962;  -40.900;  131.000; -301.000
330.097;  -83.200; -673.000; -585.000
330.233;  -55.325; -410.000; -223.000
330.368; -107.775; -839.000; -628.000
330.503;  -17.700;    3.000;   98.000
330.638;   -3.075;  -93.000; -125.000
330.774;  -72.175; -609.000; -530.000
330.909;  -49.575; -434.000; -244.000
331.044;  -87.575; -714.000; -708.000
331.179; -174.875;-1217.000;-1109.000
331.315;    2.600;   77.000;   20.000
331.450;    9.825;  157.000;  285.000
331.585;  -83.975; -805.000; -706.000
331.720;  -83.975; -510.000; -460.000
331.855;   -2.725;  -35.000; -102.000
331.990;  394.950;   62.000;  138.000
332.126;  212.700; -110.000;   71.000
332.261;    2.225; -379.000; -265.000
332.396;   18.825; -135.000; -242.000
332.531;  -58.100;-1074.000;-1031.000
332.666;  102.725; -519.000; -363.000
332.801;  -82.975; -726.000; -807.000
332.936;   -7.875; -192.000; -122.000
333.071; -124.500; -870.000; -817.000
333.206;   28.400;  307.000;  379.000
333.341;   20.900;  344.000;  418.000
333.476;  -86.700; -627.000; -623.000
333.611;  -45.575; -251.000; -173.000
333.746;  -50.950; -381.000; -464.000
333.881; -103.900; -973.000; -935.000
334.016; -115.650; -936.000; -917.000
334.151; -115.475; -746.000; -702.000
334.286;   29.875;  152.000;  186.000
334.421;   -5.575; -125.000; -178.000
334.556;  -68.400; -611.000; -567.000
334.690;  -90.500; -631.000; -577.000
334.825;   53.700;  381.000;   83.000
334.960;  -32.600; -285.000; -413.000
335.095;   19.075;  135.000;  -91.000
335.230;  -78.925; -722.000; -738.000
335.365; -106.675;-1084.000; -990.000
335.499; -103.175;-1108.000;-1037.000
335.634;   31.250;    9.000;  534.000
335.769;  -79.625; -755.000; -720.000
335.904;  -30.025; -603.000; -561.000
336.038;  -25.150; -735.000; -657.000
336.173;  -81.725;-1206.000;-1194.000
336.308;   46.250; -116.000; -189.000
336.443;   98.800; -544.000; -634.000
336.577;  -24.650; -936.000; -787.000
336.712;  103.950;   -4.000;  -12.000
336.847;    1.425; -724.000; -607.000
336.981;  107.025; -272.000; -208.000
337.116;  368.600;  615.000;  501.000
337.250;  182.175; -434.000; -421.000
337.385;  428.400; -297.000; -208.000
337.520;  221.125; -632.000; -603.000
337.654;  -20.200; -215.000; -126.000
337.789; -130.525; -989.000; -933.000
337.923;  -40.775; -104.000; -205.000
338.058; -106.625; -673.000; -738.000
338.192;  -40.950; -611.000; -488.000
338.327;  -24.825;  -18.000; -155.000
338.461;  -64.225; -299.000; -469.000
338.596;  -99.025; -780.000; -638.000
338.730;  -92.175; -767.000; -803.000
338.865;  149.250;  -46.000; -140.000
338.999;    8.025; -846.000; -702.000
339.134;   -3.450; -634.000; -536.000
339.268;   31.700; -741.000; -603.000
339.403;  553.900; -740.000; -775.000
339.537;  265.450; -894.000; -820.000
339.671;  -86.950; -829.000; -813.000
339.806;  -35.500; -556.000; -512.000
339.940;   46.025; -261.000; -235.000
340.074; -108.375; -685.000; -510.000
340.209;  -45.500; -351.000; -230.000
340.343;  -92.050; -517.000; -573.000
340.477;  117.575;  998.000; 1036.000
340.612;    2.950;-1033.000; -900.000
340.746;  212.025; -199.000; -243.000
340.880;  -94.475; -924.000; -785.000
341.014;  -27.075;  -45.000; -154.000
341.149; -107.250; -756.000; -718.000
341.283; -105.350; -839.000; -754.000
341.417; -134.725;-1124.000; -938.000
341.551;  -16.775; -768.000; -708.000
341.685;  -54.075; -633.000; -611.000
341.820;  -48.775; -562.000; -493.000
341.954;  -59.975; -218.000; -349.000
342.088; -154.825;-1102.000;-1019.000
342.222;   52.125;  565.000;  618.000
342.356;  -77.925; -395.000; -335.000
342.490; -115.175; -880.000; -841.000
342.624;  -49.150; -339.000; -242.000
342.758;  -46.625; -364.000; -312.000
342.892; -103.225; -710.000; -585.000
343.026;  -41.050;  -58.000; -116.000
343.160;  -62.750; -426.000; -376.000
343.294;  -83.000; -474.000; -337.000
343.428;  -64.850; -488.000; -448.000
343.562;  -19.125; -172.000;  -23.000
343.696;  -45.275; -385.000; -314.000
343.830;  -40.575; -362.000; -356.000
343.964;  -14.375; -231.000; -168.000
344.098;  378.400;  199.000;   70.000
344.232;  333.975; -266.000; -127.000
344.366;   90.725; -567.000; -453.000
344.500;  -28.625; -665.000; -744.000
344.634;  -32.250; -324.000; -164.000
344.768;  -55.700; -531.000; -341.000
344.902;    5.375;  278.000;  256.000
345.035;  -67.950; -556.000; -496.000
345.169; -137.675; -933.000; -656.000
345.303;  -54.150; -308.000; -482.000
345.437;  -96.075; -826.000; -717.000
345.571;  -58.825; -675.000; -594.000
345.704;  -64.175; -309.000; -532.000
345.838;  -27.850; -331.000; -284.000
345.972;  -75.725; -543.000; -495.000
346.106;  237.125; -179.000; -190.000
346.239;  479.700; -312.000; -243.000
346.373;   -5.750; -343.000; -302.000
346.507; -145.950; -950.000; -962.000
346.640;   39.625;  -30.000;   13.000
346.774;  -76.900; -650.000; -797.000
346.908;  -23.800; -138.000;  -11.000
347.041; -102.800; -646.000; -593.000
347.175;  -18.550;  259.000;   27.000
347.309; -101.525; -698.000; -628.000
347.442; -110.125; -883.000; -732.000
347.576;  158.600;  670.000;  668.000
347.709;   62.875; -123.000;  -52.000
347.843; -104.025; -933.000; -825.000
347.976;   31.200;  235.000;  294.000
348.110; -172.900;-1268.000;-1186.000
348.243; -102.325; -679.000; -772.000
348.377;   -2.950;  -26.000;   60.000
348.510;   43.050;  403.000;  540.000
348.644;  -42.300;  -37.000; -159.000
348.777;   -2.375;  180.000;  191.000
348.911;  -53.425; -142.000; -112.000
349.044;   91.000;  471.000;  448.000
349.178;   -5.625;-1069.000;-1006.000
349.311;  106.025;  141.000;  255.000
349.444;   36.100; -927.000; -813.000
349.578;  -20.575; -347.000; -200.000
349.711; -117.975; -959.000; -862.000
349.845;  -71.250; -661.000; -591.000
349.978; -150.150;-1224.000;-1137.000
350.111;  -92.200; -546.000; -612.000
350.244; -101.750; -596.000; -700.000
350.378;  -45.225; -392.000; -393.000
350.511;  -75.675; -393.000; -426.000
350.644;  -96.900; -808.000; -806.000
350.778;   20.475;  168.000;  104.000
350.911;   -4.800;  134.000;  140.000
351.044;  -90.300; -685.000; -615.000
351.177;  -49.500; -321.000; -281.000
351.310;  -34.775;    3.000; -131.000
351.444;  -98.850; -888.000; -788.000
351.577;   46.500;  140.000;   90.000
351.710;   74.525;  593.000;  417.000
351.843;  -40.150; -165.000;  -77.000
351.976;  -10.400;  149.000;  -79.000
352.109;  -91.825; -621.000; -612.000
352.242;  -60.000; -464.000; -419.000
352.376;  -92.425; -580.000; -636.000
352.509;   36.750; -437.000; -356.000
352.642;  -71.925; -654.000; -604.000
352.775;    6.150; -141.000;  -98.000
352.908; -105.550; -933.000; -904.000
353.041;  -98.575; -814.000; -824.000
353.174;  -58.025; -551.000; -424.000
353.307;  -80.525; -753.000; -764.000
353.440;   66.200;  541.000;  453.000
353.573;  -88.600; -957.000;-1008.000
353.706;  -41.425; -384.000; -558.000
353.839;  -27.125; -264.000; -220.000
353.971; -103.525; -657.000; -512.000
354.104; -101.075; -896.000; -835.000
354.237;  -78.700; -627.000; -662.000
354.370;  -92.950; -846.000; -879.000
354.503; -166.025;-1231.000;-1308.000
354.636;  -11.450; -529.000; -348.000
354.769; -116.775; -937.000; -860.000
354.902;   -8.150; -230.000; -139.000
355.034;  -10.175; -164.000; -220.000
355.167;   -2.900; -262.000; -162.000
355.300;  -62.350;-1061.000; -880.000
355.433; 1445.375;  -71.000;  -14.000
355.565; 2260.750; -402.000; -384.000
355.698;  563.375; -356.000; -296.000
355.831;    9.825; -882.000; -801.000
355.964;   51.550; -285.000; -170.000
356.096;  -60.400; -856.000; -843.000
356.229;   13.025; -523.000; -530.000
356.362;  527.500; -373.000; -266.000
356.494;  892.775; -229.000; -162.000
356.627;  361.775;  269.000;  377.000
356.760;  901.675;  120.000;   53.000
356.892; 1472.400; -286.000; -601.000
357.025;  405.450;  403.000;  389.000
357.157;  289.250; -167.000; -179.000
357.290; 1136.075; -856.000; -713.000
357.423;  386.075; -667.000; -556.000
357.555;  147.600; -217.000; -228.000
357.688;  177.000; -483.000; -364.000
357.820;  234.625; -870.000; -877.000
357.953; 1880.250; -563.000; -589.000
358.085;  337.575; -632.000; -612.000
358.218;  209.025;-1131.000; -932.000
358.350;   82.050;  -58.000;  312.000
358.483; -153.475;-1300.000;-1187.000
358.615; -118.125;-1182.000;-1078.000
358.747; -131.925;-1187.000;-1058.000
358.880;  -38.700; -810.000; -744.000
359.012;  -37.450; -376.000; -202.000
359.145;  -66.300; -480.000; -511.000
359.277;  -42.375; -962.000; -913.000
359.409; 1589.525;  536.000;  231.000
359.542;  374.775; -738.000; -688.000
359.674;   17.525;   46.000;   13.000
359.806;  -74.800; -565.000; -438.000
359.939;  -44.225; -617.000; -516.000
360.071;   29.450; -583.000; -579.000
360.203;  -17.275; -411.000; -364.000
360.335;   22.750;  164.000;  -16.000
360.468;  102.350; -249.000; -307.000
360.600; 1535.100; -547.000; -454.000
360.732; 4104.550; -546.000; -423.000
360.864;  612.425;-1216.000;-1044.000
360.996;   90.125; -516.000; -554.000
361.129;  -22.725; -389.000; -598.000
361.261;   -6.050;  110.000; -113.000
361.393;  -49.025; -252.000; -214.000
361.525;    4.700;   94.000;  244.000
361.657;  -85.650; -821.000; -703.000
361.789;  -23.575; -139.000; -155.000
361.921;  -20.400; -642.000; -593.000
362.053;  103.975;  524.000;  541.000
362.185;   10.250;  288.000;   72.000
362.318; -114.325; -709.000; -705.000
362.450;   48.850;  294.000;  444.000
362.582;  -54.400; -913.000; -870.000
362.714;  -51.300; -353.000; -332.000
362.846;  -89.400; -606.000; -490.000
362.978; -150.850; -941.000; -811.000
363.109;   -9.675; -161.000; -260.000
363.241;  193.000; -739.000; -749.000
363.373;  624.750; -649.000; -564.000
363.505; 1008.000; -186.000;  -91.000
363.637;  243.700; -787.000; -601.000
363.769; -125.650;-1067.000;-1080.000
363.901;  -84.275; -596.000; -654.000
364.033; -154.050;-1103.000;-1062.000
364.165;  -24.375; -283.000; -283.000
364.296;   92.125; -316.000; -177.000
364.428;  190.275;-1344.000;-1220.000
364.560;  -56.525; -679.000; -661.000
364.692;  -69.000; -738.000; -835.000
364.824;   16.025; -588.000; -456.000
364.955;  510.725; -402.000; -564.000
365.087; 1585.900;-1097.000; -852.000
365.219;  107.075; -686.000; -816.000
365.351;  -72.150; -526.000; -572.000
365.482;   22.350;  300.000;  240.000
365.614;  -54.600; -402.000; -314.000
365.746; -101.550; -729.000; -752.000
365.877;  -84.475; -706.000; -672.000
366.009;  402.225;  -35.000;  -62.000
366.141;  -28.325;-1249.000;-1134.000
366.272; -103.850; -803.000; -719.000
366.404; -117.850;-1005.000; -874.000
366.535;  -17.000; -139.000;  -12.000
366.667; -104.825; -644.000; -649.000
366.799;   21.275;  353.000;  203.000
366.930; -127.175; -862.000; -996.000
367.062;  187.775; -639.000; -613.000
367.193;  341.525; -872.000; -842.000
367.325;  -47.175; -580.000; -684.000
367.456;    9.925; -246.000;   31.000
367.588;  253.525; -371.000; -318.000
367.719;   41.125;  -44.000;  -45.000
367.851;  -32.300; -222.000; -241.000
367.982;  -97.225; -875.000; -732.000
368.113;   14.500; -475.000; -358.000
368.245; -131.650; -960.000; -841.000
368.376;  -63.100; -254.000; -302.000
368.508;  -55.950; -188.000; -263.000
368.639; -152.950;-1166.000;-1034.000
368.770;  -75.000; -670.000; -589.000
368.902; -100.175; -836.000; -926.000
369.033; -119.800; -906.000; -855.000
369.164;  -36.425; -720.000; -653.000
369.296; -104.250; -452.000; -601.000
369.427;  -26.875; -209.000; -144.000
369.558;  -72.700; -593.000; -377.000
369.689;  -77.825; -721.000; -569.000
369.821; -135.200; -951.000; -845.000
369.952;  -28.850;   42.000; -108.000
370.083;  -57.625; -229.000; -108.000
370.214;  -98.750; -735.000; -650.000
370.345;  -16.525;   65.000;   81.000
370.477; -106.550; -810.000; -790.000
370.608;   53.575; -328.000; -264.000
370.739; -114.925;-1233.000;-1292.000
370.870; -111.725;-1102.000; -923.000
371.001;    8.325; -378.000; -467.000
371.132; -103.525; -754.000; -735.000
371.263;  -33.525;  -42.000; -148.000
371.394; -140.175; -841.000; -748.000
371.525;   13.750;  345.000;  225.000
371.657; -104.775; -808.000; -670.000
371.788;   24.975;  103.000;  199.000
371.919;   47.775; -384.000; -304.000
372.050; 1641.025;  -91.000; -156.000
372.181;  499.700; -188.000; -294.000
372.311;  150.275;   42.000; -127.000
372.442;  -30.700; -457.000; -451.000
372.573;  -51.975; -444.000; -340.000
372.704; -149.500;-1008.000; -980.000
372.835;   -4.850; -228.000; -289.000
372.966;  -77.825; -646.000; -554.000
373.097;  -95.650; -575.000; -711.000
373.228;  -98.550; -717.000; -542.000
373.359;   -6.975; -824.000; -536.000
373.490;  247.450; -881.000; -727.000
373.620;  369.450;-1001.000; -803.000
373.751;  713.750; -332.000; -396.000
373.882;  317.800; -663.000; -733.000
374.013;   -2.475; -449.000; -262.000
374.143;  -77.850; -581.000; -659.000
374.274; -107.125; -987.000; -908.000
374.405;   76.575; -388.000; -276.000
374.536;  165.225; -526.000; -387.000
374.666;  413.700; -759.000; -807.000
374.797;   27.150; -817.000; -868.000
374.928;  281.450; -710.000; -560.000
375.058;  267.900; -535.000; -500.000
375.189;   23.450;  -59.000;  -93.000
375.320; -103.400; -928.000;-1034.000
375.450;  -40.625; -625.000; -616.000
375.581;  -38.450; -526.000; -436.000
375.712;  -47.400; -574.000; -250.000
375.842;   40.825; -438.000; -415.000
375.973;   19.000; -554.000; -513.000
376.103; -105.875; -665.000; -648.000
376.234;  -92.350; -531.000; -552.000
376.364; -113.775; -944.000; -867.000
376.495;  168.100;  925.000;  529.000
376.625;  -60.550; -472.000; -485.000
376.756;  -42.900; -709.000; -678.000
376.886; -124.400;-1178.000;-1026.000
377.017;  150.000;-1048.000;-1061.000
377.147;  644.400; -786.000; -782.000
377.278;   88.750;  174.000;  228.000
377.408; -125.450; -801.000; -815.000
377.538;  -78.275; -707.000; -693.000
377.669;  -84.250; -537.000; -613.000
377.799; -101.175; -645.000; -635.000
377.929;  -82.775; -610.000; -428.000
378.060; -118.600; -781.000; -847.000
378.190;  -31.675; -726.000; -531.000
378.320;  -44.175; -401.000; -406.000
378.451;  -10.575; -131.000;  -22.000
378.581;  -27.800;  -67.000; -110.000
378.711;   96.625; 1035.000;  866.000
378.841;  -75.350; -533.000; -675.000
378.972; -108.550; -871.000; -751.000
379.102;  -66.225; -652.000; -579.000
379.232;  -42.700; -126.000;  -73.000
379.362; -120.625;-1001.000; -885.000
379.492;  -55.775; -373.000; -424.000
379.623;   55.725;    0.000;  111.000
379.753; -111.675;-1107.000; -974.000
379.883;  108.300;   59.000;  156.000
380.013;  -65.175;-1081.000;-1017.000
380.143;  -99.500;-1097.000;-1056.000
380.273; -104.825; -985.000; -861.000
380.403;    7.525; -344.000; -257.000
380.533;  -32.175; -651.000; -664.000
380.663;   28.875;  173.000;  128.000
380.793; -153.125;-1027.000;-1074.000
380.923;  -41.500; -103.000;  -34.000
381.053; -104.875; -613.000; -623.000
381.183;  -55.350; -106.000; -248.000
381.313;  -47.500; -656.000; -470.000
381.443;  -36.825; -692.000; -473.000
381.573;  -10.375; -402.000; -409.000
381.703;  -51.225;-1249.000;-1095.000
381.833; -166.925;-1454.000;-1336.000
381.963;   22.200; -134.000;  -87.000
382.093;  515.975; -925.000; -909.000
382.223;  145.075; -713.000; -602.000
382.353;  -74.925; -801.000; -608.000
382.482;   48.675;-1091.000; -964.000
382.612;  249.425; -872.000; -644.000
382.742;  131.375; -695.000; -622.000
382.872;    7.125; -565.000; -551.000
383.002;   24.825;  347.000; -132.000
383.131;  -23.450; -226.000; -160.000
383.261;  -49.300; -706.000; -768.000
383.391;  328.750; -552.000; -377.000
383.521; 4800.050;  451.000;  263.000
383.650; 1425.375; -947.000; -904.000
383.780;   27.675; -783.000; -656.000
383.910;   89.875;  880.000;  802.000
384.039;  -69.925; -794.000; -656.000
384.169;  -52.775;-1205.000;-1017.000
384.299;  -78.650; -650.000; -662.000
384.428; -100.850; -764.000; -680.000
384.558;  -65.725; -308.000; -275.000
384.687;  -72.525; -414.000; -334.000
384.817;   -9.475;   75.000;   -2.000
384.947;  -34.475; -234.000; -141.000
385.076;  167.800;  982.000;  912.000
385.206;   46.700;  369.000;  480.000
385.335;  -61.050; -549.000; -417.000
385.465; -109.575; -655.000; -663.000
385.594;   25.500;  -53.000;  -44.000
385.724;   81.625; -868.000; -838.000
385.853;   12.200; -296.000; -270.000
385.982;  493.400; -743.000; -787.000
386.112;  891.575;-1052.000; -871.000
386.241;   23.450; -307.000; -312.000
386.371;  -17.800; -174.000;  -87.000
386.500;  -41.200; -825.000; -789.000
386.629;   -7.275; -874.000; -817.000
386.759;   86.900;  -43.000;   68.000
386.888;  -23.650; -170.000; -250.000
387.017; -102.175; -648.000; -620.000
387.147; -108.675; -771.000; -798.000
387.276;  -66.400; -410.000; -397.000
387.405;  -40.300; -398.000; -342.000
387.535;  -70.200; -452.000; -361.000
387.664;  -67.075; -692.000; -620.000
387.793;   -5.225; -198.000; -113.000
387.922;  201.925;  255.000;  200.000
388.052;  -45.900; -576.000; -423.000
388.181;  -48.025; -342.000; -472.000
388.310;  -94.400; -889.000; -710.000
388.439; -106.050; -749.000; -742.000
388.568;   49.750;  365.000;  244.000
388.697;  370.425; -756.000; -653.000
388.826;   23.575; -768.000; -666.000
388.956;  -15.650; -285.000; -307.000
389.085;  -63.175; -347.000; -287.000
389.214; -122.750; -842.000; -872.000
389.343;  -88.050; -645.000; -413.000
389.472;  546.125;  126.000;  149.000
389.601;  625.275;   91.000;    0.000
389.730;   -7.800; -568.000; -687.000
389.859;   11.325;  226.000;   46.000
389.988;   53.275; -423.000; -408.000
390.117;   56.475; -168.000; -146.000
390.246;  -51.525; -331.000; -320.000
390.375;  -35.350; -673.000; -626.000
390.504; -101.075; -703.000; -621.000
390.633; -129.750; -672.000; -726.000
390.761;  -95.975; -732.000; -645.000
390.890;  -27.450;   -4.000; -130.000
391.019;  -74.900; -421.000; -441.000
391.148; -124.350; -826.000; -855.000
391.277;  -83.350; -576.000; -493.000
391.406; -123.900; -821.000; -805.000
391.534;    5.725;  574.000; -301.000
391.663;  -90.700; -583.000; -645.000
391.792; -103.300; -673.000; -701.000
391.921;    1.575;   -3.000;   15.000
392.050;   12.375; -287.000; -228.000
392.178; -116.375;-1206.000;-1061.000
392.307;  -22.150; -758.000; -712.000
392.436;  -23.700; -427.000; -641.000
392.564;   -6.300;  166.000;   -6.000
392.693; -107.325; -860.000; -682.000
392.822;   36.150; -529.000; -534.000
392.950;  -25.700; -880.000; -714.000
393.079;   88.200; -188.000; -328.000
393.208;  -41.350; -488.000; -511.000
393.336;  -28.200; -170.000; -145.000
393.465;  -55.750; -317.000; -199.000
393.593;  -17.175;   62.000;   79.000
393.722; -159.300;-1121.000; -916.000
393.850;  -32.600; -188.000;  -61.000
393.979; -132.600; -926.000; -805.000
394.107;  -81.500; -517.000; -537.000
394.236;  -50.225; -570.000; -507.000
394.364;  121.675;  383.000;  206.000
394.493;  115.975; -911.000; -767.000
394.621;   -2.700; -955.000; -916.000
394.750; 1139.025; -873.000; -923.000
394.878; 4452.675; -247.000; -149.000
395.007; 6425.650; -721.000; -807.000
395.135;  585.975; -790.000; -721.000
395.263;  -53.000;-1038.000;-1040.000
395.392;   -2.975;  -25.000; -107.000
395.520; -117.200; -818.000; -679.000
395.648; -124.300; -865.000; -915.000
395.777;  -64.175; -366.000; -405.000
395.905;  -70.325; -449.000; -564.000
396.033;  -12.625;  217.000;  172.000
396.162;  183.250; -399.000; -453.000
396.290;  201.375;  -17.000;   -2.000
396.418;  -32.325; -555.000; -514.000
396.546;  -81.125; -571.000; -466.000
396.674; -121.150; -850.000; -878.000
396.803;  -14.800;  -72.000;  -23.000
396.931;   -7.600; -179.000; -199.000
397.059; -121.450;-1026.000; -989.000
397.187; -137.175;-1026.000; -975.000
397.315; -144.100; -884.000; -649.000
397.443; -110.525; -592.000; -443.000
397.572;  -98.575; -578.000; -424.000
397.700;  -76.900; -607.000; -614.000
397.828;  -40.275;  120.000;  -90.000
397.956;  -36.500; -508.000; -478.000
398.084;  -38.750; -767.000; -626.000
398.212;   -3.775;  137.000;  124.000
398.340;   -6.700;  -56.000;  159.000
398.468;  -45.700; -390.000; -169.000
398.596; -144.775; -993.000; -953.000
398.724; -119.325; -762.000; -767.000
398.852; -155.350;-1024.000; -976.000
398.980;  -70.875; -560.000; -560.000
399.108;  -92.875; -982.000; -735.000
399.236;   -5.900;   13.000;    8.000
399.363;  -10.300;  222.000;  196.000
399.491;  -62.125; -404.000; -398.000
399.619; -130.150; -829.000; -800.000
399.747; -107.825; -859.000; -771.000
399.875;   49.125;  220.000;  234.000
400.003;  -61.375; -359.000; -284.000
400.130; -102.175; -421.000; -341.000
400.258;  -28.975;  -83.000;   38.000
400.386;  -73.075; -352.000; -168.000
400.514;  -94.350; -526.000; -587.000
400.641; -136.875; -928.000; -802.000
400.769; -140.325; -979.000; -888.000
400.897; -122.575; -838.000; -793.000
401.025;  -38.950; -166.000; -152.000
401.152;   -9.075;  220.000;   38.000
401.280;  -89.700; -430.000; -429.000
401.408; -127.825; -712.000; -576.000
401.535; -109.825; -735.000; -758.000
401.663; -191.175;-1134.000;-1054.000
401.790; -100.350; -514.000; -525.000
401.918;   32.825;  436.000;  405.000
402.046;  -30.900;  134.000;  122.000
402.173;  -55.100;  -18.000;    7.000
402.301;  -80.500; -519.000; -397.000
402.428;   14.825;  528.000;  383.000
402.556; -151.875;-1188.000; -913.000
402.683;  -31.375;  -20.000;   -1.000
402.811;  -39.125;  -37.000; -206.000
402.938;  -15.725;   20.000;   27.000
403.066;   29.450; -574.000; -558.000
403.193;  136.275;  299.000;  239.000
403.321;   83.725; -396.000; -574.000
403.448;  135.425;   83.000;   27.000
403.575;   45.950;  -90.000;  -46.000
403.703; -101.150; -732.000; -557.000
403.830;  -53.475; -531.000; -496.000
403.957; -124.975;-1117.000;-1023.000
404.085;   16.175;  -61.000; -172.000
404.212;  106.250;  -50.000;   63.000
404.339;  442.500; -566.000; -306.000
404.467; 8896.650; -612.000; -524.000
404.594; 5447.475; -287.000; -227.000
404.721;  963.325; -869.000; -764.000
404.848;  101.125; -113.000; -202.000
404.976;  -97.225; -856.000; -783.000
405.103;   -9.825;  -14.000;  -82.000
405.230;  -10.600;  190.000;  226.000
405.357;   52.575;  117.000;   44.000
405.484;  410.850;  -49.000;    5.000
405.612;  107.650; -548.000; -563.000
405.739;  -45.625; -488.000; -243.000
405.866;   78.675;  669.000;  385.000
405.993;  -57.475; -398.000; -102.000
406.120; -141.250; -801.000; -887.000
406.247;  -75.450; -323.000; -342.000
406.374;  130.225;  540.000;  629.000
406.501;  -67.350; -632.000; -702.000
406.628;  -94.800; -621.000; -589.000
406.755; -123.400; -803.000; -620.000
406.882;  -65.275; -228.000; -277.000
407.009; -107.750; -719.000; -628.000
407.136;  -39.225; -480.000; -401.000
407.263;  -44.450; -939.000; -829.000
407.390;  -97.425; -692.000; -614.000
407.517; -196.650;-1139.000;-1187.000
407.644;  -76.325; -332.000; -256.000
407.771;  -82.825; -249.000; -287.000
407.898;   -1.450;  168.000;  328.000
408.025;  -68.950; -421.000; -313.000
408.151;  -14.600;   82.000;  153.000
408.278;  -68.700; -267.000; -216.000
408.405; -132.350; -931.000; -899.000
408.532;  -89.625; -549.000; -542.000
408.659; -125.175; -677.000; -648.000
408.785; -185.900;-1298.000;-1170.000
408.912;  -74.225; -412.000; -296.000
409.039; -122.900; -610.000; -686.000
409.166; -114.400; -591.000; -555.000
409.292; -116.325; -571.000; -534.000
409.419; -113.850; -665.000; -649.000
409.546;  -91.500; -431.000; -192.000
409.672;  -99.375; -713.000; -545.000
409.799;  -44.075;  -36.000;   34.000
409.926;  -62.525; -180.000; -179.000
410.052; -182.550;-1127.000;-1091.000
410.179;  -74.225; -368.000; -392.000
410.305;  -95.500; -375.000; -493.000
410.432;  -41.725; -220.000; -333.000
410.558; -101.025; -305.000; -380.000
410.685; -109.700; -688.000; -431.000
410.812; -116.250; -409.000; -588.000
410.938; -134.625; -964.000; -808.000
411.065; -106.675; -671.000; -645.000
411.191;  -31.400; -189.000; -174.000
411.317; -140.200; -823.000; -742.000
411.444;  -79.525; -317.000; -246.000
411.570;  -81.575; -339.000; -294.000
411.697; -133.050; -758.000; -752.000
411.823; -187.300; -989.000; -999.000
411.949;  -45.250;  -56.000;   17.000
412.076; -120.775; -539.000; -519.000
412.202; -129.250; -758.000; -757.000
412.329; -138.375; -798.000; -752.000
412.455; -110.750; -821.000; -657.000
412.581;  -36.650;  -15.000;  172.000
412.707;  -90.675; -540.000; -457.000
412.834;   -9.700;  156.000;  219.000
412.960; -103.350; -785.000; -784.000
413.086; -107.750; -743.000; -701.000
413.212;  103.925;  604.000;  578.000
413.339;  -98.875; -685.000; -701.000
413.465;  -48.000; -364.000; -310.000
413.591; -119.350; -757.000; -474.000
413.717;  -57.300; -358.000; -366.000
413.843; -115.150; -839.000; -861.000
413.969;  -52.100;  -47.000; -292.000
414.096;  -88.800; -679.000; -679.000
414.222;    3.900;  -33.000;   85.000
414.348;  -74.650; -652.000; -385.000
414.474;   14.150;   38.000;  -52.000
414.600;   -5.200; -126.000; -144.000
414.726;  -11.075;  -96.000;  -55.000
414.852;  -47.000; -365.000; -342.000
414.978;   27.600;  104.000;  -18.000
415.104;   60.900;   38.000;   80.000
415.230;   36.475; -329.000; -330.000
415.356;   68.375; -409.000; -514.000
415.482;  239.650;   13.000;  -35.000
415.608;  398.575; -247.000; -323.000
415.734; 1332.950;   67.000;   38.000
415.860;27864.100; -875.000; -767.000
415.986;22711.425; -685.000; -607.000
416.111; 2127.850; -798.000; -652.000
416.237;  457.650; -424.000; -571.000
416.363; 1672.300; -765.000; -733.000
416.489; 6639.825; -324.000; -251.000
416.615;  875.775; -707.000; -742.000
416.741;   55.900; -677.000; -784.000
416.866;  -70.625; -673.000; -736.000
416.992; -111.100; -801.000; -818.000
417.118;  -24.175;  -41.000;  -80.000
417.244;  -75.100; -798.000; -531.000
417.369;  -92.175; -801.000; -612.000
417.495;  -15.625; -325.000; -254.000
417.621;  -80.325;-1015.000; -803.000
417.746;    0.400; -579.000; -572.000
417.872;   51.800; -254.000; -144.000
417.998;  110.825; -515.000; -530.000
418.123; 1531.350;-1073.000; -845.000
418.249; 8475.450; -512.000; -601.000
418.374; 1445.975; -916.000; -824.000
418.500;  214.725; -383.000; -482.000
418.626;  169.975;   70.000;  -59.000
418.751;  163.300; -549.000; -448.000
418.877;  306.825; -637.000; -643.000
419.002; 2517.000; -688.000; -560.000
419.128;19194.700; -930.000; -721.000
419.253; 5404.175; -967.000; -837.000
419.379;  733.350; -391.000; -338.000
419.504;  565.500;  325.000;  415.000
419.629;  829.475; -393.000; -212.000
419.755; 5266.675; -317.000; -254.000
419.880;33965.100;  -98.000;   67.000
420.006;17181.075; -280.000; -221.000
420.131;43056.050; -662.000; -775.000
420.256; 6955.650; -315.000; -316.000
420.382;  934.000; -665.000; -687.000
420.507;  146.875; -649.000; -778.000
420.632;   51.450; -337.000; -339.000
420.758;   61.700; -251.000; -425.000
420.883;  -97.975; -876.000; -672.000
421.008; -115.950; -775.000; -619.000
421.133; -100.425; -509.000; -467.000
421.259;  -46.925; -325.000; -259.000
421.384; -127.850; -834.000; -693.000
421.509; -110.975;-1052.000; -862.000
421.634;  317.425; -936.000; -820.000
421.759;  169.625; -359.000; -327.000
421.885;  -89.025; -717.000; -656.000
422.010; -101.850; -673.000; -542.000
422.135; -149.825; -695.000; -727.000
422.260;    8.750;  340.000;  280.000
422.385;  -52.675;   12.000;  -98.000
422.510;   -1.625;  151.000;  -26.000
422.635;  -11.925;  -87.000;  -43.000
422.760;   -8.050; -766.000; -791.000
422.885;   31.750;  -57.000;  -80.000
423.010;  -39.050; -112.000; -169.000
423.135;  -97.950; -481.000; -561.000
423.260;  -38.375; -150.000; -245.000
423.385;   22.975;  476.000;  222.000
423.510;   -3.300;   71.000;  -22.000
423.635;   11.625;  133.000;   45.000
423.760;   50.950;  383.000;  328.000
423.885;   29.550;  336.000;  391.000
424.010;  -10.200;  -68.000;  -13.000
424.135;  -24.925;    5.000;  -33.000
424.259;  -88.750; -654.000; -457.000
424.384;  -58.275; -279.000; -272.000
424.509;  -32.375; -260.000; -186.000
424.634;  -90.975; -761.000; -623.000
424.759;  -33.475; -688.000; -544.000
424.883;   -1.325; -506.000; -527.000
425.008;  207.725; -502.000; -410.000
425.133; 2889.100; -679.000; -653.000
425.258; 1538.050; -517.000; -381.000
425.382;  593.750; -867.000; -774.000
425.507; 1416.225; -487.000; -543.000
425.632;  418.200; -802.000; -663.000
425.756;  680.025; -256.000; -146.000
425.881; 9675.375; -831.000; -857.000
426.006;29725.475; -604.000; -355.000
426.130; 4862.100; -696.000; -508.000
426.255;  653.100; -611.000; -491.000
426.379;  276.025; -189.000; -577.000
426.504;  512.725;  660.000;  544.000
426.629; 5772.275; -519.000; -466.000
426.753; 4480.425;   64.000;  -46.000
426.878;  554.400; -252.000; -288.000
427.002;  301.600; -651.000; -668.000
427.127; 2055.300;  -35.000; -158.000
427.251;17032.700;  372.000;  401.000
427.375; 5515.500; -191.000; -173.000
427.500; 1515.300; -616.000; -610.000
427.624;  520.375; -234.000; -400.000
427.749;   95.400; -216.000; -225.000
427.873;  -35.150; -499.000; -412.000
427.997;  -44.875; -222.000; -230.000
428.122;   65.800;  795.000;  703.000
428.246;   31.175;  433.000;  434.000
428.371; -143.325; -869.000; -773.000
428.495; -123.375; -624.000; -646.000
428.619;  -39.725; -186.000; -117.000
428.743;   -5.625;   65.000;  132.000
428.868;  -58.800; -732.000; -643.000
428.992;  650.975; -219.000; -326.000
429.116;  242.825; -329.000; -357.000
429.240;  140.675;  419.000;  426.000
429.365;  -48.450; -454.000; -574.000
429.489;  -59.650; -638.000; -647.000
429.613;   30.000; -236.000; -177.000
429.737;   86.675; -563.000; -432.000
429.861;  381.100; -247.000; -133.000
429.985; 7905.650; -425.000; -305.000
430.109; 9988.975; -770.000; -908.000
430.234; 1198.500;   76.000;  -50.000
430.358;  130.750; -250.000; -160.000
430.482;  -48.800; -672.000; -564.000
430.606;  -69.275; -655.000; -375.000
430.730;  -60.650; -437.000; -388.000
430.854;  -74.325; -909.000; -835.000
430.978; -101.575; -795.000; -764.000
431.102;  -82.175; -499.000; -422.000
431.226; -115.875; -874.000; -815.000
431.350;    3.075;  345.000;  422.000
431.474;  -98.250; -661.000; -373.000
431.597; -162.850;-1060.000; -848.000
431.721;  -78.100; -276.000; -267.000
431.845; -128.075; -704.000; -472.000
431.969;  -74.975; -304.000; -349.000
432.093;  -95.450; -395.000; -317.000
432.217;  -29.975;   32.000;   82.000
432.341;  -94.150; -523.000; -518.000
432.464;  -25.875;   96.000;   40.000
432.588;  -17.175; -401.000; -329.000
432.712;   18.550;  -52.000;  -52.000
432.836;   53.075;  213.000;  263.000
432.959;   29.900; -372.000; -311.000
433.083;  167.625;   11.000;    2.000
433.207;  564.475;  285.000;  930.000
433.330; 7513.700; -391.000; -200.000
433.454;10354.900; -654.000; -638.000
433.578; 5721.150;  583.000;  278.000
433.701; 1226.000; -623.000; -675.000
433.825;  166.900; -292.000; -299.000
433.949;   59.150;   28.000;  -72.000
434.072;  -12.475; -410.000; -323.000
434.196;   -7.925; -309.000; -117.000
434.319; 3528.700;25482.000;25124.000
434.443;  874.825; -656.000; -603.000
434.566; 4031.350;  281.000;   62.000
434.690;  852.875; -637.000; -383.000
434.813;  138.725; -251.000; -173.000
434.937;  -52.150; -569.000; -696.000
435.060;  -78.800; -423.000; -332.000
435.184;   23.425; -492.000; -217.000
435.307;   26.675;  159.000;  102.000
435.431;  -31.850;  -40.000;   24.000
435.554;  -82.625; -399.000; -240.000
435.677;  -84.525; -350.000; -258.000
435.801;  -59.650;  -25.000;   49.000
435.924;  -35.450;    1.000;  -67.000
436.048; -138.125;-1019.000; -732.000
436.171;  -62.325; -240.000;  -66.000
436.294;  -12.150; -248.000; -229.000
436.417;  224.050; -963.000; -849.000
436.541;  -37.975; -814.000; -840.000
436.664;  -60.250; -242.000; -316.000
436.787;  -40.800;   13.000;  113.000
436.910; -134.375; -792.000; -422.000
437.034;  -22.425;  142.000;  143.000
437.157;    3.250;  -11.000;    0.000
437.280;  -77.150; -392.000; -292.000
437.403; -132.975; -982.000; -869.000
437.526;   76.375; -903.000; -865.000
437.649;  748.450; -505.000; -332.000
437.772;   47.200; -692.000; -540.000
437.896;   57.500;  700.000;  544.000
438.019; -111.350; -758.000; -503.000
438.142; -107.250; -596.000; -506.000
438.265; -109.225; -639.000; -670.000
438.388;   53.150; -520.000; -410.000
438.511;  -49.275; -597.000; -394.000
438.634;  -74.725; -247.000; -125.000
438.757; -147.125; -693.000; -619.000
438.880;  -51.875;  -34.000;  -57.000
439.003;  -89.825; -417.000; -437.000
439.126;  -86.375; -287.000; -167.000
439.248;  -65.575;  -98.000; -139.000
439.371;  -49.650;    9.000;  -53.000
439.494;    7.175;  510.000;  439.000
439.617;  -61.750;   65.000;  -88.000
439.740; -180.400; -968.000; -816.000
439.863; -144.500; -755.000; -595.000
439.986; -123.850; -476.000; -431.000
440.108;  -44.600; -161.000; -112.000
440.231; -163.000; -950.000; -836.000
440.354;  -52.400;  -64.000; -150.000
440.477;  -99.350; -566.000; -542.000
440.599;  -73.025; -200.000; -225.000
440.722; -128.175; -709.000; -586.000
440.845;   50.500;  751.000;  928.000
440.968; -111.950; -415.000; -311.000
441.090;  -84.850; -199.000;  -33.000
441.213; -169.850;-1021.000; -825.000
441.336;  -58.800; -159.000;   -5.000
441.458; -100.350; -549.000; -396.000
441.581; -118.400; -628.000; -629.000
441.703;  -74.075; -152.000;   13.000
441.826; -124.150; -557.000; -400.000
441.948;  -56.275;   56.000;   51.000
442.071;   15.175;  555.000;  424.000
442.193; -137.625; -531.000; -485.000
442.316;   -1.425;  152.000;   97.000
442.438;   68.125; -233.000;  -10.000
442.561;   61.925;  272.000;  262.000
442.683;  101.725; -809.000; -522.000
442.806;  383.950;   -8.000;   74.000
442.928;  -86.575; -859.000; -604.000
443.051;  -69.350; -577.000; -373.000
443.173; -107.425; -341.000; -339.000
443.295;  -88.925; -263.000; -371.000
443.418;  -82.000; -321.000;  -29.000
443.540;  -39.400; -106.000;   -4.000
443.662; -141.350; -563.000; -465.000
443.785;  -35.725;  335.000;  199.000
443.907; -107.925; -362.000; -208.000
444.029; -127.850; -767.000; -494.000
444.152; -136.575; -644.000; -554.000
444.274;  -53.650;  -18.000;  -24.000
444.396; -118.950; -461.000; -221.000
444.518; -133.000; -691.000; -454.000
444.640;  -97.450; -268.000; -111.000
444.763;  -16.150;  388.000;  249.000
444.885; -107.900; -432.000; -392.000
445.007;  -32.550;   35.000;   86.000
445.129; -135.175; -610.000; -515.000
445.251; -109.200; -372.000; -439.000
445.373; -133.475; -537.000; -386.000
445.495;  -18.075;  242.000;  350.000
445.617;   29.725;  853.000;  753.000
445.739;  -77.575; -215.000;  -97.000
445.861;  -70.000; -245.000; -112.000
445.984;  -61.300; -267.000; -101.000
446.105;    0.225; -418.000; -251.000
446.227;  170.325; -176.000;  -19.000
446.349;  -64.700; -358.000; -249.000
446.471; -130.125; -615.000; -448.000
446.593;  -93.200; -316.000;   19.000
446.715;  -48.550;  -67.000;   41.000
446.837;   30.825;  697.000;  832.000
446.959; -121.075; -457.000; -478.000
447.081; -135.525; -628.000; -518.000
447.203;   44.225;  862.000;  834.000
447.325;  -88.225; -270.000;   42.000
447.446;  -21.700;  286.000;  530.000
447.568; -149.575; -921.000; -803.000
447.690;  -89.500; -236.000; -245.000
447.812; -153.450; -798.000; -519.000
447.933;  -27.850;  155.000;  127.000
448.055;  -70.100; -306.000; -261.000
448.177;   29.700;   31.000;   79.000
448.299;  -81.950; -935.000; -727.000
448.420;   -8.850;  -25.000;  159.000
448.542;  -48.800;   -3.000;   33.000
448.664;  -33.475;  109.000;  322.000
448.785;  -57.125;  265.000;   83.000
448.907; -113.675; -614.000; -353.000
449.028; -107.325; -771.000; -471.000
449.150;   49.950;  492.000;  589.000
449.272; -186.650;-1044.000; -913.000
449.393;   24.300;  612.000;  694.000
449.515; -148.375; -634.000; -581.000
449.636;  -82.525; -264.000; -155.000
449.758;   52.800;  763.000;  622.000
449.879; -107.850; -498.000; -396.000
450.001;  -68.775; -149.000;  -49.000
450.122;  -46.025;  -95.000;  162.000
450.244;  -25.175;   37.000;  364.000
450.365;  -84.575; -495.000; -301.000
450.486;   -2.875;   80.000;  268.000
450.608;   52.425;  393.000;  326.000
450.729;   98.025;  578.000;  645.000
450.850;   93.900; -574.000; -466.000
450.972; 1179.875; -552.000; -389.000
451.093; 7727.400;  190.000;  588.000
451.214; 3976.725; -516.000; -337.000
451.336;  658.525;  773.000;  579.000
451.457;  103.150;  264.000;  393.000
451.578;  -30.225; -118.000;  -74.000
451.699; -108.125; -546.000; -540.000
451.821;  -61.225; -284.000;  -50.000
451.942;    1.250;  278.000;  285.000
452.063;   56.875;  228.000;  419.000
452.184;  806.850;  -54.000;  -49.000
452.305; 1705.525;  103.000;  170.000
452.427;  321.125; -549.000; -301.000
452.548;    2.875;   23.000;   79.000
452.669;  -74.625; -257.000;  -89.000
452.790;  -60.525;    3.000;  -18.000
452.911;  -24.450;  195.000;  259.000
453.032;  -80.900; -289.000;  -60.000
453.153;  -53.625;  -29.000;   81.000
453.274;   49.300;  737.000;  868.000
453.395;  -73.925;  -51.000;  175.000
453.516;   87.875; 1317.000; 1388.000
453.637; -101.025; -205.000; -150.000
453.758;  -58.475;   15.000;   69.000
453.879; -121.950; -462.000; -250.000
454.000;   61.200; 1086.000;  948.000
454.121; -126.425; -554.000; -326.000
454.242; -123.250; -599.000; -383.000
454.362;  -52.525;  -99.000;  114.000
454.483;  -34.825; -309.000; -229.000
454.604;   48.300;  512.000;  580.000
454.725; -134.750; -627.000; -555.000
454.846; -127.850; -474.000; -406.000
454.967;  -31.325;  230.000;  539.000
455.087;  -32.375;  179.000;  153.000
455.208;    8.175;  554.000;  856.000
455.329;  -55.625;  -22.000;   82.000
455.450;   52.200;  473.000;  633.000
455.570;  -75.600; -234.000; -211.000
455.691;  -47.225;  201.000;  407.000
455.812; -106.525; -270.000;  -92.000
455.932;  -62.100;  107.000;  -97.000
456.053;  -81.950;   36.000;   24.000
456.173; -110.250; -433.000; -355.000
456.294; -132.750; -476.000; -303.000
456.415;  -69.950;  -73.000;   70.000
456.535;  -50.300;  297.000;  273.000
456.656;  -50.375;  132.000;  240.000
456.776;  -85.025;    3.000;  298.000
456.897;  -15.200;  308.000;  513.000
457.017;  -65.150; -153.000;   -3.000
457.138; -113.100; -402.000; -249.000
457.258;  -42.075;  263.000;  224.000
457.379;  -24.475;  509.000;  521.000
457.499;  -33.150;  443.000;  432.000
457.620; -116.625; -407.000; -231.000
457.740;  -92.800; -132.000;  -11.000
457.860;  -50.025;   87.000;   44.000
457.981;  -46.025;  132.000;  124.000
458.101;  -67.175;  -89.000;   40.000
458.221;   -8.800;  336.000;  402.000
458.342;  -55.150;   -4.000;  -37.000
458.462;   44.200;  617.000;  352.000
458.582;   -2.250; -302.000; -294.000
458.703;   54.950;  303.000;  154.000
458.823;    6.675;   22.000;  163.000
458.943;   44.775;  341.000;  467.000
459.063;    9.900; 1124.000;  192.000
459.183;  -18.225;  328.000;  313.000
459.304;    7.725;  315.000;  517.000
459.424;  -48.200; -246.000;  -89.000
459.544;  461.550;  388.000;  764.000
459.664; 1273.900;  499.000;  506.000
459.784;  509.725; 1004.000; 1175.000
459.904;   88.700;  867.000;  744.000
460.024;   40.875;  867.000;  684.000
460.144;  -14.225;  449.000;  554.000
460.264;   -9.200;  515.000;  327.000
460.385;  -89.400; -145.000; -119.000
460.505;   30.175;  905.000;  858.000
460.625;  -95.325;  -17.000;  -68.000
460.745;  -11.825;  396.000;  541.000
460.864;  -43.750;  153.000;  469.000
460.984;   38.725;  499.000;  573.000
461.104;  140.900; 1656.000; 1775.000
461.224;   10.500;  657.000;  650.000
461.344;  -20.675;  431.000;  360.000
461.464;  -39.625;  258.000;  513.000
461.584;  -34.900;  283.000;  466.000
461.704;  -63.200;   58.000;  108.000
461.824;  -63.875;  238.000;  259.000
461.943;  -32.150;  191.000;  130.000
462.063;  -80.075;    2.000;  324.000
462.183;    2.375;  639.000;  717.000
462.303;   71.350; 1678.000; 1230.000
462.422;   23.675;  781.000;  840.000
462.542;  -54.675;  271.000;  391.000
462.662;   38.125;  353.000;  380.000
462.782;  331.475;  833.000;  572.000
462.901;  711.600;  545.000;  717.000
463.021;  383.900; 1702.000; 1638.000
463.141;   13.800;  337.000;  770.000
463.260;  -23.500;  614.000;  474.000
463.380;   20.475;  902.000;  884.000
463.499;  -32.150;  342.000;  332.000
463.619;  -34.150;  581.000;  559.000
463.738;  105.400; 1644.000;  903.000
463.858;   15.100;  657.000;  811.000
463.978;  -43.125;  542.000;  396.000
464.097;   30.675;  921.000; 1114.000
464.217;  139.175; 1196.000; 1143.000
464.336;  136.075; 1068.000; 1130.000
464.455;  -21.325;  328.000;  659.000
464.575;   18.350;  597.000;  602.000
464.694;  129.950; 1204.000; 1179.000
464.814;  136.900; 1190.000; 1138.000
464.933;   71.225; 1095.000; 1027.000
465.052;   90.000; 1412.000; 1054.000
465.172;   75.775;  922.000;  799.000
465.291;  118.025; 1376.000; 1320.000
465.410;    1.775;  462.000;  735.000
465.530;   72.175; 1355.000; 1310.000
465.649;   57.750; 1209.000; 1273.000
465.768;  128.625; 1673.000; 1508.000
465.888;   49.075;  941.000; 1174.000
466.007;   87.825; 1335.000; 1440.000
466.126;   -2.075;  721.000;  641.000
466.245;   28.750; 1176.000; 1187.000
466.364;   25.900;  950.000; 1060.000
466.484;   57.300; 1024.000; 1213.000
466.603;   16.600; 1101.000; 1222.000
466.722;   96.675; 1490.000; 1769.000
466.841;   57.850; 1151.000; 1401.000
466.960;   43.400; 1069.000;  972.000
467.079;  129.625; 1971.000; 1786.000
467.198;   43.725; 1238.000; 1181.000
467.317;   75.350; 1768.000; 1162.000
467.436;   74.575; 1709.000; 1261.000
467.555;  118.500; 1796.000; 1746.000
467.674;   60.700; 1227.000; 1329.000
467.793;   48.750; 1376.000; 1374.000
467.912;   99.800; 1658.000; 1539.000
468.031;  124.800; 2038.000; 1930.000
468.150;  124.750; 1842.000; 1837.000
468.269;  165.450; 2313.000; 2090.000
468.388;  184.550; 2168.000; 2339.000
468.507;  254.175; 2884.000; 2903.000
468.626;  265.525; 2555.000; 2541.000
468.744;  133.075; 2018.000; 2174.000
468.863;  189.775; 2312.000; 2523.000
468.982;   88.100; 1503.000; 1555.000
469.101;  227.525; 2788.000; 2692.000
469.220;  165.125; 2333.000; 2176.000
469.338;  244.675; 2935.000; 3051.000
469.457;  193.275; 2719.000; 2545.000
469.576;  348.250; 3953.000; 3784.000
469.695;  233.975; 2877.000; 3066.000
469.813;  417.325; 4148.000; 4192.000
469.932;  412.075; 4255.000; 4485.000
470.051;  436.150; 4075.000; 4161.000
470.169; 1028.800; 4470.000; 4338.000
470.288; 2007.200; 4700.000; 4809.000
470.406; 1150.500; 5059.000; 5194.000
470.525;  668.250; 6101.000; 5787.000
470.644;  658.875; 6847.000; 6794.000
470.762;  807.000; 8397.000; 7873.000
470.881;  904.825; 8651.000; 8464.000
470.999; 1078.900; 9685.000; 9151.000
471.118; 1108.050;11174.000;10711.000

