
Integration time [ms]: 200.000
Averaging Nr. [scans]: 10
Smoothing Nr. [pixels]: 0
Data measured with spectrometer [name]: 2101012U2
Wave   ;Sample   ;Dark     ;Reference
[nm]   ;[counts] ;[counts] ;[counts] 

197.733;   89.300;  516.000;  404.000
197.879; -190.500; -610.000; -634.000
198.025; -117.900; -475.000; -420.000
198.171; -160.400; -602.000; -612.000
198.317;  -75.400; -401.000; -316.000
198.463; -130.100; -655.000; -404.000
198.609;   37.300;  181.000; -137.000
198.755; -164.700; -644.000; -410.000
198.901; -151.000; -505.000; -424.000
199.047; -106.300; -615.000; -488.000
199.193; -131.000; -230.000; -468.000
199.339;  -86.500; -222.000; -369.000
199.485;   29.400;  330.000;  271.000
199.631;   19.300;  227.000;  310.000
199.777; -136.100; -466.000; -398.000
199.923; -124.200; -610.000; -424.000
200.069;  -56.900; -141.000;  -58.000
200.215;   95.200;  128.000;  453.000
200.361;   66.000;  243.000;  477.000
200.507; -117.700; -600.000; -373.000
200.653;  -65.900; -371.000; -194.000
200.798;  -46.000; -215.000; -125.000
200.944;  -16.300; -146.000;  -41.000
201.090;   77.800;   61.000;  222.000
201.236;  -18.600; -116.000; -158.000
201.382;  268.200;  874.000;  903.000
201.528;  -27.900;  -58.000;  -48.000
201.674;  -83.700; -386.000; -293.000
201.819; -157.700; -540.000; -439.000
201.965; -151.400; -699.000; -447.000
202.111;  -81.900; -273.000; -226.000
202.257;  -53.100; -250.000; -238.000
202.402;  -27.100;   13.000;  -36.000
202.548;  -92.200; -169.000; -116.000
202.694;  161.500;  410.000; -183.000
202.840; -146.000; -603.000; -531.000
202.985; -163.800; -681.000; -639.000
203.131; -201.500; -832.000; -666.000
203.277;  -61.400; -199.000; -262.000
203.423;  -88.400; -434.000; -520.000
203.568; -110.000; -462.000; -237.000
203.714; -133.500; -535.000; -542.000
203.860; -174.100; -682.000; -641.000
204.005;    5.300;  112.000;  167.000
204.151;  143.000;  561.000;  556.000
204.296;  -96.400; -354.000; -221.000
204.442; -161.200; -600.000; -547.000
204.588; -164.000; -592.000; -579.000
204.733;  -38.900;  178.000;  168.000
204.879; -251.400;-1018.000; -822.000
205.025;  -31.500;  -99.000;  126.000
205.170;   -5.200;  -17.000;   94.000
205.316;  148.400;  438.000;  661.000
205.461; -175.300; -698.000; -554.000
205.607;  160.100;  609.000;  665.000
205.752; -146.200; -626.000; -551.000
205.898; -130.800; -501.000; -391.000
206.043; -123.200; -578.000; -506.000
206.189;  -99.200; -243.000; -285.000
206.334;  159.300;  554.000;  606.000
206.480;  149.200;  409.000;  239.000
206.625; -195.500; -529.000; -552.000
206.771; -126.100; -451.000; -373.000
206.916;  -77.200; -210.000; -537.000
207.062; -166.700; -545.000; -591.000
207.207; -146.000; -546.000; -443.000
207.353;   90.500;  185.000;  460.000
207.498;   29.000;  196.000;   85.000
207.643; -124.300; -501.000; -370.000
207.789; -264.500;-1069.000; -910.000
207.934; -208.500; -665.000; -713.000
208.080;  -39.300; -154.000;   66.000
208.225;  -26.700;  -22.000;  -57.000
208.370; -168.800; -727.000; -619.000
208.516; -168.800; -741.000; -487.000
208.661;  -47.300; -127.000;  -69.000
208.806;  -80.300; -165.000; -171.000
208.952; -249.700;-1044.000; -731.000
209.097;  123.300;  378.000;  349.000
209.242;  -92.800; -307.000; -382.000
209.387;  114.800;  392.000;  350.000
209.533; -107.000; -321.000; -350.000
209.678;  151.400;  472.000;  543.000
209.823; -114.000; -408.000; -310.000
209.969; -237.200; -860.000; -757.000
210.114; -222.500; -907.000; -719.000
210.259; -235.400; -939.000; -889.000
210.404;  -30.600; -171.000;  103.000
210.549;    5.700;  108.000;    3.000
210.695;  -23.400;   -3.000;  -95.000
210.840;   42.700;   94.000;   67.000
210.985; -108.700; -484.000; -303.000
211.130;  123.700;  268.000;  406.000
211.275;   26.500;  207.000;  199.000
211.420; -136.600; -300.000; -289.000
211.566; -153.600; -536.000; -489.000
211.711;    9.100;  218.000;  157.000
211.856; -132.700; -545.000; -519.000
212.001;   37.100;  151.000;   44.000
212.146;   26.600;  153.000;   49.000
212.291;  -61.000; -210.000; -186.000
212.436;  -52.000; -280.000;   -6.000
212.581; -181.900; -685.000; -653.000
212.726; -122.000; -487.000; -538.000
212.871; -101.000; -552.000; -217.000
213.016; -283.700;-1172.000;-1029.000
213.161;  111.000;  406.000;  291.000
213.306; -157.800; -435.000; -577.000
213.451; -222.600; -778.000; -689.000
213.596;  -83.900; -455.000; -347.000
213.741; -137.400; -448.000; -538.000
213.886; -114.100; -498.000; -517.000
214.031;  -47.100; -294.000; -124.000
214.176; -108.300; -408.000; -341.000
214.321;  -69.100; -296.000; -157.000
214.466;  -61.500; -163.000;  -43.000
214.611;  -15.500;  -61.000;  -10.000
214.756; -235.400; -948.000; -858.000
214.901;  -74.600; -388.000; -226.000
215.046; -252.800; -797.000; -825.000
215.191;   21.700;  128.000;   35.000
215.336;   -7.800; -157.000;  -19.000
215.480; -135.700; -684.000; -505.000
215.625;  -26.200; -175.000;  -19.000
215.770; -194.500; -757.000; -662.000
215.915;  -16.900;   -5.000;  -97.000
216.060;  -29.400; -113.000;  -21.000
216.205; -222.700; -731.000; -779.000
216.349; -167.600; -470.000; -533.000
216.494; -266.100; -939.000; -867.000
216.639; -254.900; -823.000; -888.000
216.784; -188.600; -577.000; -525.000
216.929;   98.200;  392.000;  281.000
217.073;  -38.000; -244.000;  -31.000
217.218;  -22.200;   78.000;  -47.000
217.363; -203.000; -656.000; -618.000
217.507; -162.800; -623.000; -588.000
217.652; -230.500; -845.000; -874.000
217.797; -205.600; -708.000; -659.000
217.942; -197.600; -856.000; -720.000
218.086;  136.900;  608.000;  539.000
218.231;   -4.400; -174.000;  -26.000
218.376;  -70.100; -337.000; -229.000
218.520;   11.100;  -41.000;   96.000
218.665;  -58.500; -338.000; -204.000
218.810;  -60.800; -275.000; -233.000
218.954;    6.300;  201.000;   35.000
219.099; -210.500; -713.000; -963.000
219.243; -157.000; -589.000; -554.000
219.388;  -51.100; -264.000; -136.000
219.532;  -42.300; -116.000; -116.000
219.677; -179.200; -564.000; -521.000
219.822;  -29.400;   33.000;   89.000
219.966;   19.100;   17.000;  -99.000
220.111;  -92.500; -328.000;  -40.000
220.255; -190.600; -797.000; -750.000
220.400;  -36.000; -180.000; -146.000
220.544; -115.700; -516.000; -450.000
220.689; -127.600; -422.000; -451.000
220.833;  -61.800; -123.000;  -58.000
220.978;  -76.000; -393.000; -563.000
221.122;   55.500;  319.000;  307.000
221.267; -236.600; -906.000; -837.000
221.411; -121.500; -478.000; -394.000
221.555;  -58.900; -104.000;  -23.000
221.700;  -71.700; -329.000; -222.000
221.844;   41.300;  255.000;  272.000
221.989; -128.000; -328.000; -311.000
222.133;  -62.200; -289.000; -307.000
222.277;   -9.700;    5.000;   78.000
222.422;   16.800;  227.000;  113.000
222.566;  -59.100; -381.000; -214.000
222.711; -128.600; -414.000; -479.000
222.855; -156.900; -643.000; -586.000
222.999; -173.500; -642.000; -717.000
223.144;  -70.300; -195.000; -194.000
223.288;  131.500;  423.000;  251.000
223.432;   17.100;  184.000;  230.000
223.576;   28.500;  152.000;  -21.000
223.721;  122.700;  364.000;  273.000
223.865; -117.800; -472.000; -475.000
224.009;  498.700; 1673.000; 1631.000
224.153; -181.700; -660.000; -671.000
224.298; -131.800; -531.000; -489.000
224.442;  -59.200;  -74.000;  -33.000
224.586;  -33.400; -169.000; -106.000
224.730; -200.200; -858.000; -670.000
224.875; -204.400; -739.000; -688.000
225.019;   20.600;  102.000;  188.000
225.163;  147.600;  208.000;  341.000
225.307;   -1.100;   97.000;  -91.000
225.451;  108.900;  360.000;  481.000
225.595;   65.800;  264.000;  176.000
225.739;  -11.800; -170.000;  -94.000
225.884;  -15.100;   86.000;    5.000
226.028; -206.000; -760.000; -626.000
226.172; -101.800; -260.000; -273.000
226.316; -220.600; -941.000; -902.000
226.460; -160.200; -645.000; -493.000
226.604; -114.300; -406.000; -400.000
226.748; -233.600; -836.000; -733.000
226.892;  -67.900; -227.000; -181.000
227.036; -112.500; -537.000; -447.000
227.180; -113.700; -551.000; -375.000
227.324; -134.600; -561.000; -580.000
227.468; -228.100; -819.000; -717.000
227.612;  -20.500;  242.000;  -28.000
227.756; -219.400; -845.000; -698.000
227.900;   90.600;  342.000;  441.000
228.044; -113.300; -509.000; -290.000
228.188;   69.800;  448.000;  568.000
228.332; -165.100; -546.000; -472.000
228.476;  -55.300; -223.000; -149.000
228.620;  -32.600; -210.000; -150.000
228.764;  124.800;  431.000;  349.000
228.908;  -59.000; -155.000;   30.000
229.052; -128.000; -615.000; -528.000
229.195;  -10.100; -172.000;   13.000
229.339;  -89.000; -235.000; -305.000
229.483;  -60.400;    5.000; -162.000
229.627;  -55.200; -156.000;  139.000
229.771;  -88.600; -218.000; -294.000
229.915;   21.200;  230.000;   79.000
230.059; -165.200; -648.000; -663.000
230.202;  -99.800; -370.000; -317.000
230.346;  -43.800; -107.000;  107.000
230.490; -127.900; -489.000; -521.000
230.634; -197.300; -736.000; -553.000
230.777;  123.400;  478.000;  509.000
230.921; -123.500; -450.000; -359.000
231.065;  -85.100; -246.000; -286.000
231.209;   81.100;  261.000;  265.000
231.352;   39.000;   54.000;   40.000
231.496;   60.800;  568.000;  188.000
231.640; -190.800; -693.000; -621.000
231.783;  123.500;  546.000;  525.000
231.927; -102.100; -294.000; -365.000
232.071; -218.200; -962.000; -736.000
232.214; -241.400; -980.000; -764.000
232.358; -207.000; -683.000; -599.000
232.502;  -15.600;  -19.000;    7.000
232.645; -281.900;-1090.000; -927.000
232.789;  -67.100; -257.000; -218.000
232.933; -105.100; -407.000; -224.000
233.076; -278.600;-1038.000; -897.000
233.220; -178.300; -752.000; -777.000
233.363; -152.200; -669.000; -477.000
233.507;  115.100;  371.000;  129.000
233.650; -193.700; -764.000; -834.000
233.794;   90.600;  438.000;  461.000
233.938; -121.600; -530.000; -362.000
234.081;   11.100;  -93.000;   31.000
234.225; -133.000; -631.000; -539.000
234.368; -232.800; -773.000; -723.000
234.512; -113.100; -385.000; -299.000
234.655; -182.800; -582.000; -555.000
234.798; -161.100; -493.000; -466.000
234.942; -239.400; -884.000;-1002.000
235.085; -154.700; -651.000; -443.000
235.229; -110.700; -405.000; -410.000
235.372;  -99.300; -247.000; -191.000
235.516;  -97.400; -397.000; -321.000
235.659;   44.600;   92.000;  121.000
235.802;   -7.800;  -38.000;  -22.000
235.946;   38.500;  335.000;  215.000
236.089;   67.800;  126.000;  250.000
236.233;   83.700;  275.000;  298.000
236.376; -105.500; -235.000; -378.000
236.519; -107.300; -297.000; -319.000
236.663;  -38.000; -215.000; -117.000
236.806; -284.200;-1029.000; -999.000
236.949;  148.700;  543.000;  431.000
237.092;  125.100;  412.000;  391.000
237.236; -152.100; -589.000; -502.000
237.379;  129.200;  352.000;  428.000
237.522; -237.700; -879.000; -768.000
237.666;  -43.200; -271.000;   18.000
237.809; -248.900; -851.000; -823.000
237.952;   47.700;  469.000;  271.000
238.095; -128.000; -447.000; -442.000
238.238;  140.100;  688.000;  700.000
238.382;  -17.500;  166.000;  103.000
238.525; -159.900; -598.000; -511.000
238.668; -280.800;-1060.000; -985.000
238.811; -132.100; -638.000; -643.000
238.954; -110.200; -483.000; -334.000
239.097;  166.300;  617.000;  664.000
239.241;   81.900;  394.000;  326.000
239.384;  -92.700; -254.000; -214.000
239.527; -106.500; -424.000; -224.000
239.670; -297.100; -994.000;-1091.000
239.813; -205.800; -696.000; -658.000
239.956;  138.500;  579.000;  473.000
240.099; -212.900; -778.000; -725.000
240.242;  116.300;  428.000;  432.000
240.385;  132.400;  466.000;  450.000
240.528; -169.700; -706.000; -473.000
240.671;   23.700;  189.000;  134.000
240.814;  -76.300; -441.000; -158.000
240.957; -187.600; -767.000; -578.000
241.100; -215.000; -779.000; -755.000
241.243; -312.700;-1234.000; -893.000
241.386; -145.200; -508.000; -379.000
241.529; -172.900; -735.000; -547.000
241.672; -143.500; -566.000; -495.000
241.815; -212.400; -832.000; -808.000
241.958;  -62.600; -125.000; -182.000
242.101; -135.600; -545.000; -390.000
242.244; -102.100; -270.000; -325.000
242.387;  -68.500; -304.000; -246.000
242.530;  114.100;  470.000;  134.000
242.673;  -54.300; -381.000; -309.000
242.815; -249.200; -925.000; -899.000
242.958; -142.000; -482.000; -381.000
243.101;   23.000;  132.000;  187.000
243.244; -148.700; -564.000; -521.000
243.387;  -94.300; -313.000; -316.000
243.530; -166.000; -657.000; -674.000
243.672;  -15.200;   43.000;  -92.000
243.815; -114.700; -355.000; -283.000
243.958;   -0.700;   98.000;  -26.000
244.101;   19.400;   59.000;  -16.000
244.243;  -33.300;  -47.000;  101.000
244.386; -228.300; -761.000; -630.000
244.529;  -45.600; -132.000; -139.000
244.672; -295.000;-1154.000; -951.000
244.814; -204.000; -621.000; -794.000
244.957; -119.300; -380.000; -304.000
245.100; -164.300; -489.000; -489.000
245.242; -121.000; -387.000; -374.000
245.385;  -38.100;  -59.000;  -39.000
245.528; -215.600; -871.000; -705.000
245.670;  184.100;  612.000;  634.000
245.813; -156.500; -599.000; -547.000
245.956;  -82.500; -324.000; -275.000
246.098; -140.400; -508.000; -650.000
246.241;   12.300;  194.000;   48.000
246.383;  -24.000; -119.000;  -73.000
246.526; -162.100; -454.000; -525.000
246.669; -262.100; -889.000; -780.000
246.811;   20.900;  172.000;   -1.000
246.954; -134.900; -512.000; -426.000
247.096;  -54.500;  -84.000;   -6.000
247.239; -120.700; -482.000; -445.000
247.381; -169.600; -647.000; -488.000
247.524;  183.100;  645.000;  679.000
247.666;  -34.400;   58.000;   11.000
247.809; -219.200; -887.000; -691.000
247.951;  -60.100;  -75.000;  138.000
248.094;   38.800;  432.000;  308.000
248.236; -339.100;-1262.000;-1238.000
248.378;  -73.900; -356.000;  -81.000
248.521;  -99.600; -334.000; -337.000
248.663;  -82.600; -236.000; -267.000
248.806;  -81.300; -300.000; -266.000
248.948; -238.300; -886.000; -763.000
249.090; -142.100; -428.000; -398.000
249.233; -130.800; -344.000; -381.000
249.375; -127.000; -474.000; -451.000
249.518;  -51.000;  -83.000; -133.000
249.660;  -26.500; -103.000;    3.000
249.802; -369.100;-1303.000;-1189.000
249.945; -154.100; -612.000; -540.000
250.087; -211.500; -834.000; -768.000
250.229; -145.200; -362.000; -480.000
250.371; -170.900; -494.000; -439.000
250.514; -120.300; -310.000; -244.000
250.656;   -8.700;   69.000;  102.000
250.798; -225.900; -849.000; -800.000
250.940; -118.700; -322.000; -322.000
251.083;  -62.000; -335.000; -111.000
251.225;  111.500;  338.000;  310.000
251.367; -109.300; -274.000; -373.000
251.509;  -47.900; -265.000; -210.000
251.651; -210.000; -731.000; -671.000
251.794;  173.400;  538.000;  632.000
251.936; -237.600; -821.000; -747.000
252.078; -152.000; -540.000; -461.000
252.220; -188.500; -645.000; -477.000
252.362;   52.600;  344.000;  462.000
252.504; -204.500; -677.000; -584.000
252.646; -244.000; -875.000; -722.000
252.788;  -44.500;   14.000; -128.000
252.931; -111.000; -257.000; -253.000
253.073; -135.900; -376.000; -317.000
253.215;   10.500;  141.000;  122.000
253.357;  -14.700;   82.000; -153.000
253.499; -135.700; -374.000; -234.000
253.641; -237.000; -749.000; -594.000
253.783; -199.400; -609.000; -527.000
253.925; -167.400; -586.000; -591.000
254.067; -263.900; -744.000; -667.000
254.209; -106.900; -391.000; -259.000
254.351; -276.100; -865.000; -883.000
254.493; -144.000; -441.000; -417.000
254.635; -236.400; -936.000; -818.000
254.777; -215.700; -752.000; -687.000
254.918; -139.000; -512.000; -430.000
255.060; -127.700; -551.000; -395.000
255.202; -116.100; -473.000; -261.000
255.344; -178.700; -658.000; -455.000
255.486; -134.700; -471.000; -406.000
255.628; -239.300; -780.000; -781.000
255.770; -153.400; -676.000; -536.000
255.912; -121.900; -559.000; -468.000
256.053; -178.200; -730.000; -508.000
256.195;  327.300; 1008.000;  903.000
256.337; -211.900; -861.000; -595.000
256.479;  113.500;  532.000;  416.000
256.621;  -80.900; -394.000; -212.000
256.762; -205.100; -789.000; -742.000
256.904;  107.600;  485.000;  487.000
257.046;  -91.100; -381.000; -271.000
257.188;  -71.400; -351.000; -264.000
257.329; -175.300; -525.000; -464.000
257.471; -220.800; -939.000; -807.000
257.613; -162.700; -584.000; -498.000
257.755; -287.200;-1073.000; -982.000
257.896;   43.000;  286.000;  392.000
258.038; -135.300; -403.000; -352.000
258.180;  -82.700; -354.000; -279.000
258.321; -153.300; -581.000; -457.000
258.463;  -38.500;  -71.000;  133.000
258.605; -184.900; -562.000; -570.000
258.746; -199.200; -886.000; -772.000
258.888; -315.200;-1026.000;-1020.000
259.029;   54.600;  121.000;   -8.000
259.171; -190.400; -614.000; -550.000
259.313;  -26.100;  -49.000;  -47.000
259.454; -142.500; -536.000; -414.000
259.596; -134.700; -483.000; -390.000
259.737; -139.300; -590.000; -474.000
259.879;   54.000;  217.000;  311.000
260.020;  148.000;  901.000;  636.000
260.162;  -81.200; -146.000; -253.000
260.303; -218.400; -768.000; -687.000
260.445; -194.100; -609.000; -613.000
260.586;   68.400;  392.000;  157.000
260.728; -140.500; -360.000; -248.000
260.869; -121.000; -350.000; -343.000
261.011;  145.000;  706.000;  537.000
261.152; -119.900; -479.000; -319.000
261.293; -175.300; -576.000; -595.000
261.435;  -51.800; -219.000; -184.000
261.576; -139.400; -455.000; -325.000
261.718;   79.900;  420.000;  470.000
261.859; -292.700; -940.000; -949.000
262.000; -261.200; -951.000;-1016.000
262.142;  -32.100;  -52.000;  -60.000
262.283; -220.100; -808.000; -691.000
262.424; -211.700; -666.000; -625.000
262.566; -291.600;-1161.000; -983.000
262.707; -248.900; -840.000; -830.000
262.848; -226.500; -769.000; -726.000
262.990;  -72.500; -362.000; -345.000
263.131;  215.400;  650.000;  681.000
263.272;  -18.500;  -61.000;  -41.000
263.413; -204.900; -589.000; -561.000
263.555; -122.300; -669.000; -143.000
263.696; -185.100; -550.000; -641.000
263.837; -114.100; -449.000; -551.000
263.978;    9.200;   -5.000;  -77.000
264.119; -122.400; -283.000; -264.000
264.261; -233.700; -847.000; -630.000
264.402;  -17.900;   33.000;   40.000
264.543; -158.900; -509.000; -524.000
264.684;  -53.900;   61.000;  -50.000
264.825; -176.300; -816.000; -538.000
264.966;  -32.300;  -84.000;  -67.000
265.107; -218.500; -646.000; -670.000
265.248; -268.800; -825.000; -812.000
265.390;  -27.500;  152.000;   -9.000
265.531;  -51.500; -238.000; -107.000
265.672; -190.400; -557.000; -630.000
265.813;  112.600;  563.000;  439.000
265.954; -277.300; -959.000; -940.000
266.095;  -55.700; -372.000; -322.000
266.236; -190.400; -686.000; -548.000
266.377; -101.200; -243.000; -297.000
266.518; -162.900; -619.000; -547.000
266.659;   20.100;  170.000;  268.000
266.800;    4.700;   83.000;   85.000
266.941; -163.400; -487.000; -478.000
267.082;   13.800;  354.000;   99.000
267.223; -131.300; -344.000; -273.000
267.364; -219.300; -892.000; -686.000
267.504;  -36.900;    3.000;  135.000
267.645;   18.200;  160.000;   67.000
267.786;  -69.200; -147.000;  -86.000
267.927; -142.500; -473.000; -379.000
268.068;  -67.400; -186.000;  -61.000
268.209; -115.300; -175.000; -413.000
268.350; -106.500; -388.000; -532.000
268.490; -157.700; -648.000; -521.000
268.631;   43.200;  127.000;  225.000
268.772; -229.100; -874.000; -647.000
268.913; -117.100; -328.000; -476.000
269.054;  -39.100; -117.000;   12.000
269.194; -123.100; -418.000; -402.000
269.335; -301.300;-1137.000;-1074.000
269.476;  -69.500;   33.000;  -35.000
269.617; -118.300; -347.000; -392.000
269.757; -203.500; -713.000; -646.000
269.898; -198.800; -856.000; -613.000
270.039; -111.100; -415.000; -405.000
270.180; -243.400; -952.000; -816.000
270.320;  -60.600; -190.000; -250.000
270.461;  -61.800; -277.000; -249.000
270.602;  -58.700; -186.000; -156.000
270.742; -275.200; -868.000; -943.000
270.883; -166.700; -442.000; -390.000
271.023; -130.300; -358.000; -357.000
271.164; -162.600; -607.000; -528.000
271.305; -194.400; -666.000; -654.000
271.445; -205.800; -722.000; -683.000
271.586; -162.200; -462.000; -283.000
271.726; -104.700; -397.000; -322.000
271.867; -165.700; -594.000; -534.000
272.008;  -63.200; -473.000; -285.000
272.148;  112.200;  462.000;  468.000
272.289;  -77.400; -113.000; -181.000
272.429;   42.500;   19.000;  185.000
272.570; -221.200; -633.000; -737.000
272.710; -232.500; -825.000; -775.000
272.851;  -75.000;  113.000; -130.000
272.991; -310.800;-1173.000;-1077.000
273.131; -164.600; -419.000; -459.000
273.272; -216.000; -683.000; -723.000
273.412;  -57.400; -143.000;  -31.000
273.553; -124.200; -488.000; -507.000
273.693;  227.900;  913.000;  858.000
273.834; -260.900; -894.000; -692.000
273.974; -180.100; -664.000; -615.000
274.114; -208.900; -772.000; -560.000
274.255;   69.000;  414.000;  373.000
274.395;  -62.400; -180.000; -125.000
274.535;   21.100;  199.000;  350.000
274.676;   33.100;  225.000;   94.000
274.816;   -3.900;  110.000;   34.000
274.956; -172.800; -624.000; -690.000
275.097; -294.000;-1014.000; -922.000
275.237; -233.000; -913.000; -803.000
275.377; -232.500; -778.000; -689.000
275.517; -315.400; -878.000; -937.000
275.658; -178.600; -590.000; -555.000
275.798; -189.000; -606.000; -413.000
275.938;   88.100;  215.000;  323.000
276.078; -187.900; -626.000; -395.000
276.218;   -2.700;   99.000;  104.000
276.359; -305.100;-1026.000;-1024.000
276.499; -145.800; -605.000; -446.000
276.639;  -93.900; -305.000; -151.000
276.779; -130.100; -475.000; -357.000
276.919; -204.200; -783.000; -624.000
277.059; -102.500; -261.000; -212.000
277.199; -114.500; -357.000; -259.000
277.340;   84.300;  287.000;  175.000
277.480; -222.200; -840.000; -693.000
277.620;   59.400;  192.000;   16.000
277.760; -409.200;-1533.000;-1294.000
277.900;  -14.500;  113.000;   33.000
278.040;   -1.600;  137.000;  159.000
278.180;   31.100;  270.000;  170.000
278.320;  -16.400;   21.000;   56.000
278.460; -157.500; -443.000; -469.000
278.600; -182.100; -708.000; -598.000
278.740;   57.000;  448.000;  224.000
278.880; -262.400; -768.000; -791.000
279.020;  -81.100; -194.000; -144.000
279.160; -203.200; -672.000; -595.000
279.300; -271.500; -926.000; -873.000
279.440; -195.900; -709.000; -622.000
279.579; -275.100;-1014.000; -929.000
279.719; -121.900; -410.000; -394.000
279.859;   -4.400;   -4.000;   41.000
279.999;  -52.500; -208.000;  101.000
280.139; -159.400; -435.000; -387.000
280.279; -214.300; -708.000; -745.000
280.419;  -44.700; -229.000; -147.000
280.559; -100.200; -259.000; -180.000
280.698; -190.500; -790.000; -639.000
280.838; -219.200; -778.000; -800.000
280.978; -212.900; -846.000; -790.000
281.118; -216.100; -811.000; -704.000
281.257;   11.700;   24.000;    6.000
281.397; -325.000;-1094.000; -960.000
281.537; -225.700; -599.000; -712.000
281.677;  -15.900; -150.000; -101.000
281.816; -166.400; -700.000; -630.000
281.956;  -75.000; -193.000; -257.000
282.096; -106.000; -539.000; -396.000
282.235; -216.500; -672.000; -638.000
282.375;  -94.700; -243.000;  -98.000
282.515; -240.100; -715.000; -707.000
282.654;  -15.900;   29.000;  106.000
282.794;   67.500;  388.000;  244.000
282.934; -146.100; -530.000; -491.000
283.073; -287.500;-1030.000; -857.000
283.213; -142.700; -460.000; -467.000
283.353; -129.800; -408.000; -349.000
283.492;  -79.600; -264.000; -296.000
283.632;  -74.500; -254.000; -168.000
283.771; -219.200; -859.000; -730.000
283.911; -126.400; -369.000; -260.000
284.050; -227.100; -794.000; -748.000
284.190; -328.100;-1229.000;-1096.000
284.329; -302.300;-1055.000; -964.000
284.469; -197.200; -516.000; -591.000
284.608; -146.400; -559.000; -598.000
284.748; -177.900; -614.000; -570.000
284.887;  -11.200;  -87.000;  -20.000
285.027; -237.400; -844.000; -892.000
285.166;  -60.300; -192.000; -249.000
285.306;  -25.000; -116.000;  -33.000
285.445; -111.300; -229.000; -343.000
285.584; -181.400; -630.000; -494.000
285.724; -147.400; -282.000; -322.000
285.863; -223.700; -857.000; -507.000
286.002; -122.400; -366.000; -276.000
286.142; -218.900; -715.000; -622.000
286.281; -153.800; -525.000; -493.000
286.420; -161.000; -554.000; -417.000
286.560;  182.100;  653.000;  623.000
286.699; -282.100; -958.000; -912.000
286.838; -177.000; -590.000; -591.000
286.978; -187.900; -533.000; -537.000
287.117; -285.800;-1085.000; -950.000
287.256;  -74.000; -228.000; -211.000
287.395; -138.900; -197.000; -378.000
287.535;  -85.800; -370.000; -298.000
287.674; -167.300; -509.000; -484.000
287.813;  101.300;  661.000;  533.000
287.952; -321.000;-1010.000; -871.000
288.091; -316.100;-1049.000; -915.000
288.231;  -25.800;   13.000;   15.000
288.370; -359.100;-1217.000;-1200.000
288.509; -178.100; -728.000; -645.000
288.648; -202.600; -770.000; -548.000
288.787; -106.000; -243.000;  -87.000
288.926; -134.300; -454.000; -475.000
289.065;  199.200;  859.000;  672.000
289.204; -100.600; -377.000; -217.000
289.344; -238.300; -791.000; -690.000
289.483;   16.300;  416.000;  304.000
289.622;  -87.200; -291.000; -149.000
289.761;  -12.400; -309.000; -166.000
289.900; -246.800; -785.000; -626.000
290.039;  -22.300;  -12.000;  -95.000
290.178; -120.500; -274.000; -180.000
290.317; -161.500; -618.000; -479.000
290.456; -168.600; -463.000; -451.000
290.595; -280.100; -961.000; -833.000
290.734; -288.700; -904.000; -891.000
290.873; -150.900; -456.000; -420.000
291.011; -264.800; -833.000; -843.000
291.150; -205.100; -770.000; -682.000
291.289;  -96.300; -343.000; -110.000
291.428; -189.200; -599.000; -480.000
291.567; -130.200; -370.000; -442.000
291.706;  -14.300;  109.000;  154.000
291.845; -210.500; -597.000; -505.000
291.984; -356.500;-1234.000;-1061.000
292.122;  130.200;  602.000;  582.000
292.261;   95.300;  620.000;  463.000
292.400;   10.000; -144.000;  211.000
292.539; -237.000; -959.000; -813.000
292.678;  -60.400; -325.000; -300.000
292.816; -333.000;-1136.000; -965.000
292.955; -231.100; -844.000; -684.000
293.094;  -42.400; -173.000; -337.000
293.233; -165.700; -556.000; -400.000
293.371;  -83.600; -225.000;  -84.000
293.510; -250.500; -866.000; -780.000
293.649; -281.700; -959.000; -924.000
293.787; -295.400;-1083.000;-1012.000
293.926;  -62.400; -113.000;  -32.000
294.065;  -86.900; -379.000; -290.000
294.203;   47.100;  298.000;  406.000
294.342;  -18.200;   74.000;  156.000
294.481;12857.500;51180.000; -836.000
294.619;  -75.500; -425.000; -582.000
294.758; -318.900;-1230.000;-1137.000
294.896;  -68.100; -125.000;    5.000
295.035; -298.000;-1040.000;-1006.000
295.174; -305.500;-1082.000; -954.000
295.312; -110.500; -323.000; -203.000
295.451; -128.700; -307.000; -428.000
295.589; -163.500; -389.000; -518.000
295.728;  -23.700; -292.000; -165.000
295.866;  -39.500;  -36.000;  -51.000
296.005; -212.700; -584.000; -341.000
296.143; -184.300; -558.000; -596.000
296.282; -252.900; -957.000; -881.000
296.420; -152.200; -657.000; -557.000
296.559; -232.900; -892.000; -633.000
296.697; -212.900; -847.000; -665.000
296.835; -341.400;-1141.000;-1002.000
296.974;   -2.600;  -23.000;   39.000
297.112; -153.800; -443.000; -504.000
297.251; -233.200; -815.000; -755.000
297.389; -160.800; -576.000; -438.000
297.527;  -45.300; -145.000;  -83.000
297.666; -192.200; -486.000; -438.000
297.804; -149.800; -404.000; -264.000
297.942;  -65.000; -136.000; -161.000
298.081;  -51.600; -183.000;   63.000
298.219;  -83.200;  -17.000;  -19.000
298.357;  -56.100; -144.000;  -71.000
298.495; -251.100; -810.000; -812.000
298.634;  -19.500;  245.000;  219.000
298.772;  -88.600; -220.000; -338.000
298.910; -138.100; -309.000; -182.000
299.048;  -52.400; -130.000; -153.000
299.187;  -74.300; -350.000; -250.000
299.325;  -23.200;   52.000;  122.000
299.463; -135.400; -389.000; -299.000
299.601; -120.400; -327.000; -271.000
299.739; -247.100; -908.000; -883.000
299.877; -221.400; -791.000; -703.000
300.016; -332.800;-1095.000; -935.000
300.154;  -30.700;  -19.000; -161.000
300.292; -154.500; -428.000; -348.000
300.430; -109.600; -408.000; -291.000
300.568; -270.000; -940.000; -874.000
300.706; -168.000; -366.000; -469.000
300.844; -307.100;-1108.000; -979.000
300.982;   87.300;  246.000;  282.000
301.120; -300.500; -965.000; -866.000
301.258; -227.000; -812.000; -705.000
301.396;   -8.600;  104.000;  -41.000
301.534; -104.500; -218.000; -293.000
301.672; -182.200; -664.000; -521.000
301.810; -196.500; -613.000; -545.000
301.948;   40.300;   53.000;  149.000
302.086;  -50.100; -250.000;  -32.000
302.224; -203.800; -610.000; -585.000
302.362; -211.100; -558.000; -622.000
302.500; -257.100; -923.000; -893.000
302.638;   -0.100;  128.000;  245.000
302.776;  -64.400; -352.000; -408.000
302.913;   80.200;  447.000;  236.000
303.051;  -72.500;  -86.000;  -23.000
303.189;   12.800;   90.000;  118.000
303.327; -117.800; -341.000; -256.000
303.465; -216.200; -832.000; -588.000
303.603; -228.000; -805.000; -604.000
303.740;   29.900;  417.000;  241.000
303.878; -217.400; -800.000; -759.000
304.016; -252.300; -915.000; -790.000
304.154; -334.800;-1123.000;-1152.000
304.291; -173.300; -505.000; -554.000
304.429;  -19.000;  102.000;   74.000
304.567; -277.000; -908.000; -893.000
304.705; -163.100; -408.000; -515.000
304.842; -192.900; -616.000; -540.000
304.980;   12.700;  215.000;   35.000
305.118; -103.300; -367.000; -365.000
305.255; -280.600; -945.000; -927.000
305.393;   23.600;  178.000;  239.000
305.531; -304.100;-1173.000; -956.000
305.668; -202.500; -663.000; -582.000
305.806;  -99.400; -358.000; -439.000
305.943; -202.100; -629.000; -637.000
306.081; -104.700; -378.000; -267.000
306.219; -242.800; -863.000; -748.000
306.356;   10.300;  158.000;   27.000
306.494;  185.500;  981.000;  761.000
306.631;  -33.900;  -11.000;  -55.000
306.769; -152.500; -613.000; -485.000
306.906; -105.500; -284.000; -258.000
307.044; -144.700; -473.000; -488.000
307.181; -162.800; -410.000; -332.000
307.319;   -2.900;  112.000;   87.000
307.456; -338.200;-1191.000;-1153.000
307.594; -269.400; -980.000; -727.000
307.731;  -66.700; -371.000; -164.000
307.868;  -84.300;  -15.000;   20.000
308.006; -283.400; -961.000; -847.000
308.143; -167.600; -618.000; -330.000
308.281;  -37.800;  -37.000; -254.000
308.418; -215.100; -748.000; -640.000
308.555; -147.300; -400.000; -250.000
308.693; -181.900; -577.000; -573.000
308.830; -214.700; -712.000; -657.000
308.967;  -65.800; -215.000;  -95.000
309.105; -144.700; -507.000; -396.000
309.242; -131.400; -468.000; -367.000
309.379; -203.700; -577.000; -655.000
309.517; -282.200; -936.000; -948.000
309.654; -260.600; -910.000; -734.000
309.791; -203.600; -662.000; -580.000
309.928; -265.700; -977.000; -914.000
310.065;  155.400;  819.000;  697.000
310.203; -265.000; -825.000; -850.000
310.340; -193.200; -465.000; -321.000
310.477; -172.800; -412.000; -516.000
310.614; -158.000; -383.000; -473.000
310.751; -150.700; -427.000; -518.000
310.889;  -81.700;    1.000;   11.000
311.026; -314.100;-1161.000; -939.000
311.163; -162.500; -386.000; -380.000
311.300; -171.400; -512.000; -479.000
311.437; -196.100; -658.000; -619.000
311.574; -353.600;-1226.000; -985.000
311.711; -168.700; -595.000; -433.000
311.848; -122.700; -380.000; -388.000
311.985;  -24.500;  270.000;   93.000
312.122; -252.300; -932.000; -762.000
312.259; -290.100; -941.000; -994.000
312.396; -176.000; -508.000; -551.000
312.533; -228.300; -812.000; -790.000
312.670; -304.500;-1070.000; -898.000
312.807; -138.100; -352.000; -367.000
312.944; -183.800; -513.000; -611.000
313.081; -130.400; -150.000; -415.000
313.218; -276.900;-1111.000; -867.000
313.355; -157.900; -531.000; -449.000
313.492;  -99.300; -455.000; -292.000
313.629;  138.000;  815.000;  735.000
313.766; -341.200;-1176.000;-1008.000
313.902;  -56.100; -186.000;   21.000
314.039; -132.200; -372.000; -289.000
314.176;   12.200;  286.000;  192.000
314.313; -199.800; -569.000; -473.000
314.450; -238.400; -788.000; -684.000
314.587; -137.200; -468.000; -480.000
314.723;  -24.900;  -78.000;  130.000
314.860;   45.300;  318.000;  332.000
314.997;  -15.300;  223.000;  142.000
315.134; -126.700; -385.000; -368.000
315.270; -151.400; -480.000; -496.000
315.407; -294.800;-1094.000; -967.000
315.544; -204.000; -657.000; -538.000
315.681; -194.500; -681.000; -565.000
315.817; -117.900; -133.000; -176.000
315.954; -177.600; -613.000; -392.000
316.091; -331.100;-1045.000;-1023.000
316.227;  -73.700;  -71.000; -179.000
316.364;  -50.700;   23.000;    6.000
316.500; -121.200; -113.000; -300.000
316.637;  -85.300; -181.000; -302.000
316.774; -162.600; -625.000; -358.000
316.910; -195.200; -598.000; -629.000
317.047; -170.100; -487.000; -351.000
317.183; -159.000; -435.000; -566.000
317.320; -142.200; -367.000; -321.000
317.456; -237.800; -733.000; -805.000
317.593; -229.500; -598.000; -641.000
317.729;   -1.100;  168.000;  -67.000
317.866; -400.600;-1434.000;-1285.000
318.002; -230.700; -708.000; -948.000
318.139; -266.100; -883.000; -867.000
318.275; -263.300;-1003.000; -738.000
318.412; -164.200; -517.000; -336.000
318.548; -194.100; -751.000; -720.000
318.685; -270.800; -985.000; -888.000
318.821; -238.300; -762.000; -735.000
318.957;  -32.100;   34.000;  -23.000
319.094;   85.600;  297.000;  154.000
319.230; -244.500; -756.000; -742.000
319.367; -154.100; -471.000; -520.000
319.503; -139.800; -538.000; -436.000
319.639; -258.800; -877.000; -793.000
319.775; -192.400; -750.000; -685.000
319.912; -147.000; -424.000; -519.000
320.048; -351.900;-1184.000;-1184.000
320.184;   13.000;   59.000;   70.000
320.321; -121.100; -497.000; -467.000
320.457;   74.900;  475.000;  662.000
320.593; -137.000; -375.000; -382.000
320.729; -233.700; -732.000; -734.000
320.866; -173.100; -577.000; -635.000
321.002; -257.800; -759.000; -809.000
321.138; -111.900; -135.000; -211.000
321.274;  -37.300; -148.000; -115.000
321.410; -161.800; -585.000; -353.000
321.546; -307.200;-1011.000; -911.000
321.683;   51.000;  400.000;  185.000
321.819;  -32.100;  -48.000; -117.000
321.955; -236.700; -743.000; -722.000
322.091; -159.800; -585.000; -540.000
322.227;  -89.900; -382.000; -202.000
322.363;  -93.400; -320.000; -215.000
322.499; -107.100; -343.000; -331.000
322.635;  115.500;  636.000;  443.000
322.771;  -32.800; -139.000;   12.000
322.907;   60.000;  129.000;  327.000
323.043;  -89.800; -115.000; -206.000
323.179; -139.800; -394.000; -363.000
323.315; -133.200; -401.000; -371.000
323.451; -142.400; -328.000; -236.000
323.587;  -66.500;  -60.000;  -77.000
323.723; -198.600; -682.000; -601.000
323.859;  -70.500; -258.000;  -76.000
323.995; -130.400; -467.000; -409.000
324.131; -286.300; -967.000; -892.000
324.267;  -88.200; -254.000; -276.000
324.402; -303.900; -960.000; -983.000
324.538;  -92.500; -279.000; -104.000
324.674;  -21.400;  164.000;   77.000
324.810;   -4.900;  226.000;  308.000
324.946; -116.800; -810.000; -658.000
325.082; -165.000; -568.000; -475.000
325.217;  -27.500;  -62.000;   16.000
325.353; -227.500; -764.000; -659.000
325.489; -173.600; -540.000; -506.000
325.625; -186.200; -579.000; -525.000
325.760;   42.300;  517.000;  376.000
325.896; -197.700; -515.000; -702.000
326.032; -122.000; -403.000; -352.000
326.168; -158.200; -462.000; -369.000
326.303; -103.900; -352.000; -461.000
326.439;  -97.400; -336.000; -276.000
326.575;  -68.000; -190.000;  -29.000
326.710;  -76.000; -156.000;  -30.000
326.846;  -48.200;  146.000;  103.000
326.982; -202.700; -530.000; -548.000
327.117; -201.000; -481.000; -442.000
327.253; -218.300; -745.000; -742.000
327.388; -338.200;-1137.000;-1153.000
327.524; -247.400; -811.000; -578.000
327.659;  -51.500;  -58.000;  -22.000
327.795;  -53.400;   69.000;   45.000
327.931; -178.000; -723.000; -499.000
328.066; -118.600; -417.000; -276.000
328.202;  -38.900;   12.000; -129.000
328.337;  219.900;  957.000;  713.000
328.473;  -28.300;  -12.000;  -74.000
328.608;  -81.900; -256.000; -267.000
328.743; -217.500; -799.000; -664.000
328.879;    5.500;  214.000;  114.000
329.014; -111.700; -102.000; -122.000
329.150; -172.300; -358.000; -483.000
329.285; -154.500; -465.000; -466.000
329.421; -123.800; -548.000; -246.000
329.556;  -33.900;  -36.000;   85.000
329.691; -205.500; -633.000; -615.000
329.827; -173.100; -626.000; -480.000
329.962; -106.700;  131.000; -301.000
330.097; -189.700; -673.000; -585.000
330.233; -138.500; -410.000; -223.000
330.368; -254.000; -839.000; -628.000
330.503;  -60.400;    3.000;   98.000
330.638;  -66.300;  -93.000; -125.000
330.774; -190.200; -609.000; -530.000
330.909;  -98.900; -434.000; -244.000
331.044; -217.700; -714.000; -708.000
331.179; -357.800;-1217.000;-1109.000
331.315;   13.500;   77.000;   20.000
331.450;   -1.000;  157.000;  285.000
331.585; -243.800; -805.000; -706.000
331.720; -181.300; -510.000; -460.000
331.855;  -48.600;  -35.000; -102.000
331.990;  -40.300;   62.000;  138.000
332.126;  -27.400; -110.000;   71.000
332.261; -142.900; -379.000; -265.000
332.396; -127.300; -135.000; -242.000
332.531; -304.900;-1074.000;-1031.000
332.666; -155.200; -519.000; -363.000
332.801; -223.400; -726.000; -807.000
332.936;  -42.200; -192.000; -122.000
333.071; -310.700; -870.000; -817.000
333.206;   28.800;  307.000;  379.000
333.341;   79.200;  344.000;  418.000
333.476; -181.700; -627.000; -623.000
333.611;  -85.500; -251.000; -173.000
333.746; -115.200; -381.000; -464.000
333.881; -280.000; -973.000; -935.000
334.016; -294.200; -936.000; -917.000
334.151; -242.900; -746.000; -702.000
334.286;   20.200;  152.000;  186.000
334.421;  -49.800; -125.000; -178.000
334.556; -206.400; -611.000; -567.000
334.690; -186.300; -631.000; -577.000
334.825;   87.800;  381.000;   83.000
334.960; -171.800; -285.000; -413.000
335.095;  -27.700;  135.000;  -91.000
335.230; -237.800; -722.000; -738.000
335.365; -340.200;-1084.000; -990.000
335.499; -317.000;-1108.000;-1037.000
335.634;  -37.300;    9.000;  534.000
335.769; -226.400; -755.000; -720.000
335.904; -199.700; -603.000; -561.000
336.038; -246.800; -735.000; -657.000
336.173; -355.600;-1206.000;-1194.000
336.308; -111.500; -116.000; -189.000
336.443; -238.200; -544.000; -634.000
336.577; -236.200; -936.000; -787.000
336.712;  -23.800;   -4.000;  -12.000
336.847; -259.600; -724.000; -607.000
336.981; -125.900; -272.000; -208.000
337.116;   93.200;  615.000;  501.000
337.250; -180.600; -434.000; -421.000
337.385; -124.900; -297.000; -208.000
337.520; -226.700; -632.000; -603.000
337.654;  -83.600; -215.000; -126.000
337.789; -293.600; -989.000; -933.000
337.923;  -94.500; -104.000; -205.000
338.058; -253.000; -673.000; -738.000
338.192; -151.100; -611.000; -488.000
338.327;  -47.600;  -18.000; -155.000
338.461; -189.600; -299.000; -469.000
338.596; -223.300; -780.000; -638.000
338.730; -237.300; -767.000; -803.000
338.865;  -67.500;  -46.000; -140.000
338.999; -275.200; -846.000; -702.000
339.134; -221.000; -634.000; -536.000
339.268; -199.300; -741.000; -603.000
339.403; -249.800; -740.000; -775.000
339.537; -242.500; -894.000; -820.000
339.671; -266.100; -829.000; -813.000
339.806; -190.300; -556.000; -512.000
339.940;  -58.300; -261.000; -235.000
340.074; -207.700; -685.000; -510.000
340.209; -123.600; -351.000; -230.000
340.343; -171.700; -517.000; -573.000
340.477;  278.700;  998.000; 1036.000
340.612; -273.500;-1033.000; -900.000
340.746; -121.500; -199.000; -243.000
340.880; -252.900; -924.000; -785.000
341.014;  -72.200;  -45.000; -154.000
341.149; -238.800; -756.000; -718.000
341.283; -257.100; -839.000; -754.000
341.417; -276.100;-1124.000; -938.000
341.551; -207.800; -768.000; -708.000
341.685; -148.600; -633.000; -611.000
341.820; -215.700; -562.000; -493.000
341.954; -121.200; -218.000; -349.000
342.088; -301.900;-1102.000;-1019.000
342.222;   73.100;  565.000;  618.000
342.356; -176.800; -395.000; -335.000
342.490; -252.400; -880.000; -841.000
342.624; -137.400; -339.000; -242.000
342.758; -101.000; -364.000; -312.000
342.892; -215.400; -710.000; -585.000
343.026; -112.500;  -58.000; -116.000
343.160; -130.100; -426.000; -376.000
343.294; -176.500; -474.000; -337.000
343.428; -167.400; -488.000; -448.000
343.562;  -54.400; -172.000;  -23.000
343.696; -127.000; -385.000; -314.000
343.830; -101.500; -362.000; -356.000
343.964; -105.700; -231.000; -168.000
344.098;  -15.000;  199.000;   70.000
344.232;  -97.400; -266.000; -127.000
344.366; -223.800; -567.000; -453.000
344.500; -230.000; -665.000; -744.000
344.634;  -97.000; -324.000; -164.000
344.768; -163.400; -531.000; -341.000
344.902;   14.500;  278.000;  256.000
345.035; -177.500; -556.000; -496.000
345.169; -258.300; -933.000; -656.000
345.303; -154.000; -308.000; -482.000
345.437; -231.000; -826.000; -717.000
345.571; -217.100; -675.000; -594.000
345.704; -133.900; -309.000; -532.000
345.838; -122.400; -331.000; -284.000
345.972; -183.200; -543.000; -495.000
346.106;  -63.300; -179.000; -190.000
346.239; -100.400; -312.000; -243.000
346.373; -141.500; -343.000; -302.000
346.507; -310.000; -950.000; -962.000
346.640;  -82.700;  -30.000;   13.000
346.774; -224.000; -650.000; -797.000
346.908;  -70.700; -138.000;  -11.000
347.041; -203.700; -646.000; -593.000
347.175;  -31.500;  259.000;   27.000
347.309; -230.600; -698.000; -628.000
347.442; -281.600; -883.000; -732.000
347.576;  137.700;  670.000;  668.000
347.709;  -67.800; -123.000;  -52.000
347.843; -299.000; -933.000; -825.000
347.976;   31.500;  235.000;  294.000
348.110; -358.000;-1268.000;-1186.000
348.243; -215.300; -679.000; -772.000
348.377;  -36.800;  -26.000;   60.000
348.510;   69.600;  403.000;  540.000
348.644;  -95.400;  -37.000; -159.000
348.777;  -23.200;  180.000;  191.000
348.911; -102.400; -142.000; -112.000
349.044;   84.600;  471.000;  448.000
349.178; -319.300;-1069.000;-1006.000
349.311;   25.700;  141.000;  255.000
349.444; -284.400; -927.000; -813.000
349.578; -117.300; -347.000; -200.000
349.711; -284.400; -959.000; -862.000
349.845; -202.100; -661.000; -591.000
349.978; -353.100;-1224.000;-1137.000
350.111; -182.900; -546.000; -612.000
350.244; -223.600; -596.000; -700.000
350.378; -149.100; -392.000; -393.000
350.511; -141.500; -393.000; -426.000
350.644; -256.600; -808.000; -806.000
350.778;  -34.500;  168.000;  104.000
350.911;   -6.600;  134.000;  140.000
351.044; -195.500; -685.000; -615.000
351.177;  -83.100; -321.000; -281.000
351.310;  -67.400;    3.000; -131.000
351.444; -239.600; -888.000; -788.000
351.577;  -13.000;  140.000;   90.000
351.710;  132.400;  593.000;  417.000
351.843;  -21.100; -165.000;  -77.000
351.976;  -32.800;  149.000;  -79.000
352.109; -243.000; -621.000; -612.000
352.242; -162.700; -464.000; -419.000
352.376; -224.100; -580.000; -636.000
352.509; -166.400; -437.000; -356.000
352.642; -303.400; -654.000; -604.000
352.775;  -86.700; -141.000;  -98.000
352.908; -298.100; -933.000; -904.000
353.041; -278.100; -814.000; -824.000
353.174; -151.000; -551.000; -424.000
353.307; -257.600; -753.000; -764.000
353.440;  108.300;  541.000;  453.000
353.573; -298.200; -957.000;-1008.000
353.706; -213.300; -384.000; -558.000
353.839; -119.500; -264.000; -220.000
353.971; -188.000; -657.000; -512.000
354.104; -273.800; -896.000; -835.000
354.237; -221.300; -627.000; -662.000
354.370; -252.300; -846.000; -879.000
354.503; -376.200;-1231.000;-1308.000
354.636; -140.000; -529.000; -348.000
354.769; -276.200; -937.000; -860.000
354.902; -114.000; -230.000; -139.000
355.034; -103.500; -164.000; -220.000
355.167; -103.800; -262.000; -162.000
355.300; -327.000;-1061.000; -880.000
355.433;  -66.600;  -71.000;  -14.000
355.565; -127.200; -402.000; -384.000
355.698; -148.400; -356.000; -296.000
355.831; -274.400; -882.000; -801.000
355.964; -150.700; -285.000; -170.000
356.096; -286.400; -856.000; -843.000
356.229; -193.100; -523.000; -530.000
356.362;  -98.700; -373.000; -266.000
356.494; -128.600; -229.000; -162.000
356.627;   57.200;  269.000;  377.000
356.760;  -14.200;  120.000;   53.000
356.892; -229.300; -286.000; -601.000
357.025;   69.500;  403.000;  389.000
357.157;  -50.500; -167.000; -179.000
357.290; -274.300; -856.000; -713.000
357.423; -191.100; -667.000; -556.000
357.555; -129.700; -217.000; -228.000
357.688; -182.000; -483.000; -364.000
357.820; -306.200; -870.000; -877.000
357.953; -192.200; -563.000; -589.000
358.085; -233.200; -632.000; -612.000
358.218; -289.700;-1131.000; -932.000
358.350;  -42.100;  -58.000;  312.000
358.483; -360.700;-1300.000;-1187.000
358.615; -329.400;-1182.000;-1078.000
358.747; -353.300;-1187.000;-1058.000
358.880; -240.500; -810.000; -744.000
359.012; -100.500; -376.000; -202.000
359.145; -188.100; -480.000; -511.000
359.277; -299.100; -962.000; -913.000
359.409;   79.800;  536.000;  231.000
359.542; -254.600; -738.000; -688.000
359.674;  -34.300;   46.000;   13.000
359.806; -196.600; -565.000; -438.000
359.939; -172.700; -617.000; -516.000
360.071; -197.400; -583.000; -579.000
360.203; -129.000; -411.000; -364.000
360.335;   -7.700;  164.000;  -16.000
360.468; -118.600; -249.000; -307.000
360.600; -181.600; -547.000; -454.000
360.732; -221.900; -546.000; -423.000
360.864; -362.400;-1216.000;-1044.000
360.996; -180.200; -516.000; -554.000
361.129; -178.800; -389.000; -598.000
361.261;  -67.900;  110.000; -113.000
361.393; -104.000; -252.000; -214.000
361.525;  -15.900;   94.000;  244.000
361.657; -237.500; -821.000; -703.000
361.789;  -94.000; -139.000; -155.000
361.921; -200.400; -642.000; -593.000
362.053;   96.600;  524.000;  541.000
362.185;  -21.100;  288.000;   72.000
362.318; -254.300; -709.000; -705.000
362.450;   58.400;  294.000;  444.000
362.582; -311.200; -913.000; -870.000
362.714; -112.900; -353.000; -332.000
362.846; -200.500; -606.000; -490.000
362.978; -303.600; -941.000; -811.000
363.109; -130.400; -161.000; -260.000
363.241; -222.700; -739.000; -749.000
363.373; -214.600; -649.000; -564.000
363.505;  -78.900; -186.000;  -91.000
363.637; -214.600; -787.000; -601.000
363.769; -365.500;-1067.000;-1080.000
363.901; -215.400; -596.000; -654.000
364.033; -334.600;-1103.000;-1062.000
364.165; -112.900; -283.000; -283.000
364.296; -131.700; -316.000; -177.000
364.428; -393.900;-1344.000;-1220.000
364.560; -236.100; -679.000; -661.000
364.692; -213.200; -738.000; -835.000
364.824; -188.200; -588.000; -456.000
364.955; -144.900; -402.000; -564.000
365.087; -316.400;-1097.000; -852.000
365.219; -229.500; -686.000; -816.000
365.351; -180.900; -526.000; -572.000
365.482;  -17.500;  300.000;  240.000
365.614; -126.900; -402.000; -314.000
365.746; -246.900; -729.000; -752.000
365.877; -236.500; -706.000; -672.000
366.009;  -34.700;  -35.000;  -62.000
366.141; -371.100;-1249.000;-1134.000
366.272; -288.200; -803.000; -719.000
366.404; -276.600;-1005.000; -874.000
366.535;  -42.900; -139.000;  -12.000
366.667; -229.400; -644.000; -649.000
366.799;   23.300;  353.000;  203.000
366.930; -306.100; -862.000; -996.000
367.062; -169.600; -639.000; -613.000
367.193; -282.200; -872.000; -842.000
367.325; -187.900; -580.000; -684.000
367.456;  -99.700; -246.000;   31.000
367.588; -161.500; -371.000; -318.000
367.719;  -77.200;  -44.000;  -45.000
367.851; -119.800; -222.000; -241.000
367.982; -255.300; -875.000; -732.000
368.113; -121.700; -475.000; -358.000
368.245; -330.300; -960.000; -841.000
368.376; -140.500; -254.000; -302.000
368.508;  -81.700; -188.000; -263.000
368.639; -372.800;-1166.000;-1034.000
368.770; -207.500; -670.000; -589.000
368.902; -264.200; -836.000; -926.000
369.033; -307.700; -906.000; -855.000
369.164; -234.500; -720.000; -653.000
369.296; -209.800; -452.000; -601.000
369.427;  -88.600; -209.000; -144.000
369.558; -193.300; -593.000; -377.000
369.689; -175.500; -721.000; -569.000
369.821; -294.900; -951.000; -845.000
369.952;  -62.400;   42.000; -108.000
370.083; -110.200; -229.000; -108.000
370.214; -246.000; -735.000; -650.000
370.345;  -49.000;   65.000;   81.000
370.477; -274.900; -810.000; -790.000
370.608; -128.600; -328.000; -264.000
370.739; -386.300;-1233.000;-1292.000
370.870; -298.900;-1102.000; -923.000
371.001; -171.300; -378.000; -467.000
371.132; -236.800; -754.000; -735.000
371.263;  -58.600;  -42.000; -148.000
371.394; -268.500; -841.000; -748.000
371.525;   48.500;  345.000;  225.000
371.657; -258.300; -808.000; -670.000
371.788;   -7.100;  103.000;  199.000
371.919; -161.800; -384.000; -304.000
372.050;  -45.400;  -91.000; -156.000
372.181;  -46.500; -188.000; -294.000
372.311;  -19.700;   42.000; -127.000
372.442; -166.300; -457.000; -451.000
372.573; -138.300; -444.000; -340.000
372.704; -299.400;-1008.000; -980.000
372.835; -154.500; -228.000; -289.000
372.966; -182.200; -646.000; -554.000
373.097; -288.100; -575.000; -711.000
373.228; -196.300; -717.000; -542.000
373.359; -226.700; -824.000; -536.000
373.490; -263.900; -881.000; -727.000
373.620; -296.900;-1001.000; -803.000
373.751; -138.100; -332.000; -396.000
373.882; -206.700; -663.000; -733.000
374.013;  -92.400; -449.000; -262.000
374.143; -212.100; -581.000; -659.000
374.274; -309.500; -987.000; -908.000
374.405; -132.500; -388.000; -276.000
374.536; -195.000; -526.000; -387.000
374.666; -238.200; -759.000; -807.000
374.797; -252.000; -817.000; -868.000
374.928; -221.300; -710.000; -560.000
375.058; -207.900; -535.000; -500.000
375.189;  -71.300;  -59.000;  -93.000
375.320; -307.800; -928.000;-1034.000
375.450; -221.600; -625.000; -616.000
375.581; -144.200; -526.000; -436.000
375.712; -130.000; -574.000; -250.000
375.842; -186.600; -438.000; -415.000
375.973; -193.500; -554.000; -513.000
376.103; -214.500; -665.000; -648.000
376.234; -195.700; -531.000; -552.000
376.364; -300.100; -944.000; -867.000
376.495;  163.600;  925.000;  529.000
376.625; -171.900; -472.000; -485.000
376.756; -231.200; -709.000; -678.000
376.886; -336.600;-1178.000;-1026.000
377.017; -354.200;-1048.000;-1061.000
377.147; -264.300; -786.000; -782.000
377.278;    5.100;  174.000;  228.000
377.408; -257.600; -801.000; -815.000
377.538; -253.700; -707.000; -693.000
377.669; -215.200; -537.000; -613.000
377.799; -241.300; -645.000; -635.000
377.929; -183.600; -610.000; -428.000
378.060; -281.300; -781.000; -847.000
378.190; -226.200; -726.000; -531.000
378.320; -160.100; -401.000; -406.000
378.451;  -44.600; -131.000;  -22.000
378.581;  -64.000;  -67.000; -110.000
378.711;  170.100; 1035.000;  866.000
378.841; -213.700; -533.000; -675.000
378.972; -286.400; -871.000; -751.000
379.102; -227.500; -652.000; -579.000
379.232; -126.700; -126.000;  -73.000
379.362; -303.900;-1001.000; -885.000
379.492; -188.900; -373.000; -424.000
379.623;  -19.300;    0.000;  111.000
379.753; -320.300;-1107.000; -974.000
379.883;   -8.100;   59.000;  156.000
380.013; -309.600;-1081.000;-1017.000
380.143; -351.100;-1097.000;-1056.000
380.273; -292.100; -985.000; -861.000
380.403; -145.200; -344.000; -257.000
380.533; -256.000; -651.000; -664.000
380.663;    1.900;  173.000;  128.000
380.793; -341.600;-1027.000;-1074.000
380.923;  -99.100; -103.000;  -34.000
381.053; -223.600; -613.000; -623.000
381.183;  -81.500; -106.000; -248.000
381.313; -181.400; -656.000; -470.000
381.443; -228.400; -692.000; -473.000
381.573; -156.700; -402.000; -409.000
381.703; -376.900;-1249.000;-1095.000
381.833; -421.500;-1454.000;-1336.000
381.963;  -39.000; -134.000;  -87.000
382.093; -292.500; -925.000; -909.000
382.223; -230.500; -713.000; -602.000
382.353; -239.700; -801.000; -608.000
382.482; -328.400;-1091.000; -964.000
382.612; -244.900; -872.000; -644.000
382.742; -233.600; -695.000; -622.000
382.872; -178.400; -565.000; -551.000
383.002;  -40.400;  347.000; -132.000
383.131; -146.900; -226.000; -160.000
383.261; -245.400; -706.000; -768.000
383.391; -189.000; -552.000; -377.000
383.521;   57.600;  451.000;  263.000
383.650; -286.900; -947.000; -904.000
383.780; -246.500; -783.000; -656.000
383.910;  172.000;  880.000;  802.000
384.039; -277.500; -794.000; -656.000
384.169; -354.200;-1205.000;-1017.000
384.299; -235.000; -650.000; -662.000
384.428; -240.100; -764.000; -680.000
384.558; -114.300; -308.000; -275.000
384.687; -135.800; -414.000; -334.000
384.817;  -35.300;   75.000;   -2.000
384.947;  -91.500; -234.000; -141.000
385.076;  195.000;  982.000;  912.000
385.206;  103.000;  369.000;  480.000
385.335; -177.100; -549.000; -417.000
385.465; -229.500; -655.000; -663.000
385.594;  -52.300;  -53.000;  -44.000
385.724; -264.300; -868.000; -838.000
385.853; -140.300; -296.000; -270.000
385.982; -285.200; -743.000; -787.000
386.112; -284.800;-1052.000; -871.000
386.241; -140.100; -307.000; -312.000
386.371;  -68.100; -174.000;  -87.000
386.500; -294.600; -825.000; -789.000
386.629; -236.100; -874.000; -817.000
386.759;  -72.900;  -43.000;   68.000
386.888;  -92.800; -170.000; -250.000
387.017; -192.000; -648.000; -620.000
387.147; -247.600; -771.000; -798.000
387.276; -190.900; -410.000; -397.000
387.405; -161.700; -398.000; -342.000
387.535; -142.700; -452.000; -361.000
387.664; -225.800; -692.000; -620.000
387.793; -124.500; -198.000; -113.000
387.922;   16.200;  255.000;  200.000
388.052; -169.400; -576.000; -423.000
388.181; -165.000; -342.000; -472.000
388.310; -260.200; -889.000; -710.000
388.439; -289.300; -749.000; -742.000
388.568;   16.500;  365.000;  244.000
388.697; -219.400; -756.000; -653.000
388.826; -211.200; -768.000; -666.000
388.956; -138.900; -285.000; -307.000
389.085; -152.700; -347.000; -287.000
389.214; -289.300; -842.000; -872.000
389.343; -213.500; -645.000; -413.000
389.472;    2.400;  126.000;  149.000
389.601;  -48.100;   91.000;    0.000
389.730; -231.200; -568.000; -687.000
389.859;   -5.400;  226.000;   46.000
389.988; -151.900; -423.000; -408.000
390.117; -109.400; -168.000; -146.000
390.246; -169.700; -331.000; -320.000
390.375; -224.200; -673.000; -626.000
390.504; -204.500; -703.000; -621.000
390.633; -257.500; -672.000; -726.000
390.761; -250.100; -732.000; -645.000
390.890;  -37.300;   -4.000; -130.000
391.019; -170.900; -421.000; -441.000
391.148; -299.300; -826.000; -855.000
391.277; -192.100; -576.000; -493.000
391.406; -249.600; -821.000; -805.000
391.534;  -26.000;  574.000; -301.000
391.663; -181.400; -583.000; -645.000
391.792; -232.200; -673.000; -701.000
391.921;  -56.800;   -3.000;   15.000
392.050; -148.900; -287.000; -228.000
392.178; -342.100;-1206.000;-1061.000
392.307; -261.500; -758.000; -712.000
392.436; -215.100; -427.000; -641.000
392.564;  -49.100;  166.000;   -6.000
392.693; -244.300; -860.000; -682.000
392.822; -221.600; -529.000; -534.000
392.950; -271.300; -880.000; -714.000
393.079; -158.300; -188.000; -328.000
393.208; -209.800; -488.000; -511.000
393.336;  -97.700; -170.000; -145.000
393.465; -110.300; -317.000; -199.000
393.593;  -25.500;   62.000;   79.000
393.722; -314.700;-1121.000; -916.000
393.850;  -86.400; -188.000;  -61.000
393.979; -319.700; -926.000; -805.000
394.107; -159.400; -517.000; -537.000
394.236; -194.800; -570.000; -507.000
394.364;   26.300;  383.000;  206.000
394.493; -276.600; -911.000; -767.000
394.621; -294.800; -955.000; -916.000
394.750; -297.900; -873.000; -923.000
394.878; -108.500; -247.000; -149.000
395.007; -261.800; -721.000; -807.000
395.135; -239.500; -790.000; -721.000
395.263; -295.900;-1038.000;-1040.000
395.392;  -59.800;  -25.000; -107.000
395.520; -175.100; -818.000; -679.000
395.648; -288.300; -865.000; -915.000
395.777; -193.100; -366.000; -405.000
395.905; -225.000; -449.000; -564.000
396.033;  -17.900;  217.000;  172.000
396.162; -175.600; -399.000; -453.000
396.290;  -48.500;  -17.000;   -2.000
396.418; -224.700; -555.000; -514.000
396.546; -271.900; -571.000; -466.000
396.674; -282.900; -850.000; -878.000
396.803;  -58.500;  -72.000;  -23.000
396.931; -165.700; -179.000; -199.000
397.059; -317.300;-1026.000; -989.000
397.187; -300.200;-1026.000; -975.000
397.315; -283.100; -884.000; -649.000
397.443; -195.800; -592.000; -443.000
397.572; -175.500; -578.000; -424.000
397.700; -226.500; -607.000; -614.000
397.828;  -69.300;  120.000;  -90.000
397.956; -210.400; -508.000; -478.000
398.084; -220.100; -767.000; -626.000
398.212;  -19.000;  137.000;  124.000
398.340;  -43.900;  -56.000;  159.000
398.468; -146.400; -390.000; -169.000
398.596; -316.800; -993.000; -953.000
398.724; -271.900; -762.000; -767.000
398.852; -323.500;-1024.000; -976.000
398.980; -199.100; -560.000; -560.000
399.108; -221.200; -982.000; -735.000
399.236;  -28.600;   13.000;    8.000
399.363;    3.600;  222.000;  196.000
399.491; -172.400; -404.000; -398.000
399.619; -273.300; -829.000; -800.000
399.747; -279.800; -859.000; -771.000
399.875;   40.700;  220.000;  234.000
400.003; -166.100; -359.000; -284.000
400.130; -186.900; -421.000; -341.000
400.258;  -82.700;  -83.000;   38.000
400.386; -118.200; -352.000; -168.000
400.514; -183.800; -526.000; -587.000
400.641; -287.600; -928.000; -802.000
400.769; -321.700; -979.000; -888.000
400.897; -255.700; -838.000; -793.000
401.025;  -81.900; -166.000; -152.000
401.152;   26.800;  220.000;   38.000
401.280; -167.100; -430.000; -429.000
401.408; -265.700; -712.000; -576.000
401.535; -234.600; -735.000; -758.000
401.663; -402.000;-1134.000;-1054.000
401.790; -182.500; -514.000; -525.000
401.918;   85.000;  436.000;  405.000
402.046;  -23.500;  134.000;  122.000
402.173;  -61.800;  -18.000;    7.000
402.301; -162.400; -519.000; -397.000
402.428;   86.000;  528.000;  383.000
402.556; -345.800;-1188.000; -913.000
402.683;  -77.600;  -20.000;   -1.000
402.811;  -84.400;  -37.000; -206.000
402.938;  -37.600;   20.000;   27.000
403.066; -215.200; -574.000; -558.000
403.193;  -35.200;  299.000;  239.000
403.321; -195.700; -396.000; -574.000
403.448;  -29.400;   83.000;   27.000
403.575;  -58.100;  -90.000;  -46.000
403.703; -225.400; -732.000; -557.000
403.830; -175.300; -531.000; -496.000
403.957; -339.000;-1117.000;-1023.000
404.085; -138.800;  -61.000; -172.000
404.212;  -30.700;  -50.000;   63.000
404.339; -163.000; -566.000; -306.000
404.467; -154.400; -612.000; -524.000
404.594; -140.400; -287.000; -227.000
404.721; -237.700; -869.000; -764.000
404.848; -120.700; -113.000; -202.000
404.976; -272.200; -856.000; -783.000
405.103;  -63.600;  -14.000;  -82.000
405.230;  -29.200;  190.000;  226.000
405.357;  -33.600;  117.000;   44.000
405.484;  -92.100;  -49.000;    5.000
405.612; -223.800; -548.000; -563.000
405.739; -185.900; -488.000; -243.000
405.866;   93.400;  669.000;  385.000
405.993; -117.700; -398.000; -102.000
406.120; -298.900; -801.000; -887.000
406.247; -141.900; -323.000; -342.000
406.374;  100.500;  540.000;  629.000
406.501; -218.800; -632.000; -702.000
406.628; -199.500; -621.000; -589.000
406.755; -222.800; -803.000; -620.000
406.882; -128.800; -228.000; -277.000
407.009; -220.500; -719.000; -628.000
407.136; -191.400; -480.000; -401.000
407.263; -308.700; -939.000; -829.000
407.390; -238.100; -692.000; -614.000
407.517; -360.000;-1139.000;-1187.000
407.644; -165.300; -332.000; -256.000
407.771; -178.500; -249.000; -287.000
407.898;  -12.100;  168.000;  328.000
408.025; -127.400; -421.000; -313.000
408.151;  -43.800;   82.000;  153.000
408.278; -133.800; -267.000; -216.000
408.405; -306.400; -931.000; -899.000
408.532; -200.000; -549.000; -542.000
408.659; -246.500; -677.000; -648.000
408.785; -391.400;-1298.000;-1170.000
408.912; -138.800; -412.000; -296.000
409.039; -208.800; -610.000; -686.000
409.166; -229.000; -591.000; -555.000
409.292; -181.800; -571.000; -534.000
409.419; -231.400; -665.000; -649.000
409.546; -158.400; -431.000; -192.000
409.672; -217.000; -713.000; -545.000
409.799;  -60.700;  -36.000;   34.000
409.926; -101.600; -180.000; -179.000
410.052; -350.400;-1127.000;-1091.000
410.179; -167.800; -368.000; -392.000
410.305; -164.500; -375.000; -493.000
410.432; -135.200; -220.000; -333.000
410.558; -171.700; -305.000; -380.000
410.685; -242.900; -688.000; -431.000
410.812; -201.000; -409.000; -588.000
410.938; -303.300; -964.000; -808.000
411.065; -187.800; -671.000; -645.000
411.191;  -91.600; -189.000; -174.000
411.317; -262.100; -823.000; -742.000
411.444; -134.500; -317.000; -246.000
411.570; -130.700; -339.000; -294.000
411.697; -248.000; -758.000; -752.000
411.823; -336.600; -989.000; -999.000
411.949;  -83.000;  -56.000;   17.000
412.076; -249.100; -539.000; -519.000
412.202; -249.400; -758.000; -757.000
412.329; -267.100; -798.000; -752.000
412.455; -223.600; -821.000; -657.000
412.581;  -42.600;  -15.000;  172.000
412.707; -217.800; -540.000; -457.000
412.834;   -0.700;  156.000;  219.000
412.960; -274.700; -785.000; -784.000
413.086; -235.400; -743.000; -701.000
413.212;   81.400;  604.000;  578.000
413.339; -264.600; -685.000; -701.000
413.465; -145.800; -364.000; -310.000
413.591; -259.500; -757.000; -474.000
413.717; -145.200; -358.000; -366.000
413.843; -290.000; -839.000; -861.000
413.969; -141.000;  -47.000; -292.000
414.096; -263.500; -679.000; -679.000
414.222;  -51.700;  -33.000;   85.000
414.348; -197.000; -652.000; -385.000
414.474;  -96.300;   38.000;  -52.000
414.600;  -41.600; -126.000; -144.000
414.726;  -82.900;  -96.000;  -55.000
414.852; -180.000; -365.000; -342.000
414.978;  -40.400;  104.000;  -18.000
415.104;  -58.600;   38.000;   80.000
415.230; -162.300; -329.000; -330.000
415.356; -195.300; -409.000; -514.000
415.482; -121.300;   13.000;  -35.000
415.608; -131.000; -247.000; -323.000
415.734;  -28.100;   67.000;   38.000
415.860; -288.300; -875.000; -767.000
415.986; -248.700; -685.000; -607.000
416.111; -264.400; -798.000; -652.000
416.237; -200.600; -424.000; -571.000
416.363; -273.400; -765.000; -733.000
416.489; -178.200; -324.000; -251.000
416.615; -252.500; -707.000; -742.000
416.741; -246.700; -677.000; -784.000
416.866; -232.200; -673.000; -736.000
416.992; -294.100; -801.000; -818.000
417.118; -119.500;  -41.000;  -80.000
417.244; -262.000; -798.000; -531.000
417.369; -276.200; -801.000; -612.000
417.495; -149.900; -325.000; -254.000
417.621; -329.600;-1015.000; -803.000
417.746; -208.800; -579.000; -572.000
417.872;  -96.800; -254.000; -144.000
417.998; -197.300; -515.000; -530.000
418.123; -317.000;-1073.000; -845.000
418.249; -196.700; -512.000; -601.000
418.374; -302.200; -916.000; -824.000
418.500; -193.200; -383.000; -482.000
418.626;   -1.500;   70.000;  -59.000
418.751; -193.300; -549.000; -448.000
418.877; -247.000; -637.000; -643.000
419.002; -179.900; -688.000; -560.000
419.128; -300.400; -930.000; -721.000
419.253; -303.200; -967.000; -837.000
419.379; -183.600; -391.000; -338.000
419.504;   33.300;  325.000;  415.000
419.629; -128.700; -393.000; -212.000
419.755; -112.800; -317.000; -254.000
419.880; -122.100;  -98.000;   67.000
420.006; -111.200; -280.000; -221.000
420.131; -257.600; -662.000; -775.000
420.256; -156.600; -315.000; -316.000
420.382; -220.300; -665.000; -687.000
420.507; -251.000; -649.000; -778.000
420.632; -160.800; -337.000; -339.000
420.758; -134.500; -251.000; -425.000
420.883; -276.700; -876.000; -672.000
421.008; -245.900; -775.000; -619.000
421.133; -203.000; -509.000; -467.000
421.259; -132.000; -325.000; -259.000
421.384; -261.500; -834.000; -693.000
421.509; -297.700;-1052.000; -862.000
421.634; -306.700; -936.000; -820.000
421.759; -181.600; -359.000; -327.000
421.885; -217.800; -717.000; -656.000
422.010; -184.800; -673.000; -542.000
422.135; -279.000; -695.000; -727.000
422.260;   44.500;  340.000;  280.000
422.385;  -98.000;   12.000;  -98.000
422.510;    2.800;  151.000;  -26.000
422.635; -122.500;  -87.000;  -43.000
422.760; -250.300; -766.000; -791.000
422.885;  -61.900;  -57.000;  -80.000
423.010;  -86.300; -112.000; -169.000
423.135; -197.400; -481.000; -561.000
423.260; -151.200; -150.000; -245.000
423.385;   21.500;  476.000;  222.000
423.510;  -37.000;   71.000;  -22.000
423.635;  -52.600;  133.000;   45.000
423.760;   33.100;  383.000;  328.000
423.885;   19.000;  336.000;  391.000
424.010;  -68.300;  -68.000;  -13.000
424.135;  -81.700;    5.000;  -33.000
424.259; -225.300; -654.000; -457.000
424.384; -175.800; -279.000; -272.000
424.509; -135.500; -260.000; -186.000
424.634; -263.800; -761.000; -623.000
424.759; -204.500; -688.000; -544.000
424.883; -190.700; -506.000; -527.000
425.008; -220.900; -502.000; -410.000
425.133; -260.500; -679.000; -653.000
425.258; -199.400; -517.000; -381.000
425.382; -256.700; -867.000; -774.000
425.507; -220.500; -487.000; -543.000
425.632; -284.000; -802.000; -663.000
425.756; -163.600; -256.000; -146.000
425.881; -275.400; -831.000; -857.000
426.006; -186.100; -604.000; -355.000
426.130; -240.500; -696.000; -508.000
426.255; -213.000; -611.000; -491.000
426.379; -113.700; -189.000; -577.000
426.504;  123.600;  660.000;  544.000
426.629; -221.300; -519.000; -466.000
426.753;  -82.900;   64.000;  -46.000
426.878; -100.700; -252.000; -288.000
427.002; -302.900; -651.000; -668.000
427.127;  -96.600;  -35.000; -158.000
427.251;   23.200;  372.000;  401.000
427.375; -111.800; -191.000; -173.000
427.500; -238.700; -616.000; -610.000
427.624; -134.100; -234.000; -400.000
427.749; -128.300; -216.000; -225.000
427.873; -194.500; -499.000; -412.000
427.997; -138.900; -222.000; -230.000
428.122;  103.700;  795.000;  703.000
428.246;   45.400;  433.000;  434.000
428.371; -265.900; -869.000; -773.000
428.495; -221.700; -624.000; -646.000
428.619; -105.200; -186.000; -117.000
428.743;  -39.700;   65.000;  132.000
428.868; -282.600; -732.000; -643.000
428.992; -198.800; -219.000; -326.000
429.116; -141.900; -329.000; -357.000
429.240;   -4.300;  419.000;  426.000
429.365; -193.600; -454.000; -574.000
429.489; -257.200; -638.000; -647.000
429.613;  -82.600; -236.000; -177.000
429.737; -208.200; -563.000; -432.000
429.861; -124.000; -247.000; -133.000
429.985; -186.300; -425.000; -305.000
430.109; -307.800; -770.000; -908.000
430.234;  -37.900;   76.000;  -50.000
430.358; -172.200; -250.000; -160.000
430.482; -266.300; -672.000; -564.000
430.606; -219.900; -655.000; -375.000
430.730; -194.200; -437.000; -388.000
430.854; -309.700; -909.000; -835.000
430.978; -266.100; -795.000; -764.000
431.102; -215.300; -499.000; -422.000
431.226; -292.800; -874.000; -815.000
431.350;   54.900;  345.000;  422.000
431.474; -200.400; -661.000; -373.000
431.597; -353.000;-1060.000; -848.000
431.721; -161.000; -276.000; -267.000
431.845; -235.500; -704.000; -472.000
431.969; -178.300; -304.000; -349.000
432.093; -193.700; -395.000; -317.000
432.217;  -57.500;   32.000;   82.000
432.341; -211.800; -523.000; -518.000
432.464; -107.800;   96.000;   40.000
432.588; -194.100; -401.000; -329.000
432.712; -112.500;  -52.000;  -52.000
432.836;    0.900;  213.000;  263.000
432.959; -155.700; -372.000; -311.000
433.083;  -84.400;   11.000;    2.000
433.207;   42.100;  285.000;  930.000
433.330; -113.300; -391.000; -200.000
433.454; -242.600; -654.000; -638.000
433.578;   43.700;  583.000;  278.000
433.701; -258.400; -623.000; -675.000
433.825; -155.400; -292.000; -299.000
433.949;  -78.300;   28.000;  -72.000
434.072; -123.700; -410.000; -323.000
434.196; -141.500; -309.000; -117.000
434.319; 7426.300;25482.000;25124.000
434.443; -248.100; -656.000; -603.000
434.566;   -7.400;  281.000;   62.000
434.690; -187.900; -637.000; -383.000
434.813; -150.400; -251.000; -173.000
434.937; -205.000; -569.000; -696.000
435.060; -168.400; -423.000; -332.000
435.184; -167.100; -492.000; -217.000
435.307;  -25.700;  159.000;  102.000
435.431;  -80.900;  -40.000;   24.000
435.554; -129.800; -399.000; -240.000
435.677; -160.200; -350.000; -258.000
435.801;  -64.400;  -25.000;   49.000
435.924;  -77.800;    1.000;  -67.000
436.048; -312.300;-1019.000; -732.000
436.171; -140.600; -240.000;  -66.000
436.294; -137.900; -248.000; -229.000
436.417; -334.100; -963.000; -849.000
436.541; -306.500; -814.000; -840.000
436.664; -130.000; -242.000; -316.000
436.787;  -45.600;   13.000;  113.000
436.910; -259.300; -792.000; -422.000
437.034;   -4.900;  142.000;  143.000
437.157;  -28.400;  -11.000;    0.000
437.280; -177.000; -392.000; -292.000
437.403; -310.000; -982.000; -869.000
437.526; -311.000; -903.000; -865.000
437.649; -199.400; -505.000; -332.000
437.772; -256.400; -692.000; -540.000
437.896;  122.700;  700.000;  544.000
438.019; -256.800; -758.000; -503.000
438.142; -218.300; -596.000; -506.000
438.265; -256.200; -639.000; -670.000
438.388; -186.900; -520.000; -410.000
438.511; -231.800; -597.000; -394.000
438.634; -141.800; -247.000; -125.000
438.757; -238.200; -693.000; -619.000
438.880;  -89.000;  -34.000;  -57.000
439.003; -184.000; -417.000; -437.000
439.126; -105.400; -287.000; -167.000
439.248;  -99.200;  -98.000; -139.000
439.371;  -78.500;    9.000;  -53.000
439.494;  100.800;  510.000;  439.000
439.617;  -76.800;   65.000;  -88.000
439.740; -319.000; -968.000; -816.000
439.863; -257.000; -755.000; -595.000
439.986; -203.200; -476.000; -431.000
440.108; -120.700; -161.000; -112.000
440.231; -344.500; -950.000; -836.000
440.354; -100.000;  -64.000; -150.000
440.477; -232.100; -566.000; -542.000
440.599; -153.500; -200.000; -225.000
440.722; -239.500; -709.000; -586.000
440.845;  149.700;  751.000;  928.000
440.968; -167.800; -415.000; -311.000
441.090; -128.300; -199.000;  -33.000
441.213; -297.000;-1021.000; -825.000
441.336;  -93.400; -159.000;   -5.000
441.458; -163.800; -549.000; -396.000
441.581; -266.600; -628.000; -629.000
441.703; -118.100; -152.000;   13.000
441.826; -236.800; -557.000; -400.000
441.948;  -53.700;   56.000;   51.000
442.071;   97.300;  555.000;  424.000
442.193; -231.500; -531.000; -485.000
442.316;  -31.800;  152.000;   97.000
442.438; -145.800; -233.000;  -10.000
442.561;    0.800;  272.000;  262.000
442.683; -274.300; -809.000; -522.000
442.806;  -81.700;   -8.000;   74.000
442.928; -299.000; -859.000; -604.000
443.051; -226.400; -577.000; -373.000
443.173; -205.100; -341.000; -339.000
443.295; -182.200; -263.000; -371.000
443.418; -119.200; -321.000;  -29.000
443.540;  -73.000; -106.000;   -4.000
443.662; -244.400; -563.000; -465.000
443.785;   -5.200;  335.000;  199.000
443.907; -204.200; -362.000; -208.000
444.029; -224.800; -767.000; -494.000
444.152; -270.800; -644.000; -554.000
444.274;  -52.200;  -18.000;  -24.000
444.396; -220.000; -461.000; -221.000
444.518; -260.400; -691.000; -454.000
444.640; -199.400; -268.000; -111.000
444.763;  -13.600;  388.000;  249.000
444.885; -197.600; -432.000; -392.000
445.007;  -49.700;   35.000;   86.000
445.129; -183.000; -610.000; -515.000
445.251; -191.300; -372.000; -439.000
445.373; -226.600; -537.000; -386.000
445.495;   -7.100;  242.000;  350.000
445.617;  117.700;  853.000;  753.000
445.739; -171.700; -215.000;  -97.000
445.861; -101.100; -245.000; -112.000
445.984; -158.000; -267.000; -101.000
446.105; -150.300; -418.000; -251.000
446.227; -117.900; -176.000;  -19.000
446.349; -224.500; -358.000; -249.000
446.471; -253.000; -615.000; -448.000
446.593; -136.100; -316.000;   19.000
446.715; -103.000;  -67.000;   41.000
446.837;  124.500;  697.000;  832.000
446.959; -236.600; -457.000; -478.000
447.081; -211.100; -628.000; -518.000
447.203;  124.400;  862.000;  834.000
447.325; -122.900; -270.000;   42.000
447.446;  -22.000;  286.000;  530.000
447.568; -337.700; -921.000; -803.000
447.690; -189.100; -236.000; -245.000
447.812; -277.500; -798.000; -519.000
447.933;  -75.700;  155.000;  127.000
448.055; -127.800; -306.000; -261.000
448.177;  -69.300;   31.000;   79.000
448.299; -317.900; -935.000; -727.000
448.420;  -31.300;  -25.000;  159.000
448.542;  -49.500;   -3.000;   33.000
448.664;  -58.100;  109.000;  322.000
448.785;  -46.900;  265.000;   83.000
448.907; -223.000; -614.000; -353.000
449.028; -268.000; -771.000; -471.000
449.150;  102.700;  492.000;  589.000
449.272; -325.500;-1044.000; -913.000
449.393;   73.100;  612.000;  694.000
449.515; -267.200; -634.000; -581.000
449.636; -141.900; -264.000; -155.000
449.758;   77.600;  763.000;  622.000
449.879; -214.100; -498.000; -396.000
450.001; -149.000; -149.000;  -49.000
450.122;  -71.300;  -95.000;  162.000
450.244;  -58.400;   37.000;  364.000
450.365; -187.000; -495.000; -301.000
450.486;  -66.600;   80.000;  268.000
450.608;  -28.600;  393.000;  326.000
450.729;   84.800;  578.000;  645.000
450.850; -240.600; -574.000; -466.000
450.972; -252.500; -552.000; -389.000
451.093;  -15.900;  190.000;  588.000
451.214; -218.700; -516.000; -337.000
451.336;  142.000;  773.000;  579.000
451.457;    9.700;  264.000;  393.000
451.578; -112.500; -118.000;  -74.000
451.699; -227.000; -546.000; -540.000
451.821; -127.000; -284.000;  -50.000
451.942;    4.800;  278.000;  285.000
452.063;   16.500;  228.000;  419.000
452.184; -146.400;  -54.000;  -49.000
452.305;  -43.800;  103.000;  170.000
452.427; -207.000; -549.000; -301.000
452.548; -111.500;   23.000;   79.000
452.669; -117.800; -257.000;  -89.000
452.790; -124.700;    3.000;  -18.000
452.911;  -29.200;  195.000;  259.000
453.032; -151.600; -289.000;  -60.000
453.153; -106.000;  -29.000;   81.000
453.274;  120.400;  737.000;  868.000
453.395; -108.700;  -51.000;  175.000
453.516;  218.000; 1317.000; 1388.000
453.637; -159.800; -205.000; -150.000
453.758;  -94.900;   15.000;   69.000
453.879; -207.000; -462.000; -250.000
454.000;  154.100; 1086.000;  948.000
454.121; -241.300; -554.000; -326.000
454.242; -243.200; -599.000; -383.000
454.362; -105.500;  -99.000;  114.000
454.483; -153.500; -309.000; -229.000
454.604;   20.400;  512.000;  580.000
454.725; -266.100; -627.000; -555.000
454.846; -214.300; -474.000; -406.000
454.967;    6.600;  230.000;  539.000
455.087;  -56.000;  179.000;  153.000
455.208;   86.700;  554.000;  856.000
455.329;  -85.300;  -22.000;   82.000
455.450;   34.700;  473.000;  633.000
455.570; -161.400; -234.000; -211.000
455.691;  -66.200;  201.000;  407.000
455.812; -178.800; -270.000;  -92.000
455.932; -127.400;  107.000;  -97.000
456.053; -133.000;   36.000;   24.000
456.173; -226.000; -433.000; -355.000
456.294; -230.100; -476.000; -303.000
456.415;  -99.200;  -73.000;   70.000
456.535;  -28.100;  297.000;  273.000
456.656;  -58.700;  132.000;  240.000
456.776;  -91.700;    3.000;  298.000
456.897;    7.800;  308.000;  513.000
457.017; -149.300; -153.000;   -3.000
457.138; -214.400; -402.000; -249.000
457.258;  -28.700;  263.000;  224.000
457.379;   18.800;  509.000;  521.000
457.499;    1.700;  443.000;  432.000
457.620; -214.800; -407.000; -231.000
457.740; -158.200; -132.000;  -11.000
457.860;  -91.600;   87.000;   44.000
457.981;  -75.000;  132.000;  124.000
458.101; -128.100;  -89.000;   40.000
458.221;   10.200;  336.000;  402.000
458.342;  -99.900;   -4.000;  -37.000
458.462;   33.800;  617.000;  352.000
458.582; -177.400; -302.000; -294.000
458.703;  -71.300;  303.000;  154.000
458.823;  -78.400;   22.000;  163.000
458.943;   19.600;  341.000;  467.000
459.063;  -88.000; 1124.000;  192.000
459.183;  -42.400;  328.000;  313.000
459.304;   23.800;  315.000;  517.000
459.424; -117.400; -246.000;  -89.000
459.544;   44.100;  388.000;  764.000
459.664;   32.700;  499.000;  506.000
459.784;  144.900; 1004.000; 1175.000
459.904;   91.400;  867.000;  744.000
460.024;  144.300;  867.000;  684.000
460.144;    0.000;  449.000;  554.000
460.264;    2.300;  515.000;  327.000
460.385; -146.900; -145.000; -119.000
460.505;  137.500;  905.000;  858.000
460.625; -143.100;  -17.000;  -68.000
460.745;  -38.300;  396.000;  541.000
460.864;  -82.700;  153.000;  469.000
460.984;    2.300;  499.000;  573.000
461.104;  333.600; 1656.000; 1775.000
461.224;   54.400;  657.000;  650.000
461.344;  -29.900;  431.000;  360.000
461.464;  -27.400;  258.000;  513.000
461.584;   -6.700;  283.000;  466.000
461.704; -115.500;   58.000;  108.000
461.824;  -77.500;  238.000;  259.000
461.943;  -58.000;  191.000;  130.000
462.063; -122.900;    2.000;  324.000
462.183;   56.500;  639.000;  717.000
462.303;  238.400; 1678.000; 1230.000
462.422;   60.900;  781.000;  840.000
462.542;  -43.400;  271.000;  391.000
462.662;  -33.400;  353.000;  380.000
462.782;   57.000;  833.000;  572.000
462.901;  -11.700;  545.000;  717.000
463.021;  354.500; 1702.000; 1638.000
463.141;  -42.700;  337.000;  770.000
463.260;   10.100;  614.000;  474.000
463.380;   74.000;  902.000;  884.000
463.499;  -11.100;  342.000;  332.000
463.619;  -15.800;  581.000;  559.000
463.738;  215.400; 1644.000;  903.000
463.858;   84.700;  657.000;  811.000
463.978;  -24.100;  542.000;  396.000
464.097;  145.000;  921.000; 1114.000
464.217;  174.200; 1196.000; 1143.000
464.336;  169.600; 1068.000; 1130.000
464.455;  -32.000;  328.000;  659.000
464.575;  -15.100;  597.000;  602.000
464.694;  160.300; 1204.000; 1179.000
464.814;   99.000; 1190.000; 1138.000
464.933;  103.500; 1095.000; 1027.000
465.052;  186.600; 1412.000; 1054.000
465.172;   98.800;  922.000;  799.000
465.291;  215.000; 1376.000; 1320.000
465.410;   54.400;  462.000;  735.000
465.530;  198.300; 1355.000; 1310.000
465.649;  174.000; 1209.000; 1273.000
465.768;  291.300; 1673.000; 1508.000
465.888;  122.500;  941.000; 1174.000
466.007;  174.700; 1335.000; 1440.000
466.126;   56.100;  721.000;  641.000
466.245;  129.100; 1176.000; 1187.000
466.364;   85.300;  950.000; 1060.000
466.484;  122.600; 1024.000; 1213.000
466.603;  124.000; 1101.000; 1222.000
466.722;  266.000; 1490.000; 1769.000
466.841;  157.200; 1151.000; 1401.000
466.960;   95.700; 1069.000;  972.000
467.079;  330.700; 1971.000; 1786.000
467.198;  148.900; 1238.000; 1181.000
467.317;  227.000; 1768.000; 1162.000
467.436;  187.600; 1709.000; 1261.000
467.555;  323.900; 1796.000; 1746.000
467.674;  156.500; 1227.000; 1329.000
467.793;  185.100; 1376.000; 1374.000
467.912;  182.100; 1658.000; 1539.000
468.031;  274.300; 2038.000; 1930.000
468.150;  290.700; 1842.000; 1837.000
468.269;  397.100; 2313.000; 2090.000
468.388;  421.700; 2168.000; 2339.000
468.507;  521.100; 2884.000; 2903.000
468.626;  563.300; 2555.000; 2541.000
468.744;  324.900; 2018.000; 2174.000
468.863;  413.200; 2312.000; 2523.000
468.982;  228.300; 1503.000; 1555.000
469.101;  492.100; 2788.000; 2692.000
469.220;  365.400; 2333.000; 2176.000
469.338;  563.900; 2935.000; 3051.000
469.457;  425.700; 2719.000; 2545.000
469.576;  709.900; 3953.000; 3784.000
469.695;  541.600; 2877.000; 3066.000
469.813;  878.700; 4148.000; 4192.000
469.932;  814.600; 4255.000; 4485.000
470.051;  779.100; 4075.000; 4161.000
470.169;  846.700; 4470.000; 4338.000
470.288;  941.100; 4700.000; 4809.000
470.406;  969.000; 5059.000; 5194.000
470.525; 1212.800; 6101.000; 5787.000
470.644; 1345.900; 6847.000; 6794.000
470.762; 1604.400; 8397.000; 7873.000
470.881; 1749.100; 8651.000; 8464.000
470.999; 2011.400; 9685.000; 9151.000
471.118; 2173.900;11174.000;10711.000

