
Integration time [ms]: 100.000
Averaging Nr. [scans]: 40
Smoothing Nr. [pixels]: 0
Data measured with spectrometer [name]: 2101012U2
Wave   ;Sample   ;Dark     ;Reference
[nm]   ;[counts] ;[counts] ;[counts] 

197.733;   59.300;  516.000;  404.000
197.879;  -86.500; -610.000; -634.000
198.025;  -45.500; -475.000; -420.000
198.171;  -77.900; -602.000; -612.000
198.317;  -37.575; -401.000; -316.000
198.463;  -57.050; -655.000; -404.000
198.609;   21.025;  181.000; -137.000
198.755;  -83.875; -644.000; -410.000
198.901;  -66.775; -505.000; -424.000
199.047;  -68.400; -615.000; -488.000
199.193;  -44.200; -230.000; -468.000
199.339;  -43.550; -222.000; -369.000
199.485;   43.125;  330.000;  271.000
199.631;   14.450;  227.000;  310.000
199.777;  -51.975; -466.000; -398.000
199.923;  -66.600; -610.000; -424.000
200.069;   -1.075; -141.000;  -58.000
200.215;   64.275;  128.000;  453.000
200.361;   48.675;  243.000;  477.000
200.507;  -52.475; -600.000; -373.000
200.653;  -26.025; -371.000; -194.000
200.798;  -36.300; -215.000; -125.000
200.944;    2.275; -146.000;  -41.000
201.090;   35.000;   61.000;  222.000
201.236;   -5.475; -116.000; -158.000
201.382;  127.800;  874.000;  903.000
201.528;    7.575;  -58.000;  -48.000
201.674;  -39.150; -386.000; -293.000
201.819;  -66.175; -540.000; -439.000
201.965;  -68.150; -699.000; -447.000
202.111;  -21.025; -273.000; -226.000
202.257;  -38.075; -250.000; -238.000
202.402;    6.525;   13.000;  -36.000
202.548;  -27.825; -169.000; -116.000
202.694;   95.025;  410.000; -183.000
202.840;  -69.600; -603.000; -531.000
202.985;  -83.325; -681.000; -639.000
203.131; -113.975; -832.000; -666.000
203.277;  -25.925; -199.000; -262.000
203.423;  -47.550; -434.000; -520.000
203.568;  -34.275; -462.000; -237.000
203.714;  -58.800; -535.000; -542.000
203.860;  -77.800; -682.000; -641.000
204.005;    6.775;  112.000;  167.000
204.151;   76.950;  561.000;  556.000
204.296;  -38.375; -354.000; -221.000
204.442;  -65.175; -600.000; -547.000
204.588;  -72.475; -592.000; -579.000
204.733;   10.925;  178.000;  168.000
204.879; -114.525;-1018.000; -822.000
205.025;    8.525;  -99.000;  126.000
205.170;   -1.775;  -17.000;   94.000
205.316;   74.075;  438.000;  661.000
205.461;  -90.000; -698.000; -554.000
205.607;   86.975;  609.000;  665.000
205.752;  -81.250; -626.000; -551.000
205.898;  -50.700; -501.000; -391.000
206.043;  -67.625; -578.000; -506.000
206.189;  -27.350; -243.000; -285.000
206.334;   51.600;  554.000;  606.000
206.480;   73.525;  409.000;  239.000
206.625;  -85.525; -529.000; -552.000
206.771;  -38.100; -451.000; -373.000
206.916;  -41.375; -210.000; -537.000
207.062;  -73.100; -545.000; -591.000
207.207;  -63.750; -546.000; -443.000
207.353;   40.150;  185.000;  460.000
207.498;   11.925;  196.000;   85.000
207.643;  -53.050; -501.000; -370.000
207.789; -122.175;-1069.000; -910.000
207.934;  -89.450; -665.000; -713.000
208.080;  -22.150; -154.000;   66.000
208.225;  -14.900;  -22.000;  -57.000
208.370;  -84.500; -727.000; -619.000
208.516;  -71.750; -741.000; -487.000
208.661;  -26.475; -127.000;  -69.000
208.806;  -26.150; -165.000; -171.000
208.952; -120.375;-1044.000; -731.000
209.097;   69.250;  378.000;  349.000
209.242;  -48.100; -307.000; -382.000
209.387;   61.150;  392.000;  350.000
209.533;  -56.750; -321.000; -350.000
209.678;   74.400;  472.000;  543.000
209.823;  -50.225; -408.000; -310.000
209.969; -104.550; -860.000; -757.000
210.114; -111.600; -907.000; -719.000
210.259; -105.625; -939.000; -889.000
210.404;  -11.950; -171.000;  103.000
210.549;   10.775;  108.000;    3.000
210.695;  -12.525;   -3.000;  -95.000
210.840;   47.100;   94.000;   67.000
210.985;  -65.475; -484.000; -303.000
211.130;   63.125;  268.000;  406.000
211.275;    8.700;  207.000;  199.000
211.420;  -50.725; -300.000; -289.000
211.566;  -72.700; -536.000; -489.000
211.711;   26.550;  218.000;  157.000
211.856;  -68.975; -545.000; -519.000
212.001;   11.700;  151.000;   44.000
212.146;   20.375;  153.000;   49.000
212.291;  -11.575; -210.000; -186.000
212.436;  -21.550; -280.000;   -6.000
212.581;  -94.375; -685.000; -653.000
212.726;  -79.000; -487.000; -538.000
212.871;  -45.350; -552.000; -217.000
213.016; -144.725;-1172.000;-1029.000
213.161;   64.650;  406.000;  291.000
213.306;  -76.850; -435.000; -577.000
213.451;  -95.750; -778.000; -689.000
213.596;  -40.100; -455.000; -347.000
213.741;  -41.475; -448.000; -538.000
213.886;  -84.300; -498.000; -517.000
214.031;  -21.650; -294.000; -124.000
214.176;  -63.500; -408.000; -341.000
214.321;  -25.650; -296.000; -157.000
214.466;  -17.200; -163.000;  -43.000
214.611;   -5.550;  -61.000;  -10.000
214.756; -110.525; -948.000; -858.000
214.901;   -9.600; -388.000; -226.000
215.046; -122.350; -797.000; -825.000
215.191;   16.700;  128.000;   35.000
215.336;  -12.075; -157.000;  -19.000
215.480;  -65.300; -684.000; -505.000
215.625;  -16.600; -175.000;  -19.000
215.770;  -66.650; -757.000; -662.000
215.915;    5.825;   -5.000;  -97.000
216.060;  -10.200; -113.000;  -21.000
216.205; -106.700; -731.000; -779.000
216.349;  -64.550; -470.000; -533.000
216.494; -133.050; -939.000; -867.000
216.639; -114.425; -823.000; -888.000
216.784;  -86.500; -577.000; -525.000
216.929;   57.375;  392.000;  281.000
217.073;  -23.450; -244.000;  -31.000
217.218;    5.950;   78.000;  -47.000
217.363;  -87.925; -656.000; -618.000
217.507;  -88.300; -623.000; -588.000
217.652; -122.000; -845.000; -874.000
217.797;  -95.550; -708.000; -659.000
217.942; -102.675; -856.000; -720.000
218.086;   75.750;  608.000;  539.000
218.231;   -8.650; -174.000;  -26.000
218.376;  -25.475; -337.000; -229.000
218.520;   -2.925;  -41.000;   96.000
218.665;  -38.150; -338.000; -204.000
218.810;  -55.100; -275.000; -233.000
218.954;   31.775;  201.000;   35.000
219.099; -105.575; -713.000; -963.000
219.243;  -68.850; -589.000; -554.000
219.388;  -27.250; -264.000; -136.000
219.532;   -9.625; -116.000; -116.000
219.677;  -87.650; -564.000; -521.000
219.822;   -4.975;   33.000;   89.000
219.966;   11.100;   17.000;  -99.000
220.111;  -27.575; -328.000;  -40.000
220.255; -105.675; -797.000; -750.000
220.400;  -17.150; -180.000; -146.000
220.544;  -70.200; -516.000; -450.000
220.689;  -57.950; -422.000; -451.000
220.833;  -19.100; -123.000;  -58.000
220.978;  -39.025; -393.000; -563.000
221.122;   23.425;  319.000;  307.000
221.267; -107.400; -906.000; -837.000
221.411;  -60.550; -478.000; -394.000
221.555;  -18.050; -104.000;  -23.000
221.700;  -52.375; -329.000; -222.000
221.844;   37.250;  255.000;  272.000
221.989;  -53.225; -328.000; -311.000
222.133;  -38.850; -289.000; -307.000
222.277;  -12.775;    5.000;   78.000
222.422;   10.600;  227.000;  113.000
222.566;  -40.025; -381.000; -214.000
222.711;  -62.450; -414.000; -479.000
222.855;  -81.050; -643.000; -586.000
222.999;  -82.975; -642.000; -717.000
223.144;  -36.475; -195.000; -194.000
223.288;   48.175;  423.000;  251.000
223.432;   25.800;  184.000;  230.000
223.576;   23.350;  152.000;  -21.000
223.721;   29.225;  364.000;  273.000
223.865;  -50.225; -472.000; -475.000
224.009;  230.750; 1673.000; 1631.000
224.153;  -85.475; -660.000; -671.000
224.298;  -74.125; -531.000; -489.000
224.442;  -19.350;  -74.000;  -33.000
224.586;  -14.175; -169.000; -106.000
224.730; -105.975; -858.000; -670.000
224.875; -102.725; -739.000; -688.000
225.019;   11.650;  102.000;  188.000
225.163;   53.725;  208.000;  341.000
225.307;   11.725;   97.000;  -91.000
225.451;   46.125;  360.000;  481.000
225.595;   37.425;  264.000;  176.000
225.739;  -30.475; -170.000;  -94.000
225.884;    6.125;   86.000;    5.000
226.028; -103.100; -760.000; -626.000
226.172;  -35.450; -260.000; -273.000
226.316; -113.425; -941.000; -902.000
226.460;  -71.575; -645.000; -493.000
226.604;  -56.275; -406.000; -400.000
226.748;  -99.025; -836.000; -733.000
226.892;  -36.050; -227.000; -181.000
227.036;  -47.675; -537.000; -447.000
227.180;  -63.500; -551.000; -375.000
227.324;  -55.750; -561.000; -580.000
227.468; -115.050; -819.000; -717.000
227.612;   17.850;  242.000;  -28.000
227.756;  -84.950; -845.000; -698.000
227.900;   47.300;  342.000;  441.000
228.044;  -55.675; -509.000; -290.000
228.188;   70.975;  448.000;  568.000
228.332;  -81.350; -546.000; -472.000
228.476;  -28.050; -223.000; -149.000
228.620;  -35.925; -210.000; -150.000
228.764;   69.700;  431.000;  349.000
228.908;  -21.050; -155.000;   30.000
229.052;  -51.300; -615.000; -528.000
229.195;  -19.375; -172.000;   13.000
229.339;  -30.175; -235.000; -305.000
229.483;  -30.400;    5.000; -162.000
229.627;   -6.575; -156.000;  139.000
229.771;  -51.375; -218.000; -294.000
229.915;   -1.400;  230.000;   79.000
230.059;  -86.775; -648.000; -663.000
230.202;  -37.850; -370.000; -317.000
230.346;  -15.425; -107.000;  107.000
230.490;  -47.850; -489.000; -521.000
230.634; -118.475; -736.000; -553.000
230.777;   77.050;  478.000;  509.000
230.921;  -72.500; -450.000; -359.000
231.065;  -37.400; -246.000; -286.000
231.209;   12.925;  261.000;  265.000
231.352;   17.825;   54.000;   40.000
231.496;   21.000;  568.000;  188.000
231.640;  -79.625; -693.000; -621.000
231.783;   52.500;  546.000;  525.000
231.927;  -41.850; -294.000; -365.000
232.071; -116.300; -962.000; -736.000
232.214; -104.575; -980.000; -764.000
232.358; -110.675; -683.000; -599.000
232.502;    5.875;  -19.000;    7.000
232.645; -132.100;-1090.000; -927.000
232.789;   -9.350; -257.000; -218.000
232.933;  -31.200; -407.000; -224.000
233.076; -118.800;-1038.000; -897.000
233.220; -115.600; -752.000; -777.000
233.363;  -65.975; -669.000; -477.000
233.507;   57.925;  371.000;  129.000
233.650;  -98.625; -764.000; -834.000
233.794;   49.125;  438.000;  461.000
233.938;  -60.925; -530.000; -362.000
234.081;  -29.600;  -93.000;   31.000
234.225;  -70.775; -631.000; -539.000
234.368; -115.225; -773.000; -723.000
234.512;  -34.625; -385.000; -299.000
234.655;  -90.050; -582.000; -555.000
234.798;  -67.100; -493.000; -466.000
234.942; -130.925; -884.000;-1002.000
235.085;  -78.650; -651.000; -443.000
235.229;  -74.825; -405.000; -410.000
235.372;  -53.475; -247.000; -191.000
235.516;  -77.475; -397.000; -321.000
235.659;   24.725;   92.000;  121.000
235.802;  -20.075;  -38.000;  -22.000
235.946;   26.575;  335.000;  215.000
236.089;   27.275;  126.000;  250.000
236.233;   42.250;  275.000;  298.000
236.376;  -39.300; -235.000; -378.000
236.519;  -47.425; -297.000; -319.000
236.663;  -23.175; -215.000; -117.000
236.806; -125.025;-1029.000; -999.000
236.949;   40.600;  543.000;  431.000
237.092;   60.000;  412.000;  391.000
237.236;  -82.225; -589.000; -502.000
237.379;   69.350;  352.000;  428.000
237.522; -124.950; -879.000; -768.000
237.666;  -20.025; -271.000;   18.000
237.809; -129.675; -851.000; -823.000
237.952;   49.375;  469.000;  271.000
238.095;  -61.200; -447.000; -442.000
238.238;   79.100;  688.000;  700.000
238.382;   -2.275;  166.000;  103.000
238.525;  -77.650; -598.000; -511.000
238.668; -132.575;-1060.000; -985.000
238.811;  -81.550; -638.000; -643.000
238.954;  -66.700; -483.000; -334.000
239.097;   80.600;  617.000;  664.000
239.241;   21.450;  394.000;  326.000
239.384;  -28.725; -254.000; -214.000
239.527;  -57.675; -424.000; -224.000
239.670; -141.800; -994.000;-1091.000
239.813; -107.775; -696.000; -658.000
239.956;   92.725;  579.000;  473.000
240.099; -115.375; -778.000; -725.000
240.242;   65.625;  428.000;  432.000
240.385;   31.600;  466.000;  450.000
240.528;  -70.850; -706.000; -473.000
240.671;    1.650;  189.000;  134.000
240.814;  -39.050; -441.000; -158.000
240.957; -105.825; -767.000; -578.000
241.100;  -92.075; -779.000; -755.000
241.243; -139.325;-1234.000; -893.000
241.386;  -62.875; -508.000; -379.000
241.529;  -82.600; -735.000; -547.000
241.672;  -63.550; -566.000; -495.000
241.815; -117.375; -832.000; -808.000
241.958;  -25.625; -125.000; -182.000
242.101;  -84.650; -545.000; -390.000
242.244;  -41.125; -270.000; -325.000
242.387;  -41.900; -304.000; -246.000
242.530;   54.275;  470.000;  134.000
242.673;  -50.275; -381.000; -309.000
242.815; -109.750; -925.000; -899.000
242.958;  -62.700; -482.000; -381.000
243.101;   -4.850;  132.000;  187.000
243.244;  -81.725; -564.000; -521.000
243.387;  -39.900; -313.000; -316.000
243.530;  -93.425; -657.000; -674.000
243.672;  -12.325;   43.000;  -92.000
243.815;  -61.425; -355.000; -283.000
243.958;   11.950;   98.000;  -26.000
244.101;    3.525;   59.000;  -16.000
244.243;  -10.675;  -47.000;  101.000
244.386; -108.875; -761.000; -630.000
244.529;  -31.300; -132.000; -139.000
244.672; -153.775;-1154.000; -951.000
244.814; -100.175; -621.000; -794.000
244.957;  -57.400; -380.000; -304.000
245.100;  -73.875; -489.000; -489.000
245.242;  -67.300; -387.000; -374.000
245.385;   -4.350;  -59.000;  -39.000
245.528; -107.825; -871.000; -705.000
245.670;   77.475;  612.000;  634.000
245.813;  -83.700; -599.000; -547.000
245.956;  -28.200; -324.000; -275.000
246.098;  -73.325; -508.000; -650.000
246.241;    3.375;  194.000;   48.000
246.383;  -21.175; -119.000;  -73.000
246.526;  -76.400; -454.000; -525.000
246.669; -130.125; -889.000; -780.000
246.811;   19.250;  172.000;   -1.000
246.954;  -72.525; -512.000; -426.000
247.096;  -14.025;  -84.000;   -6.000
247.239;  -72.050; -482.000; -445.000
247.381;  -67.600; -647.000; -488.000
247.524;   76.475;  645.000;  679.000
247.666;   -3.125;   58.000;   11.000
247.809; -114.100; -887.000; -691.000
247.951;   -9.450;  -75.000;  138.000
248.094;   18.400;  432.000;  308.000
248.236; -156.300;-1262.000;-1238.000
248.378;   17.425; -356.000;  -81.000
248.521;  -19.150; -334.000; -337.000
248.663;  -44.450; -236.000; -267.000
248.806;  -22.975; -300.000; -266.000
248.948; -100.800; -886.000; -763.000
249.090;  -50.775; -428.000; -398.000
249.233;  -46.300; -344.000; -381.000
249.375;  -72.475; -474.000; -451.000
249.518;  -21.925;  -83.000; -133.000
249.660;   -8.025; -103.000;    3.000
249.802; -171.350;-1303.000;-1189.000
249.945;  -76.825; -612.000; -540.000
250.087; -103.425; -834.000; -768.000
250.229;  -53.100; -362.000; -480.000
250.371;  -89.600; -494.000; -439.000
250.514;  -52.525; -310.000; -244.000
250.656;  -51.750;   69.000;  102.000
250.798; -118.425; -849.000; -800.000
250.940;  -65.600; -322.000; -322.000
251.083;  -23.875; -335.000; -111.000
251.225;   57.625;  338.000;  310.000
251.367;  -39.150; -274.000; -373.000
251.509;  -30.875; -265.000; -210.000
251.651;  -96.550; -731.000; -671.000
251.794;   59.850;  538.000;  632.000
251.936; -113.400; -821.000; -747.000
252.078;  -77.950; -540.000; -461.000
252.220;  -60.525; -645.000; -477.000
252.362;   69.025;  344.000;  462.000
252.504;  -72.925; -677.000; -584.000
252.646; -122.250; -875.000; -722.000
252.788;   -6.625;   14.000; -128.000
252.931;  -44.675; -257.000; -253.000
253.073;  -34.700; -376.000; -317.000
253.215;  -15.400;  141.000;  122.000
253.357;  -17.400;   82.000; -153.000
253.499;  -49.775; -374.000; -234.000
253.641;  -91.500; -749.000; -594.000
253.783;  -96.250; -609.000; -527.000
253.925;  -94.025; -586.000; -591.000
254.067;  -99.575; -744.000; -667.000
254.209;  -28.175; -391.000; -259.000
254.351; -132.650; -865.000; -883.000
254.493;  -67.250; -441.000; -417.000
254.635; -134.550; -936.000; -818.000
254.777;  -90.525; -752.000; -687.000
254.918;  -72.900; -512.000; -430.000
255.060;  -64.175; -551.000; -395.000
255.202;  -51.850; -473.000; -261.000
255.344;  -71.475; -658.000; -455.000
255.486;  -85.275; -471.000; -406.000
255.628; -102.175; -780.000; -781.000
255.770;  -93.425; -676.000; -536.000
255.912;  -70.550; -559.000; -468.000
256.053;  -83.050; -730.000; -508.000
256.195;  156.550; 1008.000;  903.000
256.337;  -96.725; -861.000; -595.000
256.479;   51.975;  532.000;  416.000
256.621;  -50.825; -394.000; -212.000
256.762;  -96.450; -789.000; -742.000
256.904;   44.500;  485.000;  487.000
257.046;  -50.050; -381.000; -271.000
257.188;  -51.325; -351.000; -264.000
257.329;  -75.725; -525.000; -464.000
257.471; -110.125; -939.000; -807.000
257.613;  -60.725; -584.000; -498.000
257.755; -154.275;-1073.000; -982.000
257.896;   40.225;  286.000;  392.000
258.038;  -71.300; -403.000; -352.000
258.180;  -44.425; -354.000; -279.000
258.321;  -94.925; -581.000; -457.000
258.463;   -2.325;  -71.000;  133.000
258.605;  -82.200; -562.000; -570.000
258.746; -103.175; -886.000; -772.000
258.888; -147.150;-1026.000;-1020.000
259.029;   25.125;  121.000;   -8.000
259.171;  -97.475; -614.000; -550.000
259.313;   -4.325;  -49.000;  -47.000
259.454;  -72.075; -536.000; -414.000
259.596;  -59.475; -483.000; -390.000
259.737;  -80.925; -590.000; -474.000
259.879;   38.875;  217.000;  311.000
260.020;   75.925;  901.000;  636.000
260.162;  -23.825; -146.000; -253.000
260.303; -106.425; -768.000; -687.000
260.445;  -76.925; -609.000; -613.000
260.586;   31.075;  392.000;  157.000
260.728;  -41.100; -360.000; -248.000
260.869; -118.150; -350.000; -343.000
261.011;   89.250;  706.000;  537.000
261.152;  -64.225; -479.000; -319.000
261.293;  -84.600; -576.000; -595.000
261.435;  -24.850; -219.000; -184.000
261.576;  -43.175; -455.000; -325.000
261.718;   42.725;  420.000;  470.000
261.859; -122.450; -940.000; -949.000
262.000; -135.925; -951.000;-1016.000
262.142;  -22.275;  -52.000;  -60.000
262.283; -117.550; -808.000; -691.000
262.424;  -93.925; -666.000; -625.000
262.566; -149.050;-1161.000; -983.000
262.707; -116.450; -840.000; -830.000
262.848; -117.000; -769.000; -726.000
262.990;  -52.300; -362.000; -345.000
263.131;   77.700;  650.000;  681.000
263.272;   -9.850;  -61.000;  -41.000
263.413;  -91.300; -589.000; -561.000
263.555;  -69.850; -669.000; -143.000
263.696;  -89.250; -550.000; -641.000
263.837;  -59.175; -449.000; -551.000
263.978;  -15.575;   -5.000;  -77.000
264.119;  -34.575; -283.000; -264.000
264.261; -120.825; -847.000; -630.000
264.402;   -2.650;   33.000;   40.000
264.543;  -73.250; -509.000; -524.000
264.684;  -17.950;   61.000;  -50.000
264.825;  -69.175; -816.000; -538.000
264.966;   -0.750;  -84.000;  -67.000
265.107; -102.950; -646.000; -670.000
265.248; -120.600; -825.000; -812.000
265.390;  -12.400;  152.000;   -9.000
265.531;  -28.450; -238.000; -107.000
265.672;  -91.125; -557.000; -630.000
265.813;   59.150;  563.000;  439.000
265.954; -148.475; -959.000; -940.000
266.095;  -12.400; -372.000; -322.000
266.236;  -81.500; -686.000; -548.000
266.377;  -41.000; -243.000; -297.000
266.518;  -72.900; -619.000; -547.000
266.659;   21.400;  170.000;  268.000
266.800;   15.650;   83.000;   85.000
266.941;  -87.925; -487.000; -478.000
267.082;    0.625;  354.000;   99.000
267.223;  -45.125; -344.000; -273.000
267.364; -115.000; -892.000; -686.000
267.504;  -26.725;    3.000;  135.000
267.645;  -20.625;  160.000;   67.000
267.786;  -40.925; -147.000;  -86.000
267.927;  -67.175; -473.000; -379.000
268.068;  -20.150; -186.000;  -61.000
268.209;  -62.750; -175.000; -413.000
268.350;  -55.825; -388.000; -532.000
268.490;  -87.350; -648.000; -521.000
268.631;   18.150;  127.000;  225.000
268.772; -113.125; -874.000; -647.000
268.913;  -58.650; -328.000; -476.000
269.054;  -22.525; -117.000;   12.000
269.194;  -49.125; -418.000; -402.000
269.335; -163.300;-1137.000;-1074.000
269.476;  -24.525;   33.000;  -35.000
269.617;  -48.700; -347.000; -392.000
269.757;  -86.250; -713.000; -646.000
269.898; -112.350; -856.000; -613.000
270.039;  -66.925; -415.000; -405.000
270.180; -140.675; -952.000; -816.000
270.320;  -25.125; -190.000; -250.000
270.461;  -31.475; -277.000; -249.000
270.602;  -24.550; -186.000; -156.000
270.742; -125.300; -868.000; -943.000
270.883;  -71.175; -442.000; -390.000
271.023;  -65.300; -358.000; -357.000
271.164;  -80.425; -607.000; -528.000
271.305;  -95.325; -666.000; -654.000
271.445;  -96.950; -722.000; -683.000
271.586;  -76.850; -462.000; -283.000
271.726;  -46.450; -397.000; -322.000
271.867;  -66.850; -594.000; -534.000
272.008;  163.150; -473.000; -285.000
272.148;  112.525;  462.000;  468.000
272.289;    4.400; -113.000; -181.000
272.429;   20.500;   19.000;  185.000
272.570;  -90.650; -633.000; -737.000
272.710; -106.975; -825.000; -775.000
272.851;  -25.200;  113.000; -130.000
272.991; -157.375;-1173.000;-1077.000
273.131;  -69.025; -419.000; -459.000
273.272; -102.325; -683.000; -723.000
273.412;    5.575; -143.000;  -31.000
273.553;  -62.950; -488.000; -507.000
273.693;  128.225;  913.000;  858.000
273.834;  -95.425; -894.000; -692.000
273.974;  -84.650; -664.000; -615.000
274.114; -106.400; -772.000; -560.000
274.255;   55.625;  414.000;  373.000
274.395;   -3.500; -180.000; -125.000
274.535;   26.750;  199.000;  350.000
274.676;   21.075;  225.000;   94.000
274.816;   -4.925;  110.000;   34.000
274.956;  -83.250; -624.000; -690.000
275.097;  -54.050;-1014.000; -922.000
275.237; -122.375; -913.000; -803.000
275.377;  -97.250; -778.000; -689.000
275.517; -150.400; -878.000; -937.000
275.658;  -55.475; -590.000; -555.000
275.798;  -78.375; -606.000; -413.000
275.938;   23.000;  215.000;  323.000
276.078; -108.675; -626.000; -395.000
276.218;   12.800;   99.000;  104.000
276.359; -132.625;-1026.000;-1024.000
276.499;  -77.200; -605.000; -446.000
276.639;  -35.925; -305.000; -151.000
276.779;  -54.100; -475.000; -357.000
276.919;  -92.700; -783.000; -624.000
277.059;  -29.150; -261.000; -212.000
277.199;  -67.475; -357.000; -259.000
277.340;   48.550;  287.000;  175.000
277.480; -133.550; -840.000; -693.000
277.620;   11.750;  192.000;   16.000
277.760; -199.150;-1533.000;-1294.000
277.900;    9.075;  113.000;   33.000
278.040;    1.500;  137.000;  159.000
278.180;   37.925;  270.000;  170.000
278.320;    3.500;   21.000;   56.000
278.460;  -67.100; -443.000; -469.000
278.600;  -88.100; -708.000; -598.000
278.740;   53.900;  448.000;  224.000
278.880;  -88.175; -768.000; -791.000
279.020;  -25.900; -194.000; -144.000
279.160;  -88.350; -672.000; -595.000
279.300; -119.075; -926.000; -873.000
279.440;  -89.575; -709.000; -622.000
279.579;  -32.775;-1014.000; -929.000
279.719;  -53.625; -410.000; -394.000
279.859;   67.675;   -4.000;   41.000
279.999;   26.150; -208.000;  101.000
280.139;  -10.325; -435.000; -387.000
280.279;  -77.375; -708.000; -745.000
280.419;  -28.850; -229.000; -147.000
280.559;  -35.100; -259.000; -180.000
280.698;  -98.625; -790.000; -639.000
280.838;  -95.500; -778.000; -800.000
280.978; -100.325; -846.000; -790.000
281.118; -111.900; -811.000; -704.000
281.257;  -12.975;   24.000;    6.000
281.397; -133.625;-1094.000; -960.000
281.537;  -85.650; -599.000; -712.000
281.677;  -34.325; -150.000; -101.000
281.816;  -83.000; -700.000; -630.000
281.956;  -43.675; -193.000; -257.000
282.096;  -71.450; -539.000; -396.000
282.235; -129.900; -672.000; -638.000
282.375;  -25.150; -243.000;  -98.000
282.515; -112.825; -715.000; -707.000
282.654;   15.725;   29.000;  106.000
282.794;   18.750;  388.000;  244.000
282.934;  -50.850; -530.000; -491.000
283.073; -138.125;-1030.000; -857.000
283.213;  -49.500; -460.000; -467.000
283.353;  -46.200; -408.000; -349.000
283.492;  -28.100; -264.000; -296.000
283.632;  -42.975; -254.000; -168.000
283.771; -109.050; -859.000; -730.000
283.911;  -54.950; -369.000; -260.000
284.050;  -91.575; -794.000; -748.000
284.190; -154.525;-1229.000;-1096.000
284.329; -142.275;-1055.000; -964.000
284.469;  -72.350; -516.000; -591.000
284.608;  -49.700; -559.000; -598.000
284.748; -101.850; -614.000; -570.000
284.887;   -7.575;  -87.000;  -20.000
285.027; -121.175; -844.000; -892.000
285.166;  -32.575; -192.000; -249.000
285.306;    2.700; -116.000;  -33.000
285.445;  -38.525; -229.000; -343.000
285.584;  -94.775; -630.000; -494.000
285.724;  -52.525; -282.000; -322.000
285.863; -103.750; -857.000; -507.000
286.002;  -51.275; -366.000; -276.000
286.142; -107.250; -715.000; -622.000
286.281;  -76.850; -525.000; -493.000
286.420;  -86.250; -554.000; -417.000
286.560;   95.375;  653.000;  623.000
286.699; -148.275; -958.000; -912.000
286.838;  -96.350; -590.000; -591.000
286.978; -111.150; -533.000; -537.000
287.117; -137.000;-1085.000; -950.000
287.256;  -34.725; -228.000; -211.000
287.395;  -49.225; -197.000; -378.000
287.535;  -52.275; -370.000; -298.000
287.674;  -72.075; -509.000; -484.000
287.813;   49.275;  661.000;  533.000
287.952; -129.925;-1010.000; -871.000
288.091; -152.575;-1049.000; -915.000
288.231;    5.175;   13.000;   15.000
288.370; -170.175;-1217.000;-1200.000
288.509;  -93.450; -728.000; -645.000
288.648;  -88.450; -770.000; -548.000
288.787;  -41.375; -243.000;  -87.000
288.926;  -78.075; -454.000; -475.000
289.065;  117.700;  859.000;  672.000
289.204;  -58.475; -377.000; -217.000
289.344;  -95.050; -791.000; -690.000
289.483;   25.925;  416.000;  304.000
289.622;  -32.425; -291.000; -149.000
289.761;  -25.425; -309.000; -166.000
289.900; -117.600; -785.000; -626.000
290.039;  -18.025;  -12.000;  -95.000
290.178;  -53.525; -274.000; -180.000
290.317;  -94.325; -618.000; -479.000
290.456;  -58.225; -463.000; -451.000
290.595; -110.725; -961.000; -833.000
290.734; -139.350; -904.000; -891.000
290.873;  -74.450; -456.000; -420.000
291.011; -116.350; -833.000; -843.000
291.150; -110.200; -770.000; -682.000
291.289;  -28.800; -343.000; -110.000
291.428; -101.950; -599.000; -480.000
291.567;  -50.925; -370.000; -442.000
291.706;   -0.875;  109.000;  154.000
291.845;  -95.600; -597.000; -505.000
291.984; -171.075;-1234.000;-1061.000
292.122;   81.200;  602.000;  582.000
292.261;   42.500;  620.000;  463.000
292.400;   14.125; -144.000;  211.000
292.539; -116.425; -959.000; -813.000
292.678;  -43.150; -325.000; -300.000
292.816; -164.125;-1136.000; -965.000
292.955;  -98.125; -844.000; -684.000
293.094;  -33.550; -173.000; -337.000
293.233;  -44.400; -556.000; -400.000
293.371;  -31.875; -225.000;  -84.000
293.510; -104.950; -866.000; -780.000
293.649; -128.000; -959.000; -924.000
293.787;  -67.775;-1083.000;-1012.000
293.926;  -15.275; -113.000;  -32.000
294.065;  -33.375; -379.000; -290.000
294.203;   37.500;  298.000;  406.000
294.342;    6.100;   74.000;  156.000
294.481; 6309.000;51180.000; -836.000
294.619;  -30.175; -425.000; -582.000
294.758; -139.125;-1230.000;-1137.000
294.896;   61.150; -125.000;    5.000
295.035; -123.400;-1040.000;-1006.000
295.174; -127.475;-1082.000; -954.000
295.312;  -40.150; -323.000; -203.000
295.451;  -14.400; -307.000; -428.000
295.589;  -60.925; -389.000; -518.000
295.728;    7.600; -292.000; -165.000
295.866;   -6.950;  -36.000;  -51.000
296.005;  -67.250; -584.000; -341.000
296.143;  -70.550; -558.000; -596.000
296.282;  -97.525; -957.000; -881.000
296.420;  -87.650; -657.000; -557.000
296.559;  -98.400; -892.000; -633.000
296.697;    4.500; -847.000; -665.000
296.835;   38.300;-1141.000;-1002.000
296.974;   35.575;  -23.000;   39.000
297.112;   -9.725; -443.000; -504.000
297.251;  -94.575; -815.000; -755.000
297.389;   59.175; -576.000; -438.000
297.527;   15.275; -145.000;  -83.000
297.666;  -52.875; -486.000; -438.000
297.804;  -55.775; -404.000; -264.000
297.942;  -17.400; -136.000; -161.000
298.081;   -7.775; -183.000;   63.000
298.219;   39.650;  -17.000;  -19.000
298.357;   31.000; -144.000;  -71.000
298.495;   -0.600; -810.000; -812.000
298.634;   57.900;  245.000;  219.000
298.772;   38.600; -220.000; -338.000
298.910;  -47.050; -309.000; -182.000
299.048;  -10.925; -130.000; -153.000
299.187;  -34.700; -350.000; -250.000
299.325;   13.225;   52.000;  122.000
299.463;   26.200; -389.000; -299.000
299.601;   76.800; -327.000; -271.000
299.739; -122.625; -908.000; -883.000
299.877;  -80.050; -791.000; -703.000
300.016;  -55.775;-1095.000; -935.000
300.154;  126.575;  -19.000; -161.000
300.292;   35.675; -428.000; -348.000
300.430;   19.600; -408.000; -291.000
300.568; -114.950; -940.000; -874.000
300.706;  -50.400; -366.000; -469.000
300.844;  -90.000;-1108.000; -979.000
300.982;  105.275;  246.000;  282.000
301.120; -100.850; -965.000; -866.000
301.258;  -71.075; -812.000; -705.000
301.396;    9.150;  104.000;  -41.000
301.534;   43.275; -218.000; -293.000
301.672;  -27.100; -664.000; -521.000
301.810;   16.500; -613.000; -545.000
301.948;   80.100;   53.000;  149.000
302.086;  569.625; -250.000;  -32.000
302.224;  828.600; -610.000; -585.000
302.362;   21.525; -558.000; -622.000
302.500;  -32.975; -923.000; -893.000
302.638;   94.950;  128.000;  245.000
302.776;    2.850; -352.000; -408.000
302.913;   60.950;  447.000;  236.000
303.051;  -12.925;  -86.000;  -23.000
303.189;   33.050;   90.000;  118.000
303.327;  -54.225; -341.000; -256.000
303.465;  -70.175; -832.000; -588.000
303.603; -101.175; -805.000; -604.000
303.740;   73.775;  417.000;  241.000
303.878;   -5.550; -800.000; -759.000
304.016;  -93.625; -915.000; -790.000
304.154; -136.000;-1123.000;-1152.000
304.291;  -53.125; -505.000; -554.000
304.429;  -10.875;  102.000;   74.000
304.567; -127.425; -908.000; -893.000
304.705;  -67.075; -408.000; -515.000
304.842;   64.900; -616.000; -540.000
304.980;   33.225;  215.000;   35.000
305.118;   28.125; -367.000; -365.000
305.255;  -88.900; -945.000; -927.000
305.393;   36.775;  178.000;  239.000
305.531; -112.700;-1173.000; -956.000
305.668;  -76.600; -663.000; -582.000
305.806;  103.725; -358.000; -439.000
305.943;   85.225; -629.000; -637.000
306.081;   30.225; -378.000; -267.000
306.219; -100.850; -863.000; -748.000
306.356;   10.825;  158.000;   27.000
306.494;  109.250;  981.000;  761.000
306.631;   -5.175;  -11.000;  -55.000
306.769;   -3.150; -613.000; -485.000
306.906;  -30.425; -284.000; -258.000
307.044;  -65.050; -473.000; -488.000
307.181;  -76.275; -410.000; -332.000
307.319;   20.925;  112.000;   87.000
307.456; -167.200;-1191.000;-1153.000
307.594; -103.025; -980.000; -727.000
307.731;   -7.250; -371.000; -164.000
307.868;  -15.625;  -15.000;   20.000
308.006; -141.700; -961.000; -847.000
308.143;  -75.000; -618.000; -330.000
308.281;  151.850;  -37.000; -254.000
308.418;  -19.600; -748.000; -640.000
308.555;  -82.875; -400.000; -250.000
308.693;  -64.350; -577.000; -573.000
308.830; -114.800; -712.000; -657.000
308.967;   -8.575; -215.000;  -95.000
309.105;  -56.125; -507.000; -396.000
309.242;   26.275; -468.000; -367.000
309.379;  278.350; -577.000; -655.000
309.517;  -66.275; -936.000; -948.000
309.654; -112.675; -910.000; -734.000
309.791;  -79.525; -662.000; -580.000
309.928; -112.425; -977.000; -914.000
310.065;  160.425;  819.000;  697.000
310.203;  -38.725; -825.000; -850.000
310.340;  -15.300; -465.000; -321.000
310.477;  -87.250; -412.000; -516.000
310.614;  -78.450; -383.000; -473.000
310.751;  -72.175; -427.000; -518.000
310.889;  -23.225;    1.000;   11.000
311.026; -161.025;-1161.000; -939.000
311.163;  -57.750; -386.000; -380.000
311.300;  -70.125; -512.000; -479.000
311.437;  -80.050; -658.000; -619.000
311.574; -161.775;-1226.000; -985.000
311.711;  -64.700; -595.000; -433.000
311.848;  -54.900; -380.000; -388.000
311.985;   -0.300;  270.000;   93.000
312.122; -124.475; -932.000; -762.000
312.259; -123.225; -941.000; -994.000
312.396;  -98.825; -508.000; -551.000
312.533; -105.750; -812.000; -790.000
312.670; -133.750;-1070.000; -898.000
312.807;  -38.775; -352.000; -367.000
312.944;  -82.300; -513.000; -611.000
313.081;  -29.750; -150.000; -415.000
313.218; -116.850;-1111.000; -867.000
313.355;   -8.825; -531.000; -449.000
313.492;    8.525; -455.000; -292.000
313.629;  113.725;  815.000;  735.000
313.766; -155.325;-1176.000;-1008.000
313.902;  -17.725; -186.000;   21.000
314.039;  -55.125; -372.000; -289.000
314.176;   23.775;  286.000;  192.000
314.313;  -79.750; -569.000; -473.000
314.450;  -82.625; -788.000; -684.000
314.587;  -66.525; -468.000; -480.000
314.723;   -9.375;  -78.000;  130.000
314.860;   10.150;  318.000;  332.000
314.997;   16.375;  223.000;  142.000
315.134;  -36.075; -385.000; -368.000
315.270;  -43.725; -480.000; -496.000
315.407; -136.725;-1094.000; -967.000
315.544;  -59.525; -657.000; -538.000
315.681;  -81.725; -681.000; -565.000
315.817;   12.850; -133.000; -176.000
315.954;    1.400; -613.000; -392.000
316.091; -137.500;-1045.000;-1023.000
316.227;  -15.375;  -71.000; -179.000
316.364;    7.675;   23.000;    6.000
316.500;  -39.475; -113.000; -300.000
316.637;  -43.325; -181.000; -302.000
316.774;  -90.900; -625.000; -358.000
316.910;  -76.850; -598.000; -629.000
317.047;  -88.150; -487.000; -351.000
317.183;  -55.100; -435.000; -566.000
317.320;   -4.175; -367.000; -321.000
317.456;  -71.150; -733.000; -805.000
317.593;  -97.150; -598.000; -641.000
317.729;    3.775;  168.000;  -67.000
317.866; -206.425;-1434.000;-1285.000
318.002;  -88.200; -708.000; -948.000
318.139; -110.200; -883.000; -867.000
318.275; -103.475;-1003.000; -738.000
318.412;  -76.350; -517.000; -336.000
318.548;  -50.050; -751.000; -720.000
318.685; -106.300; -985.000; -888.000
318.821;  -97.275; -762.000; -735.000
318.957;  -35.575;   34.000;  -23.000
319.094;   29.075;  297.000;  154.000
319.230;  -73.775; -756.000; -742.000
319.367;  114.675; -471.000; -520.000
319.503;   34.875; -538.000; -436.000
319.639;  -92.250; -877.000; -793.000
319.775;  -70.275; -750.000; -685.000
319.912;  -51.875; -424.000; -519.000
320.048;  -94.525;-1184.000;-1184.000
320.184;   78.700;   59.000;   70.000
320.321;  -65.225; -497.000; -467.000
320.457;   64.650;  475.000;  662.000
320.593;  -72.550; -375.000; -382.000
320.729; -115.100; -732.000; -734.000
320.866;  -70.625; -577.000; -635.000
321.002;  -82.600; -759.000; -809.000
321.138;  -11.025; -135.000; -211.000
321.274;   68.350; -148.000; -115.000
321.410;  -40.900; -585.000; -353.000
321.546;  -44.650;-1011.000; -911.000
321.683;   38.875;  400.000;  185.000
321.819;   -6.175;  -48.000; -117.000
321.955; -123.675; -743.000; -722.000
322.091;  -41.075; -585.000; -540.000
322.227;  -24.050; -382.000; -202.000
322.363;  -21.700; -320.000; -215.000
322.499;  -48.300; -343.000; -331.000
322.635;  155.475;  636.000;  443.000
322.771;   23.400; -139.000;   12.000
322.907;   79.950;  129.000;  327.000
323.043;  -32.275; -115.000; -206.000
323.179;  -43.475; -394.000; -363.000
323.315;    1.800; -401.000; -371.000
323.451;   62.825; -328.000; -236.000
323.587;   63.300;  -60.000;  -77.000
323.723;   -2.275; -682.000; -601.000
323.859;  -14.325; -258.000;  -76.000
323.995;  -51.550; -467.000; -409.000
324.131; -123.525; -967.000; -892.000
324.267;  -41.375; -254.000; -276.000
324.402; -133.900; -960.000; -983.000
324.538;  -22.125; -279.000; -104.000
324.674;    3.725;  164.000;   77.000
324.810;   84.575;  226.000;  308.000
324.946;  -25.825; -810.000; -658.000
325.082;  -77.050; -568.000; -475.000
325.217;   -7.225;  -62.000;   16.000
325.353;  -99.425; -764.000; -659.000
325.489; -101.125; -540.000; -506.000
325.625;  -84.025; -579.000; -525.000
325.760;   47.500;  517.000;  376.000
325.896;  -34.700; -515.000; -702.000
326.032;  -56.850; -403.000; -352.000
326.168;  -64.675; -462.000; -369.000
326.303;  -64.050; -352.000; -461.000
326.439;  -24.350; -336.000; -276.000
326.575;   -3.475; -190.000;  -29.000
326.710;  -21.925; -156.000;  -30.000
326.846;   -4.200;  146.000;  103.000
326.982;  -89.700; -530.000; -548.000
327.117;  -72.250; -481.000; -442.000
327.253;  -91.650; -745.000; -742.000
327.388; -130.700;-1137.000;-1153.000
327.524;  -71.700; -811.000; -578.000
327.659;  -26.200;  -58.000;  -22.000
327.795;  -27.225;   69.000;   45.000
327.931;  -95.200; -723.000; -499.000
328.066;  -35.025; -417.000; -276.000
328.202;  -31.300;   12.000; -129.000
328.337;   85.700;  957.000;  713.000
328.473;   25.125;  -12.000;  -74.000
328.608;  -22.800; -256.000; -267.000
328.743;  -93.675; -799.000; -664.000
328.879;   12.225;  214.000;  114.000
329.014;  -45.675; -102.000; -122.000
329.150;  -89.975; -358.000; -483.000
329.285;  -87.650; -465.000; -466.000
329.421;  -59.950; -548.000; -246.000
329.556;  -36.950;  -36.000;   85.000
329.691;  -92.575; -633.000; -615.000
329.827;  -77.050; -626.000; -480.000
329.962;  -51.375;  131.000; -301.000
330.097;  -96.375; -673.000; -585.000
330.233;  -40.200; -410.000; -223.000
330.368; -118.800; -839.000; -628.000
330.503;  -14.650;    3.000;   98.000
330.638;   -6.000;  -93.000; -125.000
330.774;  -66.675; -609.000; -530.000
330.909;  -51.050; -434.000; -244.000
331.044; -106.175; -714.000; -708.000
331.179; -182.175;-1217.000;-1109.000
331.315;   -0.400;   77.000;   20.000
331.450;    7.400;  157.000;  285.000
331.585;  -98.850; -805.000; -706.000
331.720;  -75.775; -510.000; -460.000
331.855;   -8.950;  -35.000; -102.000
331.990;  259.975;   62.000;  138.000
332.126;  136.150; -110.000;   71.000
332.261;  -32.525; -379.000; -265.000
332.396;   -5.925; -135.000; -242.000
332.531;  -86.075;-1074.000;-1031.000
332.666;   43.275; -519.000; -363.000
332.801; -109.900; -726.000; -807.000
332.936;  -41.275; -192.000; -122.000
333.071; -154.000; -870.000; -817.000
333.206;   19.000;  307.000;  379.000
333.341;    9.925;  344.000;  418.000
333.476;  -97.275; -627.000; -623.000
333.611;  -45.650; -251.000; -173.000
333.746;  -43.425; -381.000; -464.000
333.881; -123.350; -973.000; -935.000
334.016; -130.825; -936.000; -917.000
334.151; -130.500; -746.000; -702.000
334.286;   23.500;  152.000;  186.000
334.421;  -40.575; -125.000; -178.000
334.556;  -96.925; -611.000; -567.000
334.690; -104.975; -631.000; -577.000
334.825;   53.650;  381.000;   83.000
334.960;  -75.575; -285.000; -413.000
335.095;   -7.825;  135.000;  -91.000
335.230; -107.075; -722.000; -738.000
335.365; -140.300;-1084.000; -990.000
335.499; -146.275;-1108.000;-1037.000
335.634;    2.250;    9.000;  534.000
335.769; -107.925; -755.000; -720.000
335.904;  -74.550; -603.000; -561.000
336.038;  -87.575; -735.000; -657.000
336.173; -122.400;-1206.000;-1194.000
336.308;  -13.000; -116.000; -189.000
336.443;   12.825; -544.000; -634.000
336.577;  -71.850; -936.000; -787.000
336.712;   38.000;   -4.000;  -12.000
336.847;  -53.575; -724.000; -607.000
336.981;   57.275; -272.000; -208.000
337.116;  237.875;  615.000;  501.000
337.250;  114.950; -434.000; -421.000
337.385;  280.450; -297.000; -208.000
337.520;  108.775; -632.000; -603.000
337.654;  -54.825; -215.000; -126.000
337.789; -137.375; -989.000; -933.000
337.923;  -47.450; -104.000; -205.000
338.058;  -88.400; -673.000; -738.000
338.192;  -45.725; -611.000; -488.000
338.327;   -5.175;  -18.000; -155.000
338.461;  -72.700; -299.000; -469.000
338.596;  -85.975; -780.000; -638.000
338.730; -108.675; -767.000; -803.000
338.865;   96.075;  -46.000; -140.000
338.999;  -42.225; -846.000; -702.000
339.134;  -28.375; -634.000; -536.000
339.268;   -8.250; -741.000; -603.000
339.403;  393.500; -740.000; -775.000
339.537;  114.750; -894.000; -820.000
339.671; -119.600; -829.000; -813.000
339.806;  -70.100; -556.000; -512.000
339.940;   -0.275; -261.000; -235.000
340.074; -114.225; -685.000; -510.000
340.209;  -47.175; -351.000; -230.000
340.343;  -99.825; -517.000; -573.000
340.477;  138.100;  998.000; 1036.000
340.612;  -68.425;-1033.000; -900.000
340.746;  146.175; -199.000; -243.000
340.880;  -80.475; -924.000; -785.000
341.014;  -35.625;  -45.000; -154.000
341.149; -124.850; -756.000; -718.000
341.283; -112.075; -839.000; -754.000
341.417; -120.200;-1124.000; -938.000
341.551;   84.600; -768.000; -708.000
341.685;  -55.000; -633.000; -611.000
341.820;  -54.975; -562.000; -493.000
341.954;  -53.950; -218.000; -349.000
342.088; -153.200;-1102.000;-1019.000
342.222;   40.375;  565.000;  618.000
342.356;  -56.075; -395.000; -335.000
342.490; -102.675; -880.000; -841.000
342.624;  -59.550; -339.000; -242.000
342.758;  -19.800; -364.000; -312.000
342.892;  -68.875; -710.000; -585.000
343.026;  -47.375;  -58.000; -116.000
343.160;  -65.775; -426.000; -376.000
343.294;  -86.500; -474.000; -337.000
343.428;  -33.275; -488.000; -448.000
343.562;  -27.950; -172.000;  -23.000
343.696;  -37.650; -385.000; -314.000
343.830;  -44.075; -362.000; -356.000
343.964;   -5.300; -231.000; -168.000
344.098;  780.275;  199.000;   70.000
344.232;  665.450; -266.000; -127.000
344.366;   72.575; -567.000; -453.000
344.500;   26.750; -665.000; -744.000
344.634;    8.775; -324.000; -164.000
344.768;  -29.375; -531.000; -341.000
344.902;   13.050;  278.000;  256.000
345.035;  -82.500; -556.000; -496.000
345.169; -137.600; -933.000; -656.000
345.303;  -40.525; -308.000; -482.000
345.437;  -80.275; -826.000; -717.000
345.571;  -76.125; -675.000; -594.000
345.704;  -74.725; -309.000; -532.000
345.838;  -27.000; -331.000; -284.000
345.972;  -54.375; -543.000; -495.000
346.106;  176.925; -179.000; -190.000
346.239;  394.275; -312.000; -243.000
346.373;   -1.700; -343.000; -302.000
346.507; -153.925; -950.000; -962.000
346.640;  120.500;  -30.000;   13.000
346.774;  -56.900; -650.000; -797.000
346.908;  -25.100; -138.000;  -11.000
347.041; -100.275; -646.000; -593.000
347.175;   -1.625;  259.000;   27.000
347.309;  -85.975; -698.000; -628.000
347.442; -100.125; -883.000; -732.000
347.576;  239.375;  670.000;  668.000
347.709;  141.600; -123.000;  -52.000
347.843; -105.900; -933.000; -825.000
347.976;   34.625;  235.000;  294.000
348.110; -198.125;-1268.000;-1186.000
348.243;  -96.075; -679.000; -772.000
348.377;    0.075;  -26.000;   60.000
348.510;   49.575;  403.000;  540.000
348.644;  -45.150;  -37.000; -159.000
348.777;   -7.725;  180.000;  191.000
348.911;  -52.600; -142.000; -112.000
349.044;  160.850;  471.000;  448.000
349.178;  105.275;-1069.000;-1006.000
349.311;  104.825;  141.000;  255.000
349.444;   -2.900; -927.000; -813.000
349.578;  -22.475; -347.000; -200.000
349.711; -107.400; -959.000; -862.000
349.845;   -9.525; -661.000; -591.000
349.978; -153.425;-1224.000;-1137.000
350.111;  -99.425; -546.000; -612.000
350.244;  -98.575; -596.000; -700.000
350.378;   -5.550; -392.000; -393.000
350.511;  -82.050; -393.000; -426.000
350.644; -116.525; -808.000; -806.000
350.778;   -6.825;  168.000;  104.000
350.911;  -14.100;  134.000;  140.000
351.044;  -91.525; -685.000; -615.000
351.177;  -38.175; -321.000; -281.000
351.310;  -29.950;    3.000; -131.000
351.444;  -86.600; -888.000; -788.000
351.577;  103.075;  140.000;   90.000
351.710;   94.100;  593.000;  417.000
351.843;  -46.625; -165.000;  -77.000
351.976;   -8.400;  149.000;  -79.000
352.109; -103.000; -621.000; -612.000
352.242;  -41.775; -464.000; -419.000
352.376;  -72.850; -580.000; -636.000
352.509;  133.650; -437.000; -356.000
352.642;  -10.725; -654.000; -604.000
352.775;   34.275; -141.000;  -98.000
352.908; -137.150; -933.000; -904.000
353.041; -108.325; -814.000; -824.000
353.174;  -74.750; -551.000; -424.000
353.307;  -76.425; -753.000; -764.000
353.440;   60.125;  541.000;  453.000
353.573; -125.300; -957.000;-1008.000
353.706;  -62.475; -384.000; -558.000
353.839;  -37.650; -264.000; -220.000
353.971;  -91.500; -657.000; -512.000
354.104;  -82.700; -896.000; -835.000
354.237;  -57.800; -627.000; -662.000
354.370;  -88.375; -846.000; -879.000
354.503; -180.000;-1231.000;-1308.000
354.636;  -45.300; -529.000; -348.000
354.769; -128.575; -937.000; -860.000
354.902;  -11.075; -230.000; -139.000
355.034;  -38.150; -164.000; -220.000
355.167;  -22.100; -262.000; -162.000
355.300;  -99.850;-1061.000; -880.000
355.433; 1000.850;  -71.000;  -14.000
355.565; 1573.900; -402.000; -384.000
355.698;  392.125; -356.000; -296.000
355.831;   -8.000; -882.000; -801.000
355.964;   55.000; -285.000; -170.000
356.096;  -94.525; -856.000; -843.000
356.229;  -12.925; -523.000; -530.000
356.362;  339.150; -373.000; -266.000
356.494;  631.800; -229.000; -162.000
356.627;  417.600;  269.000;  377.000
356.760;  659.375;  120.000;   53.000
356.892; 1017.700; -286.000; -601.000
357.025;  557.625;  403.000;  389.000
357.157;  505.450; -167.000; -179.000
357.290;  736.525; -856.000; -713.000
357.423;  213.000; -667.000; -556.000
357.555;   88.500; -217.000; -228.000
357.688;  100.550; -483.000; -364.000
357.820;  421.725; -870.000; -877.000
357.953; 3433.850; -563.000; -589.000
358.085;  715.575; -632.000; -612.000
358.218;  885.225;-1131.000; -932.000
358.350;  162.900;  -58.000;  312.000
358.483; -130.500;-1300.000;-1187.000
358.615;  -34.775;-1182.000;-1078.000
358.747;  -88.900;-1187.000;-1058.000
358.880;    0.600; -810.000; -744.000
359.012;   -9.800; -376.000; -202.000
359.145;  -40.125; -480.000; -511.000
359.277;   47.850; -962.000; -913.000
359.409; 2806.775;  536.000;  231.000
359.542;  749.275; -738.000; -688.000
359.674;   65.775;   46.000;   13.000
359.806;  -63.500; -565.000; -438.000
359.939;  -55.225; -617.000; -516.000
360.071;   -5.275; -583.000; -579.000
360.203;  -13.375; -411.000; -364.000
360.335;   39.825;  164.000;  -16.000
360.468;  174.250; -249.000; -307.000
360.600; 2290.575; -547.000; -454.000
360.732; 3055.975; -546.000; -423.000
360.864;  419.350;-1216.000;-1044.000
360.996;  231.525; -516.000; -554.000
361.129;   19.750; -389.000; -598.000
361.261;   23.350;  110.000; -113.000
361.393;  -47.125; -252.000; -214.000
361.525;   12.950;   94.000;  244.000
361.657;  -68.600; -821.000; -703.000
361.789;    0.650; -139.000; -155.000
361.921;  148.675; -642.000; -593.000
362.053;  218.275;  524.000;  541.000
362.185;   17.400;  288.000;   72.000
362.318;  -95.925; -709.000; -705.000
362.450;   79.150;  294.000;  444.000
362.582;   36.275; -913.000; -870.000
362.714;  -47.225; -353.000; -332.000
362.846;  -86.700; -606.000; -490.000
362.978; -138.050; -941.000; -811.000
363.109;   29.725; -161.000; -260.000
363.241;  340.950; -739.000; -749.000
363.373;  451.375; -649.000; -564.000
363.505;  711.050; -186.000;  -91.000
363.637;  165.550; -787.000; -601.000
363.769; -131.700;-1067.000;-1080.000
363.901;  -75.950; -596.000; -654.000
364.033; -134.075;-1103.000;-1062.000
364.165;  -26.200; -283.000; -283.000
364.296;   71.150; -316.000; -177.000
364.428;   91.050;-1344.000;-1220.000
364.560;  -69.200; -679.000; -661.000
364.692;  -69.375; -738.000; -835.000
364.824;  196.525; -588.000; -456.000
364.955;  442.375; -402.000; -564.000
365.087; 1051.350;-1097.000; -852.000
365.219;   54.350; -686.000; -816.000
365.351;  -67.475; -526.000; -572.000
365.482;   37.125;  300.000;  240.000
365.614;  -53.950; -402.000; -314.000
365.746;  -88.700; -729.000; -752.000
365.877; -111.375; -706.000; -672.000
366.009;  293.200;  -35.000;  -62.000
366.141;  -83.600;-1249.000;-1134.000
366.272; -105.225; -803.000; -719.000
366.404; -125.775;-1005.000; -874.000
366.535;  -21.000; -139.000;  -12.000
366.667; -104.925; -644.000; -649.000
366.799;   29.700;  353.000;  203.000
366.930; -138.325; -862.000; -996.000
367.062;  119.100; -639.000; -613.000
367.193;  178.150; -872.000; -842.000
367.325;  -67.775; -580.000; -684.000
367.456;   30.500; -246.000;   31.000
367.588;  161.925; -371.000; -318.000
367.719;   30.075;  -44.000;  -45.000
367.851;  -33.225; -222.000; -241.000
367.982;  -70.825; -875.000; -732.000
368.113;   73.575; -475.000; -358.000
368.245; -126.400; -960.000; -841.000
368.376;  -28.725; -254.000; -302.000
368.508;  -50.650; -188.000; -263.000
368.639; -146.025;-1166.000;-1034.000
368.770;  -48.850; -670.000; -589.000
368.902;  -75.500; -836.000; -926.000
369.033; -110.550; -906.000; -855.000
369.164;  -62.850; -720.000; -653.000
369.296; -121.475; -452.000; -601.000
369.427;   -0.650; -209.000; -144.000
369.558;  -70.200; -593.000; -377.000
369.689;  -86.375; -721.000; -569.000
369.821; -135.875; -951.000; -845.000
369.952;  -15.275;   42.000; -108.000
370.083;  -53.100; -229.000; -108.000
370.214;  -97.200; -735.000; -650.000
370.345;  -16.650;   65.000;   81.000
370.477;  -95.775; -810.000; -790.000
370.608;  170.750; -328.000; -264.000
370.739;  -72.625;-1233.000;-1292.000
370.870;  -60.650;-1102.000; -923.000
371.001;   49.150; -378.000; -467.000
371.132;  -94.175; -754.000; -735.000
371.263;  -40.600;  -42.000; -148.000
371.394; -141.775; -841.000; -748.000
371.525;   18.425;  345.000;  225.000
371.657; -100.775; -808.000; -670.000
371.788;   60.700;  103.000;  199.000
371.919;  131.075; -384.000; -304.000
372.050; 3232.850;  -91.000; -156.000
372.181;  981.875; -188.000; -294.000
372.311;  308.850;   42.000; -127.000
372.442;   19.900; -457.000; -451.000
372.573;  -46.250; -444.000; -340.000
372.704; -134.925;-1008.000; -980.000
372.835;   50.025; -228.000; -289.000
372.966;  -76.475; -646.000; -554.000
373.097;  -84.425; -575.000; -711.000
373.228;  -59.125; -717.000; -542.000
373.359;   90.025; -824.000; -536.000
373.490;  747.000; -881.000; -727.000
373.620;  992.375;-1001.000; -803.000
373.751; 1526.125; -332.000; -396.000
373.882;  671.500; -663.000; -733.000
374.013;   35.750; -449.000; -262.000
374.143;  -51.500; -581.000; -659.000
374.274; -112.825; -987.000; -908.000
374.405;  130.400; -388.000; -276.000
374.536;  352.175; -526.000; -387.000
374.666;  930.625; -759.000; -807.000
374.797;  163.950; -817.000; -868.000
374.928;  683.575; -710.000; -560.000
375.058;  730.775; -535.000; -500.000
375.189;   56.675;  -59.000;  -93.000
375.320; -113.550; -928.000;-1034.000
375.450;  -51.575; -625.000; -616.000
375.581;  -61.875; -526.000; -436.000
375.712;  -56.925; -574.000; -250.000
375.842;  229.125; -438.000; -415.000
375.973;  169.300; -554.000; -513.000
376.103;  -64.650; -665.000; -648.000
376.234;  -76.300; -531.000; -552.000
376.364;  -53.825; -944.000; -867.000
376.495;  285.400;  925.000;  529.000
376.625;  -38.100; -472.000; -485.000
376.756;   40.900; -709.000; -678.000
376.886; -105.625;-1178.000;-1026.000
377.017;   43.675;-1048.000;-1061.000
377.147;  383.425; -786.000; -782.000
377.278;   54.250;  174.000;  228.000
377.408; -126.225; -801.000; -815.000
377.538; -121.450; -707.000; -693.000
377.669;  -97.350; -537.000; -613.000
377.799;  -98.750; -645.000; -635.000
377.929;  -76.400; -610.000; -428.000
378.060; -133.525; -781.000; -847.000
378.190;  -69.775; -726.000; -531.000
378.320;  -59.250; -401.000; -406.000
378.451;  -25.050; -131.000;  -22.000
378.581;  -29.425;  -67.000; -110.000
378.711;  124.200; 1035.000;  866.000
378.841;  -33.375; -533.000; -675.000
378.972;  -93.875; -871.000; -751.000
379.102;  -24.625; -652.000; -579.000
379.232;  -40.575; -126.000;  -73.000
379.362; -120.350;-1001.000; -885.000
379.492;  -17.750; -373.000; -424.000
379.623;   99.675;    0.000;  111.000
379.753; -120.625;-1107.000; -974.000
379.883;  169.525;   59.000;  156.000
380.013;  -21.325;-1081.000;-1017.000
380.143; -119.175;-1097.000;-1056.000
380.273; -105.250; -985.000; -861.000
380.403;  -18.675; -344.000; -257.000
380.533;  -53.600; -651.000; -664.000
380.663;   33.525;  173.000;  128.000
380.793; -124.450;-1027.000;-1074.000
380.923;  -30.475; -103.000;  -34.000
381.053; -103.975; -613.000; -623.000
381.183;  -47.350; -106.000; -248.000
381.313;    4.425; -656.000; -470.000
381.443;   12.550; -692.000; -473.000
381.573;  139.900; -402.000; -409.000
381.703;  184.275;-1249.000;-1095.000
381.833; -144.800;-1454.000;-1336.000
381.963;   83.925; -134.000;  -87.000
382.093; 1237.850; -925.000; -909.000
382.223;  385.425; -713.000; -602.000
382.353;  -33.725; -801.000; -608.000
382.482;  295.100;-1091.000; -964.000
382.612;  652.725; -872.000; -644.000
382.742;  384.425; -695.000; -622.000
382.872;  185.950; -565.000; -551.000
383.002;   42.900;  347.000; -132.000
383.131;  -39.775; -226.000; -160.000
383.261;  -51.850; -706.000; -768.000
383.391;  273.625; -552.000; -377.000
383.521; 3466.125;  451.000;  263.000
383.650;  883.325; -947.000; -904.000
383.780;  -14.025; -783.000; -656.000
383.910;   93.000;  880.000;  802.000
384.039;   -9.750; -794.000; -656.000
384.169;  128.400;-1205.000;-1017.000
384.299;  -51.475; -650.000; -662.000
384.428; -105.150; -764.000; -680.000
384.558;  -61.250; -308.000; -275.000
384.687;  -51.250; -414.000; -334.000
384.817;   -5.225;   75.000;   -2.000
384.947;   -3.925; -234.000; -141.000
385.076;  245.425;  982.000;  912.000
385.206;   87.500;  369.000;  480.000
385.335;  -42.000; -549.000; -417.000
385.465;  -88.300; -655.000; -663.000
385.594;  102.250;  -53.000;  -44.000
385.724;  337.150; -868.000; -838.000
385.853;   85.425; -296.000; -270.000
385.982; 1148.850; -743.000; -787.000
386.112; 1885.600;-1052.000; -871.000
386.241;  108.575; -307.000; -312.000
386.371;    5.900; -174.000;  -87.000
386.500;  -16.125; -825.000; -789.000
386.629;    9.300; -874.000; -817.000
386.759;   47.225;  -43.000;   68.000
386.888;  -39.275; -170.000; -250.000
387.017;  -98.125; -648.000; -620.000
387.147;  -93.375; -771.000; -798.000
387.276;  -35.850; -410.000; -397.000
387.405;  -25.750; -398.000; -342.000
387.535;  -59.525; -452.000; -361.000
387.664;  -59.775; -692.000; -620.000
387.793;   43.225; -198.000; -113.000
387.922;  426.525;  255.000;  200.000
388.052;  -16.525; -576.000; -423.000
388.181;  -21.225; -342.000; -472.000
388.310;  -47.625; -889.000; -710.000
388.439;  -72.000; -749.000; -742.000
388.568;  138.700;  365.000;  244.000
388.697;  863.025; -756.000; -653.000
388.826;  164.250; -768.000; -666.000
388.956;   32.350; -285.000; -307.000
389.085;  -45.450; -347.000; -287.000
389.214; -113.600; -842.000; -872.000
389.343;  -84.425; -645.000; -413.000
389.472;  401.925;  126.000;  149.000
389.601;  511.125;   91.000;    0.000
389.730;    2.600; -568.000; -687.000
389.859;   28.675;  226.000;   46.000
389.988;  130.950; -423.000; -408.000
390.117;  111.475; -168.000; -146.000
390.246;  -33.075; -331.000; -320.000
390.375;   54.850; -673.000; -626.000
390.504;  -74.625; -703.000; -621.000
390.633; -115.925; -672.000; -726.000
390.761;  -91.050; -732.000; -645.000
390.890;   -0.550;   -4.000; -130.000
391.019;  -52.500; -421.000; -441.000
391.148; -134.150; -826.000; -855.000
391.277;  -97.225; -576.000; -493.000
391.406; -103.125; -821.000; -805.000
391.534;    8.750;  574.000; -301.000
391.663;  -90.600; -583.000; -645.000
391.792;  -99.900; -673.000; -701.000
391.921;   46.075;   -3.000;   15.000
392.050;  112.450; -287.000; -228.000
392.178;  -71.425;-1206.000;-1061.000
392.307;   86.675; -758.000; -712.000
392.436;   38.675; -427.000; -641.000
392.564;   25.075;  166.000;   -6.000
392.693;  -97.050; -860.000; -682.000
392.822;  133.075; -529.000; -534.000
392.950;   55.825; -880.000; -714.000
393.079;  252.600; -188.000; -328.000
393.208;    9.700; -488.000; -511.000
393.336;  -22.000; -170.000; -145.000
393.465;  -73.000; -317.000; -199.000
393.593;   -9.400;   62.000;   79.000
393.722; -151.525;-1121.000; -916.000
393.850;  -35.075; -188.000;  -61.000
393.979; -146.700; -926.000; -805.000
394.107;  -68.825; -517.000; -537.000
394.236;  -33.475; -570.000; -507.000
394.364;  161.300;  383.000;  206.000
394.493;  313.225; -911.000; -767.000
394.621;   -4.375; -955.000; -916.000
394.750;  757.875; -873.000; -923.000
394.878; 3062.400; -247.000; -149.000
395.007; 4319.925; -721.000; -807.000
395.135;  331.950; -790.000; -721.000
395.263;  -99.775;-1038.000;-1040.000
395.392;    3.500;  -25.000; -107.000
395.520; -134.625; -818.000; -679.000
395.648; -102.350; -865.000; -915.000
395.777;  -34.200; -366.000; -405.000
395.905;  -71.650; -449.000; -564.000
396.033;    0.525;  217.000;  172.000
396.162;  477.575; -399.000; -453.000
396.290;  448.450;  -17.000;   -2.000
396.418;   66.500; -555.000; -514.000
396.546;  -82.025; -571.000; -466.000
396.674; -109.725; -850.000; -878.000
396.803;   -0.100;  -72.000;  -23.000
396.931;   66.950; -179.000; -199.000
397.059;    2.450;-1026.000; -989.000
397.187; -118.150;-1026.000; -975.000
397.315; -148.250; -884.000; -649.000
397.443; -107.700; -592.000; -443.000
397.572; -103.875; -578.000; -424.000
397.700;  -39.925; -607.000; -614.000
397.828;  -17.350;  120.000;  -90.000
397.956;  -53.725; -508.000; -478.000
398.084;  -67.225; -767.000; -626.000
398.212;   23.725;  137.000;  124.000
398.340;  -12.275;  -56.000;  159.000
398.468;    3.625; -390.000; -169.000
398.596; -155.500; -993.000; -953.000
398.724; -111.925; -762.000; -767.000
398.852; -171.275;-1024.000; -976.000
398.980;  -72.975; -560.000; -560.000
399.108;  -74.750; -982.000; -735.000
399.236;   10.025;   13.000;    8.000
399.363;   -7.600;  222.000;  196.000
399.491;  -83.875; -404.000; -398.000
399.619; -130.100; -829.000; -800.000
399.747; -104.825; -859.000; -771.000
399.875;   54.025;  220.000;  234.000
400.003;  -51.200; -359.000; -284.000
400.130;  -95.050; -421.000; -341.000
400.258;  -35.000;  -83.000;   38.000
400.386;  -64.475; -352.000; -168.000
400.514;  -69.775; -526.000; -587.000
400.641; -115.650; -928.000; -802.000
400.769; -153.100; -979.000; -888.000
400.897; -119.900; -838.000; -793.000
401.025;  -31.875; -166.000; -152.000
401.152;   -4.200;  220.000;   38.000
401.280;  -85.500; -430.000; -429.000
401.408; -120.275; -712.000; -576.000
401.535; -118.400; -735.000; -758.000
401.663; -195.450;-1134.000;-1054.000
401.790;  -85.325; -514.000; -525.000
401.918;   33.825;  436.000;  405.000
402.046;  -30.200;  134.000;  122.000
402.173;  -46.275;  -18.000;    7.000
402.301;  -89.875; -519.000; -397.000
402.428;   23.175;  528.000;  383.000
402.556; -157.875;-1188.000; -913.000
402.683;  -38.700;  -20.000;   -1.000
402.811;  -24.000;  -37.000; -206.000
402.938;  -31.925;   20.000;   27.000
403.066;  136.375; -574.000; -558.000
403.193;  276.575;  299.000;  239.000
403.321;  189.675; -396.000; -574.000
403.448;  268.600;   83.000;   27.000
403.575;  101.525;  -90.000;  -46.000
403.703; -103.525; -732.000; -557.000
403.830;  -68.275; -531.000; -496.000
403.957; -154.300;-1117.000;-1023.000
404.085;   -3.300;  -61.000; -172.000
404.212;   70.700;  -50.000;   63.000
404.339;  276.300; -566.000; -306.000
404.467; 6110.400; -612.000; -524.000
404.594; 4029.850; -287.000; -227.000
404.721;  867.375; -869.000; -764.000
404.848;   77.550; -113.000; -202.000
404.976; -122.100; -856.000; -783.000
405.103;  -26.100;  -14.000;  -82.000
405.230;   -0.625;  190.000;  226.000
405.357;   23.050;  117.000;   44.000
405.484;  263.475;  -49.000;    5.000
405.612;   43.825; -548.000; -563.000
405.739;  -79.400; -488.000; -243.000
405.866;   75.725;  669.000;  385.000
405.993;  -57.425; -398.000; -102.000
406.120; -148.400; -801.000; -887.000
406.247;  -64.925; -323.000; -342.000
406.374;  342.200;  540.000;  629.000
406.501;   52.500; -632.000; -702.000
406.628; -102.125; -621.000; -589.000
406.755; -118.175; -803.000; -620.000
406.882;  -56.475; -228.000; -277.000
407.009; -129.075; -719.000; -628.000
407.136;   16.300; -480.000; -401.000
407.263;   69.400; -939.000; -829.000
407.390;  -96.450; -692.000; -614.000
407.517; -177.975;-1139.000;-1187.000
407.644;  -62.750; -332.000; -256.000
407.771;  -79.100; -249.000; -287.000
407.898;    0.125;  168.000;  328.000
408.025;  -72.425; -421.000; -313.000
408.151;  -18.500;   82.000;  153.000
408.278;  -79.525; -267.000; -216.000
408.405; -128.100; -931.000; -899.000
408.532;  -73.500; -549.000; -542.000
408.659; -118.450; -677.000; -648.000
408.785; -212.000;-1298.000;-1170.000
408.912;  -71.150; -412.000; -296.000
409.039; -120.700; -610.000; -686.000
409.166; -108.825; -591.000; -555.000
409.292; -122.250; -571.000; -534.000
409.419; -122.500; -665.000; -649.000
409.546;  -90.625; -431.000; -192.000
409.672; -108.475; -713.000; -545.000
409.799;  -36.500;  -36.000;   34.000
409.926;  -37.225; -180.000; -179.000
410.052; -184.075;-1127.000;-1091.000
410.179;  -64.925; -368.000; -392.000
410.305; -110.325; -375.000; -493.000
410.432;  -64.600; -220.000; -333.000
410.558;  -90.100; -305.000; -380.000
410.685; -118.250; -688.000; -431.000
410.812; -108.075; -409.000; -588.000
410.938; -138.100; -964.000; -808.000
411.065; -103.150; -671.000; -645.000
411.191;  -30.025; -189.000; -174.000
411.317; -128.000; -823.000; -742.000
411.444;  -63.125; -317.000; -246.000
411.570;  -83.750; -339.000; -294.000
411.697; -122.550; -758.000; -752.000
411.823; -175.250; -989.000; -999.000
411.949;  -35.175;  -56.000;   17.000
412.076; -123.150; -539.000; -519.000
412.202; -126.700; -758.000; -757.000
412.329; -129.200; -798.000; -752.000
412.455; -117.825; -821.000; -657.000
412.581;  -34.200;  -15.000;  172.000
412.707;  -90.550; -540.000; -457.000
412.834;   -0.050;  156.000;  219.000
412.960;  -92.725; -785.000; -784.000
413.086; -124.850; -743.000; -701.000
413.212;  122.025;  604.000;  578.000
413.339;  -75.675; -685.000; -701.000
413.465;  -33.375; -364.000; -310.000
413.591; -105.025; -757.000; -474.000
413.717;  -66.900; -358.000; -366.000
413.843; -154.150; -839.000; -861.000
413.969;  -70.250;  -47.000; -292.000
414.096; -110.800; -679.000; -679.000
414.222;   -3.025;  -33.000;   85.000
414.348;  -62.225; -652.000; -385.000
414.474;   71.250;   38.000;  -52.000
414.600;  -32.375; -126.000; -144.000
414.726;  -26.675;  -96.000;  -55.000
414.852;  -57.050; -365.000; -342.000
414.978;   19.150;  104.000;  -18.000
415.104;   39.475;   38.000;   80.000
415.230;   14.425; -329.000; -330.000
415.356;   32.950; -409.000; -514.000
415.482;  201.800;   13.000;  -35.000
415.608;  278.225; -247.000; -323.000
415.734;  968.325;   67.000;   38.000
415.860;20397.350; -875.000; -767.000
415.986;15692.875; -685.000; -607.000
416.111; 1357.150; -798.000; -652.000
416.237;  272.925; -424.000; -571.000
416.363; 1138.950; -765.000; -733.000
416.489; 4568.025; -324.000; -251.000
416.615;  540.175; -707.000; -742.000
416.741;  -11.925; -677.000; -784.000
416.866;  -96.800; -673.000; -736.000
416.992; -125.475; -801.000; -818.000
417.118;  -41.425;  -41.000;  -80.000
417.244;  -62.850; -798.000; -531.000
417.369;  -92.550; -801.000; -612.000
417.495;  -22.400; -325.000; -254.000
417.621; -105.100;-1015.000; -803.000
417.746;   -7.525; -579.000; -572.000
417.872;   50.550; -254.000; -144.000
417.998;   46.175; -515.000; -530.000
418.123; 1058.800;-1073.000; -845.000
418.249; 5816.275; -512.000; -601.000
418.374;  859.400; -916.000; -824.000
418.500;  112.925; -383.000; -482.000
418.626;  107.450;   70.000;  -59.000
418.751;  116.750; -549.000; -448.000
418.877;  213.775; -637.000; -643.000
419.002; 1822.975; -688.000; -560.000
419.128;13420.075; -930.000; -721.000
419.253; 3540.175; -967.000; -837.000
419.379;  467.100; -391.000; -338.000
419.504;  402.175;  325.000;  415.000
419.629;  565.575; -393.000; -212.000
419.755; 3728.600; -317.000; -254.000
419.880;23075.600;  -98.000;   67.000
420.006;12186.600; -280.000; -221.000
420.131;31518.125; -662.000; -775.000
420.256; 4787.875; -315.000; -316.000
420.382;  621.450; -665.000; -687.000
420.507;   77.075; -649.000; -778.000
420.632;   86.150; -337.000; -339.000
420.758;  184.025; -251.000; -425.000
420.883;  -85.675; -876.000; -672.000
421.008; -103.575; -775.000; -619.000
421.133;  -84.175; -509.000; -467.000
421.259;  -36.625; -325.000; -259.000
421.384; -134.475; -834.000; -693.000
421.509;  -79.950;-1052.000; -862.000
421.634;  845.600; -936.000; -820.000
421.759;  395.225; -359.000; -327.000
421.885;  -78.475; -717.000; -656.000
422.010;  -85.000; -673.000; -542.000
422.135; -143.125; -695.000; -727.000
422.260;   41.450;  340.000;  280.000
422.385;  -45.450;   12.000;  -98.000
422.510;    4.450;  151.000;  -26.000
422.635;    9.475;  -87.000;  -43.000
422.760;   79.075; -766.000; -791.000
422.885;   42.925;  -57.000;  -80.000
423.010;  -44.575; -112.000; -169.000
423.135; -111.150; -481.000; -561.000
423.260;  -35.950; -150.000; -245.000
423.385;   37.525;  476.000;  222.000
423.510;   13.875;   71.000;  -22.000
423.635;   66.300;  133.000;   45.000
423.760;   52.825;  383.000;  328.000
423.885;   21.600;  336.000;  391.000
424.010;    4.950;  -68.000;  -13.000
424.135;  -34.300;    5.000;  -33.000
424.259;  -94.625; -654.000; -457.000
424.384;  -73.675; -279.000; -272.000
424.509;  -35.350; -260.000; -186.000
424.634; -104.625; -761.000; -623.000
424.759;  -24.800; -688.000; -544.000
424.883;   -7.600; -506.000; -527.000
425.008;  148.625; -502.000; -410.000
425.133; 2095.250; -679.000; -653.000
425.258; 1062.325; -517.000; -381.000
425.382;  894.675; -867.000; -774.000
425.507; 2392.625; -487.000; -543.000
425.632;  416.025; -802.000; -663.000
425.756;  481.600; -256.000; -146.000
425.881; 6931.225; -831.000; -857.000
426.006;19993.025; -604.000; -355.000
426.130; 3264.300; -696.000; -508.000
426.255;  421.425; -611.000; -491.000
426.379;  177.100; -189.000; -577.000
426.504;  380.950;  660.000;  544.000
426.629; 4140.375; -519.000; -466.000
426.753; 3045.700;   64.000;  -46.000
426.878;  336.625; -252.000; -288.000
427.002;  185.525; -651.000; -668.000
427.127; 1568.325;  -35.000; -158.000
427.251;12115.550;  372.000;  401.000
427.375; 3668.100; -191.000; -173.000
427.500; 2080.425; -616.000; -610.000
427.624;  739.000; -234.000; -400.000
427.749;   77.800; -216.000; -225.000
427.873;  -40.100; -499.000; -412.000
427.997;  -39.525; -222.000; -230.000
428.122;   55.050;  795.000;  703.000
428.246;   49.825;  433.000;  434.000
428.371; -143.750; -869.000; -773.000
428.495; -120.375; -624.000; -646.000
428.619;  -37.500; -186.000; -117.000
428.743;   12.900;   65.000;  132.000
428.868;  -10.750; -732.000; -643.000
428.992; 1210.000; -219.000; -326.000
429.116;  495.175; -329.000; -357.000
429.240;  233.700;  419.000;  426.000
429.365;  -44.300; -454.000; -574.000
429.489;  -63.100; -638.000; -647.000
429.613;   -2.725; -236.000; -177.000
429.737;   37.250; -563.000; -432.000
429.861;  251.125; -247.000; -133.000
429.985; 5718.875; -425.000; -305.000
430.109; 6738.975; -770.000; -908.000
430.234;  798.650;   76.000;  -50.000
430.358;   69.150; -250.000; -160.000
430.482;  -81.950; -672.000; -564.000
430.606;  -76.125; -655.000; -375.000
430.730;   -7.075; -437.000; -388.000
430.854;   65.600; -909.000; -835.000
430.978;  -91.375; -795.000; -764.000
431.102;  -98.825; -499.000; -422.000
431.226; -132.625; -874.000; -815.000
431.350;    8.625;  345.000;  422.000
431.474;  -82.350; -661.000; -373.000
431.597; -164.825;-1060.000; -848.000
431.721;  -89.000; -276.000; -267.000
431.845; -132.525; -704.000; -472.000
431.969;  -93.600; -304.000; -349.000
432.093;  -94.600; -395.000; -317.000
432.217;  -37.525;   32.000;   82.000
432.341;  -96.675; -523.000; -518.000
432.464;   -4.750;   96.000;   40.000
432.588;  125.125; -401.000; -329.000
432.712;   75.950;  -52.000;  -52.000
432.836;   39.825;  213.000;  263.000
432.959;  -20.775; -372.000; -311.000
433.083;   74.125;   11.000;    2.000
433.207;  379.925;  285.000;  930.000
433.330; 5273.425; -391.000; -200.000
433.454; 6865.825; -654.000; -638.000
433.578; 3915.000;  583.000;  278.000
433.701;  759.750; -623.000; -675.000
433.825;  120.050; -292.000; -299.000
433.949;  110.325;   28.000;  -72.000
434.072;   23.100; -410.000; -323.000
434.196;  -22.725; -309.000; -117.000
434.319; 3587.500;25482.000;25124.000
434.443;  681.175; -656.000; -603.000
434.566; 2846.875;  281.000;   62.000
434.690;  508.275; -637.000; -383.000
434.813;   54.250; -251.000; -173.000
434.937;  -67.500; -569.000; -696.000
435.060;  -56.525; -423.000; -332.000
435.184;  177.200; -492.000; -217.000
435.307;  115.050;  159.000;  102.000
435.431;  -12.775;  -40.000;   24.000
435.554;  -93.025; -399.000; -240.000
435.677; -100.450; -350.000; -258.000
435.801;  -49.175;  -25.000;   49.000
435.924;  -22.450;    1.000;  -67.000
436.048; -130.100;-1019.000; -732.000
436.171;  -79.950; -240.000;  -66.000
436.294;  -39.275; -248.000; -229.000
436.417;  107.325; -963.000; -849.000
436.541;  -75.725; -814.000; -840.000
436.664;  -57.675; -242.000; -316.000
436.787;  -43.350;   13.000;  113.000
436.910; -112.875; -792.000; -422.000
437.034;   -7.075;  142.000;  143.000
437.157;   21.725;  -11.000;    0.000
437.280;  -69.500; -392.000; -292.000
437.403; -105.925; -982.000; -869.000
437.526;  396.975; -903.000; -865.000
437.649; 1666.525; -505.000; -332.000
437.772;  237.100; -692.000; -540.000
437.896;  106.300;  700.000;  544.000
438.019; -120.950; -758.000; -503.000
438.142;  -87.350; -596.000; -506.000
438.265;  -67.275; -639.000; -670.000
438.388;  404.350; -520.000; -410.000
438.511;   43.450; -597.000; -394.000
438.634;  -64.175; -247.000; -125.000
438.757; -134.500; -693.000; -619.000
438.880;  -42.975;  -34.000;  -57.000
439.003;  -82.875; -417.000; -437.000
439.126;  -66.175; -287.000; -167.000
439.248;  -71.575;  -98.000; -139.000
439.371;  -42.450;    9.000;  -53.000
439.494;   13.375;  510.000;  439.000
439.617;  -61.400;   65.000;  -88.000
439.740; -182.450; -968.000; -816.000
439.863; -127.825; -755.000; -595.000
439.986; -126.475; -476.000; -431.000
440.108;  -53.250; -161.000; -112.000
440.231; -174.900; -950.000; -836.000
440.354;  -53.125;  -64.000; -150.000
440.477;  -25.125; -566.000; -542.000
440.599;  -25.475; -200.000; -225.000
440.722; -132.075; -709.000; -586.000
440.845;   58.150;  751.000;  928.000
440.968; -124.625; -415.000; -311.000
441.090;  -79.900; -199.000;  -33.000
441.213; -178.450;-1021.000; -825.000
441.336;  -51.100; -159.000;   -5.000
441.458; -101.150; -549.000; -396.000
441.581; -100.225; -628.000; -629.000
441.703;  -93.950; -152.000;   13.000
441.826; -127.275; -557.000; -400.000
441.948;  -58.350;   56.000;   51.000
442.071;   17.975;  555.000;  424.000
442.193; -123.850; -531.000; -485.000
442.316;    7.175;  152.000;   97.000
442.438;   42.600; -233.000;  -10.000
442.561;   51.250;  272.000;  262.000
442.683;  351.625; -809.000; -522.000
442.806;  874.450;   -8.000;   74.000
442.928;  -19.175; -859.000; -604.000
443.051;  -80.450; -577.000; -373.000
443.173; -109.425; -341.000; -339.000
443.295;  -98.075; -263.000; -371.000
443.418;  -68.250; -321.000;  -29.000
443.540;  -32.825; -106.000;   -4.000
443.662; -130.950; -563.000; -465.000
443.785;  -19.575;  335.000;  199.000
443.907;  -89.800; -362.000; -208.000
444.029; -127.475; -767.000; -494.000
444.152; -144.300; -644.000; -554.000
444.274;  -45.775;  -18.000;  -24.000
444.396; -112.900; -461.000; -221.000
444.518; -123.175; -691.000; -454.000
444.640; -108.625; -268.000; -111.000
444.763;  -25.675;  388.000;  249.000
444.885; -117.925; -432.000; -392.000
445.007;  -35.975;   35.000;   86.000
445.129; -131.125; -610.000; -515.000
445.251; -107.850; -372.000; -439.000
445.373; -135.150; -537.000; -386.000
445.495;    3.750;  242.000;  350.000
445.617;   36.275;  853.000;  753.000
445.739;  -77.675; -215.000;  -97.000
445.861;  -50.625; -245.000; -112.000
445.984;  -53.450; -267.000; -101.000
446.105;  118.650; -418.000; -251.000
446.227;  468.150; -176.000;  -19.000
446.349;  -22.175; -358.000; -249.000
446.471; -103.475; -615.000; -448.000
446.593;  -81.625; -316.000;   19.000
446.715;  -16.575;  -67.000;   41.000
446.837;   44.575;  697.000;  832.000
446.959;  -97.275; -457.000; -478.000
447.081; -131.025; -628.000; -518.000
447.203;   38.475;  862.000;  834.000
447.325;  -96.000; -270.000;   42.000
447.446;  -21.025;  286.000;  530.000
447.568; -147.650; -921.000; -803.000
447.690;  -78.200; -236.000; -245.000
447.812; -159.350; -798.000; -519.000
447.933;  -40.575;  155.000;  127.000
448.055;  -88.425; -306.000; -261.000
448.177;  102.975;   31.000;   79.000
448.299;   51.275; -935.000; -727.000
448.420;    0.675;  -25.000;  159.000
448.542;  -55.125;   -3.000;   33.000
448.664;  -25.425;  109.000;  322.000
448.785;  -39.125;  265.000;   83.000
448.907;  -87.725; -614.000; -353.000
449.028;  -52.875; -771.000; -471.000
449.150;   56.925;  492.000;  589.000
449.272; -197.575;-1044.000; -913.000
449.393;   28.250;  612.000;  694.000
449.515; -145.350; -634.000; -581.000
449.636;  -70.500; -264.000; -155.000
449.758;   69.200;  763.000;  622.000
449.879;  -99.350; -498.000; -396.000
450.001;  -89.075; -149.000;  -49.000
450.122;  -41.050;  -95.000;  162.000
450.244;  -18.775;   37.000;  364.000
450.365;  -98.800; -495.000; -301.000
450.486;  -28.775;   80.000;  268.000
450.608;   17.475;  393.000;  326.000
450.729;   68.675;  578.000;  645.000
450.850;    7.075; -574.000; -466.000
450.972;  771.050; -552.000; -389.000
451.093; 5312.050;  190.000;  588.000
451.214; 2487.450; -516.000; -337.000
451.336;  408.600;  773.000;  579.000
451.457;   70.400;  264.000;  393.000
451.578;  -29.600; -118.000;  -74.000
451.699; -129.350; -546.000; -540.000
451.821;  -63.900; -284.000;  -50.000
451.942;  -14.200;  278.000;  285.000
452.063;   26.075;  228.000;  419.000
452.184;  558.075;  -54.000;  -49.000
452.305; 1203.125;  103.000;  170.000
452.427;  172.800; -549.000; -301.000
452.548;  -33.750;   23.000;   79.000
452.669;  -62.625; -257.000;  -89.000
452.790;  -53.150;    3.000;  -18.000
452.911;  -15.025;  195.000;  259.000
453.032;  -72.225; -289.000;  -60.000
453.153;  -56.975;  -29.000;   81.000
453.274;   47.850;  737.000;  868.000
453.395;  -61.325;  -51.000;  175.000
453.516;   36.050; 1317.000; 1388.000
453.637;  -82.475; -205.000; -150.000
453.758;  -54.825;   15.000;   69.000
453.879; -126.275; -462.000; -250.000
454.000;   60.600; 1086.000;  948.000
454.121; -133.150; -554.000; -326.000
454.242; -123.200; -599.000; -383.000
454.362;  -64.050;  -99.000;  114.000
454.483;  -41.250; -309.000; -229.000
454.604;   45.950;  512.000;  580.000
454.725; -145.225; -627.000; -555.000
454.846; -103.975; -474.000; -406.000
454.967;  -29.675;  230.000;  539.000
455.087;  -31.175;  179.000;  153.000
455.208;   20.875;  554.000;  856.000
455.329;  -72.800;  -22.000;   82.000
455.450;   39.400;  473.000;  633.000
455.570;  -88.925; -234.000; -211.000
455.691;  -52.050;  201.000;  407.000
455.812; -112.725; -270.000;  -92.000
455.932;  -53.175;  107.000;  -97.000
456.053;  -81.250;   36.000;   24.000
456.173; -114.375; -433.000; -355.000
456.294; -148.475; -476.000; -303.000
456.415;  -77.300;  -73.000;   70.000
456.535;  -35.675;  297.000;  273.000
456.656;  -49.575;  132.000;  240.000
456.776;  -69.275;    3.000;  298.000
456.897;   -8.875;  308.000;  513.000
457.017;  -89.000; -153.000;   -3.000
457.138; -112.450; -402.000; -249.000
457.258;  -38.250;  263.000;  224.000
457.379;  -18.525;  509.000;  521.000
457.499;  -35.775;  443.000;  432.000
457.620; -126.375; -407.000; -231.000
457.740; -104.400; -132.000;  -11.000
457.860;  -53.700;   87.000;   44.000
457.981;  -54.175;  132.000;  124.000
458.101;  -79.375;  -89.000;   40.000
458.221;  -35.600;  336.000;  402.000
458.342;  -55.800;   -4.000;  -37.000
458.462;   16.425;  617.000;  352.000
458.582;  -29.800; -302.000; -294.000
458.703;   -0.250;  303.000;  154.000
458.823;  -25.650;   22.000;  163.000
458.943;   21.850;  341.000;  467.000
459.063;  -23.200; 1124.000;  192.000
459.183;  -36.650;  328.000;  313.000
459.304;   -7.100;  315.000;  517.000
459.424;  -69.425; -246.000;  -89.000
459.544;  318.000;  388.000;  764.000
459.664;  880.975;  499.000;  506.000
459.784;  333.925; 1004.000; 1175.000
459.904;   52.525;  867.000;  744.000
460.024;   74.725;  867.000;  684.000
460.144;    1.475;  449.000;  554.000
460.264;   -9.925;  515.000;  327.000
460.385;  -96.775; -145.000; -119.000
460.505;   38.975;  905.000;  858.000
460.625;  -95.550;  -17.000;  -68.000
460.745;  -32.625;  396.000;  541.000
460.864;  -55.700;  153.000;  469.000
460.984;   11.275;  499.000;  573.000
461.104;  127.250; 1656.000; 1775.000
461.224;   13.800;  657.000;  650.000
461.344;  -22.200;  431.000;  360.000
461.464;  -35.325;  258.000;  513.000
461.584;  -33.650;  283.000;  466.000
461.704;  -55.050;   58.000;  108.000
461.824;  -59.400;  238.000;  259.000
461.943;  -43.950;  191.000;  130.000
462.063;  -76.975;    2.000;  324.000
462.183;   18.600;  639.000;  717.000
462.303;   88.525; 1678.000; 1230.000
462.422;   30.300;  781.000;  840.000
462.542;  -37.375;  271.000;  391.000
462.662;   15.150;  353.000;  380.000
462.782;  241.250;  833.000;  572.000
462.901;  506.400;  545.000;  717.000
463.021;  292.700; 1702.000; 1638.000
463.141;   -8.650;  337.000;  770.000
463.260;  -35.425;  614.000;  474.000
463.380;   23.200;  902.000;  884.000
463.499;  -27.075;  342.000;  332.000
463.619;  -35.875;  581.000;  559.000
463.738;   88.925; 1644.000;  903.000
463.858;   14.750;  657.000;  811.000
463.978;  -38.525;  542.000;  396.000
464.097;   51.525;  921.000; 1114.000
464.217;  111.950; 1196.000; 1143.000
464.336;  116.650; 1068.000; 1130.000
464.455;  -31.175;  328.000;  659.000
464.575;   22.750;  597.000;  602.000
464.694;  145.725; 1204.000; 1179.000
464.814;  118.250; 1190.000; 1138.000
464.933;   65.825; 1095.000; 1027.000
465.052;   89.375; 1412.000; 1054.000
465.172;   67.325;  922.000;  799.000
465.291;  121.425; 1376.000; 1320.000
465.410;   12.450;  462.000;  735.000
465.530;   81.125; 1355.000; 1310.000
465.649;   59.350; 1209.000; 1273.000
465.768;  134.550; 1673.000; 1508.000
465.888;   39.275;  941.000; 1174.000
466.007;   80.450; 1335.000; 1440.000
466.126;   -1.975;  721.000;  641.000
466.245;   37.050; 1176.000; 1187.000
466.364;   12.775;  950.000; 1060.000
466.484;   53.325; 1024.000; 1213.000
466.603;   33.950; 1101.000; 1222.000
466.722;  116.000; 1490.000; 1769.000
466.841;   71.300; 1151.000; 1401.000
466.960;   37.975; 1069.000;  972.000
467.079;  123.750; 1971.000; 1786.000
467.198;   50.450; 1238.000; 1181.000
467.317;   76.975; 1768.000; 1162.000
467.436;   76.225; 1709.000; 1261.000
467.555;  123.875; 1796.000; 1746.000
467.674;   50.050; 1227.000; 1329.000
467.793;   44.675; 1376.000; 1374.000
467.912;   82.850; 1658.000; 1539.000
468.031;  125.775; 2038.000; 1930.000
468.150;  139.850; 1842.000; 1837.000
468.269;  186.325; 2313.000; 2090.000
468.388;  176.850; 2168.000; 2339.000
468.507;  250.200; 2884.000; 2903.000
468.626;  254.050; 2555.000; 2541.000
468.744;  140.225; 2018.000; 2174.000
468.863;  196.075; 2312.000; 2523.000
468.982;   78.225; 1503.000; 1555.000
469.101;  219.350; 2788.000; 2692.000
469.220;  139.400; 2333.000; 2176.000
469.338;  253.875; 2935.000; 3051.000
469.457;  180.875; 2719.000; 2545.000
469.576;  334.375; 3953.000; 3784.000
469.695;  226.650; 2877.000; 3066.000
469.813;  417.650; 4148.000; 4192.000
469.932;  400.000; 4255.000; 4485.000
470.051;  413.925; 4075.000; 4161.000
470.169;  853.425; 4470.000; 4338.000
470.288; 1544.925; 4700.000; 4809.000
470.406;  935.100; 5059.000; 5194.000
470.525;  630.325; 6101.000; 5787.000
470.644;  629.875; 6847.000; 6794.000
470.762;  818.225; 8397.000; 7873.000
470.881;  903.775; 8651.000; 8464.000
470.999; 1018.725; 9685.000; 9151.000
471.118; 1107.250;11174.000;10711.000

