
Integration time [ms]: 200.000
Averaging Nr. [scans]: 10
Smoothing Nr. [pixels]: 0
Data measured with spectrometer [name]: 2101012U2
Wave   ;Sample   ;Dark     ;Reference
[nm]   ;[counts] ;[counts] ;[counts] 

197.733;  167.800;  516.000;  404.000
197.879; -164.700; -610.000; -634.000
198.025;  -88.900; -475.000; -420.000
198.171; -151.600; -602.000; -612.000
198.317;  -54.300; -401.000; -316.000
198.463; -143.200; -655.000; -404.000
198.609;   35.000;  181.000; -137.000
198.755; -164.600; -644.000; -410.000
198.901; -119.700; -505.000; -424.000
199.047; -115.800; -615.000; -488.000
199.193;  -56.700; -230.000; -468.000
199.339;  -73.300; -222.000; -369.000
199.485;   89.200;  330.000;  271.000
199.631;   30.500;  227.000;  310.000
199.777; -103.800; -466.000; -398.000
199.923; -111.500; -610.000; -424.000
200.069;   32.900; -141.000;  -58.000
200.215;  143.000;  128.000;  453.000
200.361;   86.700;  243.000;  477.000
200.507; -159.200; -600.000; -373.000
200.653;  -45.200; -371.000; -194.000
200.798;  -66.300; -215.000; -125.000
200.944;    1.200; -146.000;  -41.000
201.090;   86.100;   61.000;  222.000
201.236;   13.600; -116.000; -158.000
201.382;  287.700;  874.000;  903.000
201.528;   -1.000;  -58.000;  -48.000
201.674; -105.000; -386.000; -293.000
201.819; -129.800; -540.000; -439.000
201.965; -144.600; -699.000; -447.000
202.111;  -27.700; -273.000; -226.000
202.257;  -57.300; -250.000; -238.000
202.402;   17.900;   13.000;  -36.000
202.548;  -59.900; -169.000; -116.000
202.694;  190.400;  410.000; -183.000
202.840; -156.100; -603.000; -531.000
202.985; -144.300; -681.000; -639.000
203.131; -227.400; -832.000; -666.000
203.277;  -56.800; -199.000; -262.000
203.423; -102.100; -434.000; -520.000
203.568;  -84.600; -462.000; -237.000
203.714; -127.600; -535.000; -542.000
203.860; -181.200; -682.000; -641.000
204.005;   35.300;  112.000;  167.000
204.151;  190.400;  561.000;  556.000
204.296;  -91.200; -354.000; -221.000
204.442; -146.300; -600.000; -547.000
204.588; -158.200; -592.000; -579.000
204.733;   64.900;  178.000;  168.000
204.879; -254.500;-1018.000; -822.000
205.025;    8.900;  -99.000;  126.000
205.170;   48.500;  -17.000;   94.000
205.316;  167.700;  438.000;  661.000
205.461; -159.200; -698.000; -554.000
205.607;  163.100;  609.000;  665.000
205.752; -156.300; -626.000; -551.000
205.898; -111.500; -501.000; -391.000
206.043; -106.100; -578.000; -506.000
206.189;  -60.800; -243.000; -285.000
206.334;  158.700;  554.000;  606.000
206.480;  171.300;  409.000;  239.000
206.625; -160.300; -529.000; -552.000
206.771;  -81.200; -451.000; -373.000
206.916;  -63.900; -210.000; -537.000
207.062; -139.900; -545.000; -591.000
207.207; -119.600; -546.000; -443.000
207.353;  132.400;  185.000;  460.000
207.498;   42.700;  196.000;   85.000
207.643;  -91.600; -501.000; -370.000
207.789; -253.500;-1069.000; -910.000
207.934; -177.300; -665.000; -713.000
208.080;  -65.300; -154.000;   66.000
208.225;    6.500;  -22.000;  -57.000
208.370; -147.300; -727.000; -619.000
208.516; -141.600; -741.000; -487.000
208.661;  -43.400; -127.000;  -69.000
208.806;  -25.400; -165.000; -171.000
208.952; -260.100;-1044.000; -731.000
209.097;  163.500;  378.000;  349.000
209.242;  -93.700; -307.000; -382.000
209.387;  114.500;  392.000;  350.000
209.533;  -82.300; -321.000; -350.000
209.678;  172.400;  472.000;  543.000
209.823;  -73.600; -408.000; -310.000
209.969; -195.500; -860.000; -757.000
210.114; -198.700; -907.000; -719.000
210.259; -227.000; -939.000; -889.000
210.404;   -8.100; -171.000;  103.000
210.549;   17.300;  108.000;    3.000
210.695;  -11.300;   -3.000;  -95.000
210.840;  113.600;   94.000;   67.000
210.985; -125.200; -484.000; -303.000
211.130;  153.200;  268.000;  406.000
211.275;   40.800;  207.000;  199.000
211.420; -113.800; -300.000; -289.000
211.566; -147.500; -536.000; -489.000
211.711;   76.900;  218.000;  157.000
211.856; -110.200; -545.000; -519.000
212.001;   27.700;  151.000;   44.000
212.146;   29.000;  153.000;   49.000
212.291;    2.500; -210.000; -186.000
212.436;  -40.200; -280.000;   -6.000
212.581; -146.000; -685.000; -653.000
212.726; -134.900; -487.000; -538.000
212.871;  -77.100; -552.000; -217.000
213.016; -328.200;-1172.000;-1029.000
213.161;  119.400;  406.000;  291.000
213.306; -134.200; -435.000; -577.000
213.451; -203.400; -778.000; -689.000
213.596;  -69.500; -455.000; -347.000
213.741; -113.800; -448.000; -538.000
213.886; -161.000; -498.000; -517.000
214.031;  -38.100; -294.000; -124.000
214.176;  -92.000; -408.000; -341.000
214.321;  -31.500; -296.000; -157.000
214.466;  -34.500; -163.000;  -43.000
214.611;    9.000;  -61.000;  -10.000
214.756; -218.400; -948.000; -858.000
214.901;  -37.500; -388.000; -226.000
215.046; -244.100; -797.000; -825.000
215.191;   79.800;  128.000;   35.000
215.336;  -33.400; -157.000;  -19.000
215.480; -148.700; -684.000; -505.000
215.625;   -1.000; -175.000;  -19.000
215.770; -149.600; -757.000; -662.000
215.915;  -14.900;   -5.000;  -97.000
216.060;   13.900; -113.000;  -21.000
216.205; -204.100; -731.000; -779.000
216.349; -114.100; -470.000; -533.000
216.494; -248.600; -939.000; -867.000
216.639; -237.000; -823.000; -888.000
216.784; -158.000; -577.000; -525.000
216.929;  109.400;  392.000;  281.000
217.073;   -4.300; -244.000;  -31.000
217.218;   25.400;   78.000;  -47.000
217.363; -141.700; -656.000; -618.000
217.507; -152.500; -623.000; -588.000
217.652; -269.100; -845.000; -874.000
217.797; -178.600; -708.000; -659.000
217.942; -231.200; -856.000; -720.000
218.086;  179.600;  608.000;  539.000
218.231;  -25.200; -174.000;  -26.000
218.376;  -56.800; -337.000; -229.000
218.520;   16.000;  -41.000;   96.000
218.665;  -63.400; -338.000; -204.000
218.810;  -61.500; -275.000; -233.000
218.954;   51.600;  201.000;   35.000
219.099; -212.100; -713.000; -963.000
219.243; -142.100; -589.000; -554.000
219.388;  -39.000; -264.000; -136.000
219.532;   -0.400; -116.000; -116.000
219.677; -139.800; -564.000; -521.000
219.822;   22.500;   33.000;   89.000
219.966;   39.000;   17.000;  -99.000
220.111;  -83.600; -328.000;  -40.000
220.255; -185.400; -797.000; -750.000
220.400;  -43.000; -180.000; -146.000
220.544; -143.400; -516.000; -450.000
220.689; -102.000; -422.000; -451.000
220.833;  -32.800; -123.000;  -58.000
220.978;  -73.900; -393.000; -563.000
221.122;   62.000;  319.000;  307.000
221.267; -208.500; -906.000; -837.000
221.411; -133.700; -478.000; -394.000
221.555;   -5.400; -104.000;  -23.000
221.700; -105.300; -329.000; -222.000
221.844;   99.600;  255.000;  272.000
221.989;  -63.600; -328.000; -311.000
222.133;  -75.000; -289.000; -307.000
222.277;   18.800;    5.000;   78.000
222.422;   73.000;  227.000;  113.000
222.566;  -46.900; -381.000; -214.000
222.711; -101.700; -414.000; -479.000
222.855; -131.000; -643.000; -586.000
222.999; -142.500; -642.000; -717.000
223.144;  -47.300; -195.000; -194.000
223.288;  137.200;  423.000;  251.000
223.432;   43.800;  184.000;  230.000
223.576;   65.800;  152.000;  -21.000
223.721;  112.100;  364.000;  273.000
223.865; -102.800; -472.000; -475.000
224.009;  475.900; 1673.000; 1631.000
224.153; -128.700; -660.000; -671.000
224.298; -140.900; -531.000; -489.000
224.442;  -42.300;  -74.000;  -33.000
224.586;  -16.700; -169.000; -106.000
224.730; -200.200; -858.000; -670.000
224.875; -228.500; -739.000; -688.000
225.019;   22.500;  102.000;  188.000
225.163;  117.100;  208.000;  341.000
225.307;   59.100;   97.000;  -91.000
225.451;  120.500;  360.000;  481.000
225.595;   66.600;  264.000;  176.000
225.739;  -32.400; -170.000;  -94.000
225.884;   39.700;   86.000;    5.000
226.028; -177.100; -760.000; -626.000
226.172;  -59.200; -260.000; -273.000
226.316; -250.700; -941.000; -902.000
226.460; -121.800; -645.000; -493.000
226.604;  -64.800; -406.000; -400.000
226.748; -220.300; -836.000; -733.000
226.892;  -63.800; -227.000; -181.000
227.036;  -66.000; -537.000; -447.000
227.180; -100.400; -551.000; -375.000
227.324; -160.600; -561.000; -580.000
227.468; -220.800; -819.000; -717.000
227.612;   49.200;  242.000;  -28.000
227.756; -184.300; -845.000; -698.000
227.900;  136.500;  342.000;  441.000
228.044; -102.900; -509.000; -290.000
228.188;  152.200;  448.000;  568.000
228.332; -172.600; -546.000; -472.000
228.476;  -12.200; -223.000; -149.000
228.620;  -47.100; -210.000; -150.000
228.764;  172.300;  431.000;  349.000
228.908;  -20.000; -155.000;   30.000
229.052; -124.600; -615.000; -528.000
229.195;    6.800; -172.000;   13.000
229.339;  -41.800; -235.000; -305.000
229.483;  -46.100;    5.000; -162.000
229.627;  -10.300; -156.000;  139.000
229.771;  -89.900; -218.000; -294.000
229.915;   52.200;  230.000;   79.000
230.059; -119.700; -648.000; -663.000
230.202;  -61.000; -370.000; -317.000
230.346;  -13.600; -107.000;  107.000
230.490; -120.600; -489.000; -521.000
230.634; -202.900; -736.000; -553.000
230.777;  202.000;  478.000;  509.000
230.921;  -95.200; -450.000; -359.000
231.065;  -94.700; -246.000; -286.000
231.209;   67.200;  261.000;  265.000
231.352;   76.100;   54.000;   40.000
231.496;   46.600;  568.000;  188.000
231.640; -146.300; -693.000; -621.000
231.783;  139.600;  546.000;  525.000
231.927;  -82.900; -294.000; -365.000
232.071; -243.500; -962.000; -736.000
232.214; -226.300; -980.000; -764.000
232.358; -159.600; -683.000; -599.000
232.502;   34.000;  -19.000;    7.000
232.645; -271.200;-1090.000; -927.000
232.789;  -40.300; -257.000; -218.000
232.933;  -58.800; -407.000; -224.000
233.076; -243.300;-1038.000; -897.000
233.220; -203.100; -752.000; -777.000
233.363; -131.500; -669.000; -477.000
233.507;  169.100;  371.000;  129.000
233.650; -175.700; -764.000; -834.000
233.794;  101.000;  438.000;  461.000
233.938; -112.600; -530.000; -362.000
234.081;  -28.300;  -93.000;   31.000
234.225;  -93.400; -631.000; -539.000
234.368; -227.300; -773.000; -723.000
234.512;  -78.300; -385.000; -299.000
234.655; -176.400; -582.000; -555.000
234.798; -124.900; -493.000; -466.000
234.942; -246.400; -884.000;-1002.000
235.085; -129.500; -651.000; -443.000
235.229; -115.900; -405.000; -410.000
235.372;  -93.300; -247.000; -191.000
235.516; -107.400; -397.000; -321.000
235.659;   55.700;   92.000;  121.000
235.802;  -35.000;  -38.000;  -22.000
235.946;   52.700;  335.000;  215.000
236.089;   76.500;  126.000;  250.000
236.233;  138.900;  275.000;  298.000
236.376;  -90.700; -235.000; -378.000
236.519;  -76.700; -297.000; -319.000
236.663;   -4.500; -215.000; -117.000
236.806; -259.000;-1029.000; -999.000
236.949;  141.200;  543.000;  431.000
237.092;  167.500;  412.000;  391.000
237.236; -131.100; -589.000; -502.000
237.379;  155.200;  352.000;  428.000
237.522; -223.000; -879.000; -768.000
237.666;  -20.400; -271.000;   18.000
237.809; -235.700; -851.000; -823.000
237.952;   97.800;  469.000;  271.000
238.095; -109.800; -447.000; -442.000
238.238;  185.100;  688.000;  700.000
238.382;   12.900;  166.000;  103.000
238.525; -117.100; -598.000; -511.000
238.668; -262.800;-1060.000; -985.000
238.811; -160.600; -638.000; -643.000
238.954;  -92.000; -483.000; -334.000
239.097;  221.300;  617.000;  664.000
239.241;   77.300;  394.000;  326.000
239.384;  -61.500; -254.000; -214.000
239.527; -101.300; -424.000; -224.000
239.670; -307.800; -994.000;-1091.000
239.813; -171.100; -696.000; -658.000
239.956;  165.300;  579.000;  473.000
240.099; -229.200; -778.000; -725.000
240.242;  148.200;  428.000;  432.000
240.385;  132.800;  466.000;  450.000
240.528; -131.200; -706.000; -473.000
240.671;   31.000;  189.000;  134.000
240.814;  -50.500; -441.000; -158.000
240.957; -194.800; -767.000; -578.000
241.100; -153.800; -779.000; -755.000
241.243; -290.700;-1234.000; -893.000
241.386; -114.200; -508.000; -379.000
241.529; -183.000; -735.000; -547.000
241.672; -124.100; -566.000; -495.000
241.815; -237.200; -832.000; -808.000
241.958;  -35.700; -125.000; -182.000
242.101; -153.800; -545.000; -390.000
242.244;  -80.300; -270.000; -325.000
242.387;  -80.400; -304.000; -246.000
242.530;  154.300;  470.000;  134.000
242.673; -102.900; -381.000; -309.000
242.815; -227.900; -925.000; -899.000
242.958; -105.900; -482.000; -381.000
243.101;   49.400;  132.000;  187.000
243.244; -145.700; -564.000; -521.000
243.387;  -63.300; -313.000; -316.000
243.530; -177.200; -657.000; -674.000
243.672;   41.800;   43.000;  -92.000
243.815; -109.500; -355.000; -283.000
243.958;   37.900;   98.000;  -26.000
244.101;   -7.700;   59.000;  -16.000
244.243;   -3.400;  -47.000;  101.000
244.386; -216.300; -761.000; -630.000
244.529;   -6.600; -132.000; -139.000
244.672; -291.900;-1154.000; -951.000
244.814; -201.200; -621.000; -794.000
244.957;  -64.100; -380.000; -304.000
245.100; -126.900; -489.000; -489.000
245.242;  -79.200; -387.000; -374.000
245.385;   -9.700;  -59.000;  -39.000
245.528; -261.000; -871.000; -705.000
245.670;  209.900;  612.000;  634.000
245.813; -156.900; -599.000; -547.000
245.956;  -29.700; -324.000; -275.000
246.098; -164.900; -508.000; -650.000
246.241;   56.900;  194.000;   48.000
246.383;  -32.300; -119.000;  -73.000
246.526; -137.400; -454.000; -525.000
246.669; -231.100; -889.000; -780.000
246.811;   41.500;  172.000;   -1.000
246.954; -140.700; -512.000; -426.000
247.096;  -21.500;  -84.000;   -6.000
247.239; -109.200; -482.000; -445.000
247.381; -146.900; -647.000; -488.000
247.524;  188.700;  645.000;  679.000
247.666;   23.300;   58.000;   11.000
247.809; -224.400; -887.000; -691.000
247.951;    6.900;  -75.000;  138.000
248.094;  116.600;  432.000;  308.000
248.236; -324.000;-1262.000;-1238.000
248.378;   20.900; -356.000;  -81.000
248.521;  -42.400; -334.000; -337.000
248.663;  -83.800; -236.000; -267.000
248.806;  -20.500; -300.000; -266.000
248.948; -176.900; -886.000; -763.000
249.090;  -79.700; -428.000; -398.000
249.233;  -49.300; -344.000; -381.000
249.375; -147.000; -474.000; -451.000
249.518;    2.900;  -83.000; -133.000
249.660;   13.900; -103.000;    3.000
249.802; -318.700;-1303.000;-1189.000
249.945; -136.600; -612.000; -540.000
250.087; -226.000; -834.000; -768.000
250.229;  -93.400; -362.000; -480.000
250.371; -115.400; -494.000; -439.000
250.514;  -70.800; -310.000; -244.000
250.656;  -84.700;   69.000;  102.000
250.798; -215.500; -849.000; -800.000
250.940; -122.400; -322.000; -322.000
251.083;  -18.000; -335.000; -111.000
251.225;  157.000;  338.000;  310.000
251.367;  -36.800; -274.000; -373.000
251.509;  -47.100; -265.000; -210.000
251.651; -183.600; -731.000; -671.000
251.794;  100.100;  538.000;  632.000
251.936; -181.800; -821.000; -747.000
252.078; -116.600; -540.000; -461.000
252.220; -136.300; -645.000; -477.000
252.362;  177.300;  344.000;  462.000
252.504; -109.700; -677.000; -584.000
252.646; -223.300; -875.000; -722.000
252.788;   43.800;   14.000; -128.000
252.931;  -52.000; -257.000; -253.000
253.073;  -42.900; -376.000; -317.000
253.215;   18.600;  141.000;  122.000
253.357;  -10.500;   82.000; -153.000
253.499;  -94.300; -374.000; -234.000
253.641; -173.800; -749.000; -594.000
253.783; -193.000; -609.000; -527.000
253.925; -155.900; -586.000; -591.000
254.067; -179.300; -744.000; -667.000
254.209;  -43.100; -391.000; -259.000
254.351; -238.600; -865.000; -883.000
254.493; -101.800; -441.000; -417.000
254.635; -190.200; -936.000; -818.000
254.777; -139.600; -752.000; -687.000
254.918; -127.600; -512.000; -430.000
255.060; -116.900; -551.000; -395.000
255.202; -100.700; -473.000; -261.000
255.344; -124.400; -658.000; -455.000
255.486; -111.600; -471.000; -406.000
255.628; -223.300; -780.000; -781.000
255.770; -134.300; -676.000; -536.000
255.912;  -84.100; -559.000; -468.000
256.053; -165.000; -730.000; -508.000
256.195;  328.000; 1008.000;  903.000
256.337; -200.900; -861.000; -595.000
256.479;  152.300;  532.000;  416.000
256.621;  -87.900; -394.000; -212.000
256.762; -178.000; -789.000; -742.000
256.904;  114.600;  485.000;  487.000
257.046;  -88.600; -381.000; -271.000
257.188;  -67.000; -351.000; -264.000
257.329; -103.300; -525.000; -464.000
257.471; -216.800; -939.000; -807.000
257.613; -108.300; -584.000; -498.000
257.755; -313.200;-1073.000; -982.000
257.896;   88.600;  286.000;  392.000
258.038; -104.500; -403.000; -352.000
258.180;  -45.300; -354.000; -279.000
258.321; -147.000; -581.000; -457.000
258.463;   -1.200;  -71.000;  133.000
258.605; -139.600; -562.000; -570.000
258.746; -181.400; -886.000; -772.000
258.888; -286.400;-1026.000;-1020.000
259.029;   38.300;  121.000;   -8.000
259.171; -146.800; -614.000; -550.000
259.313;   21.500;  -49.000;  -47.000
259.454; -146.500; -536.000; -414.000
259.596;  -73.900; -483.000; -390.000
259.737; -130.800; -590.000; -474.000
259.879;  116.700;  217.000;  311.000
260.020;  194.600;  901.000;  636.000
260.162;    7.300; -146.000; -253.000
260.303; -223.500; -768.000; -687.000
260.445; -126.300; -609.000; -613.000
260.586;   90.700;  392.000;  157.000
260.728;  -83.700; -360.000; -248.000
260.869; -115.800; -350.000; -343.000
261.011;  199.800;  706.000;  537.000
261.152; -110.900; -479.000; -319.000
261.293; -150.100; -576.000; -595.000
261.435;  -28.500; -219.000; -184.000
261.576;  -66.500; -455.000; -325.000
261.718;  135.000;  420.000;  470.000
261.859; -225.600; -940.000; -949.000
262.000; -261.900; -951.000;-1016.000
262.142;  -28.700;  -52.000;  -60.000
262.283; -210.300; -808.000; -691.000
262.424; -182.500; -666.000; -625.000
262.566; -294.100;-1161.000; -983.000
262.707; -211.300; -840.000; -830.000
262.848; -230.400; -769.000; -726.000
262.990;  -79.200; -362.000; -345.000
263.131;  212.400;  650.000;  681.000
263.272;    2.500;  -61.000;  -41.000
263.413; -153.900; -589.000; -561.000
263.555; -133.300; -669.000; -143.000
263.696; -167.100; -550.000; -641.000
263.837; -108.400; -449.000; -551.000
263.978;   15.200;   -5.000;  -77.000
264.119;  -42.300; -283.000; -264.000
264.261; -202.900; -847.000; -630.000
264.402;   31.300;   33.000;   40.000
264.543; -137.200; -509.000; -524.000
264.684;   27.200;   61.000;  -50.000
264.825; -128.200; -816.000; -538.000
264.966;   42.700;  -84.000;  -67.000
265.107; -193.300; -646.000; -670.000
265.248; -242.100; -825.000; -812.000
265.390;   21.400;  152.000;   -9.000
265.531;   -3.000; -238.000; -107.000
265.672; -135.300; -557.000; -630.000
265.813;  168.600;  563.000;  439.000
265.954; -284.400; -959.000; -940.000
266.095;    9.100; -372.000; -322.000
266.236; -165.000; -686.000; -548.000
266.377;  -58.300; -243.000; -297.000
266.518; -106.400; -619.000; -547.000
266.659;  129.900;  170.000;  268.000
266.800;   33.300;   83.000;   85.000
266.941; -140.100; -487.000; -478.000
267.082;   58.400;  354.000;   99.000
267.223;  -99.000; -344.000; -273.000
267.364; -193.200; -892.000; -686.000
267.504;   -0.900;    3.000;  135.000
267.645;   35.400;  160.000;   67.000
267.786;  -30.500; -147.000;  -86.000
267.927;  -90.800; -473.000; -379.000
268.068;   15.300; -186.000;  -61.000
268.209;  -73.400; -175.000; -413.000
268.350;  -92.900; -388.000; -532.000
268.490; -153.800; -648.000; -521.000
268.631;  112.900;  127.000;  225.000
268.772; -181.100; -874.000; -647.000
268.913;  -58.600; -328.000; -476.000
269.054;   -5.900; -117.000;   12.000
269.194;  -82.400; -418.000; -402.000
269.335; -282.300;-1137.000;-1074.000
269.476;   11.900;   33.000;  -35.000
269.617;  -66.200; -347.000; -392.000
269.757; -155.100; -713.000; -646.000
269.898; -198.300; -856.000; -613.000
270.039;  -96.700; -415.000; -405.000
270.180; -246.000; -952.000; -816.000
270.320;   13.900; -190.000; -250.000
270.461;  -72.600; -277.000; -249.000
270.602;    3.900; -186.000; -156.000
270.742; -226.500; -868.000; -943.000
270.883;  -87.100; -442.000; -390.000
271.023;  -95.400; -358.000; -357.000
271.164; -118.300; -607.000; -528.000
271.305; -185.000; -666.000; -654.000
271.445; -162.700; -722.000; -683.000
271.586; -103.200; -462.000; -283.000
271.726;  -72.100; -397.000; -322.000
271.867; -106.900; -594.000; -534.000
272.008;  334.400; -473.000; -285.000
272.148;  297.100;  462.000;  468.000
272.289;   59.300; -113.000; -181.000
272.429;   63.200;   19.000;  185.000
272.570; -146.600; -633.000; -737.000
272.710; -177.500; -825.000; -775.000
272.851;   -9.200;  113.000; -130.000
272.991; -321.100;-1173.000;-1077.000
273.131;  -77.500; -419.000; -459.000
273.272; -171.200; -683.000; -723.000
273.412;   34.800; -143.000;  -31.000
273.553;  -75.400; -488.000; -507.000
273.693;  357.900;  913.000;  858.000
273.834; -147.500; -894.000; -692.000
273.974; -134.100; -664.000; -615.000
274.114; -178.800; -772.000; -560.000
274.255;  201.200;  414.000;  373.000
274.395;   45.600; -180.000; -125.000
274.535;  124.100;  199.000;  350.000
274.676;   80.000;  225.000;   94.000
274.816;   42.900;  110.000;   34.000
274.956; -152.300; -624.000; -690.000
275.097; -126.800;-1014.000; -922.000
275.237; -187.100; -913.000; -803.000
275.377; -178.800; -778.000; -689.000
275.517; -252.100; -878.000; -937.000
275.658;  -91.300; -590.000; -555.000
275.798;  -74.500; -606.000; -413.000
275.938;  102.000;  215.000;  323.000
276.078; -131.200; -626.000; -395.000
276.218;   30.600;   99.000;  104.000
276.359; -239.700;-1026.000;-1024.000
276.499; -133.300; -605.000; -446.000
276.639;  -11.800; -305.000; -151.000
276.779;  -72.700; -475.000; -357.000
276.919; -169.400; -783.000; -624.000
277.059;   -8.300; -261.000; -212.000
277.199;  -44.200; -357.000; -259.000
277.340;  117.700;  287.000;  175.000
277.480; -180.800; -840.000; -693.000
277.620;  117.100;  192.000;   16.000
277.760; -367.500;-1533.000;-1294.000
277.900;  106.500;  113.000;   33.000
278.040;  107.300;  137.000;  159.000
278.180;  133.200;  270.000;  170.000
278.320;   65.100;   21.000;   56.000
278.460; -101.100; -443.000; -469.000
278.600; -160.400; -708.000; -598.000
278.740;  131.200;  448.000;  224.000
278.880;  -40.800; -768.000; -791.000
279.020;  101.500; -194.000; -144.000
279.160; -140.600; -672.000; -595.000
279.300; -189.100; -926.000; -873.000
279.440; -162.400; -709.000; -622.000
279.579;  -70.100;-1014.000; -929.000
279.719;  -65.500; -410.000; -394.000
279.859;  147.600;   -4.000;   41.000
279.999;  114.800; -208.000;  101.000
280.139;  -21.500; -435.000; -387.000
280.279; -144.000; -708.000; -745.000
280.419;   21.300; -229.000; -147.000
280.559;  -46.400; -259.000; -180.000
280.698; -149.300; -790.000; -639.000
280.838; -140.300; -778.000; -800.000
280.978; -139.900; -846.000; -790.000
281.118; -170.100; -811.000; -704.000
281.257;   62.500;   24.000;    6.000
281.397; -176.900;-1094.000; -960.000
281.537; -109.000; -599.000; -712.000
281.677;    2.900; -150.000; -101.000
281.816; -142.500; -700.000; -630.000
281.956;  -44.800; -193.000; -257.000
282.096;  -86.700; -539.000; -396.000
282.235; -171.700; -672.000; -638.000
282.375;    4.900; -243.000;  -98.000
282.515; -154.400; -715.000; -707.000
282.654;  115.100;   29.000;  106.000
282.794;   80.700;  388.000;  244.000
282.934;  -53.000; -530.000; -491.000
283.073; -225.200;-1030.000; -857.000
283.213;  -58.400; -460.000; -467.000
283.353;   12.700; -408.000; -349.000
283.492;   16.700; -264.000; -296.000
283.632;  -59.600; -254.000; -168.000
283.771; -166.900; -859.000; -730.000
283.911;  -88.500; -369.000; -260.000
284.050; -186.700; -794.000; -748.000
284.190; -278.900;-1229.000;-1096.000
284.329; -268.200;-1055.000; -964.000
284.469;  -91.700; -516.000; -591.000
284.608;  -49.500; -559.000; -598.000
284.748; -131.300; -614.000; -570.000
284.887;   10.800;  -87.000;  -20.000
285.027; -229.900; -844.000; -892.000
285.166;  -10.000; -192.000; -249.000
285.306;   93.900; -116.000;  -33.000
285.445;  -27.700; -229.000; -343.000
285.584; -162.400; -630.000; -494.000
285.724;  -34.000; -282.000; -322.000
285.863; -186.300; -857.000; -507.000
286.002;  -82.600; -366.000; -276.000
286.142; -184.600; -715.000; -622.000
286.281;  -86.500; -525.000; -493.000
286.420; -148.600; -554.000; -417.000
286.560;  242.900;  653.000;  623.000
286.699; -235.300; -958.000; -912.000
286.838; -118.200; -590.000; -591.000
286.978; -132.700; -533.000; -537.000
287.117; -216.900;-1085.000; -950.000
287.256;  -21.900; -228.000; -211.000
287.395;  -40.100; -197.000; -378.000
287.535;  -61.500; -370.000; -298.000
287.674;  -95.200; -509.000; -484.000
287.813;  124.800;  661.000;  533.000
287.952; -228.900;-1010.000; -871.000
288.091; -243.500;-1049.000; -915.000
288.231;   90.900;   13.000;   15.000
288.370; -324.800;-1217.000;-1200.000
288.509; -121.800; -728.000; -645.000
288.648; -113.100; -770.000; -548.000
288.787;  -16.100; -243.000;  -87.000
288.926;  -72.300; -454.000; -475.000
289.065;  297.000;  859.000;  672.000
289.204;  -54.700; -377.000; -217.000
289.344; -133.600; -791.000; -690.000
289.483;  124.300;  416.000;  304.000
289.622;  -28.100; -291.000; -149.000
289.761;   35.700; -309.000; -166.000
289.900; -178.400; -785.000; -626.000
290.039;   78.300;  -12.000;  -95.000
290.178;  -39.400; -274.000; -180.000
290.317; -142.200; -618.000; -479.000
290.456;  -81.200; -463.000; -451.000
290.595; -269.700; -961.000; -833.000
290.734; -240.500; -904.000; -891.000
290.873;  -83.600; -456.000; -420.000
291.011; -171.000; -833.000; -843.000
291.150; -156.000; -770.000; -682.000
291.289;  -20.300; -343.000; -110.000
291.428; -135.400; -599.000; -480.000
291.567;  -28.500; -370.000; -442.000
291.706;   43.300;  109.000;  154.000
291.845; -107.700; -597.000; -505.000
291.984; -304.000;-1234.000;-1061.000
292.122;  204.900;  602.000;  582.000
292.261;  169.300;  620.000;  463.000
292.400;   66.100; -144.000;  211.000
292.539; -174.200; -959.000; -813.000
292.678;    4.800; -325.000; -300.000
292.816; -277.000;-1136.000; -965.000
292.955; -109.700; -844.000; -684.000
293.094;   26.900; -173.000; -337.000
293.233;  -32.900; -556.000; -400.000
293.371;  -40.500; -225.000;  -84.000
293.510; -174.700; -866.000; -780.000
293.649; -226.000; -959.000; -924.000
293.787;  -64.300;-1083.000;-1012.000
293.926;   43.500; -113.000;  -32.000
294.065;  -55.700; -379.000; -290.000
294.203;  158.400;  298.000;  406.000
294.342;  129.100;   74.000;  156.000
294.481;13913.500;51180.000; -836.000
294.619;  -18.100; -425.000; -582.000
294.758; -242.700;-1230.000;-1137.000
294.896;  240.700; -125.000;    5.000
295.035; -201.200;-1040.000;-1006.000
295.174; -227.800;-1082.000; -954.000
295.312;  -21.500; -323.000; -203.000
295.451;   36.100; -307.000; -428.000
295.589;  -42.800; -389.000; -518.000
295.728;   87.900; -292.000; -165.000
295.866;   64.000;  -36.000;  -51.000
296.005;  -78.500; -584.000; -341.000
296.143;  -84.000; -558.000; -596.000
296.282; -141.100; -957.000; -881.000
296.420; -115.900; -657.000; -557.000
296.559; -113.000; -892.000; -633.000
296.697;  101.800; -847.000; -665.000
296.835;  226.800;-1141.000;-1002.000
296.974;  180.900;  -23.000;   39.000
297.112;  103.100; -443.000; -504.000
297.251;  -59.200; -815.000; -755.000
297.389;  250.000; -576.000; -438.000
297.527;  163.500; -145.000;  -83.000
297.666;  -50.500; -486.000; -438.000
297.804;  -63.900; -404.000; -264.000
297.942;   63.800; -136.000; -161.000
298.081;   44.200; -183.000;   63.000
298.219;  215.300;  -17.000;  -19.000
298.357;  137.700; -144.000;  -71.000
298.495;  121.300; -810.000; -812.000
298.634;  212.100;  245.000;  219.000
298.772;  187.600; -220.000; -338.000
298.910;  -11.800; -309.000; -182.000
299.048;   31.500; -130.000; -153.000
299.187;  -13.200; -350.000; -250.000
299.325;   80.900;   52.000;  122.000
299.463;  170.500; -389.000; -299.000
299.601;  352.600; -327.000; -271.000
299.739; -153.800; -908.000; -883.000
299.877; -113.500; -791.000; -703.000
300.016;  -98.600;-1095.000; -935.000
300.154;  370.500;  -19.000; -161.000
300.292;  231.500; -428.000; -348.000
300.430;  126.700; -408.000; -291.000
300.568; -178.900; -940.000; -874.000
300.706;  -35.900; -366.000; -469.000
300.844; -104.000;-1108.000; -979.000
300.982;  311.900;  246.000;  282.000
301.120; -164.600; -965.000; -866.000
301.258;  -61.800; -812.000; -705.000
301.396;  114.600;  104.000;  -41.000
301.534;  259.700; -218.000; -293.000
301.672;  108.100; -664.000; -521.000
301.810;  123.300; -613.000; -545.000
301.948;  370.600;   53.000;  149.000
302.086; 1220.000; -250.000;  -32.000
302.224; 1994.900; -610.000; -585.000
302.362;  205.300; -558.000; -622.000
302.500;   24.300; -923.000; -893.000
302.638;  323.000;  128.000;  245.000
302.776;   69.400; -352.000; -408.000
302.913;  145.800;  447.000;  236.000
303.051;   62.700;  -86.000;  -23.000
303.189;  156.700;   90.000;  118.000
303.327;  -12.700; -341.000; -256.000
303.465; -107.500; -832.000; -588.000
303.603; -134.100; -805.000; -604.000
303.740;  258.400;  417.000;  241.000
303.878;   92.000; -800.000; -759.000
304.016; -119.000; -915.000; -790.000
304.154; -202.800;-1123.000;-1152.000
304.291;  -13.200; -505.000; -554.000
304.429;   81.600;  102.000;   74.000
304.567; -210.300; -908.000; -893.000
304.705;  -55.000; -408.000; -515.000
304.842;  253.100; -616.000; -540.000
304.980;  156.800;  215.000;   35.000
305.118;  167.900; -367.000; -365.000
305.255;  -52.500; -945.000; -927.000
305.393;  157.500;  178.000;  239.000
305.531; -158.000;-1173.000; -956.000
305.668;  -65.900; -663.000; -582.000
305.806;  194.400; -358.000; -439.000
305.943;  235.900; -629.000; -637.000
306.081;  166.600; -378.000; -267.000
306.219; -143.100; -863.000; -748.000
306.356;   81.400;  158.000;   27.000
306.494;  332.800;  981.000;  761.000
306.631;   74.500;  -11.000;  -55.000
306.769;   81.300; -613.000; -485.000
306.906;   41.600; -284.000; -258.000
307.044;  -30.700; -473.000; -488.000
307.181;  -55.300; -410.000; -332.000
307.319;  138.200;  112.000;   87.000
307.456; -306.500;-1191.000;-1153.000
307.594; -134.900; -980.000; -727.000
307.731;   58.900; -371.000; -164.000
307.868;   62.300;  -15.000;   20.000
308.006; -203.000; -961.000; -847.000
308.143;  -70.700; -618.000; -330.000
308.281;  499.100;  -37.000; -254.000
308.418;   83.900; -748.000; -640.000
308.555;  -69.800; -400.000; -250.000
308.693;  -86.000; -577.000; -573.000
308.830; -146.800; -712.000; -657.000
308.967;   21.900; -215.000;  -95.000
309.105;    2.400; -507.000; -396.000
309.242;  186.700; -468.000; -367.000
309.379;  897.800; -577.000; -655.000
309.517;   11.200; -936.000; -948.000
309.654; -108.100; -910.000; -734.000
309.791;  -79.100; -662.000; -580.000
309.928; -165.100; -977.000; -914.000
310.065;  427.400;  819.000;  697.000
310.203;   78.900; -825.000; -850.000
310.340;   76.600; -465.000; -321.000
310.477;  -83.100; -412.000; -516.000
310.614;  -60.400; -383.000; -473.000
310.751;  -65.600; -427.000; -518.000
310.889;   -2.000;    1.000;   11.000
311.026; -232.200;-1161.000; -939.000
311.163;  -19.000; -386.000; -380.000
311.300;  -70.500; -512.000; -479.000
311.437;  -68.100; -658.000; -619.000
311.574; -237.400;-1226.000; -985.000
311.711;  -70.700; -595.000; -433.000
311.848;   12.600; -380.000; -388.000
311.985;   98.900;  270.000;   93.000
312.122; -183.700; -932.000; -762.000
312.259; -173.300; -941.000; -994.000
312.396;  -57.800; -508.000; -551.000
312.533; -106.200; -812.000; -790.000
312.670; -201.300;-1070.000; -898.000
312.807;   -4.900; -352.000; -367.000
312.944;  -90.200; -513.000; -611.000
313.081;   46.300; -150.000; -415.000
313.218; -128.100;-1111.000; -867.000
313.355;   80.100; -531.000; -449.000
313.492;  114.800; -455.000; -292.000
313.629;  348.100;  815.000;  735.000
313.766; -229.300;-1176.000;-1008.000
313.902;   53.300; -186.000;   21.000
314.039;  -28.900; -372.000; -289.000
314.176;  144.000;  286.000;  192.000
314.313;  -74.400; -569.000; -473.000
314.450;  -84.300; -788.000; -684.000
314.587;  -56.700; -468.000; -480.000
314.723;  129.400;  -78.000;  130.000
314.860;  164.600;  318.000;  332.000
314.997;  128.900;  223.000;  142.000
315.134;    7.500; -385.000; -368.000
315.270;   -1.500; -480.000; -496.000
315.407; -181.600;-1094.000; -967.000
315.544;  -21.500; -657.000; -538.000
315.681;  -58.900; -681.000; -565.000
315.817;  145.700; -133.000; -176.000
315.954;   78.500; -613.000; -392.000
316.091; -208.600;-1045.000;-1023.000
316.227;   -1.500;  -71.000; -179.000
316.364;   76.700;   23.000;    6.000
316.500;   30.000; -113.000; -300.000
316.637;  -37.600; -181.000; -302.000
316.774; -123.300; -625.000; -358.000
316.910; -127.900; -598.000; -629.000
317.047; -113.900; -487.000; -351.000
317.183;  -41.500; -435.000; -566.000
317.320;  -11.200; -367.000; -321.000
317.456; -102.200; -733.000; -805.000
317.593;  -99.200; -598.000; -641.000
317.729;   61.400;  168.000;  -67.000
317.866; -325.600;-1434.000;-1285.000
318.002; -135.400; -708.000; -948.000
318.139; -113.400; -883.000; -867.000
318.275; -160.700;-1003.000; -738.000
318.412;  -94.600; -517.000; -336.000
318.548;   -0.400; -751.000; -720.000
318.685; -135.700; -985.000; -888.000
318.821; -152.900; -762.000; -735.000
318.957;   41.900;   34.000;  -23.000
319.094;  170.700;  297.000;  154.000
319.230;  -62.500; -756.000; -742.000
319.367;  316.200; -471.000; -520.000
319.503;  188.100; -538.000; -436.000
319.639; -107.100; -877.000; -793.000
319.775;  -57.900; -750.000; -685.000
319.912;  -15.900; -424.000; -519.000
320.048; -140.200;-1184.000;-1184.000
320.184;  207.600;   59.000;   70.000
320.321;  -62.200; -497.000; -467.000
320.457;  174.100;  475.000;  662.000
320.593;  -69.400; -375.000; -382.000
320.729; -160.000; -732.000; -734.000
320.866;  -86.700; -577.000; -635.000
321.002; -107.200; -759.000; -809.000
321.138;   13.500; -135.000; -211.000
321.274;  165.500; -148.000; -115.000
321.410;    7.900; -585.000; -353.000
321.546;  -13.800;-1011.000; -911.000
321.683;  187.500;  400.000;  185.000
321.819;   54.900;  -48.000; -117.000
321.955; -153.000; -743.000; -722.000
322.091;  -30.600; -585.000; -540.000
322.227;   31.700; -382.000; -202.000
322.363;   22.300; -320.000; -215.000
322.499;  -10.100; -343.000; -331.000
322.635;  408.800;  636.000;  443.000
322.771;  136.200; -139.000;   12.000
322.907;  233.600;  129.000;  327.000
323.043;   37.400; -115.000; -206.000
323.179;  -15.300; -394.000; -363.000
323.315;  168.000; -401.000; -371.000
323.451;  342.900; -328.000; -236.000
323.587;  167.100;  -60.000;  -77.000
323.723;   86.400; -682.000; -601.000
323.859;   28.500; -258.000;  -76.000
323.995;   -9.000; -467.000; -409.000
324.131; -161.000; -967.000; -892.000
324.267;  -30.000; -254.000; -276.000
324.402; -203.400; -960.000; -983.000
324.538;   56.700; -279.000; -104.000
324.674;   97.900;  164.000;   77.000
324.810;  423.000;  226.000;  308.000
324.946;  121.900; -810.000; -658.000
325.082; -101.500; -568.000; -475.000
325.217;   41.900;  -62.000;   16.000
325.353; -152.900; -764.000; -659.000
325.489; -103.400; -540.000; -506.000
325.625; -102.300; -579.000; -525.000
325.760;  147.200;  517.000;  376.000
325.896;  -43.900; -515.000; -702.000
326.032;  -32.900; -403.000; -352.000
326.168;  -47.700; -462.000; -369.000
326.303;  -86.100; -352.000; -461.000
326.439;   14.900; -336.000; -276.000
326.575;   68.100; -190.000;  -29.000
326.710;   58.200; -156.000;  -30.000
326.846;   46.300;  146.000;  103.000
326.982; -149.300; -530.000; -548.000
327.117; -112.500; -481.000; -442.000
327.253; -132.100; -745.000; -742.000
327.388; -177.500;-1137.000;-1153.000
327.524;   43.500; -811.000; -578.000
327.659;   19.000;  -58.000;  -22.000
327.795;   49.800;   69.000;   45.000
327.931;  -81.300; -723.000; -499.000
328.066;   33.800; -417.000; -276.000
328.202;   71.600;   12.000; -129.000
328.337;  295.400;  957.000;  713.000
328.473;   24.600;  -12.000;  -74.000
328.608;   28.600; -256.000; -267.000
328.743;  -85.200; -799.000; -664.000
328.879;   93.700;  214.000;  114.000
329.014;  -30.700; -102.000; -122.000
329.150; -114.100; -358.000; -483.000
329.285; -108.500; -465.000; -466.000
329.421;    9.600; -548.000; -246.000
329.556;   23.700;  -36.000;   85.000
329.691; -139.700; -633.000; -615.000
329.827; -125.900; -626.000; -480.000
329.962;  -21.400;  131.000; -301.000
330.097;  -97.200; -673.000; -585.000
330.233;  -40.000; -410.000; -223.000
330.368; -149.900; -839.000; -628.000
330.503;   43.800;    3.000;   98.000
330.638;   93.600;  -93.000; -125.000
330.774;  -66.300; -609.000; -530.000
330.909;  -34.900; -434.000; -244.000
331.044; -144.800; -714.000; -708.000
331.179; -258.500;-1217.000;-1109.000
331.315;   74.100;   77.000;   20.000
331.450;   97.100;  157.000;  285.000
331.585; -115.400; -805.000; -706.000
331.720; -103.100; -510.000; -460.000
331.855;   23.100;  -35.000; -102.000
331.990;  333.800;   62.000;  138.000
332.126;  226.100; -110.000;   71.000
332.261;  -14.900; -379.000; -265.000
332.396;   22.700; -135.000; -242.000
332.531; -158.500;-1074.000;-1031.000
332.666;   67.800; -519.000; -363.000
332.801; -171.200; -726.000; -807.000
332.936;   27.700; -192.000; -122.000
333.071; -213.000; -870.000; -817.000
333.206;  131.700;  307.000;  379.000
333.341;  118.200;  344.000;  418.000
333.476; -134.400; -627.000; -623.000
333.611;   -9.300; -251.000; -173.000
333.746;   -9.000; -381.000; -464.000
333.881; -170.800; -973.000; -935.000
334.016; -199.000; -936.000; -917.000
334.151; -169.900; -746.000; -702.000
334.286;  154.600;  152.000;  186.000
334.421;   33.000; -125.000; -178.000
334.556; -109.700; -611.000; -567.000
334.690; -109.900; -631.000; -577.000
334.825;  229.200;  381.000;   83.000
334.960;  -38.300; -285.000; -413.000
335.095;   89.800;  135.000;  -91.000
335.230; -154.500; -722.000; -738.000
335.365; -192.300;-1084.000; -990.000
335.499; -168.900;-1108.000;-1037.000
335.634;  116.900;    9.000;  534.000
335.769; -119.800; -755.000; -720.000
335.904;  -18.000; -603.000; -561.000
336.038;  -44.100; -735.000; -657.000
336.173; -106.500;-1206.000;-1194.000
336.308;  115.200; -116.000; -189.000
336.443;   31.800; -544.000; -634.000
336.577;  -95.700; -936.000; -787.000
336.712;  217.400;   -4.000;  -12.000
336.847;   -0.300; -724.000; -607.000
336.981;  243.900; -272.000; -208.000
337.116;  651.400;  615.000;  501.000
337.250;  478.600; -434.000; -421.000
337.385;  329.700; -297.000; -208.000
337.520;   68.800; -632.000; -603.000
337.654;  -11.200; -215.000; -126.000
337.789; -204.600; -989.000; -933.000
337.923;   34.900; -104.000; -205.000
338.058; -111.100; -673.000; -738.000
338.192;    1.800; -611.000; -488.000
338.327;   79.800;  -18.000; -155.000
338.461;  -58.400; -299.000; -469.000
338.596;  -94.400; -780.000; -638.000
338.730; -153.400; -767.000; -803.000
338.865;  164.100;  -46.000; -140.000
338.999; -122.900; -846.000; -702.000
339.134;  -31.900; -634.000; -536.000
339.268;    2.700; -741.000; -603.000
339.403;  506.100; -740.000; -775.000
339.537;  106.300; -894.000; -820.000
339.671; -166.400; -829.000; -813.000
339.806; -121.600; -556.000; -512.000
339.940;   33.000; -261.000; -235.000
340.074; -137.900; -685.000; -510.000
340.209;  -31.500; -351.000; -230.000
340.343; -119.500; -517.000; -573.000
340.477;  372.000;  998.000; 1036.000
340.612; -124.900;-1033.000; -900.000
340.746;  183.500; -199.000; -243.000
340.880;  -99.000; -924.000; -785.000
341.014;   49.700;  -45.000; -154.000
341.149; -151.100; -756.000; -718.000
341.283; -151.100; -839.000; -754.000
341.417;  -82.000;-1124.000; -938.000
341.551;  414.200; -768.000; -708.000
341.685;   -8.300; -633.000; -611.000
341.820;  -72.900; -562.000; -493.000
341.954;  -58.200; -218.000; -349.000
342.088; -244.500;-1102.000;-1019.000
342.222;  136.300;  565.000;  618.000
342.356;  -69.400; -395.000; -335.000
342.490; -114.700; -880.000; -841.000
342.624;  -60.100; -339.000; -242.000
342.758;   89.000; -364.000; -312.000
342.892;  -44.500; -710.000; -585.000
343.026;  -19.600;  -58.000; -116.000
343.160;  -62.500; -426.000; -376.000
343.294; -101.800; -474.000; -337.000
343.428;   47.900; -488.000; -448.000
343.562;   37.900; -172.000;  -23.000
343.696;   54.000; -385.000; -314.000
343.830;   38.300; -362.000; -356.000
343.964;   98.200; -231.000; -168.000
344.098; 1999.300;  199.000;   70.000
344.232; 1701.500; -266.000; -127.000
344.366;  162.800; -567.000; -453.000
344.500;  240.100; -665.000; -744.000
344.634;  144.300; -324.000; -164.000
344.768;   89.700; -531.000; -341.000
344.902;  127.100;  278.000;  256.000
345.035;  -89.800; -556.000; -496.000
345.169; -198.300; -933.000; -656.000
345.303;   17.400; -308.000; -482.000
345.437;  -73.900; -826.000; -717.000
345.571; -111.000; -675.000; -594.000
345.704;  -72.100; -309.000; -532.000
345.838;   32.200; -331.000; -284.000
345.972;    4.200; -543.000; -495.000
346.106;  297.100; -179.000; -190.000
346.239;  764.600; -312.000; -243.000
346.373;   75.700; -343.000; -302.000
346.507; -238.100; -950.000; -962.000
346.640;  380.000;  -30.000;   13.000
346.774;  -20.100; -650.000; -797.000
346.908;   62.900; -138.000;  -11.000
347.041; -139.400; -646.000; -593.000
347.175;   80.200;  259.000;   27.000
347.309;  -66.100; -698.000; -628.000
347.442; -126.200; -883.000; -732.000
347.576;  656.300;  670.000;  668.000
347.709;  489.900; -123.000;  -52.000
347.843; -116.700; -933.000; -825.000
347.976;  161.900;  235.000;  294.000
348.110; -287.700;-1268.000;-1186.000
348.243; -131.700; -679.000; -772.000
348.377;   54.200;  -26.000;   60.000
348.510;  207.300;  403.000;  540.000
348.644;   12.200;  -37.000; -159.000
348.777;   87.700;  180.000;  191.000
348.911;  -35.700; -142.000; -112.000
349.044;  455.600;  471.000;  448.000
349.178;  438.100;-1069.000;-1006.000
349.311;  304.300;  141.000;  255.000
349.444;   -6.500; -927.000; -813.000
349.578;   25.600; -347.000; -200.000
349.711; -118.100; -959.000; -862.000
349.845;   68.200; -661.000; -591.000
349.978; -231.700;-1224.000;-1137.000
350.111;  -92.900; -546.000; -612.000
350.244;  -99.500; -596.000; -700.000
350.378;   75.200; -392.000; -393.000
350.511;  -79.000; -393.000; -426.000
350.644; -164.400; -808.000; -806.000
350.778;   82.600;  168.000;  104.000
350.911;   54.200;  134.000;  140.000
351.044; -116.300; -685.000; -615.000
351.177;   34.800; -321.000; -281.000
351.310;   27.400;    3.000; -131.000
351.444;  -88.400; -888.000; -788.000
351.577;  321.000;  140.000;   90.000
351.710;  257.700;  593.000;  417.000
351.843;   -9.300; -165.000;  -77.000
351.976;   66.600;  149.000;  -79.000
352.109; -100.700; -621.000; -612.000
352.242;   26.200; -464.000; -419.000
352.376;  -27.600; -580.000; -636.000
352.509;  526.300; -437.000; -356.000
352.642;  111.100; -654.000; -604.000
352.775;  181.700; -141.000;  -98.000
352.908; -183.200; -933.000; -904.000
353.041; -154.400; -814.000; -824.000
353.174;  -40.200; -551.000; -424.000
353.307; -128.700; -753.000; -764.000
353.440;  217.000;  541.000;  453.000
353.573; -151.700; -957.000;-1008.000
353.706;  -28.500; -384.000; -558.000
353.839;   36.600; -264.000; -220.000
353.971; -131.000; -657.000; -512.000
354.104; -113.600; -896.000; -835.000
354.237;    6.300; -627.000; -662.000
354.370;  -80.700; -846.000; -879.000
354.503; -281.500;-1231.000;-1308.000
354.636;   35.300; -529.000; -348.000
354.769; -206.200; -937.000; -860.000
354.902;   54.600; -230.000; -139.000
355.034;   51.300; -164.000; -220.000
355.167;   43.500; -262.000; -162.000
355.300; -127.900;-1061.000; -880.000
355.433; 1346.600;  -71.000;  -14.000
355.565; 2101.600; -402.000; -384.000
355.698;  567.300; -356.000; -296.000
355.831;    3.200; -882.000; -801.000
355.964;  281.100; -285.000; -170.000
356.096;  -83.600; -856.000; -843.000
356.229;  109.100; -523.000; -530.000
356.362;  445.500; -373.000; -266.000
356.494;  866.500; -229.000; -162.000
356.627; 1064.300;  269.000;  377.000
356.760; 1053.800;  120.000;   53.000
356.892; 1307.200; -286.000; -601.000
357.025; 1461.500;  403.000;  389.000
357.157; 1377.400; -167.000; -179.000
357.290;  734.500; -856.000; -713.000
357.423;  227.600; -667.000; -556.000
357.555;  276.000; -217.000; -228.000
357.688;  291.000; -483.000; -364.000
357.820;  856.700; -870.000; -877.000
357.953; 6810.300; -563.000; -589.000
358.085; 1671.300; -632.000; -612.000
358.218; 3111.400;-1131.000; -932.000
358.350;  620.700;  -58.000;  312.000
358.483; -157.600;-1300.000;-1187.000
358.615;   98.400;-1182.000;-1078.000
358.747;  -23.700;-1187.000;-1058.000
358.880;  201.700; -810.000; -744.000
359.012;   50.200; -376.000; -202.000
359.145;   10.100; -480.000; -511.000
359.277;  144.700; -962.000; -913.000
359.409; 5736.700;  536.000;  231.000
359.542; 1514.900; -738.000; -688.000
359.674;  198.900;   46.000;   13.000
359.806;  -61.200; -565.000; -438.000
359.939;  -40.200; -617.000; -516.000
360.071;  -51.500; -583.000; -579.000
360.203;   11.300; -411.000; -364.000
360.335;  149.200;  164.000;  -16.000
360.468;  370.200; -249.000; -307.000
360.600; 4406.800; -547.000; -454.000
360.732; 3533.900; -546.000; -423.000
360.864;  501.800;-1216.000;-1044.000
360.996;  736.900; -516.000; -554.000
361.129;  173.800; -389.000; -598.000
361.261;  104.400;  110.000; -113.000
361.393;   11.000; -252.000; -214.000
361.525;  117.200;   94.000;  244.000
361.657;  -36.100; -821.000; -703.000
361.789;  109.900; -139.000; -155.000
361.921;  631.900; -642.000; -593.000
362.053;  669.000;  524.000;  541.000
362.185;  207.500;  288.000;   72.000
362.318;  -58.300; -709.000; -705.000
362.450;  450.900;  294.000;  444.000
362.582;  541.000; -913.000; -870.000
362.714;   25.000; -353.000; -332.000
362.846;  -68.700; -606.000; -490.000
362.978; -210.700; -941.000; -811.000
363.109;  191.700; -161.000; -260.000
363.241; 1032.700; -739.000; -749.000
363.373;  609.500; -649.000; -564.000
363.505;  878.000; -186.000;  -91.000
363.637;  264.900; -787.000; -601.000
363.769; -185.100;-1067.000;-1080.000
363.901;  -58.700; -596.000; -654.000
364.033; -133.400;-1103.000;-1062.000
364.165;   67.000; -283.000; -283.000
364.296;  135.000; -316.000; -177.000
364.428;    8.200;-1344.000;-1220.000
364.560;  -85.600; -679.000; -661.000
364.692;  -57.500; -738.000; -835.000
364.824;  756.600; -588.000; -456.000
364.955;  735.700; -402.000; -564.000
365.087;  970.500;-1097.000; -852.000
365.219;   11.000; -686.000; -816.000
365.351;  -82.600; -526.000; -572.000
365.482;  191.100;  300.000;  240.000
365.614;  -14.200; -402.000; -314.000
365.746; -134.200; -729.000; -752.000
365.877; -130.000; -706.000; -672.000
366.009;  393.700;  -35.000;  -62.000
366.141; -184.300;-1249.000;-1134.000
366.272; -154.400; -803.000; -719.000
366.404; -170.200;-1005.000; -874.000
366.535;   70.000; -139.000;  -12.000
366.667; -112.300; -644.000; -649.000
366.799;  164.100;  353.000;  203.000
366.930; -136.600; -862.000; -996.000
367.062;  240.900; -639.000; -613.000
367.193;  143.800; -872.000; -842.000
367.325;  -70.200; -580.000; -684.000
367.456;  260.700; -246.000;   31.000
367.588;  331.500; -371.000; -318.000
367.719;   97.100;  -44.000;  -45.000
367.851;   70.500; -222.000; -241.000
367.982;   -7.900; -875.000; -732.000
368.113;  321.000; -475.000; -358.000
368.245; -154.000; -960.000; -841.000
368.376;   68.800; -254.000; -302.000
368.508;   13.100; -188.000; -263.000
368.639; -191.800;-1166.000;-1034.000
368.770;   73.000; -670.000; -589.000
368.902;  -25.500; -836.000; -926.000
369.033; -130.800; -906.000; -855.000
369.164;  -24.400; -720.000; -653.000
369.296; -134.200; -452.000; -601.000
369.427;   98.500; -209.000; -144.000
369.558;    4.600; -593.000; -377.000
369.689;  -90.300; -721.000; -569.000
369.821; -211.900; -951.000; -845.000
369.952;   42.600;   42.000; -108.000
370.083;  -32.200; -229.000; -108.000
370.214;  -91.000; -735.000; -650.000
370.345;   48.500;   65.000;   81.000
370.477;  -94.700; -810.000; -790.000
370.608;  647.000; -328.000; -264.000
370.739;  -28.400;-1233.000;-1292.000
370.870;   43.700;-1102.000; -923.000
371.001;  301.700; -378.000; -467.000
371.132;  -58.200; -754.000; -735.000
371.263;   60.500;  -42.000; -148.000
371.394; -199.200; -841.000; -748.000
371.525;  142.000;  345.000;  225.000
371.657;  -71.500; -808.000; -670.000
371.788;  241.600;  103.000;  199.000
371.919;  474.700; -384.000; -304.000
372.050; 7725.600;  -91.000; -156.000
372.181; 2269.600; -188.000; -294.000
372.311;  897.700;   42.000; -127.000
372.442;  137.100; -457.000; -451.000
372.573;   46.700; -444.000; -340.000
372.704; -160.100;-1008.000; -980.000
372.835;  287.400; -228.000; -289.000
372.966;  -44.400; -646.000; -554.000
373.097;  -30.100; -575.000; -711.000
373.228;   -8.600; -717.000; -542.000
373.359;  397.300; -824.000; -536.000
373.490; 2165.300; -881.000; -727.000
373.620; 2570.700;-1001.000; -803.000
373.751; 3980.900; -332.000; -396.000
373.882; 1733.300; -663.000; -733.000
374.013;  244.100; -449.000; -262.000
374.143;   17.200; -581.000; -659.000
374.274; -114.800; -987.000; -908.000
374.405;  445.400; -388.000; -276.000
374.536; 1107.700; -526.000; -387.000
374.666; 2639.800; -759.000; -807.000
374.797;  635.000; -817.000; -868.000
374.928; 2087.900; -710.000; -560.000
375.058; 2031.100; -535.000; -500.000
375.189;  266.800;  -59.000;  -93.000
375.320; -146.000; -928.000;-1034.000
375.450;    3.300; -625.000; -616.000
375.581;  -37.300; -526.000; -436.000
375.712;   30.500; -574.000; -250.000
375.842;  792.800; -438.000; -415.000
375.973;  585.000; -554.000; -513.000
376.103;   76.500; -665.000; -648.000
376.234;  -61.500; -531.000; -552.000
376.364;    4.300; -944.000; -867.000
376.495;  761.700;  925.000;  529.000
376.625;  140.900; -472.000; -485.000
376.756;  223.600; -709.000; -678.000
376.886;  -38.900;-1178.000;-1026.000
377.017;   24.900;-1048.000;-1061.000
377.147;  388.000; -786.000; -782.000
377.278;  179.100;  174.000;  228.000
377.408; -193.200; -801.000; -815.000
377.538; -155.000; -707.000; -693.000
377.669;  -94.500; -537.000; -613.000
377.799;  -55.400; -645.000; -635.000
377.929;   -6.400; -610.000; -428.000
378.060; -181.800; -781.000; -847.000
378.190;  -31.400; -726.000; -531.000
378.320;  -38.200; -401.000; -406.000
378.451;   80.800; -131.000;  -22.000
378.581;  116.900;  -67.000; -110.000
378.711;  455.200; 1035.000;  866.000
378.841;   69.900; -533.000; -675.000
378.972;  -63.100; -871.000; -751.000
379.102;   58.900; -652.000; -579.000
379.232;   80.800; -126.000;  -73.000
379.362; -136.400;-1001.000; -885.000
379.492;  149.900; -373.000; -424.000
379.623;  317.900;    0.000;  111.000
379.753; -125.100;-1107.000; -974.000
379.883;  497.600;   59.000;  156.000
380.013;  127.700;-1081.000;-1017.000
380.143; -127.600;-1097.000;-1056.000
380.273; -149.200; -985.000; -861.000
380.403;   72.000; -344.000; -257.000
380.533;   16.300; -651.000; -664.000
380.663;  265.600;  173.000;  128.000
380.793;  -76.300;-1027.000;-1074.000
380.923;   55.100; -103.000;  -34.000
381.053;  -98.100; -613.000; -623.000
381.183;   59.400; -106.000; -248.000
381.313;  174.100; -656.000; -470.000
381.443;  185.100; -692.000; -473.000
381.573;  551.300; -402.000; -409.000
381.703;  798.300;-1249.000;-1095.000
381.833; -118.900;-1454.000;-1336.000
381.963;  323.300; -134.000;  -87.000
382.093; 2805.800; -925.000; -909.000
382.223;  911.100; -713.000; -602.000
382.353;   95.100; -801.000; -608.000
382.482; 1019.100;-1091.000; -964.000
382.612; 1678.600; -872.000; -644.000
382.742;  918.900; -695.000; -622.000
382.872;  740.100; -565.000; -551.000
383.002;  244.700;  347.000; -132.000
383.131;   70.500; -226.000; -160.000
383.261;    0.100; -706.000; -768.000
383.391;  533.800; -552.000; -377.000
383.521; 3866.200;  451.000;  263.000
383.650;  736.000; -947.000; -904.000
383.780;   -6.400; -783.000; -656.000
383.910;  318.800;  880.000;  802.000
384.039;  137.900; -794.000; -656.000
384.169;  610.700;-1205.000;-1017.000
384.299;   94.200; -650.000; -662.000
384.428;  -88.400; -764.000; -680.000
384.558;   26.200; -308.000; -275.000
384.687;   38.700; -414.000; -334.000
384.817;  156.800;   75.000;   -2.000
384.947;  155.800; -234.000; -141.000
385.076;  726.200;  982.000;  912.000
385.206;  352.100;  369.000;  480.000
385.335;   32.500; -549.000; -417.000
385.465;  -53.600; -655.000; -663.000
385.594;  429.800;  -53.000;  -44.000
385.724; 1082.700; -868.000; -838.000
385.853;  366.300; -296.000; -270.000
385.982; 3255.700; -743.000; -787.000
386.112; 4726.400;-1052.000; -871.000
386.241;  366.400; -307.000; -312.000
386.371;  109.900; -174.000;  -87.000
386.500;  103.400; -825.000; -789.000
386.629;  155.400; -874.000; -817.000
386.759;  226.700;  -43.000;   68.000
386.888;  187.300; -170.000; -250.000
387.017;    4.000; -648.000; -620.000
387.147;  -47.400; -771.000; -798.000
387.276;  142.800; -410.000; -397.000
387.405;  131.900; -398.000; -342.000
387.535;   71.600; -452.000; -361.000
387.664;  -11.600; -692.000; -620.000
387.793;  266.500; -198.000; -113.000
387.922; 1314.900;  255.000;  200.000
388.052;  212.600; -576.000; -423.000
388.181;  242.300; -342.000; -472.000
388.310;  250.500; -889.000; -710.000
388.439;   51.300; -749.000; -742.000
388.568;  570.100;  365.000;  244.000
388.697; 2537.100; -756.000; -653.000
388.826;  522.400; -768.000; -666.000
388.956;  258.900; -285.000; -307.000
389.085;   38.800; -347.000; -287.000
389.214; -113.600; -842.000; -872.000
389.343;    5.100; -645.000; -413.000
389.472;  624.800;  126.000;  149.000
389.601;  911.300;   91.000;    0.000
389.730;  113.100; -568.000; -687.000
389.859;  239.700;  226.000;   46.000
389.988;  519.500; -423.000; -408.000
390.117;  367.600; -168.000; -146.000
390.246;  106.900; -331.000; -320.000
390.375;  363.300; -673.000; -626.000
390.504;  -14.000; -703.000; -621.000
390.633;  -79.300; -672.000; -726.000
390.761;    0.100; -732.000; -645.000
390.890;  213.500;   -4.000; -130.000
391.019;   57.600; -421.000; -441.000
391.148; -170.900; -826.000; -855.000
391.277;  -20.700; -576.000; -493.000
391.406;  -18.100; -821.000; -805.000
391.534;  146.200;  574.000; -301.000
391.663;  -21.600; -583.000; -645.000
391.792;  -76.200; -673.000; -701.000
391.921;  392.000;   -3.000;   15.000
392.050;  623.600; -287.000; -228.000
392.178;   55.500;-1206.000;-1061.000
392.307;  439.200; -758.000; -712.000
392.436;  254.200; -427.000; -641.000
392.564;  156.800;  166.000;   -6.000
392.693;  -89.000; -860.000; -682.000
392.822;  609.400; -529.000; -534.000
392.950;  322.200; -880.000; -714.000
393.079;  859.600; -188.000; -328.000
393.208;  125.300; -488.000; -511.000
393.336;   84.600; -170.000; -145.000
393.465;  -16.700; -317.000; -199.000
393.593;  115.600;   62.000;   79.000
393.722; -223.000;-1121.000; -916.000
393.850;   24.700; -188.000;  -61.000
393.979; -234.900; -926.000; -805.000
394.107;  -38.800; -517.000; -537.000
394.236;   43.000; -570.000; -507.000
394.364;  597.900;  383.000;  206.000
394.493;  892.400; -911.000; -767.000
394.621;   12.300; -955.000; -916.000
394.750;  982.500; -873.000; -923.000
394.878; 4194.600; -247.000; -149.000
395.007; 5451.400; -721.000; -807.000
395.135;  406.400; -790.000; -721.000
395.263; -130.700;-1038.000;-1040.000
395.392;   77.300;  -25.000; -107.000
395.520; -114.300; -818.000; -679.000
395.648;  -94.000; -865.000; -915.000
395.777;   67.900; -366.000; -405.000
395.905;   -5.000; -449.000; -564.000
396.033;  120.400;  217.000;  172.000
396.162; 1586.800; -399.000; -453.000
396.290; 1315.400;  -17.000;   -2.000
396.418;  335.300; -555.000; -514.000
396.546;  -65.500; -571.000; -466.000
396.674; -115.200; -850.000; -878.000
396.803;  107.800;  -72.000;  -23.000
396.931;  318.600; -179.000; -199.000
397.059;  226.000;-1026.000; -989.000
397.187; -148.600;-1026.000; -975.000
397.315; -206.100; -884.000; -649.000
397.443; -135.300; -592.000; -443.000
397.572; -142.300; -578.000; -424.000
397.700;   95.800; -607.000; -614.000
397.828;  167.200;  120.000;  -90.000
397.956;  -25.500; -508.000; -478.000
398.084;  -87.600; -767.000; -626.000
398.212;  190.300;  137.000;  124.000
398.340;  126.400;  -56.000;  159.000
398.468;  187.300; -390.000; -169.000
398.596; -166.700; -993.000; -953.000
398.724; -123.300; -762.000; -767.000
398.852; -250.300;-1024.000; -976.000
398.980;  -45.100; -560.000; -560.000
399.108;   10.700; -982.000; -735.000
399.236;  163.100;   13.000;    8.000
399.363;  100.400;  222.000;  196.000
399.491;  -58.800; -404.000; -398.000
399.619; -170.400; -829.000; -800.000
399.747; -111.700; -859.000; -771.000
399.875;  257.100;  220.000;  234.000
400.003;  -10.000; -359.000; -284.000
400.130; -146.600; -421.000; -341.000
400.258;   55.500;  -83.000;   38.000
400.386;  -52.200; -352.000; -168.000
400.514;   42.500; -526.000; -587.000
400.641;  -97.800; -928.000; -802.000
400.769; -199.400; -979.000; -888.000
400.897;  -60.100; -838.000; -793.000
401.025;   75.500; -166.000; -152.000
401.152;   82.200;  220.000;   38.000
401.280;  -98.300; -430.000; -429.000
401.408; -183.700; -712.000; -576.000
401.535;  -93.100; -735.000; -758.000
401.663; -325.500;-1134.000;-1054.000
401.790;  -89.000; -514.000; -525.000
401.918;  192.100;  436.000;  405.000
402.046;   44.400;  134.000;  122.000
402.173;  -29.800;  -18.000;    7.000
402.301;  -30.500; -519.000; -397.000
402.428;  143.800;  528.000;  383.000
402.556; -234.300;-1188.000; -913.000
402.683;   37.800;  -20.000;   -1.000
402.811;    5.200;  -37.000; -206.000
402.938;   53.600;   20.000;   27.000
403.066;  456.200; -574.000; -558.000
403.193;  829.300;  299.000;  239.000
403.321;  615.500; -396.000; -574.000
403.448;  744.200;   83.000;   27.000
403.575;  363.800;  -90.000;  -46.000
403.703; -127.700; -732.000; -557.000
403.830;  -23.300; -531.000; -496.000
403.957; -214.700;-1117.000;-1023.000
404.085;  114.200;  -61.000; -172.000
404.212;  275.300;  -50.000;   63.000
404.339;  417.700; -566.000; -306.000
404.467; 7915.700; -612.000; -524.000
404.594; 5943.100; -287.000; -227.000
404.721; 1605.300; -869.000; -764.000
404.848;  200.700; -113.000; -202.000
404.976; -123.700; -856.000; -783.000
405.103;   64.600;  -14.000;  -82.000
405.230;   97.500;  190.000;  226.000
405.357;  151.700;  117.000;   44.000
405.484;  416.600;  -49.000;    5.000
405.612;   99.000; -548.000; -563.000
405.739;  -46.000; -488.000; -243.000
405.866;  289.000;  669.000;  385.000
405.993;   -1.400; -398.000; -102.000
406.120; -195.100; -801.000; -887.000
406.247;  -17.100; -323.000; -342.000
406.374; 1181.100;  540.000;  629.000
406.501;  347.300; -632.000; -702.000
406.628;  -87.500; -621.000; -589.000
406.755; -107.400; -803.000; -620.000
406.882;   -9.500; -228.000; -277.000
407.009;  -89.700; -719.000; -628.000
407.136;  277.800; -480.000; -401.000
407.263;  455.400; -939.000; -829.000
407.390;  -45.000; -692.000; -614.000
407.517; -181.900;-1139.000;-1187.000
407.644;  -31.400; -332.000; -256.000
407.771;  -45.900; -249.000; -287.000
407.898;  106.500;  168.000;  328.000
408.025;  -41.500; -421.000; -313.000
408.151;   74.200;   82.000;  153.000
408.278;  -47.300; -267.000; -216.000
408.405; -163.300; -931.000; -899.000
408.532;  -83.000; -549.000; -542.000
408.659; -153.800; -677.000; -648.000
408.785; -314.900;-1298.000;-1170.000
408.912;  -31.100; -412.000; -296.000
409.039; -141.600; -610.000; -686.000
409.166; -125.100; -591.000; -555.000
409.292; -158.900; -571.000; -534.000
409.419; -175.000; -665.000; -649.000
409.546; -137.200; -431.000; -192.000
409.672; -164.200; -713.000; -545.000
409.799;   25.900;  -36.000;   34.000
409.926;    9.200; -180.000; -179.000
410.052; -268.800;-1127.000;-1091.000
410.179;   -3.700; -368.000; -392.000
410.305;  -75.600; -375.000; -493.000
410.432;    1.000; -220.000; -333.000
410.558; -102.800; -305.000; -380.000
410.685; -119.400; -688.000; -431.000
410.812; -111.200; -409.000; -588.000
410.938; -182.700; -964.000; -808.000
411.065; -107.300; -671.000; -645.000
411.191;   59.800; -189.000; -174.000
411.317; -141.700; -823.000; -742.000
411.444;  -72.700; -317.000; -246.000
411.570;  -61.700; -339.000; -294.000
411.697; -180.500; -758.000; -752.000
411.823; -243.300; -989.000; -999.000
411.949;   35.800;  -56.000;   17.000
412.076; -127.700; -539.000; -519.000
412.202; -167.800; -758.000; -757.000
412.329; -154.200; -798.000; -752.000
412.455; -131.900; -821.000; -657.000
412.581;   44.000;  -15.000;  172.000
412.707;  -32.600; -540.000; -457.000
412.834;   94.300;  156.000;  219.000
412.960; -109.400; -785.000; -784.000
413.086; -112.700; -743.000; -701.000
413.212;  478.800;  604.000;  578.000
413.339;  -35.600; -685.000; -701.000
413.465;  126.000; -364.000; -310.000
413.591;  -90.100; -757.000; -474.000
413.717;  -35.500; -358.000; -366.000
413.843; -232.800; -839.000; -861.000
413.969;  -50.800;  -47.000; -292.000
414.096; -122.900; -679.000; -679.000
414.222;   73.400;  -33.000;   85.000
414.348;   58.000; -652.000; -385.000
414.474;  309.200;   38.000;  -52.000
414.600;   42.700; -126.000; -144.000
414.726;   60.500;  -96.000;  -55.000
414.852;  -24.300; -365.000; -342.000
414.978;  143.300;  104.000;  -18.000
415.104;  153.100;   38.000;   80.000
415.230;   68.600; -329.000; -330.000
415.356;  123.900; -409.000; -514.000
415.482;  414.000;   13.000;  -35.000
415.608;  445.700; -247.000; -323.000
415.734; 1588.600;   67.000;   38.000
415.860;31953.400; -875.000; -767.000
415.986;20873.100; -685.000; -607.000
416.111; 1727.700; -798.000; -652.000
416.237;  391.300; -424.000; -571.000
416.363; 1677.400; -765.000; -733.000
416.489; 5696.900; -324.000; -251.000
416.615;  539.500; -707.000; -742.000
416.741;  -23.300; -677.000; -784.000
416.866; -135.100; -673.000; -736.000
416.992; -149.600; -801.000; -818.000
417.118;   40.300;  -41.000;  -80.000
417.244;  -55.900; -798.000; -531.000
417.369; -100.800; -801.000; -612.000
417.495;   74.300; -325.000; -254.000
417.621;  -93.000;-1015.000; -803.000
417.746;   52.000; -579.000; -572.000
417.872;  129.900; -254.000; -144.000
417.998;  130.300; -515.000; -530.000
418.123; 1596.500;-1073.000; -845.000
418.249; 7524.900; -512.000; -601.000
418.374;  908.200; -916.000; -824.000
418.500;  184.900; -383.000; -482.000
418.626;  267.300;   70.000;  -59.000
418.751;  262.800; -549.000; -448.000
418.877;  297.000; -637.000; -643.000
419.002; 2845.300; -688.000; -560.000
419.128;17571.600; -930.000; -721.000
419.253; 3747.200; -967.000; -837.000
419.379;  573.500; -391.000; -338.000
419.504;  670.300;  325.000;  415.000
419.629;  716.900; -393.000; -212.000
419.755; 4967.500; -317.000; -254.000
419.880;26630.500;  -98.000;   67.000
420.006;16695.800; -280.000; -221.000
420.131;42685.500; -662.000; -775.000
420.256; 5588.800; -315.000; -316.000
420.382;  777.600; -665.000; -687.000
420.507;  116.000; -649.000; -778.000
420.632;  444.100; -337.000; -339.000
420.758;  675.700; -251.000; -425.000
420.883;  -90.000; -876.000; -672.000
421.008; -113.400; -775.000; -619.000
421.133; -101.600; -509.000; -467.000
421.259;  -28.200; -325.000; -259.000
421.384; -164.100; -834.000; -693.000
421.509;   46.600;-1052.000; -862.000
421.634; 3179.400; -936.000; -820.000
421.759; 1285.200; -359.000; -327.000
421.885;  -29.300; -717.000; -656.000
422.010;  -71.400; -673.000; -542.000
422.135; -213.300; -695.000; -727.000
422.260;  157.700;  340.000;  280.000
422.385;   25.000;   12.000;  -98.000
422.510;  101.000;  151.000;  -26.000
422.635;   98.900;  -87.000;  -43.000
422.760;  233.100; -766.000; -791.000
422.885;  185.700;  -57.000;  -80.000
423.010;   15.500; -112.000; -169.000
423.135; -131.900; -481.000; -561.000
423.260;   57.300; -150.000; -245.000
423.385;  231.400;  476.000;  222.000
423.510;  118.900;   71.000;  -22.000
423.635;  259.900;  133.000;   45.000
423.760;  214.500;  383.000;  328.000
423.885;  182.000;  336.000;  391.000
424.010;   96.800;  -68.000;  -13.000
424.135;   14.400;    5.000;  -33.000
424.259; -122.200; -654.000; -457.000
424.384;  -40.700; -279.000; -272.000
424.509;   55.900; -260.000; -186.000
424.634; -156.000; -761.000; -623.000
424.759;  -18.000; -688.000; -544.000
424.883;   17.200; -506.000; -527.000
425.008;  343.600; -502.000; -410.000
425.133; 2999.700; -679.000; -653.000
425.258; 1273.500; -517.000; -381.000
425.382; 2187.700; -867.000; -774.000
425.507; 5187.900; -487.000; -543.000
425.632;  703.200; -802.000; -663.000
425.756;  694.200; -256.000; -146.000
425.881; 8400.300; -831.000; -857.000
426.006;20040.200; -604.000; -355.000
426.130; 3166.800; -696.000; -508.000
426.255;  433.800; -611.000; -491.000
426.379;  256.900; -189.000; -577.000
426.504;  711.300;  660.000;  544.000
426.629; 6553.800; -519.000; -466.000
426.753; 4051.100;   64.000;  -46.000
426.878;  542.200; -252.000; -288.000
427.002;  315.800; -651.000; -668.000
427.127; 2623.400;  -35.000; -158.000
427.251;16252.300;  372.000;  401.000
427.375; 4159.500; -191.000; -173.000
427.500; 4708.900; -616.000; -610.000
427.624; 1391.800; -234.000; -400.000
427.749;  335.400; -216.000; -225.000
427.873;   17.600; -499.000; -412.000
427.997;   22.700; -222.000; -230.000
428.122;  295.400;  795.000;  703.000
428.246;  286.600;  433.000;  434.000
428.371; -151.200; -869.000; -773.000
428.495; -104.900; -624.000; -646.000
428.619;   84.300; -186.000; -117.000
428.743;  137.800;   65.000;  132.000
428.868;  151.100; -732.000; -643.000
428.992; 3158.700; -219.000; -326.000
429.116; 1264.600; -329.000; -357.000
429.240;  733.700;  419.000;  426.000
429.365;   94.300; -454.000; -574.000
429.489;   28.000; -638.000; -647.000
429.613;  176.600; -236.000; -177.000
429.737;  141.000; -563.000; -432.000
429.861;  560.400; -247.000; -133.000
429.985; 8603.100; -425.000; -305.000
430.109; 8384.200; -770.000; -908.000
430.234; 1006.100;   76.000;  -50.000
430.358;  172.400; -250.000; -160.000
430.482;  -44.500; -672.000; -564.000
430.606;  -49.800; -655.000; -375.000
430.730;  184.700; -437.000; -388.000
430.854;  437.500; -909.000; -835.000
430.978;  -22.600; -795.000; -764.000
431.102;  -17.000; -499.000; -422.000
431.226;  -19.100; -874.000; -815.000
431.350;  260.800;  345.000;  422.000
431.474;   23.600; -661.000; -373.000
431.597; -211.900;-1060.000; -848.000
431.721;  -98.200; -276.000; -267.000
431.845; -157.100; -704.000; -472.000
431.969;  -72.800; -304.000; -349.000
432.093; -111.100; -395.000; -317.000
432.217;   19.800;   32.000;   82.000
432.341; -106.000; -523.000; -518.000
432.464;   97.900;   96.000;   40.000
432.588;  611.500; -401.000; -329.000
432.712;  261.900;  -52.000;  -52.000
432.836;  137.500;  213.000;  263.000
432.959;   12.500; -372.000; -311.000
433.083;  202.800;   11.000;    2.000
433.207;  646.900;  285.000;  930.000
433.330; 7410.600; -391.000; -200.000
433.454; 8151.100; -654.000; -638.000
433.578; 5067.500;  583.000;  278.000
433.701;  900.000; -623.000; -675.000
433.825;  423.800; -292.000; -299.000
433.949;  680.400;   28.000;  -72.000
434.072;  319.500; -410.000; -323.000
434.196;   77.400; -309.000; -117.000
434.319; 7924.700;25482.000;25124.000
434.443; 1367.400; -656.000; -603.000
434.566; 3784.800;  281.000;   62.000
434.690;  521.900; -637.000; -383.000
434.813;  198.600; -251.000; -173.000
434.937; -103.500; -569.000; -696.000
435.060;   52.100; -423.000; -332.000
435.184; 1097.200; -492.000; -217.000
435.307;  572.200;  159.000;  102.000
435.431;   79.700;  -40.000;   24.000
435.554;  -63.300; -399.000; -240.000
435.677;  -59.400; -350.000; -258.000
435.801;  -20.800;  -25.000;   49.000
435.924;  132.600;    1.000;  -67.000
436.048;  -84.400;-1019.000; -732.000
436.171;  -44.500; -240.000;  -66.000
436.294;   23.300; -248.000; -229.000
436.417;  154.200; -963.000; -849.000
436.541; -163.400; -814.000; -840.000
436.664;   -9.300; -242.000; -316.000
436.787;   53.600;   13.000;  113.000
436.910; -117.600; -792.000; -422.000
437.034;  148.400;  142.000;  143.000
437.157;  324.900;  -11.000;    0.000
437.280;   40.300; -392.000; -292.000
437.403;  -37.800; -982.000; -869.000
437.526; 2055.900; -903.000; -865.000
437.649; 6142.900; -505.000; -332.000
437.772;  913.300; -692.000; -540.000
437.896;  410.800;  700.000;  544.000
438.019;  -91.000; -758.000; -503.000
438.142;  -93.400; -596.000; -506.000
438.265;  145.400; -639.000; -670.000
438.388; 1582.600; -520.000; -410.000
438.511;  381.800; -597.000; -394.000
438.634;   22.500; -247.000; -125.000
438.757; -195.500; -693.000; -619.000
438.880;   76.700;  -34.000;  -57.000
439.003;  -67.000; -417.000; -437.000
439.126;  -53.000; -287.000; -167.000
439.248;  -28.600;  -98.000; -139.000
439.371;  -24.400;    9.000;  -53.000
439.494;  146.300;  510.000;  439.000
439.617;   -9.000;   65.000;  -88.000
439.740; -307.600; -968.000; -816.000
439.863; -200.500; -755.000; -595.000
439.986; -123.600; -476.000; -431.000
440.108;   15.400; -161.000; -112.000
440.231; -231.300; -950.000; -836.000
440.354;   34.200;  -64.000; -150.000
440.477;  253.600; -566.000; -542.000
440.599;  160.900; -200.000; -225.000
440.722; -147.200; -709.000; -586.000
440.845;  223.100;  751.000;  928.000
440.968; -135.100; -415.000; -311.000
441.090;  -36.600; -199.000;  -33.000
441.213; -241.500;-1021.000; -825.000
441.336;  -41.700; -159.000;   -5.000
441.458;  -70.800; -549.000; -396.000
441.581;  -74.700; -628.000; -629.000
441.703;  -34.200; -152.000;   13.000
441.826; -138.900; -557.000; -400.000
441.948;   -9.000;   56.000;   51.000
442.071;  156.200;  555.000;  424.000
442.193; -135.600; -531.000; -485.000
442.316;   98.400;  152.000;   97.000
442.438;  125.300; -233.000;  -10.000
442.561;  267.400;  272.000;  262.000
442.683; 1690.100; -809.000; -522.000
442.806; 2989.400;   -8.000;   74.000
442.928;  161.700; -859.000; -604.000
443.051;  -61.000; -577.000; -373.000
443.173;  -72.500; -341.000; -339.000
443.295;  -82.800; -263.000; -371.000
443.418;  -50.700; -321.000;  -29.000
443.540;   71.500; -106.000;   -4.000
443.662; -137.900; -563.000; -465.000
443.785;   57.000;  335.000;  199.000
443.907; -144.700; -362.000; -208.000
444.029; -202.000; -767.000; -494.000
444.152; -193.700; -644.000; -554.000
444.274;   34.400;  -18.000;  -24.000
444.396; -141.800; -461.000; -221.000
444.518; -206.500; -691.000; -454.000
444.640; -162.000; -268.000; -111.000
444.763;   37.200;  388.000;  249.000
444.885; -144.600; -432.000; -392.000
445.007;   24.800;   35.000;   86.000
445.129; -146.200; -610.000; -515.000
445.251; -108.800; -372.000; -439.000
445.373; -172.400; -537.000; -386.000
445.495;   96.100;  242.000;  350.000
445.617;  165.200;  853.000;  753.000
445.739;  -65.100; -215.000;  -97.000
445.861;   42.600; -245.000; -112.000
445.984;   44.700; -267.000; -101.000
446.105;  607.600; -418.000; -251.000
446.227; 1449.400; -176.000;  -19.000
446.349;   91.600; -358.000; -249.000
446.471; -107.300; -615.000; -448.000
446.593;  -42.300; -316.000;   19.000
446.715;   97.100;  -67.000;   41.000
446.837;  226.400;  697.000;  832.000
446.959; -112.100; -457.000; -478.000
447.081; -195.300; -628.000; -518.000
447.203;  159.000;  862.000;  834.000
447.325;  -86.300; -270.000;   42.000
447.446;   84.200;  286.000;  530.000
447.568; -240.000; -921.000; -803.000
447.690;  -71.800; -236.000; -245.000
447.812; -222.100; -798.000; -519.000
447.933;   22.200;  155.000;  127.000
448.055;  -15.700; -306.000; -261.000
448.177;  448.100;   31.000;   79.000
448.299;  266.500; -935.000; -727.000
448.420;  142.100;  -25.000;  159.000
448.542;   18.000;   -3.000;   33.000
448.664;   58.100;  109.000;  322.000
448.785;   48.600;  265.000;   83.000
448.907;  -62.200; -614.000; -353.000
449.028;   18.800; -771.000; -471.000
449.150;  212.700;  492.000;  589.000
449.272; -298.000;-1044.000; -913.000
449.393;  140.100;  612.000;  694.000
449.515; -212.000; -634.000; -581.000
449.636;   -9.000; -264.000; -155.000
449.758;  271.500;  763.000;  622.000
449.879; -101.400; -498.000; -396.000
450.001;  -87.500; -149.000;  -49.000
450.122;   17.900;  -95.000;  162.000
450.244;   20.900;   37.000;  364.000
450.365; -103.500; -495.000; -301.000
450.486;   15.800;   80.000;  268.000
450.608;   63.800;  393.000;  326.000
450.729;  191.000;  578.000;  645.000
450.850;  -31.800; -574.000; -466.000
450.972; 1010.600; -552.000; -389.000
451.093; 6410.000;  190.000;  588.000
451.214; 2430.000; -516.000; -337.000
451.336;  596.800;  773.000;  579.000
451.457;  135.600;  264.000;  393.000
451.578;  -35.200; -118.000;  -74.000
451.699; -168.800; -546.000; -540.000
451.821;  -67.300; -284.000;  -50.000
451.942;   63.500;  278.000;  285.000
452.063;  134.100;  228.000;  419.000
452.184;  862.200;  -54.000;  -49.000
452.305; 1569.800;  103.000;  170.000
452.427;  144.700; -549.000; -301.000
452.548;   49.000;   23.000;   79.000
452.669;  -53.600; -257.000;  -89.000
452.790;   22.400;    3.000;  -18.000
452.911;   78.400;  195.000;  259.000
453.032;  -28.200; -289.000;  -60.000
453.153;    6.800;  -29.000;   81.000
453.274;  194.300;  737.000;  868.000
453.395;   14.800;  -51.000;  175.000
453.516;  359.400; 1317.000; 1388.000
453.637;   -8.500; -205.000; -150.000
453.758;   12.800;   15.000;   69.000
453.879; -153.700; -462.000; -250.000
454.000;  267.400; 1086.000;  948.000
454.121; -145.100; -554.000; -326.000
454.242; -158.600; -599.000; -383.000
454.362;  -43.100;  -99.000;  114.000
454.483;   38.300; -309.000; -229.000
454.604;  189.200;  512.000;  580.000
454.725; -181.700; -627.000; -555.000
454.846; -168.000; -474.000; -406.000
454.967;   66.100;  230.000;  539.000
455.087;  -25.500;  179.000;  153.000
455.208;  112.000;  554.000;  856.000
455.329;   -7.500;  -22.000;   82.000
455.450;  157.700;  473.000;  633.000
455.570; -123.100; -234.000; -211.000
455.691;  -14.400;  201.000;  407.000
455.812; -123.300; -270.000;  -92.000
455.932;  -60.100;  107.000;  -97.000
456.053;  -63.500;   36.000;   24.000
456.173; -123.000; -433.000; -355.000
456.294; -210.500; -476.000; -303.000
456.415;  -40.400;  -73.000;   70.000
456.535;   28.800;  297.000;  273.000
456.656;  -12.900;  132.000;  240.000
456.776;  -71.600;    3.000;  298.000
456.897;   80.300;  308.000;  513.000
457.017;  -91.600; -153.000;   -3.000
457.138; -145.600; -402.000; -249.000
457.258;   58.700;  263.000;  224.000
457.379;   92.400;  509.000;  521.000
457.499;   66.800;  443.000;  432.000
457.620; -157.700; -407.000; -231.000
457.740; -103.300; -132.000;  -11.000
457.860;  -37.800;   87.000;   44.000
457.981;    4.900;  132.000;  124.000
458.101;  -65.600;  -89.000;   40.000
458.221;   30.600;  336.000;  402.000
458.342;  -44.500;   -4.000;  -37.000
458.462;   92.300;  617.000;  352.000
458.582;  -68.400; -302.000; -294.000
458.703;   18.400;  303.000;  154.000
458.823;   -5.500;   22.000;  163.000
458.943;  127.500;  341.000;  467.000
459.063;   63.100; 1124.000;  192.000
459.183;   37.700;  328.000;  313.000
459.304;  128.800;  315.000;  517.000
459.424;  -56.700; -246.000;  -89.000
459.544;  614.900;  388.000;  764.000
459.664; 1271.800;  499.000;  506.000
459.784;  529.800; 1004.000; 1175.000
459.904;  171.300;  867.000;  744.000
460.024;  282.600;  867.000;  684.000
460.144;  117.300;  449.000;  554.000
460.264;   52.600;  515.000;  327.000
460.385; -114.000; -145.000; -119.000
460.505;  185.200;  905.000;  858.000
460.625; -121.500;  -17.000;  -68.000
460.745;   61.300;  396.000;  541.000
460.864;   -9.700;  153.000;  469.000
460.984;  152.400;  499.000;  573.000
461.104;  404.600; 1656.000; 1775.000
461.224;  107.000;  657.000;  650.000
461.344;   44.600;  431.000;  360.000
461.464;   31.200;  258.000;  513.000
461.584;   53.000;  283.000;  466.000
461.704;  -12.100;   58.000;  108.000
461.824;  -61.700;  238.000;  259.000
461.943;   -3.100;  191.000;  130.000
462.063;  -78.100;    2.000;  324.000
462.183;  122.800;  639.000;  717.000
462.303;  330.700; 1678.000; 1230.000
462.422;  132.500;  781.000;  840.000
462.542;   18.100;  271.000;  391.000
462.662;  145.000;  353.000;  380.000
462.782;  468.400;  833.000;  572.000
462.901;  801.700;  545.000;  717.000
463.021;  545.900; 1702.000; 1638.000
463.141;   42.900;  337.000;  770.000
463.260;   61.000;  614.000;  474.000
463.380;   95.900;  902.000;  884.000
463.499;  -11.800;  342.000;  332.000
463.619;    7.900;  581.000;  559.000
463.738;  329.200; 1644.000;  903.000
463.858;  108.300;  657.000;  811.000
463.978;   29.900;  542.000;  396.000
464.097;  178.000;  921.000; 1114.000
464.217;  282.900; 1196.000; 1143.000
464.336;  238.700; 1068.000; 1130.000
464.455;    5.400;  328.000;  659.000
464.575;  227.500;  597.000;  602.000
464.694;  456.700; 1204.000; 1179.000
464.814;  294.900; 1190.000; 1138.000
464.933;  245.100; 1095.000; 1027.000
465.052;  287.200; 1412.000; 1054.000
465.172;  279.800;  922.000;  799.000
465.291;  426.500; 1376.000; 1320.000
465.410;   98.600;  462.000;  735.000
465.530;  283.600; 1355.000; 1310.000
465.649;  217.000; 1209.000; 1273.000
465.768;  414.700; 1673.000; 1508.000
465.888;  192.400;  941.000; 1174.000
466.007;  291.600; 1335.000; 1440.000
466.126;   76.600;  721.000;  641.000
466.245;  179.100; 1176.000; 1187.000
466.364;  132.000;  950.000; 1060.000
466.484;  187.500; 1024.000; 1213.000
466.603;  169.700; 1101.000; 1222.000
466.722;  347.600; 1490.000; 1769.000
466.841;  230.300; 1151.000; 1401.000
466.960;  152.000; 1069.000;  972.000
467.079;  371.700; 1971.000; 1786.000
467.198;  207.400; 1238.000; 1181.000
467.317;  267.700; 1768.000; 1162.000
467.436;  230.700; 1709.000; 1261.000
467.555;  374.500; 1796.000; 1746.000
467.674;  218.500; 1227.000; 1329.000
467.793;  207.000; 1376.000; 1374.000
467.912;  290.800; 1658.000; 1539.000
468.031;  363.500; 2038.000; 1930.000
468.150;  431.400; 1842.000; 1837.000
468.269;  516.000; 2313.000; 2090.000
468.388;  524.500; 2168.000; 2339.000
468.507;  582.700; 2884.000; 2903.000
468.626;  646.800; 2555.000; 2541.000
468.744;  391.400; 2018.000; 2174.000
468.863;  506.700; 2312.000; 2523.000
468.982;  259.300; 1503.000; 1555.000
469.101;  525.500; 2788.000; 2692.000
469.220;  394.700; 2333.000; 2176.000
469.338;  558.200; 2935.000; 3051.000
469.457;  487.500; 2719.000; 2545.000
469.576;  817.300; 3953.000; 3784.000
469.695;  615.200; 2877.000; 3066.000
469.813;  974.300; 4148.000; 4192.000
469.932;  890.000; 4255.000; 4485.000
470.051;  960.000; 4075.000; 4161.000
470.169; 1604.600; 4470.000; 4338.000
470.288; 2435.200; 4700.000; 4809.000
470.406; 1531.800; 5059.000; 5194.000
470.525; 1322.100; 6101.000; 5787.000
470.644; 1428.100; 6847.000; 6794.000
470.762; 1867.200; 8397.000; 7873.000
470.881; 1930.700; 8651.000; 8464.000
470.999; 2182.200; 9685.000; 9151.000
471.118; 2366.600;11174.000;10711.000

