
Integration time [ms]: 200.000
Averaging Nr. [scans]: 10
Smoothing Nr. [pixels]: 0
Data measured with spectrometer [name]: 2101012U2
Wave   ;Sample   ;Dark     ;Reference
[nm]   ;[counts] ;[counts] ;[counts] 

197.733;  113.900;  516.000;  404.000
197.879; -182.600; -610.000; -634.000
198.025;  -93.100; -475.000; -420.000
198.171; -141.000; -602.000; -612.000
198.317;  -56.700; -401.000; -316.000
198.463; -141.700; -655.000; -404.000
198.609;   58.600;  181.000; -137.000
198.755; -183.400; -644.000; -410.000
198.901; -130.700; -505.000; -424.000
199.047; -156.800; -615.000; -488.000
199.193;  -63.300; -230.000; -468.000
199.339; -122.800; -222.000; -369.000
199.485;   87.100;  330.000;  271.000
199.631;   56.200;  227.000;  310.000
199.777; -127.700; -466.000; -398.000
199.923; -166.900; -610.000; -424.000
200.069;   -1.300; -141.000;  -58.000
200.215;   86.800;  128.000;  453.000
200.361;   88.700;  243.000;  477.000
200.507; -140.300; -600.000; -373.000
200.653;  -84.700; -371.000; -194.000
200.798;  -81.800; -215.000; -125.000
200.944;  -26.400; -146.000;  -41.000
201.090;   63.200;   61.000;  222.000
201.236;  -11.000; -116.000; -158.000
201.382;  271.000;  874.000;  903.000
201.528;   37.700;  -58.000;  -48.000
201.674; -108.300; -386.000; -293.000
201.819; -122.800; -540.000; -439.000
201.965; -172.800; -699.000; -447.000
202.111;  -76.000; -273.000; -226.000
202.257;  -80.500; -250.000; -238.000
202.402;   24.300;   13.000;  -36.000
202.548;  -81.600; -169.000; -116.000
202.694;  180.300;  410.000; -183.000
202.840; -195.000; -603.000; -531.000
202.985; -172.300; -681.000; -639.000
203.131; -224.500; -832.000; -666.000
203.277;  -72.300; -199.000; -262.000
203.423; -115.000; -434.000; -520.000
203.568; -106.000; -462.000; -237.000
203.714; -118.300; -535.000; -542.000
203.860; -166.100; -682.000; -641.000
204.005;   44.000;  112.000;  167.000
204.151;  180.500;  561.000;  556.000
204.296; -108.200; -354.000; -221.000
204.442; -126.800; -600.000; -547.000
204.588; -171.900; -592.000; -579.000
204.733;   39.500;  178.000;  168.000
204.879; -262.200;-1018.000; -822.000
205.025;   -2.400;  -99.000;  126.000
205.170;   -6.800;  -17.000;   94.000
205.316;  157.700;  438.000;  661.000
205.461; -187.200; -698.000; -554.000
205.607;  186.900;  609.000;  665.000
205.752; -167.500; -626.000; -551.000
205.898; -105.400; -501.000; -391.000
206.043; -159.200; -578.000; -506.000
206.189;  -86.100; -243.000; -285.000
206.334;  162.300;  554.000;  606.000
206.480;  178.700;  409.000;  239.000
206.625; -188.400; -529.000; -552.000
206.771; -102.100; -451.000; -373.000
206.916;  -49.100; -210.000; -537.000
207.062; -143.100; -545.000; -591.000
207.207; -139.700; -546.000; -443.000
207.353;  143.200;  185.000;  460.000
207.498;   24.200;  196.000;   85.000
207.643;  -87.200; -501.000; -370.000
207.789; -278.500;-1069.000; -910.000
207.934; -210.100; -665.000; -713.000
208.080;  -56.300; -154.000;   66.000
208.225;  -18.700;  -22.000;  -57.000
208.370; -205.600; -727.000; -619.000
208.516; -165.100; -741.000; -487.000
208.661;  -64.300; -127.000;  -69.000
208.806;  -35.500; -165.000; -171.000
208.952; -264.300;-1044.000; -731.000
209.097;  154.200;  378.000;  349.000
209.242; -123.000; -307.000; -382.000
209.387;  127.600;  392.000;  350.000
209.533;  -85.200; -321.000; -350.000
209.678;  170.500;  472.000;  543.000
209.823; -109.600; -408.000; -310.000
209.969; -199.000; -860.000; -757.000
210.114; -226.900; -907.000; -719.000
210.259; -239.500; -939.000; -889.000
210.404;  -31.700; -171.000;  103.000
210.549;   -2.700;  108.000;    3.000
210.695;  -51.600;   -3.000;  -95.000
210.840;   65.700;   94.000;   67.000
210.985; -134.800; -484.000; -303.000
211.130;  160.100;  268.000;  406.000
211.275;   35.600;  207.000;  199.000
211.420; -111.200; -300.000; -289.000
211.566; -140.400; -536.000; -489.000
211.711;   72.200;  218.000;  157.000
211.856; -137.500; -545.000; -519.000
212.001;   47.500;  151.000;   44.000
212.146;  -36.100;  153.000;   49.000
212.291;  -50.900; -210.000; -186.000
212.436;  -44.200; -280.000;   -6.000
212.581; -162.500; -685.000; -653.000
212.726; -160.900; -487.000; -538.000
212.871;  -87.500; -552.000; -217.000
213.016; -324.700;-1172.000;-1029.000
213.161;  113.000;  406.000;  291.000
213.306; -142.900; -435.000; -577.000
213.451; -204.700; -778.000; -689.000
213.596;  -99.200; -455.000; -347.000
213.741; -102.800; -448.000; -538.000
213.886; -155.200; -498.000; -517.000
214.031;  -43.800; -294.000; -124.000
214.176; -117.800; -408.000; -341.000
214.321;  -33.500; -296.000; -157.000
214.466;  -43.000; -163.000;  -43.000
214.611;    7.200;  -61.000;  -10.000
214.756; -246.200; -948.000; -858.000
214.901;  -43.000; -388.000; -226.000
215.046; -251.000; -797.000; -825.000
215.191;   44.300;  128.000;   35.000
215.336;   -7.400; -157.000;  -19.000
215.480; -115.000; -684.000; -505.000
215.625;  -19.400; -175.000;  -19.000
215.770; -175.000; -757.000; -662.000
215.915;   -6.100;   -5.000;  -97.000
216.060;   -5.500; -113.000;  -21.000
216.205; -218.100; -731.000; -779.000
216.349; -128.100; -470.000; -533.000
216.494; -259.500; -939.000; -867.000
216.639; -239.400; -823.000; -888.000
216.784; -179.700; -577.000; -525.000
216.929;  130.300;  392.000;  281.000
217.073;  -24.600; -244.000;  -31.000
217.218;   36.400;   78.000;  -47.000
217.363; -201.700; -656.000; -618.000
217.507; -177.900; -623.000; -588.000
217.652; -270.100; -845.000; -874.000
217.797; -196.000; -708.000; -659.000
217.942; -242.800; -856.000; -720.000
218.086;  177.200;  608.000;  539.000
218.231;  -33.300; -174.000;  -26.000
218.376;  -44.700; -337.000; -229.000
218.520;   -1.500;  -41.000;   96.000
218.665;  -56.200; -338.000; -204.000
218.810;  -77.200; -275.000; -233.000
218.954;   44.600;  201.000;   35.000
219.099; -251.200; -713.000; -963.000
219.243; -150.700; -589.000; -554.000
219.388;  -58.800; -264.000; -136.000
219.532;  -17.800; -116.000; -116.000
219.677; -153.500; -564.000; -521.000
219.822;   -2.500;   33.000;   89.000
219.966;   21.900;   17.000;  -99.000
220.111;  -85.400; -328.000;  -40.000
220.255; -202.300; -797.000; -750.000
220.400;  -40.900; -180.000; -146.000
220.544; -155.900; -516.000; -450.000
220.689;  -97.700; -422.000; -451.000
220.833;  -10.400; -123.000;  -58.000
220.978;  -74.100; -393.000; -563.000
221.122;   35.200;  319.000;  307.000
221.267; -251.700; -906.000; -837.000
221.411; -139.200; -478.000; -394.000
221.555;    9.500; -104.000;  -23.000
221.700; -118.800; -329.000; -222.000
221.844;   61.500;  255.000;  272.000
221.989; -106.200; -328.000; -311.000
222.133;  -76.300; -289.000; -307.000
222.277;   -6.700;    5.000;   78.000
222.422;   46.900;  227.000;  113.000
222.566;  -81.700; -381.000; -214.000
222.711; -127.800; -414.000; -479.000
222.855; -181.100; -643.000; -586.000
222.999; -167.100; -642.000; -717.000
223.144;  -56.400; -195.000; -194.000
223.288;   98.100;  423.000;  251.000
223.432;   23.700;  184.000;  230.000
223.576;   68.000;  152.000;  -21.000
223.721;   86.200;  364.000;  273.000
223.865; -116.000; -472.000; -475.000
224.009;  522.400; 1673.000; 1631.000
224.153; -178.400; -660.000; -671.000
224.298; -145.200; -531.000; -489.000
224.442;  -33.500;  -74.000;  -33.000
224.586;  -20.600; -169.000; -106.000
224.730; -225.300; -858.000; -670.000
224.875; -230.800; -739.000; -688.000
225.019;   45.900;  102.000;  188.000
225.163;  129.000;  208.000;  341.000
225.307;   48.700;   97.000;  -91.000
225.451;   96.300;  360.000;  481.000
225.595;  101.300;  264.000;  176.000
225.739;  -27.900; -170.000;  -94.000
225.884;    6.900;   86.000;    5.000
226.028; -221.100; -760.000; -626.000
226.172;  -70.800; -260.000; -273.000
226.316; -239.100; -941.000; -902.000
226.460; -145.600; -645.000; -493.000
226.604; -104.700; -406.000; -400.000
226.748; -216.400; -836.000; -733.000
226.892;  -72.800; -227.000; -181.000
227.036; -110.100; -537.000; -447.000
227.180; -112.100; -551.000; -375.000
227.324; -146.000; -561.000; -580.000
227.468; -227.900; -819.000; -717.000
227.612;   21.100;  242.000;  -28.000
227.756; -181.300; -845.000; -698.000
227.900;  110.900;  342.000;  441.000
228.044; -119.400; -509.000; -290.000
228.188;  112.100;  448.000;  568.000
228.332; -182.400; -546.000; -472.000
228.476;  -46.900; -223.000; -149.000
228.620;  -74.900; -210.000; -150.000
228.764;  160.100;  431.000;  349.000
228.908;  -38.100; -155.000;   30.000
229.052; -132.000; -615.000; -528.000
229.195;  -42.500; -172.000;   13.000
229.339;  -29.700; -235.000; -305.000
229.483;  -71.500;    5.000; -162.000
229.627;   -5.300; -156.000;  139.000
229.771;  -95.800; -218.000; -294.000
229.915;   11.500;  230.000;   79.000
230.059; -203.500; -648.000; -663.000
230.202;  -75.600; -370.000; -317.000
230.346;  -23.600; -107.000;  107.000
230.490; -126.400; -489.000; -521.000
230.634; -207.100; -736.000; -553.000
230.777;  169.200;  478.000;  509.000
230.921; -140.200; -450.000; -359.000
231.065;  -88.800; -246.000; -286.000
231.209;   73.800;  261.000;  265.000
231.352;   77.800;   54.000;   40.000
231.496;   38.400;  568.000;  188.000
231.640; -131.700; -693.000; -621.000
231.783;  140.700;  546.000;  525.000
231.927;  -99.500; -294.000; -365.000
232.071; -244.700; -962.000; -736.000
232.214; -239.700; -980.000; -764.000
232.358; -204.100; -683.000; -599.000
232.502;    4.600;  -19.000;    7.000
232.645; -287.000;-1090.000; -927.000
232.789;  -13.800; -257.000; -218.000
232.933;  -96.600; -407.000; -224.000
233.076; -274.000;-1038.000; -897.000
233.220; -221.900; -752.000; -777.000
233.363; -149.800; -669.000; -477.000
233.507;  123.400;  371.000;  129.000
233.650; -188.500; -764.000; -834.000
233.794;  103.800;  438.000;  461.000
233.938; -109.600; -530.000; -362.000
234.081;  -10.700;  -93.000;   31.000
234.225; -134.900; -631.000; -539.000
234.368; -219.900; -773.000; -723.000
234.512;  -69.200; -385.000; -299.000
234.655; -201.900; -582.000; -555.000
234.798; -130.100; -493.000; -466.000
234.942; -253.600; -884.000;-1002.000
235.085; -158.700; -651.000; -443.000
235.229; -160.700; -405.000; -410.000
235.372;  -72.600; -247.000; -191.000
235.516; -118.900; -397.000; -321.000
235.659;   59.900;   92.000;  121.000
235.802;  -38.000;  -38.000;  -22.000
235.946;   94.300;  335.000;  215.000
236.089;    4.900;  126.000;  250.000
236.233;   96.600;  275.000;  298.000
236.376;  -84.800; -235.000; -378.000
236.519;  -43.800; -297.000; -319.000
236.663;  -19.300; -215.000; -117.000
236.806; -272.600;-1029.000; -999.000
236.949;  114.500;  543.000;  431.000
237.092;  150.000;  412.000;  391.000
237.236; -174.900; -589.000; -502.000
237.379;  162.500;  352.000;  428.000
237.522; -227.000; -879.000; -768.000
237.666;  -22.900; -271.000;   18.000
237.809; -267.700; -851.000; -823.000
237.952;   93.800;  469.000;  271.000
238.095; -138.900; -447.000; -442.000
238.238;  160.800;  688.000;  700.000
238.382;    0.500;  166.000;  103.000
238.525; -142.800; -598.000; -511.000
238.668; -296.100;-1060.000; -985.000
238.811; -157.000; -638.000; -643.000
238.954; -114.100; -483.000; -334.000
239.097;  217.400;  617.000;  664.000
239.241;   49.300;  394.000;  326.000
239.384;  -63.600; -254.000; -214.000
239.527; -100.800; -424.000; -224.000
239.670; -299.100; -994.000;-1091.000
239.813; -225.000; -696.000; -658.000
239.956;  164.000;  579.000;  473.000
240.099; -227.800; -778.000; -725.000
240.242;  112.500;  428.000;  432.000
240.385;   89.800;  466.000;  450.000
240.528; -138.600; -706.000; -473.000
240.671;   38.300;  189.000;  134.000
240.814;  -91.400; -441.000; -158.000
240.957; -178.900; -767.000; -578.000
241.100; -179.000; -779.000; -755.000
241.243; -312.300;-1234.000; -893.000
241.386; -120.900; -508.000; -379.000
241.529; -173.000; -735.000; -547.000
241.672; -120.900; -566.000; -495.000
241.815; -252.800; -832.000; -808.000
241.958;  -52.100; -125.000; -182.000
242.101; -153.800; -545.000; -390.000
242.244;  -72.700; -270.000; -325.000
242.387; -125.000; -304.000; -246.000
242.530;  133.500;  470.000;  134.000
242.673;  -64.700; -381.000; -309.000
242.815; -258.600; -925.000; -899.000
242.958; -134.700; -482.000; -381.000
243.101;   55.200;  132.000;  187.000
243.244; -172.800; -564.000; -521.000
243.387;  -74.100; -313.000; -316.000
243.530; -232.100; -657.000; -674.000
243.672;   14.200;   43.000;  -92.000
243.815;  -92.100; -355.000; -283.000
243.958;   35.000;   98.000;  -26.000
244.101;  -11.200;   59.000;  -16.000
244.243;  -15.700;  -47.000;  101.000
244.386; -230.000; -761.000; -630.000
244.529;  -12.600; -132.000; -139.000
244.672; -311.700;-1154.000; -951.000
244.814; -203.800; -621.000; -794.000
244.957; -130.200; -380.000; -304.000
245.100; -132.900; -489.000; -489.000
245.242; -113.400; -387.000; -374.000
245.385;   22.700;  -59.000;  -39.000
245.528; -270.600; -871.000; -705.000
245.670;  187.500;  612.000;  634.000
245.813; -166.900; -599.000; -547.000
245.956;  -47.600; -324.000; -275.000
246.098; -134.300; -508.000; -650.000
246.241;    1.500;  194.000;   48.000
246.383;   -1.700; -119.000;  -73.000
246.526; -160.400; -454.000; -525.000
246.669; -260.600; -889.000; -780.000
246.811;   41.400;  172.000;   -1.000
246.954; -103.500; -512.000; -426.000
247.096;   -0.100;  -84.000;   -6.000
247.239; -142.700; -482.000; -445.000
247.381; -135.000; -647.000; -488.000
247.524;  178.700;  645.000;  679.000
247.666;  -13.600;   58.000;   11.000
247.809; -238.300; -887.000; -691.000
247.951;    6.200;  -75.000;  138.000
248.094;   68.300;  432.000;  308.000
248.236; -331.800;-1262.000;-1238.000
248.378;   15.500; -356.000;  -81.000
248.521;  -40.100; -334.000; -337.000
248.663;  -61.200; -236.000; -267.000
248.806;  -45.300; -300.000; -266.000
248.948; -192.500; -886.000; -763.000
249.090; -120.000; -428.000; -398.000
249.233; -125.500; -344.000; -381.000
249.375; -103.000; -474.000; -451.000
249.518;  -46.400;  -83.000; -133.000
249.660;  -26.900; -103.000;    3.000
249.802; -342.600;-1303.000;-1189.000
249.945; -133.300; -612.000; -540.000
250.087; -209.200; -834.000; -768.000
250.229;  -70.100; -362.000; -480.000
250.371; -163.600; -494.000; -439.000
250.514;  -79.900; -310.000; -244.000
250.656; -126.900;   69.000;  102.000
250.798; -233.700; -849.000; -800.000
250.940; -114.800; -322.000; -322.000
251.083;  -23.100; -335.000; -111.000
251.225;  144.400;  338.000;  310.000
251.367;  -83.500; -274.000; -373.000
251.509;  -62.200; -265.000; -210.000
251.651; -167.600; -731.000; -671.000
251.794;  163.500;  538.000;  632.000
251.936; -229.200; -821.000; -747.000
252.078; -146.300; -540.000; -461.000
252.220; -123.400; -645.000; -477.000
252.362;  150.300;  344.000;  462.000
252.504; -157.100; -677.000; -584.000
252.646; -253.100; -875.000; -722.000
252.788;   -4.000;   14.000; -128.000
252.931;  -73.100; -257.000; -253.000
253.073;  -92.300; -376.000; -317.000
253.215;   27.200;  141.000;  122.000
253.357;    9.300;   82.000; -153.000
253.499;  -77.200; -374.000; -234.000
253.641; -175.100; -749.000; -594.000
253.783; -197.700; -609.000; -527.000
253.925; -181.300; -586.000; -591.000
254.067; -226.400; -744.000; -667.000
254.209;  -41.800; -391.000; -259.000
254.351; -295.000; -865.000; -883.000
254.493;  -93.300; -441.000; -417.000
254.635; -218.000; -936.000; -818.000
254.777; -173.600; -752.000; -687.000
254.918; -128.100; -512.000; -430.000
255.060;  -91.800; -551.000; -395.000
255.202; -138.200; -473.000; -261.000
255.344; -109.500; -658.000; -455.000
255.486; -115.400; -471.000; -406.000
255.628; -203.800; -780.000; -781.000
255.770; -200.800; -676.000; -536.000
255.912; -138.700; -559.000; -468.000
256.053; -187.900; -730.000; -508.000
256.195;  358.800; 1008.000;  903.000
256.337; -208.300; -861.000; -595.000
256.479;  146.400;  532.000;  416.000
256.621;  -59.600; -394.000; -212.000
256.762; -185.100; -789.000; -742.000
256.904;   89.500;  485.000;  487.000
257.046;  -83.100; -381.000; -271.000
257.188;  -79.000; -351.000; -264.000
257.329; -134.100; -525.000; -464.000
257.471; -249.400; -939.000; -807.000
257.613; -109.100; -584.000; -498.000
257.755; -288.700;-1073.000; -982.000
257.896;   82.400;  286.000;  392.000
258.038; -112.300; -403.000; -352.000
258.180;  -64.200; -354.000; -279.000
258.321; -210.900; -581.000; -457.000
258.463;   16.600;  -71.000;  133.000
258.605; -171.300; -562.000; -570.000
258.746; -175.000; -886.000; -772.000
258.888; -328.000;-1026.000;-1020.000
259.029;   69.500;  121.000;   -8.000
259.171; -170.000; -614.000; -550.000
259.313;  -12.600;  -49.000;  -47.000
259.454; -145.300; -536.000; -414.000
259.596;  -97.100; -483.000; -390.000
259.737; -153.100; -590.000; -474.000
259.879;  101.600;  217.000;  311.000
260.020;  218.600;  901.000;  636.000
260.162;  -33.500; -146.000; -253.000
260.303; -221.600; -768.000; -687.000
260.445; -157.200; -609.000; -613.000
260.586;   64.200;  392.000;  157.000
260.728;  -74.900; -360.000; -248.000
260.869; -136.900; -350.000; -343.000
261.011;  164.200;  706.000;  537.000
261.152; -121.500; -479.000; -319.000
261.293; -123.500; -576.000; -595.000
261.435;  -49.000; -219.000; -184.000
261.576;  -80.500; -455.000; -325.000
261.718;  125.800;  420.000;  470.000
261.859; -232.900; -940.000; -949.000
262.000; -271.900; -951.000;-1016.000
262.142;  -19.600;  -52.000;  -60.000
262.283; -243.700; -808.000; -691.000
262.424; -146.000; -666.000; -625.000
262.566; -332.500;-1161.000; -983.000
262.707; -215.300; -840.000; -830.000
262.848; -246.400; -769.000; -726.000
262.990;  -68.700; -362.000; -345.000
263.131;  182.400;  650.000;  681.000
263.272;   -7.600;  -61.000;  -41.000
263.413; -176.900; -589.000; -561.000
263.555; -103.200; -669.000; -143.000
263.696; -150.200; -550.000; -641.000
263.837;  -81.300; -449.000; -551.000
263.978;   17.000;   -5.000;  -77.000
264.119;  -74.000; -283.000; -264.000
264.261; -240.300; -847.000; -630.000
264.402;   26.400;   33.000;   40.000
264.543; -157.100; -509.000; -524.000
264.684;   -4.400;   61.000;  -50.000
264.825; -143.200; -816.000; -538.000
264.966;   53.300;  -84.000;  -67.000
265.107; -234.500; -646.000; -670.000
265.248; -241.400; -825.000; -812.000
265.390;   32.700;  152.000;   -9.000
265.531;  -14.300; -238.000; -107.000
265.672; -195.600; -557.000; -630.000
265.813;  197.200;  563.000;  439.000
265.954; -274.100; -959.000; -940.000
266.095;   -9.600; -372.000; -322.000
266.236; -213.200; -686.000; -548.000
266.377;  -39.200; -243.000; -297.000
266.518; -127.900; -619.000; -547.000
266.659;   89.600;  170.000;  268.000
266.800;   25.900;   83.000;   85.000
266.941; -143.000; -487.000; -478.000
267.082;   40.100;  354.000;   99.000
267.223;  -87.400; -344.000; -273.000
267.364; -244.900; -892.000; -686.000
267.504;    8.600;    3.000;  135.000
267.645;  -24.400;  160.000;   67.000
267.786;  -79.700; -147.000;  -86.000
267.927; -129.300; -473.000; -379.000
268.068;   -2.800; -186.000;  -61.000
268.209;  -88.000; -175.000; -413.000
268.350;  -98.400; -388.000; -532.000
268.490; -178.100; -648.000; -521.000
268.631;  102.400;  127.000;  225.000
268.772; -216.500; -874.000; -647.000
268.913;  -62.300; -328.000; -476.000
269.054;    5.900; -117.000;   12.000
269.194;  -74.600; -418.000; -402.000
269.335; -312.100;-1137.000;-1074.000
269.476;  -12.700;   33.000;  -35.000
269.617;  -85.800; -347.000; -392.000
269.757; -185.200; -713.000; -646.000
269.898; -222.800; -856.000; -613.000
270.039; -100.300; -415.000; -405.000
270.180; -271.600; -952.000; -816.000
270.320;  -14.700; -190.000; -250.000
270.461;  -73.000; -277.000; -249.000
270.602;  -18.300; -186.000; -156.000
270.742; -256.100; -868.000; -943.000
270.883;  -99.400; -442.000; -390.000
271.023; -127.800; -358.000; -357.000
271.164; -150.200; -607.000; -528.000
271.305; -194.000; -666.000; -654.000
271.445; -187.900; -722.000; -683.000
271.586; -124.200; -462.000; -283.000
271.726;  -83.400; -397.000; -322.000
271.867; -135.800; -594.000; -534.000
272.008;  315.800; -473.000; -285.000
272.148;  242.200;  462.000;  468.000
272.289;   42.900; -113.000; -181.000
272.429;   36.500;   19.000;  185.000
272.570; -169.800; -633.000; -737.000
272.710; -190.500; -825.000; -775.000
272.851;  -44.900;  113.000; -130.000
272.991; -352.400;-1173.000;-1077.000
273.131; -153.100; -419.000; -459.000
273.272; -200.700; -683.000; -723.000
273.412;   29.300; -143.000;  -31.000
273.553; -117.800; -488.000; -507.000
273.693;  245.900;  913.000;  858.000
273.834; -196.700; -894.000; -692.000
273.974; -147.000; -664.000; -615.000
274.114; -199.000; -772.000; -560.000
274.255;  173.900;  414.000;  373.000
274.395;    8.100; -180.000; -125.000
274.535;  120.100;  199.000;  350.000
274.676;   77.300;  225.000;   94.000
274.816;   32.400;  110.000;   34.000
274.956; -167.400; -624.000; -690.000
275.097; -168.200;-1014.000; -922.000
275.237; -218.900; -913.000; -803.000
275.377; -195.900; -778.000; -689.000
275.517; -282.600; -878.000; -937.000
275.658; -111.600; -590.000; -555.000
275.798; -153.500; -606.000; -413.000
275.938;   68.400;  215.000;  323.000
276.078; -151.700; -626.000; -395.000
276.218;   34.800;   99.000;  104.000
276.359; -247.900;-1026.000;-1024.000
276.499; -127.500; -605.000; -446.000
276.639;  -53.000; -305.000; -151.000
276.779; -110.600; -475.000; -357.000
276.919; -223.700; -783.000; -624.000
277.059;   19.000; -261.000; -212.000
277.199;  -76.200; -357.000; -259.000
277.340;  125.200;  287.000;  175.000
277.480; -226.600; -840.000; -693.000
277.620;   79.900;  192.000;   16.000
277.760; -407.700;-1533.000;-1294.000
277.900;   42.100;  113.000;   33.000
278.040;   55.800;  137.000;  159.000
278.180;   62.100;  270.000;  170.000
278.320;   37.000;   21.000;   56.000
278.460; -139.500; -443.000; -469.000
278.600; -178.100; -708.000; -598.000
278.740;  129.900;  448.000;  224.000
278.880; -140.900; -768.000; -791.000
279.020;   60.000; -194.000; -144.000
279.160; -163.200; -672.000; -595.000
279.300; -211.700; -926.000; -873.000
279.440; -183.400; -709.000; -622.000
279.579;  -73.600;-1014.000; -929.000
279.719; -119.300; -410.000; -394.000
279.859;  139.100;   -4.000;   41.000
279.999;   67.900; -208.000;  101.000
280.139;  -49.200; -435.000; -387.000
280.279; -157.300; -708.000; -745.000
280.419;  -22.900; -229.000; -147.000
280.559;  -44.500; -259.000; -180.000
280.698; -193.500; -790.000; -639.000
280.838; -200.400; -778.000; -800.000
280.978; -189.500; -846.000; -790.000
281.118; -236.400; -811.000; -704.000
281.257;   25.000;   24.000;    6.000
281.397; -255.200;-1094.000; -960.000
281.537; -164.900; -599.000; -712.000
281.677;  -12.500; -150.000; -101.000
281.816; -151.900; -700.000; -630.000
281.956;  -60.500; -193.000; -257.000
282.096; -118.500; -539.000; -396.000
282.235; -184.600; -672.000; -638.000
282.375;  -17.800; -243.000;  -98.000
282.515; -220.900; -715.000; -707.000
282.654;   98.000;   29.000;  106.000
282.794;   78.500;  388.000;  244.000
282.934; -109.100; -530.000; -491.000
283.073; -265.800;-1030.000; -857.000
283.213;  -84.100; -460.000; -467.000
283.353;  -67.300; -408.000; -349.000
283.492;  -41.800; -264.000; -296.000
283.632;  -98.400; -254.000; -168.000
283.771; -197.400; -859.000; -730.000
283.911; -118.600; -369.000; -260.000
284.050; -191.400; -794.000; -748.000
284.190; -329.600;-1229.000;-1096.000
284.329; -275.000;-1055.000; -964.000
284.469; -127.000; -516.000; -591.000
284.608;  -75.100; -559.000; -598.000
284.748; -143.600; -614.000; -570.000
284.887;   32.300;  -87.000;  -20.000
285.027; -249.900; -844.000; -892.000
285.166;  -48.000; -192.000; -249.000
285.306;   28.600; -116.000;  -33.000
285.445;  -62.100; -229.000; -343.000
285.584; -187.100; -630.000; -494.000
285.724;  -79.600; -282.000; -322.000
285.863; -209.400; -857.000; -507.000
286.002;  -83.800; -366.000; -276.000
286.142; -194.500; -715.000; -622.000
286.281; -121.000; -525.000; -493.000
286.420; -124.100; -554.000; -417.000
286.560;  242.400;  653.000;  623.000
286.699; -259.000; -958.000; -912.000
286.838; -140.700; -590.000; -591.000
286.978; -167.500; -533.000; -537.000
287.117; -259.600;-1085.000; -950.000
287.256;  -69.100; -228.000; -211.000
287.395;  -90.800; -197.000; -378.000
287.535;  -97.900; -370.000; -298.000
287.674; -145.100; -509.000; -484.000
287.813;  150.700;  661.000;  533.000
287.952; -231.700;-1010.000; -871.000
288.091; -295.100;-1049.000; -915.000
288.231;   48.000;   13.000;   15.000
288.370; -334.000;-1217.000;-1200.000
288.509; -181.600; -728.000; -645.000
288.648; -151.600; -770.000; -548.000
288.787;  -41.200; -243.000;  -87.000
288.926; -109.000; -454.000; -475.000
289.065;  280.300;  859.000;  672.000
289.204; -126.800; -377.000; -217.000
289.344; -195.600; -791.000; -690.000
289.483;   55.600;  416.000;  304.000
289.622;   -9.900; -291.000; -149.000
289.761;  -13.500; -309.000; -166.000
289.900; -203.600; -785.000; -626.000
290.039;   -5.000;  -12.000;  -95.000
290.178;  -77.200; -274.000; -180.000
290.317; -146.300; -618.000; -479.000
290.456;  -99.500; -463.000; -451.000
290.595; -282.400; -961.000; -833.000
290.734; -266.400; -904.000; -891.000
290.873; -126.000; -456.000; -420.000
291.011; -221.600; -833.000; -843.000
291.150; -195.500; -770.000; -682.000
291.289;  -35.100; -343.000; -110.000
291.428; -168.800; -599.000; -480.000
291.567;  -56.300; -370.000; -442.000
291.706;    1.100;  109.000;  154.000
291.845; -187.600; -597.000; -505.000
291.984; -358.100;-1234.000;-1061.000
292.122;  197.700;  602.000;  582.000
292.261;  149.900;  620.000;  463.000
292.400;   29.000; -144.000;  211.000
292.539; -245.000; -959.000; -813.000
292.678;  -55.900; -325.000; -300.000
292.816; -320.800;-1136.000; -965.000
292.955; -144.400; -844.000; -684.000
293.094;  -16.400; -173.000; -337.000
293.233; -104.100; -556.000; -400.000
293.371;  -51.800; -225.000;  -84.000
293.510; -189.700; -866.000; -780.000
293.649; -263.900; -959.000; -924.000
293.787; -129.900;-1083.000;-1012.000
293.926;   18.200; -113.000;  -32.000
294.065;  -98.000; -379.000; -290.000
294.203;  124.000;  298.000;  406.000
294.342;  108.900;   74.000;  156.000
294.481;13841.300;51180.000; -836.000
294.619;  -14.200; -425.000; -582.000
294.758; -292.900;-1230.000;-1137.000
294.896;  124.000; -125.000;    5.000
295.035; -260.900;-1040.000;-1006.000
295.174; -221.400;-1082.000; -954.000
295.312;  -61.800; -323.000; -203.000
295.451;   -3.300; -307.000; -428.000
295.589;  -77.000; -389.000; -518.000
295.728;   47.600; -292.000; -165.000
295.866;   10.300;  -36.000;  -51.000
296.005; -130.800; -584.000; -341.000
296.143; -145.600; -558.000; -596.000
296.282; -183.100; -957.000; -881.000
296.420; -166.900; -657.000; -557.000
296.559; -170.700; -892.000; -633.000
296.697;   15.300; -847.000; -665.000
296.835;   89.100;-1141.000;-1002.000
296.974;  107.600;  -23.000;   39.000
297.112;   42.300; -443.000; -504.000
297.251; -152.600; -815.000; -755.000
297.389;  125.900; -576.000; -438.000
297.527;   98.600; -145.000;  -83.000
297.666; -115.200; -486.000; -438.000
297.804; -105.900; -404.000; -264.000
297.942;   40.100; -136.000; -161.000
298.081;   -0.200; -183.000;   63.000
298.219;  141.900;  -17.000;  -19.000
298.357;  109.100; -144.000;  -71.000
298.495;   20.400; -810.000; -812.000
298.634;  140.500;  245.000;  219.000
298.772;   90.200; -220.000; -338.000
298.910;  -35.100; -309.000; -182.000
299.048;   -5.800; -130.000; -153.000
299.187;  -48.500; -350.000; -250.000
299.325;   86.200;   52.000;  122.000
299.463;  111.400; -389.000; -299.000
299.601;  213.700; -327.000; -271.000
299.739; -193.900; -908.000; -883.000
299.877; -167.600; -791.000; -703.000
300.016; -136.200;-1095.000; -935.000
300.154;  327.400;  -19.000; -161.000
300.292;   59.600; -428.000; -348.000
300.430;   86.100; -408.000; -291.000
300.568; -213.600; -940.000; -874.000
300.706;  -61.200; -366.000; -469.000
300.844; -187.900;-1108.000; -979.000
300.982;  238.100;  246.000;  282.000
301.120; -228.500; -965.000; -866.000
301.258; -113.600; -812.000; -705.000
301.396;   75.900;  104.000;  -41.000
301.534;  138.200; -218.000; -293.000
301.672;  -25.300; -664.000; -521.000
301.810;   19.900; -613.000; -545.000
301.948;  255.000;   53.000;  149.000
302.086;  996.700; -250.000;  -32.000
302.224; 1595.600; -610.000; -585.000
302.362;   34.300; -558.000; -622.000
302.500;  -68.700; -923.000; -893.000
302.638;  243.600;  128.000;  245.000
302.776;   -9.200; -352.000; -408.000
302.913;  102.400;  447.000;  236.000
303.051;    6.800;  -86.000;  -23.000
303.189;  114.700;   90.000;  118.000
303.327;  -68.700; -341.000; -256.000
303.465; -175.500; -832.000; -588.000
303.603; -177.300; -805.000; -604.000
303.740;  199.800;  417.000;  241.000
303.878;   16.900; -800.000; -759.000
304.016; -174.900; -915.000; -790.000
304.154; -244.000;-1123.000;-1152.000
304.291;  -63.900; -505.000; -554.000
304.429;   49.300;  102.000;   74.000
304.567; -257.100; -908.000; -893.000
304.705;  -81.400; -408.000; -515.000
304.842;  193.800; -616.000; -540.000
304.980;  135.300;  215.000;   35.000
305.118;   50.800; -367.000; -365.000
305.255; -145.000; -945.000; -927.000
305.393;  146.500;  178.000;  239.000
305.531; -233.500;-1173.000; -956.000
305.668; -117.600; -663.000; -582.000
305.806;  175.400; -358.000; -439.000
305.943;  148.900; -629.000; -637.000
306.081;   70.500; -378.000; -267.000
306.219; -175.100; -863.000; -748.000
306.356;   22.600;  158.000;   27.000
306.494;  280.500;  981.000;  761.000
306.631;   19.100;  -11.000;  -55.000
306.769;   17.100; -613.000; -485.000
306.906;    2.500; -284.000; -258.000
307.044;  -75.800; -473.000; -488.000
307.181;  -88.100; -410.000; -332.000
307.319;  114.800;  112.000;   87.000
307.456; -327.900;-1191.000;-1153.000
307.594; -188.500; -980.000; -727.000
307.731;    2.200; -371.000; -164.000
307.868;   45.100;  -15.000;   20.000
308.006; -248.700; -961.000; -847.000
308.143;  -87.400; -618.000; -330.000
308.281;  384.100;  -37.000; -254.000
308.418;   44.200; -748.000; -640.000
308.555;  -95.600; -400.000; -250.000
308.693; -129.000; -577.000; -573.000
308.830; -173.400; -712.000; -657.000
308.967;   12.000; -215.000;  -95.000
309.105;  -21.000; -507.000; -396.000
309.242;  120.300; -468.000; -367.000
309.379;  824.400; -577.000; -655.000
309.517; -119.000; -936.000; -948.000
309.654; -153.700; -910.000; -734.000
309.791;  -92.500; -662.000; -580.000
309.928; -223.100; -977.000; -914.000
310.065;  398.300;  819.000;  697.000
310.203;  -50.100; -825.000; -850.000
310.340;   31.100; -465.000; -321.000
310.477; -144.800; -412.000; -516.000
310.614;  -89.600; -383.000; -473.000
310.751; -160.500; -427.000; -518.000
310.889;  -19.800;    1.000;   11.000
311.026; -265.500;-1161.000; -939.000
311.163;  -64.200; -386.000; -380.000
311.300; -130.300; -512.000; -479.000
311.437; -155.300; -658.000; -619.000
311.574; -294.700;-1226.000; -985.000
311.711;  -88.900; -595.000; -433.000
311.848;  -34.500; -380.000; -388.000
311.985;   58.800;  270.000;   93.000
312.122; -236.900; -932.000; -762.000
312.259; -221.100; -941.000; -994.000
312.396; -147.100; -508.000; -551.000
312.533; -157.000; -812.000; -790.000
312.670; -295.900;-1070.000; -898.000
312.807;  -17.700; -352.000; -367.000
312.944; -124.200; -513.000; -611.000
313.081;   -5.200; -150.000; -415.000
313.218; -209.700;-1111.000; -867.000
313.355;   33.800; -531.000; -449.000
313.492;    8.400; -455.000; -292.000
313.629;  298.300;  815.000;  735.000
313.766; -288.100;-1176.000;-1008.000
313.902;    5.400; -186.000;   21.000
314.039;  -85.800; -372.000; -289.000
314.176;   90.700;  286.000;  192.000
314.313; -111.000; -569.000; -473.000
314.450; -113.200; -788.000; -684.000
314.587;  -98.200; -468.000; -480.000
314.723;   23.200;  -78.000;  130.000
314.860;  117.500;  318.000;  332.000
314.997;   72.700;  223.000;  142.000
315.134;  -73.500; -385.000; -368.000
315.270;  -58.400; -480.000; -496.000
315.407; -258.400;-1094.000; -967.000
315.544;  -86.300; -657.000; -538.000
315.681; -124.100; -681.000; -565.000
315.817;   46.800; -133.000; -176.000
315.954;   19.900; -613.000; -392.000
316.091; -231.900;-1045.000;-1023.000
316.227;  -38.100;  -71.000; -179.000
316.364;   45.000;   23.000;    6.000
316.500;  -66.300; -113.000; -300.000
316.637;  -38.400; -181.000; -302.000
316.774; -169.000; -625.000; -358.000
316.910; -167.800; -598.000; -629.000
317.047; -118.400; -487.000; -351.000
317.183;  -61.800; -435.000; -566.000
317.320;  -38.100; -367.000; -321.000
317.456; -131.200; -733.000; -805.000
317.593; -154.600; -598.000; -641.000
317.729;   44.400;  168.000;  -67.000
317.866; -410.600;-1434.000;-1285.000
318.002; -172.900; -708.000; -948.000
318.139; -190.600; -883.000; -867.000
318.275; -186.100;-1003.000; -738.000
318.412; -111.000; -517.000; -336.000
318.548;  -34.600; -751.000; -720.000
318.685; -187.200; -985.000; -888.000
318.821; -180.000; -762.000; -735.000
318.957;   -9.300;   34.000;  -23.000
319.094;  112.000;  297.000;  154.000
319.230; -159.800; -756.000; -742.000
319.367;  202.500; -471.000; -520.000
319.503;  114.700; -538.000; -436.000
319.639; -188.100; -877.000; -793.000
319.775; -114.500; -750.000; -685.000
319.912; -113.900; -424.000; -519.000
320.048; -195.900;-1184.000;-1184.000
320.184;  194.000;   59.000;   70.000
320.321; -109.400; -497.000; -467.000
320.457;  176.000;  475.000;  662.000
320.593; -118.100; -375.000; -382.000
320.729; -176.100; -732.000; -734.000
320.866; -140.500; -577.000; -635.000
321.002; -145.100; -759.000; -809.000
321.138;   -6.300; -135.000; -211.000
321.274;  153.700; -148.000; -115.000
321.410;  -31.400; -585.000; -353.000
321.546;  -54.400;-1011.000; -911.000
321.683;  132.200;  400.000;  185.000
321.819;   24.600;  -48.000; -117.000
321.955; -201.000; -743.000; -722.000
322.091;  -60.200; -585.000; -540.000
322.227;   -4.700; -382.000; -202.000
322.363;  -17.000; -320.000; -215.000
322.499;  -96.600; -343.000; -331.000
322.635;  340.700;  636.000;  443.000
322.771;   38.100; -139.000;   12.000
322.907;  174.800;  129.000;  327.000
323.043;  -14.700; -115.000; -206.000
323.179;  -54.100; -394.000; -363.000
323.315;    5.800; -401.000; -371.000
323.451;  190.300; -328.000; -236.000
323.587;  145.800;  -60.000;  -77.000
323.723;   26.500; -682.000; -601.000
323.859;  -38.000; -258.000;  -76.000
323.995;  -36.200; -467.000; -409.000
324.131; -252.100; -967.000; -892.000
324.267;  -42.800; -254.000; -276.000
324.402; -239.000; -960.000; -983.000
324.538;   10.100; -279.000; -104.000
324.674;   69.000;  164.000;   77.000
324.810;  252.000;  226.000;  308.000
324.946;   24.300; -810.000; -658.000
325.082; -123.400; -568.000; -475.000
325.217;    6.400;  -62.000;   16.000
325.353; -167.400; -764.000; -659.000
325.489; -151.700; -540.000; -506.000
325.625; -126.000; -579.000; -525.000
325.760;  116.400;  517.000;  376.000
325.896;  -21.800; -515.000; -702.000
326.032;  -77.500; -403.000; -352.000
326.168; -106.600; -462.000; -369.000
326.303; -124.300; -352.000; -461.000
326.439;   15.200; -336.000; -276.000
326.575;   -4.200; -190.000;  -29.000
326.710;    8.500; -156.000;  -30.000
326.846;  -15.200;  146.000;  103.000
326.982; -173.400; -530.000; -548.000
327.117; -110.900; -481.000; -442.000
327.253; -160.000; -745.000; -742.000
327.388; -258.700;-1137.000;-1153.000
327.524; -104.400; -811.000; -578.000
327.659;   -8.100;  -58.000;  -22.000
327.795;   41.000;   69.000;   45.000
327.931; -136.500; -723.000; -499.000
328.066;   -8.800; -417.000; -276.000
328.202;   45.100;   12.000; -129.000
328.337;  236.700;  957.000;  713.000
328.473;   -5.800;  -12.000;  -74.000
328.608;  -50.400; -256.000; -267.000
328.743; -167.700; -799.000; -664.000
328.879;   45.500;  214.000;  114.000
329.014; -122.400; -102.000; -122.000
329.150; -138.400; -358.000; -483.000
329.285; -107.400; -465.000; -466.000
329.421;  -53.300; -548.000; -246.000
329.556;    9.900;  -36.000;   85.000
329.691; -173.600; -633.000; -615.000
329.827; -148.500; -626.000; -480.000
329.962;  -45.000;  131.000; -301.000
330.097; -178.100; -673.000; -585.000
330.233;  -96.800; -410.000; -223.000
330.368; -241.400; -839.000; -628.000
330.503;   18.900;    3.000;   98.000
330.638;   26.400;  -93.000; -125.000
330.774;  -90.700; -609.000; -530.000
330.909;  -62.000; -434.000; -244.000
331.044; -171.100; -714.000; -708.000
331.179; -307.400;-1217.000;-1109.000
331.315;   63.000;   77.000;   20.000
331.450;   60.300;  157.000;  285.000
331.585; -151.700; -805.000; -706.000
331.720; -162.700; -510.000; -460.000
331.855;  -18.100;  -35.000; -102.000
331.990;  469.700;   62.000;  138.000
332.126;  328.500; -110.000;   71.000
332.261;  -40.400; -379.000; -265.000
332.396;   24.900; -135.000; -242.000
332.531; -188.800;-1074.000;-1031.000
332.666;   83.600; -519.000; -363.000
332.801; -198.300; -726.000; -807.000
332.936;  -10.300; -192.000; -122.000
333.071; -259.200; -870.000; -817.000
333.206;   66.100;  307.000;  379.000
333.341;   83.500;  344.000;  418.000
333.476; -132.200; -627.000; -623.000
333.611;  -61.300; -251.000; -173.000
333.746;  -57.300; -381.000; -464.000
333.881; -221.600; -973.000; -935.000
334.016; -218.300; -936.000; -917.000
334.151; -266.400; -746.000; -702.000
334.286;  117.800;  152.000;  186.000
334.421;  -16.700; -125.000; -178.000
334.556; -138.500; -611.000; -567.000
334.690; -150.600; -631.000; -577.000
334.825;  172.800;  381.000;   83.000
334.960; -118.700; -285.000; -413.000
335.095;   47.800;  135.000;  -91.000
335.230; -181.800; -722.000; -738.000
335.365; -281.200;-1084.000; -990.000
335.499; -260.800;-1108.000;-1037.000
335.634;   79.600;    9.000;  534.000
335.769; -166.100; -755.000; -720.000
335.904;  -85.700; -603.000; -561.000
336.038;  -84.700; -735.000; -657.000
336.173; -214.000;-1206.000;-1194.000
336.308;   22.100; -116.000; -189.000
336.443;   -9.200; -544.000; -634.000
336.577; -150.700; -936.000; -787.000
336.712;  155.200;   -4.000;  -12.000
336.847;  -76.100; -724.000; -607.000
336.981;  112.400; -272.000; -208.000
337.116;  498.600;  615.000;  501.000
337.250;  260.600; -434.000; -421.000
337.385;  486.100; -297.000; -208.000
337.520;  181.900; -632.000; -603.000
337.654;  -66.500; -215.000; -126.000
337.789; -218.700; -989.000; -933.000
337.923;  -51.700; -104.000; -205.000
338.058; -152.800; -673.000; -738.000
338.192;  -33.300; -611.000; -488.000
338.327;   26.300;  -18.000; -155.000
338.461; -102.100; -299.000; -469.000
338.596; -131.200; -780.000; -638.000
338.730; -184.600; -767.000; -803.000
338.865;  173.700;  -46.000; -140.000
338.999;  -84.000; -846.000; -702.000
339.134;  -42.100; -634.000; -536.000
339.268;   10.900; -741.000; -603.000
339.403;  667.300; -740.000; -775.000
339.537;  226.000; -894.000; -820.000
339.671; -213.500; -829.000; -813.000
339.806;  -93.200; -556.000; -512.000
339.940;   41.700; -261.000; -235.000
340.074; -179.300; -685.000; -510.000
340.209;  -46.100; -351.000; -230.000
340.343; -153.400; -517.000; -573.000
340.477;  357.500;  998.000; 1036.000
340.612; -109.600;-1033.000; -900.000
340.746;  255.000; -199.000; -243.000
340.880; -163.300; -924.000; -785.000
341.014;   -4.500;  -45.000; -154.000
341.149; -192.100; -756.000; -718.000
341.283; -206.400; -839.000; -754.000
341.417; -215.800;-1124.000; -938.000
341.551;  187.700; -768.000; -708.000
341.685;  -41.200; -633.000; -611.000
341.820;  -93.600; -562.000; -493.000
341.954; -115.500; -218.000; -349.000
342.088; -273.700;-1102.000;-1019.000
342.222;  128.500;  565.000;  618.000
342.356;  -82.100; -395.000; -335.000
342.490; -175.000; -880.000; -841.000
342.624;  -61.200; -339.000; -242.000
342.758;    8.600; -364.000; -312.000
342.892;  -94.100; -710.000; -585.000
343.026;  -22.900;  -58.000; -116.000
343.160;  -86.700; -426.000; -376.000
343.294; -140.600; -474.000; -337.000
343.428;  -31.000; -488.000; -448.000
343.562;  -55.400; -172.000;  -23.000
343.696;   -9.400; -385.000; -314.000
343.830;  -21.300; -362.000; -356.000
343.964;   96.100; -231.000; -168.000
344.098; 1560.000;  199.000;   70.000
344.232; 1258.100; -266.000; -127.000
344.366;  150.800; -567.000; -453.000
344.500;  108.200; -665.000; -744.000
344.634;   57.700; -324.000; -164.000
344.768;    1.800; -531.000; -341.000
344.902;   80.300;  278.000;  256.000
345.035;  -75.100; -556.000; -496.000
345.169; -264.400; -933.000; -656.000
345.303;   -3.400; -308.000; -482.000
345.437; -146.200; -826.000; -717.000
345.571; -143.500; -675.000; -594.000
345.704; -102.800; -309.000; -532.000
345.838;  -11.300; -331.000; -284.000
345.972;  -75.000; -543.000; -495.000
346.106;  336.300; -179.000; -190.000
346.239;  723.600; -312.000; -243.000
346.373;    8.900; -343.000; -302.000
346.507; -278.000; -950.000; -962.000
346.640;  224.800;  -30.000;   13.000
346.774; -108.600; -650.000; -797.000
346.908;   22.100; -138.000;  -11.000
347.041; -190.500; -646.000; -593.000
347.175;   41.800;  259.000;   27.000
347.309; -125.800; -698.000; -628.000
347.442; -192.200; -883.000; -732.000
347.576;  547.700;  670.000;  668.000
347.709;  336.600; -123.000;  -52.000
347.843; -167.200; -933.000; -825.000
347.976;  155.200;  235.000;  294.000
348.110; -350.900;-1268.000;-1186.000
348.243; -180.300; -679.000; -772.000
348.377;   26.200;  -26.000;   60.000
348.510;  139.100;  403.000;  540.000
348.644;  -42.700;  -37.000; -159.000
348.777;   57.500;  180.000;  191.000
348.911;  -51.600; -142.000; -112.000
349.044;  332.300;  471.000;  448.000
349.178;  221.800;-1069.000;-1006.000
349.311;  242.500;  141.000;  255.000
349.444;  -20.600; -927.000; -813.000
349.578;  -13.800; -347.000; -200.000
349.711; -212.800; -959.000; -862.000
349.845;  -11.700; -661.000; -591.000
349.978; -310.800;-1224.000;-1137.000
350.111; -159.600; -546.000; -612.000
350.244; -110.000; -596.000; -700.000
350.378;   36.300; -392.000; -393.000
350.511; -108.800; -393.000; -426.000
350.644; -197.000; -808.000; -806.000
350.778;   39.300;  168.000;  104.000
350.911;   68.700;  134.000;  140.000
351.044; -178.600; -685.000; -615.000
351.177;  -69.100; -321.000; -281.000
351.310;   13.100;    3.000; -131.000
351.444; -129.800; -888.000; -788.000
351.577;  248.700;  140.000;   90.000
351.710;  254.700;  593.000;  417.000
351.843;  -11.600; -165.000;  -77.000
351.976;   69.600;  149.000;  -79.000
352.109; -154.000; -621.000; -612.000
352.242;  -40.300; -464.000; -419.000
352.376;  -97.800; -580.000; -636.000
352.509;  276.200; -437.000; -356.000
352.642;  -31.200; -654.000; -604.000
352.775;  136.100; -141.000;  -98.000
352.908; -223.700; -933.000; -904.000
353.041; -188.000; -814.000; -824.000
353.174;  -84.600; -551.000; -424.000
353.307; -135.300; -753.000; -764.000
353.440;  155.300;  541.000;  453.000
353.573; -215.200; -957.000;-1008.000
353.706;  -52.100; -384.000; -558.000
353.839;   10.900; -264.000; -220.000
353.971; -150.300; -657.000; -512.000
354.104; -161.400; -896.000; -835.000
354.237;  -74.300; -627.000; -662.000
354.370; -168.400; -846.000; -879.000
354.503; -352.700;-1231.000;-1308.000
354.636;  -19.600; -529.000; -348.000
354.769; -265.300; -937.000; -860.000
354.902;   -6.500; -230.000; -139.000
355.034;   23.600; -164.000; -220.000
355.167;   18.300; -262.000; -162.000
355.300; -205.700;-1061.000; -880.000
355.433; 1754.400;  -71.000;  -14.000
355.565; 2676.000; -402.000; -384.000
355.698;  734.700; -356.000; -296.000
355.831;  -39.200; -882.000; -801.000
355.964;  167.000; -285.000; -170.000
356.096; -181.600; -856.000; -843.000
356.229;    8.000; -523.000; -530.000
356.362;  564.600; -373.000; -266.000
356.494; 1119.200; -229.000; -162.000
356.627;  866.100;  269.000;  377.000
356.760; 1205.400;  120.000;   53.000
356.892; 1671.400; -286.000; -601.000
357.025; 1157.900;  403.000;  389.000
357.157;  996.500; -167.000; -179.000
357.290; 1188.300; -856.000; -713.000
357.423;  322.400; -667.000; -556.000
357.555;  230.300; -217.000; -228.000
357.688;  208.400; -483.000; -364.000
357.820;  741.000; -870.000; -877.000
357.953; 6142.900; -563.000; -589.000
358.085; 1287.400; -632.000; -612.000
358.218; 1847.700;-1131.000; -932.000
358.350;  371.200;  -58.000;  312.000
358.483; -259.400;-1300.000;-1187.000
358.615;  -51.800;-1182.000;-1078.000
358.747; -136.700;-1187.000;-1058.000
358.880;   41.600; -810.000; -744.000
359.012;   -4.800; -376.000; -202.000
359.145;  -70.800; -480.000; -511.000
359.277;   71.500; -962.000; -913.000
359.409; 5157.200;  536.000;  231.000
359.542; 1224.400; -738.000; -688.000
359.674;  159.800;   46.000;   13.000
359.806; -108.300; -565.000; -438.000
359.939;  -56.600; -617.000; -516.000
360.071;   -1.200; -583.000; -579.000
360.203;   -7.300; -411.000; -364.000
360.335;  140.400;  164.000;  -16.000
360.468;  325.200; -249.000; -307.000
360.600; 4083.400; -547.000; -454.000
360.732; 5038.600; -546.000; -423.000
360.864;  633.300;-1216.000;-1044.000
360.996;  488.800; -516.000; -554.000
361.129;   95.400; -389.000; -598.000
361.261;   76.900;  110.000; -113.000
361.393;  -32.300; -252.000; -214.000
361.525;   86.500;   94.000;  244.000
361.657; -100.400; -821.000; -703.000
361.789;   41.400; -139.000; -155.000
361.921;  382.500; -642.000; -593.000
362.053;  524.300;  524.000;  541.000
362.185;  116.800;  288.000;   72.000
362.318; -137.400; -709.000; -705.000
362.450;  241.900;  294.000;  444.000
362.582;  142.500; -913.000; -870.000
362.714;   -8.600; -353.000; -332.000
362.846; -140.400; -606.000; -490.000
362.978; -268.700; -941.000; -811.000
363.109;  104.000; -161.000; -260.000
363.241;  717.700; -739.000; -749.000
363.373;  714.600; -649.000; -564.000
363.505; 1214.000; -186.000;  -91.000
363.637;  284.600; -787.000; -601.000
363.769; -235.000;-1067.000;-1080.000
363.901; -119.800; -596.000; -654.000
364.033; -230.300;-1103.000;-1062.000
364.165;   41.200; -283.000; -283.000
364.296;  143.600; -316.000; -177.000
364.428;  117.900;-1344.000;-1220.000
364.560; -121.400; -679.000; -661.000
364.692;  -82.900; -738.000; -835.000
364.824;  437.100; -588.000; -456.000
364.955;  765.500; -402.000; -564.000
365.087; 1644.500;-1097.000; -852.000
365.219;   32.300; -686.000; -816.000
365.351;  -72.300; -526.000; -572.000
365.482;  140.300;  300.000;  240.000
365.614;  -51.700; -402.000; -314.000
365.746; -159.500; -729.000; -752.000
365.877; -173.900; -706.000; -672.000
366.009;  517.200;  -35.000;  -62.000
366.141; -189.400;-1249.000;-1134.000
366.272; -196.100; -803.000; -719.000
366.404; -182.100;-1005.000; -874.000
366.535;   24.100; -139.000;  -12.000
366.667; -193.100; -644.000; -649.000
366.799;  126.000;  353.000;  203.000
366.930; -226.800; -862.000; -996.000
367.062;  227.600; -639.000; -613.000
367.193;  250.500; -872.000; -842.000
367.325;  -90.200; -580.000; -684.000
367.456;  110.500; -246.000;   31.000
367.588;  353.100; -371.000; -318.000
367.719;   70.100;  -44.000;  -45.000
367.851;    3.700; -222.000; -241.000
367.982; -101.700; -875.000; -732.000
368.113;  162.400; -475.000; -358.000
368.245; -239.300; -960.000; -841.000
368.376;   -8.600; -254.000; -302.000
368.508;  -23.900; -188.000; -263.000
368.639; -253.200;-1166.000;-1034.000
368.770;  -35.100; -670.000; -589.000
368.902; -114.100; -836.000; -926.000
369.033; -184.800; -906.000; -855.000
369.164;  -63.000; -720.000; -653.000
369.296; -181.800; -452.000; -601.000
369.427;   58.100; -209.000; -144.000
369.558;  -76.700; -593.000; -377.000
369.689; -120.700; -721.000; -569.000
369.821; -241.600; -951.000; -845.000
369.952;    8.500;   42.000; -108.000
370.083;  -43.200; -229.000; -108.000
370.214; -130.400; -735.000; -650.000
370.345;   50.600;   65.000;   81.000
370.477; -151.800; -810.000; -790.000
370.608;  435.600; -328.000; -264.000
370.739;  -91.000;-1233.000;-1292.000
370.870;  -63.100;-1102.000; -923.000
371.001;  179.100; -378.000; -467.000
371.132; -150.300; -754.000; -735.000
371.263;   31.700;  -42.000; -148.000
371.394; -233.400; -841.000; -748.000
371.525;  106.300;  345.000;  225.000
371.657; -174.600; -808.000; -670.000
371.788;  200.600;  103.000;  199.000
371.919;  321.100; -384.000; -304.000
372.050; 6239.100;  -91.000; -156.000
372.181; 1741.200; -188.000; -294.000
372.311;  663.500;   42.000; -127.000
372.442;   59.000; -457.000; -451.000
372.573;  -17.900; -444.000; -340.000
372.704; -214.600;-1008.000; -980.000
372.835;  184.800; -228.000; -289.000
372.966; -110.200; -646.000; -554.000
373.097; -115.600; -575.000; -711.000
373.228;  -80.200; -717.000; -542.000
373.359;  261.000; -824.000; -536.000
373.490; 1568.700; -881.000; -727.000
373.620; 1869.200;-1001.000; -803.000
373.751; 3052.000; -332.000; -396.000
373.882; 1275.100; -663.000; -733.000
374.013;   82.800; -449.000; -262.000
374.143;  -65.600; -581.000; -659.000
374.274; -208.200; -987.000; -908.000
374.405;  341.400; -388.000; -276.000
374.536;  781.400; -526.000; -387.000
374.666; 1799.400; -759.000; -807.000
374.797;  312.700; -817.000; -868.000
374.928; 1443.900; -710.000; -560.000
375.058; 1486.900; -535.000; -500.000
375.189;  167.200;  -59.000;  -93.000
375.320; -218.000; -928.000;-1034.000
375.450;  -63.100; -625.000; -616.000
375.581;  -85.000; -526.000; -436.000
375.712;  -23.800; -574.000; -250.000
375.842;  523.600; -438.000; -415.000
375.973;  344.200; -554.000; -513.000
376.103;  -76.100; -665.000; -648.000
376.234; -119.400; -531.000; -552.000
376.364;  -95.000; -944.000; -867.000
376.495;  622.800;  925.000;  529.000
376.625;   -5.900; -472.000; -485.000
376.756;   78.200; -709.000; -678.000
376.886; -144.300;-1178.000;-1026.000
377.017;  118.600;-1048.000;-1061.000
377.147;  594.200; -786.000; -782.000
377.278;  120.200;  174.000;  228.000
377.408; -222.500; -801.000; -815.000
377.538; -163.000; -707.000; -693.000
377.669; -123.600; -537.000; -613.000
377.799; -140.900; -645.000; -635.000
377.929;  -99.400; -610.000; -428.000
378.060; -235.900; -781.000; -847.000
378.190;  -85.200; -726.000; -531.000
378.320;  -70.200; -401.000; -406.000
378.451;   28.900; -131.000;  -22.000
378.581;   40.400;  -67.000; -110.000
378.711;  339.000; 1035.000;  866.000
378.841;  -35.400; -533.000; -675.000
378.972; -131.400; -871.000; -751.000
379.102;  -28.400; -652.000; -579.000
379.232;   -8.500; -126.000;  -73.000
379.362; -185.500;-1001.000; -885.000
379.492;    3.800; -373.000; -424.000
379.623;  252.600;    0.000;  111.000
379.753; -193.600;-1107.000; -974.000
379.883;  442.700;   59.000;  156.000
380.013;  -20.300;-1081.000;-1017.000
380.143; -184.900;-1097.000;-1056.000
380.273; -188.200; -985.000; -861.000
380.403;   20.200; -344.000; -257.000
380.533;  -52.900; -651.000; -664.000
380.663;  183.000;  173.000;  128.000
380.793; -215.700;-1027.000;-1074.000
380.923;    1.500; -103.000;  -34.000
381.053; -167.800; -613.000; -623.000
381.183;    0.600; -106.000; -248.000
381.313;   50.900; -656.000; -470.000
381.443;   93.200; -692.000; -473.000
381.573;  350.100; -402.000; -409.000
381.703;  412.900;-1249.000;-1095.000
381.833; -281.900;-1454.000;-1336.000
381.963;  249.400; -134.000;  -87.000
382.093; 2349.800; -925.000; -909.000
382.223;  679.100; -713.000; -602.000
382.353;  -35.700; -801.000; -608.000
382.482;  616.900;-1091.000; -964.000
382.612; 1323.000; -872.000; -644.000
382.742;  680.700; -695.000; -622.000
382.872;  407.600; -565.000; -551.000
383.002;  162.100;  347.000; -132.000
383.131;   -9.400; -226.000; -160.000
383.261;  -33.700; -706.000; -768.000
383.391;  611.300; -552.000; -377.000
383.521; 5919.200;  451.000;  263.000
383.650; 1224.400; -947.000; -904.000
383.780;  -23.000; -783.000; -656.000
383.910;  290.900;  880.000;  802.000
384.039;   45.300; -794.000; -656.000
384.169;  274.100;-1205.000;-1017.000
384.299;  -32.200; -650.000; -662.000
384.428; -158.200; -764.000; -680.000
384.558;  -35.200; -308.000; -275.000
384.687;  -63.800; -414.000; -334.000
384.817;   88.700;   75.000;   -2.000
384.947;   86.800; -234.000; -141.000
385.076;  614.800;  982.000;  912.000
385.206;  223.400;  369.000;  480.000
385.335;  -36.500; -549.000; -417.000
385.465; -125.600; -655.000; -663.000
385.594;  305.600;  -53.000;  -44.000
385.724;  675.400; -868.000; -838.000
385.853;  211.300; -296.000; -270.000
385.982; 2455.000; -743.000; -787.000
386.112; 3563.500;-1052.000; -871.000
386.241;  221.300; -307.000; -312.000
386.371;   36.000; -174.000;  -87.000
386.500;    5.000; -825.000; -789.000
386.629;   71.900; -874.000; -817.000
386.759;  161.400;  -43.000;   68.000
386.888;   34.500; -170.000; -250.000
387.017; -130.400; -648.000; -620.000
387.147; -143.500; -771.000; -798.000
387.276;   20.600; -410.000; -397.000
387.405;   41.500; -398.000; -342.000
387.535;  -82.300; -452.000; -361.000
387.664;  -92.700; -692.000; -620.000
387.793;  116.500; -198.000; -113.000
387.922;  949.800;  255.000;  200.000
388.052;    8.400; -576.000; -423.000
388.181;   24.700; -342.000; -472.000
388.310;    1.700; -889.000; -710.000
388.439;  -82.400; -749.000; -742.000
388.568;  359.000;  365.000;  244.000
388.697; 1808.900; -756.000; -653.000
388.826;  319.500; -768.000; -666.000
388.956;   84.900; -285.000; -307.000
389.085;  -27.100; -347.000; -287.000
389.214; -160.200; -842.000; -872.000
389.343; -112.600; -645.000; -413.000
389.472;  815.800;  126.000;  149.000
389.601;  946.500;   91.000;    0.000
389.730;   44.300; -568.000; -687.000
389.859;  186.800;  226.000;   46.000
389.988;  376.500; -423.000; -408.000
390.117;  250.400; -168.000; -146.000
390.246;   53.900; -331.000; -320.000
390.375;  152.500; -673.000; -626.000
390.504;  -73.300; -703.000; -621.000
390.633; -187.700; -672.000; -726.000
390.761; -119.700; -732.000; -645.000
390.890;   62.400;   -4.000; -130.000
391.019;  -23.400; -421.000; -441.000
391.148; -231.000; -826.000; -855.000
391.277;  -80.400; -576.000; -493.000
391.406; -129.400; -821.000; -805.000
391.534;   70.600;  574.000; -301.000
391.663; -100.200; -583.000; -645.000
391.792; -143.500; -673.000; -701.000
391.921;  222.900;   -3.000;   15.000
392.050;  337.700; -287.000; -228.000
392.178; -126.400;-1206.000;-1061.000
392.307;  240.100; -758.000; -712.000
392.436;  115.400; -427.000; -641.000
392.564;   56.100;  166.000;   -6.000
392.693; -157.500; -860.000; -682.000
392.822;  361.000; -529.000; -534.000
392.950;  151.400; -880.000; -714.000
393.079;  566.700; -188.000; -328.000
393.208;   45.700; -488.000; -511.000
393.336;   21.700; -170.000; -145.000
393.465;  -29.900; -317.000; -199.000
393.593;   46.600;   62.000;   79.000
393.722; -281.800;-1121.000; -916.000
393.850;   -8.300; -188.000;  -61.000
393.979; -273.000; -926.000; -805.000
394.107;  -38.200; -517.000; -537.000
394.236;  -22.500; -570.000; -507.000
394.364;  564.600;  383.000;  206.000
394.493;  850.900; -911.000; -767.000
394.621;   21.300; -955.000; -916.000
394.750; 1342.400; -873.000; -923.000
394.878; 5567.500; -247.000; -149.000
395.007; 6981.800; -721.000; -807.000
395.135;  499.000; -790.000; -721.000
395.263; -188.400;-1038.000;-1040.000
395.392;   54.500;  -25.000; -107.000
395.520; -240.700; -818.000; -679.000
395.648; -144.400; -865.000; -915.000
395.777;  -17.400; -366.000; -405.000
395.905;  -44.800; -449.000; -564.000
396.033;   61.000;  217.000;  172.000
396.162; 1503.900; -399.000; -453.000
396.290; 1254.500;  -17.000;   -2.000
396.418;  193.500; -555.000; -514.000
396.546; -122.400; -571.000; -466.000
396.674; -152.200; -850.000; -878.000
396.803;   60.300;  -72.000;  -23.000
396.931;  209.200; -179.000; -199.000
397.059;   46.700;-1026.000; -989.000
397.187; -177.200;-1026.000; -975.000
397.315; -247.800; -884.000; -649.000
397.443; -165.000; -592.000; -443.000
397.572; -128.300; -578.000; -424.000
397.700;   -7.200; -607.000; -614.000
397.828;   62.800;  120.000;  -90.000
397.956;  -40.800; -508.000; -478.000
398.084; -108.600; -767.000; -626.000
398.212;  153.700;  137.000;  124.000
398.340;   52.200;  -56.000;  159.000
398.468;   14.600; -390.000; -169.000
398.596; -274.800; -993.000; -953.000
398.724; -187.700; -762.000; -767.000
398.852; -263.300;-1024.000; -976.000
398.980;  -82.100; -560.000; -560.000
399.108;  -89.600; -982.000; -735.000
399.236;  122.300;   13.000;    8.000
399.363;   94.000;  222.000;  196.000
399.491; -116.500; -404.000; -398.000
399.619; -232.900; -829.000; -800.000
399.747; -184.400; -859.000; -771.000
399.875;  233.600;  220.000;  234.000
400.003;  -66.300; -359.000; -284.000
400.130; -123.100; -421.000; -341.000
400.258;   -6.900;  -83.000;   38.000
400.386;  -75.000; -352.000; -168.000
400.514;  -48.400; -526.000; -587.000
400.641; -164.300; -928.000; -802.000
400.769; -260.500; -979.000; -888.000
400.897; -189.700; -838.000; -793.000
401.025;   12.700; -166.000; -152.000
401.152;   53.500;  220.000;   38.000
401.280; -125.200; -430.000; -429.000
401.408; -183.000; -712.000; -576.000
401.535; -173.500; -735.000; -758.000
401.663; -351.800;-1134.000;-1054.000
401.790; -122.300; -514.000; -525.000
401.918;  112.600;  436.000;  405.000
402.046;   30.000;  134.000;  122.000
402.173;    1.000;  -18.000;    7.000
402.301; -103.500; -519.000; -397.000
402.428;  152.100;  528.000;  383.000
402.556; -241.800;-1188.000; -913.000
402.683;  -18.800;  -20.000;   -1.000
402.811;   43.600;  -37.000; -206.000
402.938;   26.800;   20.000;   27.000
403.066;  350.100; -574.000; -558.000
403.193;  590.600;  299.000;  239.000
403.321;  477.100; -396.000; -574.000
403.448;  565.900;   83.000;   27.000
403.575;  249.900;  -90.000;  -46.000
403.703; -174.400; -732.000; -557.000
403.830;  -94.400; -531.000; -496.000
403.957; -253.100;-1117.000;-1023.000
404.085;   89.300;  -61.000; -172.000
404.212;  215.400;  -50.000;   63.000
404.339;  546.000; -566.000; -306.000
404.467;10810.500; -612.000; -524.000
404.594; 6601.900; -287.000; -227.000
404.721; 1460.000; -869.000; -764.000
404.848;  177.800; -113.000; -202.000
404.976; -163.000; -856.000; -783.000
405.103;   25.900;  -14.000;  -82.000
405.230;   55.200;  190.000;  226.000
405.357;  126.400;  117.000;   44.000
405.484;  536.600;  -49.000;    5.000
405.612;  100.700; -548.000; -563.000
405.739;  -87.100; -488.000; -243.000
405.866;  209.300;  669.000;  385.000
405.993;  -43.900; -398.000; -102.000
406.120; -208.500; -801.000; -887.000
406.247;  -60.700; -323.000; -342.000
406.374;  855.900;  540.000;  629.000
406.501;  122.600; -632.000; -702.000
406.628; -108.300; -621.000; -589.000
406.755; -134.100; -803.000; -620.000
406.882;  -29.500; -228.000; -277.000
407.009; -185.900; -719.000; -628.000
407.136;  115.300; -480.000; -401.000
407.263;  179.100; -939.000; -829.000
407.390; -124.100; -692.000; -614.000
407.517; -283.700;-1139.000;-1187.000
407.644;  -75.900; -332.000; -256.000
407.771;  -91.200; -249.000; -287.000
407.898;   62.500;  168.000;  328.000
408.025; -103.100; -421.000; -313.000
408.151;   55.600;   82.000;  153.000
408.278;  -80.600; -267.000; -216.000
408.405; -199.700; -931.000; -899.000
408.532;  -86.800; -549.000; -542.000
408.659; -180.700; -677.000; -648.000
408.785; -365.700;-1298.000;-1170.000
408.912; -100.400; -412.000; -296.000
409.039; -156.900; -610.000; -686.000
409.166; -157.400; -591.000; -555.000
409.292; -188.000; -571.000; -534.000
409.419; -198.000; -665.000; -649.000
409.546; -120.700; -431.000; -192.000
409.672; -187.900; -713.000; -545.000
409.799;  -24.500;  -36.000;   34.000
409.926;  -30.400; -180.000; -179.000
410.052; -328.500;-1127.000;-1091.000
410.179;  -89.600; -368.000; -392.000
410.305; -128.900; -375.000; -493.000
410.432;  -37.200; -220.000; -333.000
410.558; -116.400; -305.000; -380.000
410.685; -166.600; -688.000; -431.000
410.812; -169.900; -409.000; -588.000
410.938; -279.400; -964.000; -808.000
411.065; -151.400; -671.000; -645.000
411.191;   -9.800; -189.000; -174.000
411.317; -232.700; -823.000; -742.000
411.444;  -77.900; -317.000; -246.000
411.570; -101.500; -339.000; -294.000
411.697; -196.200; -758.000; -752.000
411.823; -300.500; -989.000; -999.000
411.949;   -4.900;  -56.000;   17.000
412.076; -150.100; -539.000; -519.000
412.202; -204.100; -758.000; -757.000
412.329; -201.800; -798.000; -752.000
412.455; -181.100; -821.000; -657.000
412.581;   10.600;  -15.000;  172.000
412.707; -103.900; -540.000; -457.000
412.834;  108.100;  156.000;  219.000
412.960; -118.700; -785.000; -784.000
413.086; -172.000; -743.000; -701.000
413.212;  361.500;  604.000;  578.000
413.339; -109.100; -685.000; -701.000
413.465;   14.300; -364.000; -310.000
413.591; -164.400; -757.000; -474.000
413.717;  -46.400; -358.000; -366.000
413.843; -281.100; -839.000; -861.000
413.969;  -61.700;  -47.000; -292.000
414.096; -189.400; -679.000; -679.000
414.222;   12.700;  -33.000;   85.000
414.348;  -49.800; -652.000; -385.000
414.474;  185.500;   38.000;  -52.000
414.600;    6.900; -126.000; -144.000
414.726;  -13.400;  -96.000;  -55.000
414.852;  -65.400; -365.000; -342.000
414.978;  124.000;  104.000;  -18.000
415.104;   80.200;   38.000;   80.000
415.230;   88.600; -329.000; -330.000
415.356;   80.800; -409.000; -514.000
415.482;  393.900;   13.000;  -35.000
415.608;  527.700; -247.000; -323.000
415.734; 1795.900;   67.000;   38.000
415.860;38022.200; -875.000; -767.000
415.986;24390.200; -685.000; -607.000
416.111; 1951.100; -798.000; -652.000
416.237;  469.900; -424.000; -571.000
416.363; 2296.200; -765.000; -733.000
416.489; 7589.900; -324.000; -251.000
416.615;  753.900; -707.000; -742.000
416.741;  -17.100; -677.000; -784.000
416.866; -143.500; -673.000; -736.000
416.992; -191.600; -801.000; -818.000
417.118;  -18.800;  -41.000;  -80.000
417.244;  -72.700; -798.000; -531.000
417.369; -171.300; -801.000; -612.000
417.495;   39.200; -325.000; -254.000
417.621; -165.800;-1015.000; -803.000
417.746;   35.500; -579.000; -572.000
417.872;  124.700; -254.000; -144.000
417.998;  101.400; -515.000; -530.000
418.123; 2155.900;-1073.000; -845.000
418.249; 9749.300; -512.000; -601.000
418.374; 1192.200; -916.000; -824.000
418.500;  222.300; -383.000; -482.000
418.626;  266.400;   70.000;  -59.000
418.751;  277.100; -549.000; -448.000
418.877;  364.900; -637.000; -643.000
419.002; 3703.300; -688.000; -560.000
419.128;23106.300; -930.000; -721.000
419.253; 4906.800; -967.000; -837.000
419.379;  722.300; -391.000; -338.000
419.504;  781.900;  325.000;  415.000
419.629;  928.700; -393.000; -212.000
419.755; 7335.700; -317.000; -254.000
419.880;38402.600;  -98.000;   67.000
420.006;21361.000; -280.000; -221.000
420.131;51642.200; -662.000; -775.000
420.256; 6587.800; -315.000; -316.000
420.382;  935.000; -665.000; -687.000
420.507;  131.200; -649.000; -778.000
420.632;  247.200; -337.000; -339.000
420.758;  418.800; -251.000; -425.000
420.883; -118.100; -876.000; -672.000
421.008; -162.000; -775.000; -619.000
421.133; -111.900; -509.000; -467.000
421.259;  -38.200; -325.000; -259.000
421.384; -227.800; -834.000; -693.000
421.509;  -77.300;-1052.000; -862.000
421.634; 1967.300; -936.000; -820.000
421.759;  728.500; -359.000; -327.000
421.885;  -75.700; -717.000; -656.000
422.010;  -85.500; -673.000; -542.000
422.135; -272.100; -695.000; -727.000
422.260;  127.000;  340.000;  280.000
422.385;  -29.000;   12.000;  -98.000
422.510;   70.600;  151.000;  -26.000
422.635;   88.800;  -87.000;  -43.000
422.760;  193.500; -766.000; -791.000
422.885;  178.000;  -57.000;  -80.000
423.010;  -12.000; -112.000; -169.000
423.135; -139.100; -481.000; -561.000
423.260;    4.400; -150.000; -245.000
423.385;  198.300;  476.000;  222.000
423.510;  118.600;   71.000;  -22.000
423.635;  147.400;  133.000;   45.000
423.760;  185.200;  383.000;  328.000
423.885;  139.000;  336.000;  391.000
424.010;   61.700;  -68.000;  -13.000
424.135;    3.500;    5.000;  -33.000
424.259; -119.400; -654.000; -457.000
424.384;  -34.200; -279.000; -272.000
424.509;   23.300; -260.000; -186.000
424.634; -161.300; -761.000; -623.000
424.759;  -38.200; -688.000; -544.000
424.883;  -33.500; -506.000; -527.000
425.008;  321.500; -502.000; -410.000
425.133; 3699.200; -679.000; -653.000
425.258; 1598.300; -517.000; -381.000
425.382; 1901.500; -867.000; -774.000
425.507; 4218.900; -487.000; -543.000
425.632;  706.900; -802.000; -663.000
425.756;  854.000; -256.000; -146.000
425.881;13223.500; -831.000; -857.000
426.006;31435.200; -604.000; -355.000
426.130; 4475.800; -696.000; -508.000
426.255;  618.100; -611.000; -491.000
426.379;  282.300; -189.000; -577.000
426.504;  746.100;  660.000;  544.000
426.629; 7699.900; -519.000; -466.000
426.753; 4655.100;   64.000;  -46.000
426.878;  557.400; -252.000; -288.000
427.002;  374.400; -651.000; -668.000
427.127; 3236.800;  -35.000; -158.000
427.251;21175.800;  372.000;  401.000
427.375; 5250.800; -191.000; -173.000
427.500; 3863.200; -616.000; -610.000
427.624; 1151.900; -234.000; -400.000
427.749;  192.800; -216.000; -225.000
427.873;  -49.700; -499.000; -412.000
427.997;  -36.800; -222.000; -230.000
428.122;  244.900;  795.000;  703.000
428.246;  200.100;  433.000;  434.000
428.371; -231.500; -869.000; -773.000
428.495; -166.300; -624.000; -646.000
428.619;  -12.500; -186.000; -117.000
428.743;  102.300;   65.000;  132.000
428.868;   59.700; -732.000; -643.000
428.992; 2455.000; -219.000; -326.000
429.116;  915.800; -329.000; -357.000
429.240;  485.300;  419.000;  426.000
429.365;  -17.700; -454.000; -574.000
429.489;  -37.600; -638.000; -647.000
429.613;   85.800; -236.000; -177.000
429.737;   91.900; -563.000; -432.000
429.861;  534.000; -247.000; -133.000
429.985;10905.800; -425.000; -305.000
430.109;10432.900; -770.000; -908.000
430.234; 1205.400;   76.000;  -50.000
430.358;  165.600; -250.000; -160.000
430.482; -104.400; -672.000; -564.000
430.606; -101.800; -655.000; -375.000
430.730;   44.700; -437.000; -388.000
430.854;  183.000; -909.000; -835.000
430.978;  -82.200; -795.000; -764.000
431.102; -127.200; -499.000; -422.000
431.226; -191.400; -874.000; -815.000
431.350;  110.100;  345.000;  422.000
431.474;  -66.600; -661.000; -373.000
431.597; -272.300;-1060.000; -848.000
431.721;  -82.700; -276.000; -267.000
431.845; -223.800; -704.000; -472.000
431.969; -102.400; -304.000; -349.000
432.093; -131.800; -395.000; -317.000
432.217;   56.200;   32.000;   82.000
432.341; -153.400; -523.000; -518.000
432.464;   53.200;   96.000;   40.000
432.588;  344.100; -401.000; -329.000
432.712;  174.400;  -52.000;  -52.000
432.836;  148.700;  213.000;  263.000
432.959;   14.400; -372.000; -311.000
433.083;  208.900;   11.000;    2.000
433.207;  779.500;  285.000;  930.000
433.330; 9856.500; -391.000; -200.000
433.454;10884.700; -654.000; -638.000
433.578; 6444.300;  583.000;  278.000
433.701; 1067.400; -623.000; -675.000
433.825;  267.000; -292.000; -299.000
433.949;  355.000;   28.000;  -72.000
434.072;  122.200; -410.000; -323.000
434.196;   21.400; -309.000; -117.000
434.319; 7984.400;25482.000;25124.000
434.443; 1490.000; -656.000; -603.000
434.566; 4851.300;  281.000;   62.000
434.690;  700.700; -637.000; -383.000
434.813;  108.000; -251.000; -173.000
434.937; -123.800; -569.000; -696.000
435.060;  -86.700; -423.000; -332.000
435.184;  523.400; -492.000; -217.000
435.307;  291.600;  159.000;  102.000
435.431;   51.800;  -40.000;   24.000
435.554; -118.400; -399.000; -240.000
435.677;  -89.300; -350.000; -258.000
435.801;  -31.000;  -25.000;   49.000
435.924;   20.600;    1.000;  -67.000
436.048; -234.400;-1019.000; -732.000
436.171;  -83.000; -240.000;  -66.000
436.294;   30.900; -248.000; -229.000
436.417;  222.900; -963.000; -849.000
436.541; -138.600; -814.000; -840.000
436.664;  -15.900; -242.000; -316.000
436.787;   23.700;   13.000;  113.000
436.910; -183.600; -792.000; -422.000
437.034;   75.900;  142.000;  143.000
437.157;  150.400;  -11.000;    0.000
437.280;  -87.600; -392.000; -292.000
437.403; -162.300; -982.000; -869.000
437.526; 1077.300; -903.000; -865.000
437.649; 3717.700; -505.000; -332.000
437.772;  427.700; -692.000; -540.000
437.896;  279.600;  700.000;  544.000
438.019; -162.900; -758.000; -503.000
438.142; -120.700; -596.000; -506.000
438.265;  -17.100; -639.000; -670.000
438.388;  965.900; -520.000; -410.000
438.511;  158.900; -597.000; -394.000
438.634;  -48.200; -247.000; -125.000
438.757; -223.200; -693.000; -619.000
438.880;   -6.600;  -34.000;  -57.000
439.003; -124.200; -417.000; -437.000
439.126;  -53.500; -287.000; -167.000
439.248;  -56.900;  -98.000; -139.000
439.371;  -17.600;    9.000;  -53.000
439.494;  125.500;  510.000;  439.000
439.617;  -54.200;   65.000;  -88.000
439.740; -319.100; -968.000; -816.000
439.863; -217.500; -755.000; -595.000
439.986; -217.100; -476.000; -431.000
440.108;  -17.200; -161.000; -112.000
440.231; -299.800; -950.000; -836.000
440.354;  -19.900;  -64.000; -150.000
440.477;   40.100; -566.000; -542.000
440.599;    2.300; -200.000; -225.000
440.722; -197.100; -709.000; -586.000
440.845;  230.800;  751.000;  928.000
440.968; -147.200; -415.000; -311.000
441.090;  -79.000; -199.000;  -33.000
441.213; -286.500;-1021.000; -825.000
441.336;  -34.300; -159.000;   -5.000
441.458; -106.600; -549.000; -396.000
441.581; -116.500; -628.000; -629.000
441.703; -107.700; -152.000;   13.000
441.826; -186.900; -557.000; -400.000
441.948;  -55.000;   56.000;   51.000
442.071;  127.800;  555.000;  424.000
442.193; -182.700; -531.000; -485.000
442.316;   99.100;  152.000;   97.000
442.438;  133.000; -233.000;  -10.000
442.561;  165.400;  272.000;  262.000
442.683;  906.400; -809.000; -522.000
442.806; 1858.700;   -8.000;   74.000
442.928;  -30.800; -859.000; -604.000
443.051;  -84.600; -577.000; -373.000
443.173; -135.600; -341.000; -339.000
443.295; -104.300; -263.000; -371.000
443.418;  -93.900; -321.000;  -29.000
443.540;   37.300; -106.000;   -4.000
443.662; -174.000; -563.000; -465.000
443.785;   36.300;  335.000;  199.000
443.907; -171.800; -362.000; -208.000
444.029; -205.500; -767.000; -494.000
444.152; -244.300; -644.000; -554.000
444.274;   13.400;  -18.000;  -24.000
444.396; -216.700; -461.000; -221.000
444.518; -199.500; -691.000; -454.000
444.640; -119.800; -268.000; -111.000
444.763;   -1.700;  388.000;  249.000
444.885; -182.100; -432.000; -392.000
445.007;  -34.500;   35.000;   86.000
445.129; -169.100; -610.000; -515.000
445.251; -141.700; -372.000; -439.000
445.373; -206.400; -537.000; -386.000
445.495;   70.300;  242.000;  350.000
445.617;  169.500;  853.000;  753.000
445.739;  -82.200; -215.000;  -97.000
445.861;  -17.600; -245.000; -112.000
445.984;  -26.100; -267.000; -101.000
446.105;  376.200; -418.000; -251.000
446.227; 1010.500; -176.000;  -19.000
446.349;  -17.200; -358.000; -249.000
446.471; -148.400; -615.000; -448.000
446.593;  -69.400; -316.000;   19.000
446.715;   41.500;  -67.000;   41.000
446.837;  198.700;  697.000;  832.000
446.959; -108.000; -457.000; -478.000
447.081; -245.500; -628.000; -518.000
447.203;  175.800;  862.000;  834.000
447.325; -113.900; -270.000;   42.000
447.446;   84.600;  286.000;  530.000
447.568; -248.100; -921.000; -803.000
447.690; -104.300; -236.000; -245.000
447.812; -263.100; -798.000; -519.000
447.933;   26.000;  155.000;  127.000
448.055;  -43.200; -306.000; -261.000
448.177;  331.600;   31.000;   79.000
448.299;  109.900; -935.000; -727.000
448.420;  114.000;  -25.000;  159.000
448.542;  -39.200;   -3.000;   33.000
448.664;   27.200;  109.000;  322.000
448.785;    6.300;  265.000;   83.000
448.907; -113.700; -614.000; -353.000
449.028;  -50.400; -771.000; -471.000
449.150;  212.400;  492.000;  589.000
449.272; -328.400;-1044.000; -913.000
449.393;  124.500;  612.000;  694.000
449.515; -215.800; -634.000; -581.000
449.636;  -44.200; -264.000; -155.000
449.758;  210.500;  763.000;  622.000
449.879; -136.700; -498.000; -396.000
450.001; -114.400; -149.000;  -49.000
450.122;   26.100;  -95.000;  162.000
450.244;  -18.400;   37.000;  364.000
450.365; -113.000; -495.000; -301.000
450.486;   10.600;   80.000;  268.000
450.608;  118.100;  393.000;  326.000
450.729;  207.200;  578.000;  645.000
450.850;   67.300; -574.000; -466.000
450.972; 1575.200; -552.000; -389.000
451.093; 9384.200;  190.000;  588.000
451.214; 3559.300; -516.000; -337.000
451.336;  754.700;  773.000;  579.000
451.457;  172.200;  264.000;  393.000
451.578;  -22.100; -118.000;  -74.000
451.699; -190.700; -546.000; -540.000
451.821;  -55.300; -284.000;  -50.000
451.942;   76.800;  278.000;  285.000
452.063;  132.300;  228.000;  419.000
452.184; 1175.900;  -54.000;  -49.000
452.305; 2033.200;  103.000;  170.000
452.427;  146.900; -549.000; -301.000
452.548;    2.300;   23.000;   79.000
452.669;  -37.900; -257.000;  -89.000
452.790;  -37.000;    3.000;  -18.000
452.911;   49.000;  195.000;  259.000
453.032;  -92.600; -289.000;  -60.000
453.153;  -29.600;  -29.000;   81.000
453.274;  223.100;  737.000;  868.000
453.395;  -70.700;  -51.000;  175.000
453.516;  360.500; 1317.000; 1388.000
453.637;  -60.800; -205.000; -150.000
453.758;  -28.400;   15.000;   69.000
453.879; -160.100; -462.000; -250.000
454.000;  218.500; 1086.000;  948.000
454.121; -215.500; -554.000; -326.000
454.242; -202.800; -599.000; -383.000
454.362;  -48.300;  -99.000;  114.000
454.483;   38.300; -309.000; -229.000
454.604;  176.400;  512.000;  580.000
454.725; -204.400; -627.000; -555.000
454.846; -203.300; -474.000; -406.000
454.967;    7.400;  230.000;  539.000
455.087;  -47.700;  179.000;  153.000
455.208;   98.800;  554.000;  856.000
455.329;  -65.400;  -22.000;   82.000
455.450;  172.700;  473.000;  633.000
455.570; -125.000; -234.000; -211.000
455.691;   -7.300;  201.000;  407.000
455.812; -152.300; -270.000;  -92.000
455.932;  -60.500;  107.000;  -97.000
456.053; -118.400;   36.000;   24.000
456.173; -166.700; -433.000; -355.000
456.294; -193.400; -476.000; -303.000
456.415;  -46.100;  -73.000;   70.000
456.535;   -6.100;  297.000;  273.000
456.656;  -17.500;  132.000;  240.000
456.776;  -98.200;    3.000;  298.000
456.897;   66.700;  308.000;  513.000
457.017; -105.100; -153.000;   -3.000
457.138; -132.000; -402.000; -249.000
457.258;   -5.500;  263.000;  224.000
457.379;   55.700;  509.000;  521.000
457.499;   -2.500;  443.000;  432.000
457.620; -156.800; -407.000; -231.000
457.740; -153.600; -132.000;  -11.000
457.860;  -76.300;   87.000;   44.000
457.981;  -29.300;  132.000;  124.000
458.101;  -90.000;  -89.000;   40.000
458.221;   50.900;  336.000;  402.000
458.342;  -64.900;   -4.000;  -37.000
458.462;   99.500;  617.000;  352.000
458.582;  -11.300; -302.000; -294.000
458.703;   90.800;  303.000;  154.000
458.823;   11.200;   22.000;  163.000
458.943;  105.800;  341.000;  467.000
459.063;   55.700; 1124.000;  192.000
459.183;   12.900;  328.000;  313.000
459.304;   69.100;  315.000;  517.000
459.424;  -70.800; -246.000;  -89.000
459.544;  710.000;  388.000;  764.000
459.664; 1533.700;  499.000;  506.000
459.784;  625.400; 1004.000; 1175.000
459.904;  166.900;  867.000;  744.000
460.024;  218.000;  867.000;  684.000
460.144;   98.200;  449.000;  554.000
460.264;    8.900;  515.000;  327.000
460.385; -109.800; -145.000; -119.000
460.505;  157.600;  905.000;  858.000
460.625; -102.600;  -17.000;  -68.000
460.745;   49.400;  396.000;  541.000
460.864;  -52.500;  153.000;  469.000
460.984;  119.800;  499.000;  573.000
461.104;  375.800; 1656.000; 1775.000
461.224;  119.000;  657.000;  650.000
461.344;   16.200;  431.000;  360.000
461.464;   -3.900;  258.000;  513.000
461.584;   17.200;  283.000;  466.000
461.704;  -46.300;   58.000;  108.000
461.824;  -48.200;  238.000;  259.000
461.943;    1.500;  191.000;  130.000
462.063; -100.400;    2.000;  324.000
462.183;  159.500;  639.000;  717.000
462.303;  299.900; 1678.000; 1230.000
462.422;  148.800;  781.000;  840.000
462.542;    5.200;  271.000;  391.000
462.662;  118.700;  353.000;  380.000
462.782;  566.100;  833.000;  572.000
462.901;  969.400;  545.000;  717.000
463.021;  582.900; 1702.000; 1638.000
463.141;   55.400;  337.000;  770.000
463.260;   40.600;  614.000;  474.000
463.380;  133.400;  902.000;  884.000
463.499;  -41.600;  342.000;  332.000
463.619;   -1.400;  581.000;  559.000
463.738;  270.300; 1644.000;  903.000
463.858;   75.100;  657.000;  811.000
463.978;    8.900;  542.000;  396.000
464.097;  166.500;  921.000; 1114.000
464.217;  278.500; 1196.000; 1143.000
464.336;  278.100; 1068.000; 1130.000
464.455;  -56.600;  328.000;  659.000
464.575;  115.700;  597.000;  602.000
464.694;  390.000; 1204.000; 1179.000
464.814;  288.500; 1190.000; 1138.000
464.933;  247.500; 1095.000; 1027.000
465.052;  251.400; 1412.000; 1054.000
465.172;  190.800;  922.000;  799.000
465.291;  372.000; 1376.000; 1320.000
465.410;   75.200;  462.000;  735.000
465.530;  229.000; 1355.000; 1310.000
465.649;  204.300; 1209.000; 1273.000
465.768;  344.700; 1673.000; 1508.000
465.888;  196.700;  941.000; 1174.000
466.007;  273.100; 1335.000; 1440.000
466.126;   79.500;  721.000;  641.000
466.245;  161.200; 1176.000; 1187.000
466.364;  119.200;  950.000; 1060.000
466.484;  222.100; 1024.000; 1213.000
466.603;  120.600; 1101.000; 1222.000
466.722;  327.400; 1490.000; 1769.000
466.841;  254.900; 1151.000; 1401.000
466.960;  165.200; 1069.000;  972.000
467.079;  326.000; 1971.000; 1786.000
467.198;  161.000; 1238.000; 1181.000
467.317;  254.200; 1768.000; 1162.000
467.436;  224.900; 1709.000; 1261.000
467.555;  314.900; 1796.000; 1746.000
467.674;  210.200; 1227.000; 1329.000
467.793;  178.200; 1376.000; 1374.000
467.912;  227.100; 1658.000; 1539.000
468.031;  326.100; 2038.000; 1930.000
468.150;  351.800; 1842.000; 1837.000
468.269;  493.600; 2313.000; 2090.000
468.388;  457.900; 2168.000; 2339.000
468.507;  604.200; 2884.000; 2903.000
468.626;  635.400; 2555.000; 2541.000
468.744;  332.300; 2018.000; 2174.000
468.863;  474.700; 2312.000; 2523.000
468.982;  268.000; 1503.000; 1555.000
469.101;  514.400; 2788.000; 2692.000
469.220;  384.300; 2333.000; 2176.000
469.338;  639.200; 2935.000; 3051.000
469.457;  440.700; 2719.000; 2545.000
469.576;  747.600; 3953.000; 3784.000
469.695;  551.100; 2877.000; 3066.000
469.813;  915.500; 4148.000; 4192.000
469.932;  871.900; 4255.000; 4485.000
470.051;  898.900; 4075.000; 4161.000
470.169; 1763.400; 4470.000; 4338.000
470.288; 2850.400; 4700.000; 4809.000
470.406; 1695.800; 5059.000; 5194.000
470.525; 1308.000; 6101.000; 5787.000
470.644; 1394.200; 6847.000; 6794.000
470.762; 1743.600; 8397.000; 7873.000
470.881; 1924.600; 8651.000; 8464.000
470.999; 2178.400; 9685.000; 9151.000
471.118; 2307.500;11174.000;10711.000

