
Integration time [ms]: 200.000
Averaging Nr. [scans]: 10
Smoothing Nr. [pixels]: 0
Data measured with spectrometer [name]: 2101012U2
Wave   ;Sample   ;Dark     ;Reference
[nm]   ;[counts] ;[counts] ;[counts] 

197.733;  141.800;  516.000;  404.000
197.879; -159.600; -610.000; -634.000
198.025; -102.600; -475.000; -420.000
198.171; -145.400; -602.000; -612.000
198.317;  -44.900; -401.000; -316.000
198.463; -118.000; -655.000; -404.000
198.609;   80.000;  181.000; -137.000
198.755; -139.500; -644.000; -410.000
198.901; -118.400; -505.000; -424.000
199.047; -131.300; -615.000; -488.000
199.193;  -51.600; -230.000; -468.000
199.339;  -81.300; -222.000; -369.000
199.485;   88.800;  330.000;  271.000
199.631;   45.600;  227.000;  310.000
199.777; -115.200; -466.000; -398.000
199.923; -122.600; -610.000; -424.000
200.069;    1.500; -141.000;  -58.000
200.215;  127.700;  128.000;  453.000
200.361;   80.400;  243.000;  477.000
200.507; -154.600; -600.000; -373.000
200.653;  -61.400; -371.000; -194.000
200.798;  -29.000; -215.000; -125.000
200.944;   -3.800; -146.000;  -41.000
201.090;  106.500;   61.000;  222.000
201.236;   28.900; -116.000; -158.000
201.382;  254.600;  874.000;  903.000
201.528;   11.200;  -58.000;  -48.000
201.674;  -86.800; -386.000; -293.000
201.819; -151.700; -540.000; -439.000
201.965; -162.800; -699.000; -447.000
202.111;  -47.900; -273.000; -226.000
202.257;  -58.500; -250.000; -238.000
202.402;   29.200;   13.000;  -36.000
202.548;  -35.100; -169.000; -116.000
202.694;  169.400;  410.000; -183.000
202.840; -150.600; -603.000; -531.000
202.985; -145.200; -681.000; -639.000
203.131; -236.600; -832.000; -666.000
203.277;  -25.800; -199.000; -262.000
203.423;  -93.700; -434.000; -520.000
203.568;  -38.900; -462.000; -237.000
203.714; -151.100; -535.000; -542.000
203.860; -164.600; -682.000; -641.000
204.005;   54.400;  112.000;  167.000
204.151;  144.700;  561.000;  556.000
204.296;  -91.700; -354.000; -221.000
204.442; -152.600; -600.000; -547.000
204.588; -158.200; -592.000; -579.000
204.733;   64.400;  178.000;  168.000
204.879; -276.100;-1018.000; -822.000
205.025;   20.800;  -99.000;  126.000
205.170;   -5.200;  -17.000;   94.000
205.316;  176.000;  438.000;  661.000
205.461; -162.600; -698.000; -554.000
205.607;  168.900;  609.000;  665.000
205.752; -153.800; -626.000; -551.000
205.898; -108.000; -501.000; -391.000
206.043; -138.200; -578.000; -506.000
206.189;  -87.800; -243.000; -285.000
206.334;  197.200;  554.000;  606.000
206.480;  200.100;  409.000;  239.000
206.625; -174.700; -529.000; -552.000
206.771;  -76.600; -451.000; -373.000
206.916;  -42.300; -210.000; -537.000
207.062; -126.800; -545.000; -591.000
207.207; -142.700; -546.000; -443.000
207.353;  116.100;  185.000;  460.000
207.498;   45.500;  196.000;   85.000
207.643;  -71.100; -501.000; -370.000
207.789; -269.300;-1069.000; -910.000
207.934; -183.000; -665.000; -713.000
208.080;  -35.700; -154.000;   66.000
208.225;  -19.300;  -22.000;  -57.000
208.370; -158.600; -727.000; -619.000
208.516; -141.800; -741.000; -487.000
208.661;  -52.200; -127.000;  -69.000
208.806;  -13.000; -165.000; -171.000
208.952; -242.400;-1044.000; -731.000
209.097;  143.900;  378.000;  349.000
209.242; -112.300; -307.000; -382.000
209.387;  155.100;  392.000;  350.000
209.533;  -97.200; -321.000; -350.000
209.678;  187.200;  472.000;  543.000
209.823;  -86.100; -408.000; -310.000
209.969; -209.700; -860.000; -757.000
210.114; -202.800; -907.000; -719.000
210.259; -188.400; -939.000; -889.000
210.404;  -10.500; -171.000;  103.000
210.549;   40.500;  108.000;    3.000
210.695;    8.100;   -3.000;  -95.000
210.840;   58.100;   94.000;   67.000
210.985; -145.600; -484.000; -303.000
211.130;  149.000;  268.000;  406.000
211.275;   39.000;  207.000;  199.000
211.420;  -92.500; -300.000; -289.000
211.566; -156.400; -536.000; -489.000
211.711;   69.000;  218.000;  157.000
211.856; -130.900; -545.000; -519.000
212.001;   20.900;  151.000;   44.000
212.146;    9.800;  153.000;   49.000
212.291;  -25.000; -210.000; -186.000
212.436;  -62.900; -280.000;   -6.000
212.581; -191.800; -685.000; -653.000
212.726; -151.100; -487.000; -538.000
212.871;  -52.000; -552.000; -217.000
213.016; -305.400;-1172.000;-1029.000
213.161;  147.200;  406.000;  291.000
213.306; -141.600; -435.000; -577.000
213.451; -160.600; -778.000; -689.000
213.596;  -60.600; -455.000; -347.000
213.741;  -97.800; -448.000; -538.000
213.886; -162.900; -498.000; -517.000
214.031;  -28.700; -294.000; -124.000
214.176; -109.100; -408.000; -341.000
214.321;  -22.000; -296.000; -157.000
214.466;  -18.700; -163.000;  -43.000
214.611;   -6.400;  -61.000;  -10.000
214.756; -235.000; -948.000; -858.000
214.901;  -13.100; -388.000; -226.000
215.046; -257.800; -797.000; -825.000
215.191;   52.600;  128.000;   35.000
215.336;  -11.200; -157.000;  -19.000
215.480; -132.800; -684.000; -505.000
215.625;  -31.400; -175.000;  -19.000
215.770; -182.300; -757.000; -662.000
215.915;  -36.100;   -5.000;  -97.000
216.060;   11.200; -113.000;  -21.000
216.205; -214.600; -731.000; -779.000
216.349; -127.200; -470.000; -533.000
216.494; -273.600; -939.000; -867.000
216.639; -218.100; -823.000; -888.000
216.784; -145.200; -577.000; -525.000
216.929;   72.700;  392.000;  281.000
217.073;   11.300; -244.000;  -31.000
217.218;   45.400;   78.000;  -47.000
217.363; -178.900; -656.000; -618.000
217.507; -144.800; -623.000; -588.000
217.652; -258.600; -845.000; -874.000
217.797; -176.400; -708.000; -659.000
217.942; -214.800; -856.000; -720.000
218.086;  151.500;  608.000;  539.000
218.231;  -53.600; -174.000;  -26.000
218.376;  -54.100; -337.000; -229.000
218.520;   -0.500;  -41.000;   96.000
218.665;  -36.100; -338.000; -204.000
218.810;  -93.400; -275.000; -233.000
218.954;   74.400;  201.000;   35.000
219.099; -231.500; -713.000; -963.000
219.243; -109.300; -589.000; -554.000
219.388;  -66.500; -264.000; -136.000
219.532;   16.000; -116.000; -116.000
219.677; -127.000; -564.000; -521.000
219.822;    8.600;   33.000;   89.000
219.966;   19.000;   17.000;  -99.000
220.111;  -34.800; -328.000;  -40.000
220.255; -202.200; -797.000; -750.000
220.400;  -23.500; -180.000; -146.000
220.544; -146.400; -516.000; -450.000
220.689;  -95.200; -422.000; -451.000
220.833;  -12.600; -123.000;  -58.000
220.978;  -85.400; -393.000; -563.000
221.122;   54.600;  319.000;  307.000
221.267; -232.000; -906.000; -837.000
221.411; -142.800; -478.000; -394.000
221.555;   -2.000; -104.000;  -23.000
221.700;  -87.200; -329.000; -222.000
221.844;   78.800;  255.000;  272.000
221.989;  -78.900; -328.000; -311.000
222.133;  -48.200; -289.000; -307.000
222.277;  -16.000;    5.000;   78.000
222.422;   33.000;  227.000;  113.000
222.566;  -98.300; -381.000; -214.000
222.711;  -93.200; -414.000; -479.000
222.855; -154.700; -643.000; -586.000
222.999; -136.600; -642.000; -717.000
223.144;  -73.800; -195.000; -194.000
223.288;  151.500;  423.000;  251.000
223.432;   36.000;  184.000;  230.000
223.576;   71.800;  152.000;  -21.000
223.721;  108.600;  364.000;  273.000
223.865; -121.100; -472.000; -475.000
224.009;  559.300; 1673.000; 1631.000
224.153; -134.900; -660.000; -671.000
224.298; -154.600; -531.000; -489.000
224.442;  -11.900;  -74.000;  -33.000
224.586;  -29.400; -169.000; -106.000
224.730; -173.900; -858.000; -670.000
224.875; -210.400; -739.000; -688.000
225.019;   37.900;  102.000;  188.000
225.163;  110.100;  208.000;  341.000
225.307;   35.500;   97.000;  -91.000
225.451;  117.200;  360.000;  481.000
225.595;   97.400;  264.000;  176.000
225.739;   -8.500; -170.000;  -94.000
225.884;   50.100;   86.000;    5.000
226.028; -182.100; -760.000; -626.000
226.172;  -44.200; -260.000; -273.000
226.316; -221.200; -941.000; -902.000
226.460; -127.100; -645.000; -493.000
226.604;  -87.400; -406.000; -400.000
226.748; -207.700; -836.000; -733.000
226.892;  -50.900; -227.000; -181.000
227.036;  -66.800; -537.000; -447.000
227.180; -113.700; -551.000; -375.000
227.324; -139.400; -561.000; -580.000
227.468; -222.900; -819.000; -717.000
227.612;   54.300;  242.000;  -28.000
227.756; -207.900; -845.000; -698.000
227.900;  126.000;  342.000;  441.000
228.044; -110.300; -509.000; -290.000
228.188;  155.200;  448.000;  568.000
228.332; -175.200; -546.000; -472.000
228.476;  -64.200; -223.000; -149.000
228.620;  -45.100; -210.000; -150.000
228.764;  176.400;  431.000;  349.000
228.908;  -11.800; -155.000;   30.000
229.052; -128.200; -615.000; -528.000
229.195;  -19.900; -172.000;   13.000
229.339;  -47.200; -235.000; -305.000
229.483;  -50.100;    5.000; -162.000
229.627;   34.300; -156.000;  139.000
229.771;  -93.400; -218.000; -294.000
229.915;   47.200;  230.000;   79.000
230.059; -174.200; -648.000; -663.000
230.202;  -52.500; -370.000; -317.000
230.346;  -17.800; -107.000;  107.000
230.490; -129.800; -489.000; -521.000
230.634; -203.100; -736.000; -553.000
230.777;  184.900;  478.000;  509.000
230.921; -100.300; -450.000; -359.000
231.065;  -39.600; -246.000; -286.000
231.209;   79.800;  261.000;  265.000
231.352;   63.200;   54.000;   40.000
231.496;   75.200;  568.000;  188.000
231.640; -182.000; -693.000; -621.000
231.783;  136.500;  546.000;  525.000
231.927;  -73.100; -294.000; -365.000
232.071; -235.600; -962.000; -736.000
232.214; -187.600; -980.000; -764.000
232.358; -180.500; -683.000; -599.000
232.502;   31.700;  -19.000;    7.000
232.645; -287.900;-1090.000; -927.000
232.789;    3.300; -257.000; -218.000
232.933;  -65.600; -407.000; -224.000
233.076; -230.800;-1038.000; -897.000
233.220; -196.300; -752.000; -777.000
233.363; -135.000; -669.000; -477.000
233.507;  126.800;  371.000;  129.000
233.650; -183.100; -764.000; -834.000
233.794;  102.400;  438.000;  461.000
233.938;  -93.000; -530.000; -362.000
234.081;    0.500;  -93.000;   31.000
234.225;  -75.200; -631.000; -539.000
234.368; -233.900; -773.000; -723.000
234.512;  -86.000; -385.000; -299.000
234.655; -181.200; -582.000; -555.000
234.798; -118.900; -493.000; -466.000
234.942; -207.300; -884.000;-1002.000
235.085; -134.200; -651.000; -443.000
235.229; -128.200; -405.000; -410.000
235.372;  -72.600; -247.000; -191.000
235.516;  -89.600; -397.000; -321.000
235.659;   62.600;   92.000;  121.000
235.802;  -16.100;  -38.000;  -22.000
235.946;   80.700;  335.000;  215.000
236.089;   67.500;  126.000;  250.000
236.233;  148.600;  275.000;  298.000
236.376;  -58.400; -235.000; -378.000
236.519;  -71.900; -297.000; -319.000
236.663;   -4.200; -215.000; -117.000
236.806; -253.300;-1029.000; -999.000
236.949;  165.200;  543.000;  431.000
237.092;  146.100;  412.000;  391.000
237.236; -161.600; -589.000; -502.000
237.379;  157.500;  352.000;  428.000
237.522; -235.700; -879.000; -768.000
237.666;  -22.000; -271.000;   18.000
237.809; -266.800; -851.000; -823.000
237.952;  110.700;  469.000;  271.000
238.095; -101.100; -447.000; -442.000
238.238;  204.100;  688.000;  700.000
238.382;   49.900;  166.000;  103.000
238.525; -115.000; -598.000; -511.000
238.668; -288.400;-1060.000; -985.000
238.811; -150.300; -638.000; -643.000
238.954; -105.500; -483.000; -334.000
239.097;  235.000;  617.000;  664.000
239.241;   79.500;  394.000;  326.000
239.384;  -46.400; -254.000; -214.000
239.527;  -83.300; -424.000; -224.000
239.670; -289.700; -994.000;-1091.000
239.813; -215.200; -696.000; -658.000
239.956;  204.000;  579.000;  473.000
240.099; -203.900; -778.000; -725.000
240.242;  149.800;  428.000;  432.000
240.385;  147.300;  466.000;  450.000
240.528; -126.800; -706.000; -473.000
240.671;   65.600;  189.000;  134.000
240.814;  -47.300; -441.000; -158.000
240.957; -200.900; -767.000; -578.000
241.100; -159.700; -779.000; -755.000
241.243; -276.500;-1234.000; -893.000
241.386;  -98.200; -508.000; -379.000
241.529; -144.400; -735.000; -547.000
241.672;  -93.800; -566.000; -495.000
241.815; -230.100; -832.000; -808.000
241.958;  -23.300; -125.000; -182.000
242.101; -158.100; -545.000; -390.000
242.244;  -49.100; -270.000; -325.000
242.387;  -77.200; -304.000; -246.000
242.530;  155.000;  470.000;  134.000
242.673;  -66.300; -381.000; -309.000
242.815; -206.500; -925.000; -899.000
242.958; -114.200; -482.000; -381.000
243.101;   66.000;  132.000;  187.000
243.244; -164.800; -564.000; -521.000
243.387;  -80.700; -313.000; -316.000
243.530; -184.900; -657.000; -674.000
243.672;   40.600;   43.000;  -92.000
243.815; -124.800; -355.000; -283.000
243.958;    1.700;   98.000;  -26.000
244.101;   27.500;   59.000;  -16.000
244.243;    2.600;  -47.000;  101.000
244.386; -234.800; -761.000; -630.000
244.529;   -4.200; -132.000; -139.000
244.672; -301.900;-1154.000; -951.000
244.814; -206.200; -621.000; -794.000
244.957; -118.900; -380.000; -304.000
245.100; -131.800; -489.000; -489.000
245.242; -107.300; -387.000; -374.000
245.385;   26.100;  -59.000;  -39.000
245.528; -234.900; -871.000; -705.000
245.670;  190.800;  612.000;  634.000
245.813; -165.600; -599.000; -547.000
245.956;  -40.800; -324.000; -275.000
246.098; -136.800; -508.000; -650.000
246.241;   56.800;  194.000;   48.000
246.383;  -19.900; -119.000;  -73.000
246.526; -123.400; -454.000; -525.000
246.669; -253.100; -889.000; -780.000
246.811;   39.700;  172.000;   -1.000
246.954; -119.500; -512.000; -426.000
247.096;  -11.700;  -84.000;   -6.000
247.239; -110.300; -482.000; -445.000
247.381; -136.500; -647.000; -488.000
247.524;  164.900;  645.000;  679.000
247.666;   20.800;   58.000;   11.000
247.809; -215.900; -887.000; -691.000
247.951;   12.500;  -75.000;  138.000
248.094;  102.300;  432.000;  308.000
248.236; -305.800;-1262.000;-1238.000
248.378;    3.300; -356.000;  -81.000
248.521;  -17.500; -334.000; -337.000
248.663;  -65.900; -236.000; -267.000
248.806;  -27.000; -300.000; -266.000
248.948; -194.300; -886.000; -763.000
249.090;  -53.200; -428.000; -398.000
249.233;  -72.400; -344.000; -381.000
249.375; -110.700; -474.000; -451.000
249.518;  -26.700;  -83.000; -133.000
249.660;   13.300; -103.000;    3.000
249.802; -340.700;-1303.000;-1189.000
249.945;  -95.500; -612.000; -540.000
250.087; -212.500; -834.000; -768.000
250.229;  -68.100; -362.000; -480.000
250.371; -118.600; -494.000; -439.000
250.514; -110.500; -310.000; -244.000
250.656;  -12.200;   69.000;  102.000
250.798; -203.200; -849.000; -800.000
250.940; -130.000; -322.000; -322.000
251.083;  -21.500; -335.000; -111.000
251.225;  159.100;  338.000;  310.000
251.367;  -59.800; -274.000; -373.000
251.509;  -42.800; -265.000; -210.000
251.651; -180.900; -731.000; -671.000
251.794;  171.300;  538.000;  632.000
251.936; -190.600; -821.000; -747.000
252.078; -128.600; -540.000; -461.000
252.220; -142.400; -645.000; -477.000
252.362;  163.200;  344.000;  462.000
252.504; -132.300; -677.000; -584.000
252.646; -184.900; -875.000; -722.000
252.788;   19.400;   14.000; -128.000
252.931;  -74.400; -257.000; -253.000
253.073;  -57.500; -376.000; -317.000
253.215;   -9.600;  141.000;  122.000
253.357;   -5.500;   82.000; -153.000
253.499;  -72.500; -374.000; -234.000
253.641; -152.100; -749.000; -594.000
253.783; -192.700; -609.000; -527.000
253.925; -153.700; -586.000; -591.000
254.067; -202.700; -744.000; -667.000
254.209;  -35.000; -391.000; -259.000
254.351; -273.500; -865.000; -883.000
254.493;  -74.900; -441.000; -417.000
254.635; -215.300; -936.000; -818.000
254.777; -133.900; -752.000; -687.000
254.918; -143.300; -512.000; -430.000
255.060;  -91.300; -551.000; -395.000
255.202; -102.100; -473.000; -261.000
255.344; -111.600; -658.000; -455.000
255.486; -111.800; -471.000; -406.000
255.628; -208.000; -780.000; -781.000
255.770; -169.700; -676.000; -536.000
255.912;  -99.900; -559.000; -468.000
256.053; -171.300; -730.000; -508.000
256.195;  360.500; 1008.000;  903.000
256.337; -171.600; -861.000; -595.000
256.479;  142.200;  532.000;  416.000
256.621;  -94.000; -394.000; -212.000
256.762; -184.200; -789.000; -742.000
256.904;  123.200;  485.000;  487.000
257.046;  -79.900; -381.000; -271.000
257.188;  -81.000; -351.000; -264.000
257.329; -109.600; -525.000; -464.000
257.471; -196.000; -939.000; -807.000
257.613;  -94.900; -584.000; -498.000
257.755; -298.700;-1073.000; -982.000
257.896;   95.900;  286.000;  392.000
258.038; -111.400; -403.000; -352.000
258.180;  -82.900; -354.000; -279.000
258.321; -148.400; -581.000; -457.000
258.463;   13.600;  -71.000;  133.000
258.605; -160.500; -562.000; -570.000
258.746; -198.600; -886.000; -772.000
258.888; -277.300;-1026.000;-1020.000
259.029;   88.800;  121.000;   -8.000
259.171; -127.100; -614.000; -550.000
259.313;   21.900;  -49.000;  -47.000
259.454; -139.100; -536.000; -414.000
259.596;  -78.800; -483.000; -390.000
259.737; -127.100; -590.000; -474.000
259.879;   97.300;  217.000;  311.000
260.020;  239.400;  901.000;  636.000
260.162;  -17.000; -146.000; -253.000
260.303; -229.000; -768.000; -687.000
260.445; -140.500; -609.000; -613.000
260.586;   76.700;  392.000;  157.000
260.728;  -57.400; -360.000; -248.000
260.869; -109.900; -350.000; -343.000
261.011;  199.200;  706.000;  537.000
261.152;  -86.100; -479.000; -319.000
261.293; -133.700; -576.000; -595.000
261.435;  -76.500; -219.000; -184.000
261.576;  -76.100; -455.000; -325.000
261.718;  135.800;  420.000;  470.000
261.859; -211.300; -940.000; -949.000
262.000; -275.900; -951.000;-1016.000
262.142;    7.000;  -52.000;  -60.000
262.283; -202.300; -808.000; -691.000
262.424; -138.900; -666.000; -625.000
262.566; -288.500;-1161.000; -983.000
262.707; -215.400; -840.000; -830.000
262.848; -229.400; -769.000; -726.000
262.990;  -44.300; -362.000; -345.000
263.131;  193.000;  650.000;  681.000
263.272;   27.000;  -61.000;  -41.000
263.413; -150.900; -589.000; -561.000
263.555; -105.000; -669.000; -143.000
263.696; -148.700; -550.000; -641.000
263.837;  -72.500; -449.000; -551.000
263.978;   37.400;   -5.000;  -77.000
264.119;  -43.800; -283.000; -264.000
264.261; -190.900; -847.000; -630.000
264.402;   47.900;   33.000;   40.000
264.543; -135.100; -509.000; -524.000
264.684;  -11.100;   61.000;  -50.000
264.825; -136.700; -816.000; -538.000
264.966;   46.900;  -84.000;  -67.000
265.107; -218.800; -646.000; -670.000
265.248; -220.700; -825.000; -812.000
265.390;   12.600;  152.000;   -9.000
265.531;  -10.900; -238.000; -107.000
265.672; -146.300; -557.000; -630.000
265.813;  186.200;  563.000;  439.000
265.954; -250.100; -959.000; -940.000
266.095;   -6.100; -372.000; -322.000
266.236; -180.600; -686.000; -548.000
266.377;  -35.900; -243.000; -297.000
266.518; -123.800; -619.000; -547.000
266.659;   76.900;  170.000;  268.000
266.800;   32.300;   83.000;   85.000
266.941; -105.100; -487.000; -478.000
267.082;   55.800;  354.000;   99.000
267.223;  -64.400; -344.000; -273.000
267.364; -216.600; -892.000; -686.000
267.504;   -1.200;    3.000;  135.000
267.645;   53.300;  160.000;   67.000
267.786;  -33.300; -147.000;  -86.000
267.927;  -86.000; -473.000; -379.000
268.068;    5.300; -186.000;  -61.000
268.209;  -63.100; -175.000; -413.000
268.350;  -97.700; -388.000; -532.000
268.490; -143.300; -648.000; -521.000
268.631;   94.600;  127.000;  225.000
268.772; -205.000; -874.000; -647.000
268.913;  -79.700; -328.000; -476.000
269.054;  -29.800; -117.000;   12.000
269.194;  -91.100; -418.000; -402.000
269.335; -302.400;-1137.000;-1074.000
269.476;   -7.300;   33.000;  -35.000
269.617;  -84.300; -347.000; -392.000
269.757; -142.400; -713.000; -646.000
269.898; -198.800; -856.000; -613.000
270.039;  -98.200; -415.000; -405.000
270.180; -254.300; -952.000; -816.000
270.320;    9.000; -190.000; -250.000
270.461;  -35.500; -277.000; -249.000
270.602;   37.300; -186.000; -156.000
270.742; -222.500; -868.000; -943.000
270.883;  -62.200; -442.000; -390.000
271.023;  -62.000; -358.000; -357.000
271.164; -116.500; -607.000; -528.000
271.305; -189.800; -666.000; -654.000
271.445; -179.800; -722.000; -683.000
271.586; -114.600; -462.000; -283.000
271.726;  -45.000; -397.000; -322.000
271.867; -122.700; -594.000; -534.000
272.008;  349.100; -473.000; -285.000
272.148;  277.400;  462.000;  468.000
272.289;   48.400; -113.000; -181.000
272.429;   72.900;   19.000;  185.000
272.570; -137.200; -633.000; -737.000
272.710; -167.200; -825.000; -775.000
272.851;   31.700;  113.000; -130.000
272.991; -299.300;-1173.000;-1077.000
273.131;  -89.800; -419.000; -459.000
273.272; -132.700; -683.000; -723.000
273.412;   66.300; -143.000;  -31.000
273.553;  -66.900; -488.000; -507.000
273.693;  320.700;  913.000;  858.000
273.834; -192.100; -894.000; -692.000
273.974; -120.200; -664.000; -615.000
274.114; -165.300; -772.000; -560.000
274.255;  183.300;  414.000;  373.000
274.395;   28.200; -180.000; -125.000
274.535;  142.500;  199.000;  350.000
274.676;   74.100;  225.000;   94.000
274.816;   27.700;  110.000;   34.000
274.956; -137.700; -624.000; -690.000
275.097; -138.200;-1014.000; -922.000
275.237; -218.800; -913.000; -803.000
275.377; -182.000; -778.000; -689.000
275.517; -270.400; -878.000; -937.000
275.658;  -97.500; -590.000; -555.000
275.798; -129.200; -606.000; -413.000
275.938;   75.500;  215.000;  323.000
276.078; -119.500; -626.000; -395.000
276.218;   11.900;   99.000;  104.000
276.359; -225.400;-1026.000;-1024.000
276.499; -112.300; -605.000; -446.000
276.639;  -31.900; -305.000; -151.000
276.779;  -83.100; -475.000; -357.000
276.919; -174.000; -783.000; -624.000
277.059;  -24.400; -261.000; -212.000
277.199;  -50.400; -357.000; -259.000
277.340;  155.300;  287.000;  175.000
277.480; -186.400; -840.000; -693.000
277.620;  109.500;  192.000;   16.000
277.760; -378.600;-1533.000;-1294.000
277.900;   72.400;  113.000;   33.000
278.040;   71.800;  137.000;  159.000
278.180;  123.600;  270.000;  170.000
278.320;   31.300;   21.000;   56.000
278.460; -122.600; -443.000; -469.000
278.600; -157.600; -708.000; -598.000
278.740;  157.000;  448.000;  224.000
278.880;  -84.200; -768.000; -791.000
279.020;   72.200; -194.000; -144.000
279.160; -137.000; -672.000; -595.000
279.300; -234.400; -926.000; -873.000
279.440; -173.300; -709.000; -622.000
279.579;  -61.100;-1014.000; -929.000
279.719;  -89.800; -410.000; -394.000
279.859;  185.800;   -4.000;   41.000
279.999;   71.500; -208.000;  101.000
280.139;  -37.600; -435.000; -387.000
280.279; -120.700; -708.000; -745.000
280.419;   -3.200; -229.000; -147.000
280.559;  -23.600; -259.000; -180.000
280.698; -133.000; -790.000; -639.000
280.838; -164.900; -778.000; -800.000
280.978; -169.100; -846.000; -790.000
281.118; -183.500; -811.000; -704.000
281.257;  106.700;   24.000;    6.000
281.397; -198.700;-1094.000; -960.000
281.537; -152.900; -599.000; -712.000
281.677;    5.600; -150.000; -101.000
281.816; -141.400; -700.000; -630.000
281.956;  -29.400; -193.000; -257.000
282.096;  -99.500; -539.000; -396.000
282.235; -173.600; -672.000; -638.000
282.375;  -17.100; -243.000;  -98.000
282.515; -144.500; -715.000; -707.000
282.654;   92.400;   29.000;  106.000
282.794;  131.200;  388.000;  244.000
282.934;  -77.600; -530.000; -491.000
283.073; -251.400;-1030.000; -857.000
283.213;  -36.100; -460.000; -467.000
283.353;  -10.500; -408.000; -349.000
283.492;    3.600; -264.000; -296.000
283.632;  -38.600; -254.000; -168.000
283.771; -168.400; -859.000; -730.000
283.911;  -53.300; -369.000; -260.000
284.050; -172.200; -794.000; -748.000
284.190; -304.700;-1229.000;-1096.000
284.329; -220.100;-1055.000; -964.000
284.469;  -71.600; -516.000; -591.000
284.608;  -78.300; -559.000; -598.000
284.748; -126.500; -614.000; -570.000
284.887;   42.600;  -87.000;  -20.000
285.027; -207.700; -844.000; -892.000
285.166;  -14.200; -192.000; -249.000
285.306;  100.200; -116.000;  -33.000
285.445;  -47.800; -229.000; -343.000
285.584; -152.400; -630.000; -494.000
285.724;  -47.100; -282.000; -322.000
285.863; -216.300; -857.000; -507.000
286.002;  -77.400; -366.000; -276.000
286.142; -189.200; -715.000; -622.000
286.281;  -99.800; -525.000; -493.000
286.420; -115.700; -554.000; -417.000
286.560;  242.700;  653.000;  623.000
286.699; -239.300; -958.000; -912.000
286.838; -133.200; -590.000; -591.000
286.978; -139.300; -533.000; -537.000
287.117; -226.500;-1085.000; -950.000
287.256;  -11.500; -228.000; -211.000
287.395;  -62.300; -197.000; -378.000
287.535;  -81.200; -370.000; -298.000
287.674; -145.900; -509.000; -484.000
287.813;  172.600;  661.000;  533.000
287.952; -209.900;-1010.000; -871.000
288.091; -269.200;-1049.000; -915.000
288.231;   75.600;   13.000;   15.000
288.370; -333.400;-1217.000;-1200.000
288.509; -142.600; -728.000; -645.000
288.648; -162.800; -770.000; -548.000
288.787;    5.200; -243.000;  -87.000
288.926; -103.700; -454.000; -475.000
289.065;  279.100;  859.000;  672.000
289.204;  -61.500; -377.000; -217.000
289.344; -133.800; -791.000; -690.000
289.483;  119.500;  416.000;  304.000
289.622;  -17.000; -291.000; -149.000
289.761;   -5.500; -309.000; -166.000
289.900; -193.200; -785.000; -626.000
290.039;   12.200;  -12.000;  -95.000
290.178;  -35.100; -274.000; -180.000
290.317; -113.300; -618.000; -479.000
290.456;  -69.700; -463.000; -451.000
290.595; -275.100; -961.000; -833.000
290.734; -257.500; -904.000; -891.000
290.873; -113.300; -456.000; -420.000
291.011; -169.200; -833.000; -843.000
291.150; -188.500; -770.000; -682.000
291.289;  -16.900; -343.000; -110.000
291.428; -133.700; -599.000; -480.000
291.567;  -67.500; -370.000; -442.000
291.706;   42.600;  109.000;  154.000
291.845; -152.900; -597.000; -505.000
291.984; -292.700;-1234.000;-1061.000
292.122;  206.800;  602.000;  582.000
292.261;  150.500;  620.000;  463.000
292.400;   60.800; -144.000;  211.000
292.539; -208.600; -959.000; -813.000
292.678;  -30.200; -325.000; -300.000
292.816; -290.300;-1136.000; -965.000
292.955; -154.000; -844.000; -684.000
293.094;  -28.000; -173.000; -337.000
293.233;  -59.100; -556.000; -400.000
293.371;  -38.100; -225.000;  -84.000
293.510; -179.000; -866.000; -780.000
293.649; -209.400; -959.000; -924.000
293.787; -116.700;-1083.000;-1012.000
293.926;   74.400; -113.000;  -32.000
294.065;  -47.600; -379.000; -290.000
294.203;  122.800;  298.000;  406.000
294.342;   89.700;   74.000;  156.000
294.481;11345.900;51180.000; -836.000
294.619;   12.100; -425.000; -582.000
294.758; -229.100;-1230.000;-1137.000
294.896;  166.900; -125.000;    5.000
295.035; -215.600;-1040.000;-1006.000
295.174; -208.900;-1082.000; -954.000
295.312;  -34.600; -323.000; -203.000
295.451;   38.200; -307.000; -428.000
295.589;  -49.800; -389.000; -518.000
295.728;   75.600; -292.000; -165.000
295.866;   12.900;  -36.000;  -51.000
296.005; -100.700; -584.000; -341.000
296.143;  -93.800; -558.000; -596.000
296.282; -166.300; -957.000; -881.000
296.420; -139.300; -657.000; -557.000
296.559; -106.900; -892.000; -633.000
296.697;   81.500; -847.000; -665.000
296.835;  221.500;-1141.000;-1002.000
296.974;  140.400;  -23.000;   39.000
297.112;   73.100; -443.000; -504.000
297.251;  -85.100; -815.000; -755.000
297.389;  229.000; -576.000; -438.000
297.527;  145.300; -145.000;  -83.000
297.666;  -58.200; -486.000; -438.000
297.804;  -50.800; -404.000; -264.000
297.942;   50.300; -136.000; -161.000
298.081;   16.900; -183.000;   63.000
298.219;  186.900;  -17.000;  -19.000
298.357;  136.300; -144.000;  -71.000
298.495;  125.900; -810.000; -812.000
298.634;  203.100;  245.000;  219.000
298.772;  167.500; -220.000; -338.000
298.910;  -36.500; -309.000; -182.000
299.048;   22.200; -130.000; -153.000
299.187;  -27.600; -350.000; -250.000
299.325;   63.500;   52.000;  122.000
299.463;  130.400; -389.000; -299.000
299.601;  271.000; -327.000; -271.000
299.739; -179.400; -908.000; -883.000
299.877; -120.500; -791.000; -703.000
300.016;  -93.700;-1095.000; -935.000
300.154;  354.500;  -19.000; -161.000
300.292;  150.800; -428.000; -348.000
300.430;  103.300; -408.000; -291.000
300.568; -171.200; -940.000; -874.000
300.706;  -52.000; -366.000; -469.000
300.844;  -84.400;-1108.000; -979.000
300.982;  302.500;  246.000;  282.000
301.120; -184.500; -965.000; -866.000
301.258;  -88.800; -812.000; -705.000
301.396;  118.200;  104.000;  -41.000
301.534;  222.700; -218.000; -293.000
301.672;   26.600; -664.000; -521.000
301.810;  123.300; -613.000; -545.000
301.948;  368.200;   53.000;  149.000
302.086; 1115.400; -250.000;  -32.000
302.224; 1878.100; -610.000; -585.000
302.362;  105.700; -558.000; -622.000
302.500;   -3.200; -923.000; -893.000
302.638;  271.900;  128.000;  245.000
302.776;   50.700; -352.000; -408.000
302.913;  143.600;  447.000;  236.000
303.051;   35.900;  -86.000;  -23.000
303.189;  174.800;   90.000;  118.000
303.327;  -31.100; -341.000; -256.000
303.465; -137.500; -832.000; -588.000
303.603; -152.100; -805.000; -604.000
303.740;  232.700;  417.000;  241.000
303.878;   75.100; -800.000; -759.000
304.016; -100.000; -915.000; -790.000
304.154; -220.100;-1123.000;-1152.000
304.291;  -10.100; -505.000; -554.000
304.429;   88.100;  102.000;   74.000
304.567; -210.100; -908.000; -893.000
304.705;  -43.200; -408.000; -515.000
304.842;  185.200; -616.000; -540.000
304.980;  141.900;  215.000;   35.000
305.118;  163.100; -367.000; -365.000
305.255;  -86.600; -945.000; -927.000
305.393;  179.200;  178.000;  239.000
305.531; -191.600;-1173.000; -956.000
305.668; -109.700; -663.000; -582.000
305.806;  198.400; -358.000; -439.000
305.943;  215.300; -629.000; -637.000
306.081;  123.600; -378.000; -267.000
306.219; -158.800; -863.000; -748.000
306.356;   61.900;  158.000;   27.000
306.494;  324.900;  981.000;  761.000
306.631;   78.300;  -11.000;  -55.000
306.769;   53.900; -613.000; -485.000
306.906;   66.200; -284.000; -258.000
307.044;  -57.400; -473.000; -488.000
307.181;  -41.000; -410.000; -332.000
307.319;  125.900;  112.000;   87.000
307.456; -309.900;-1191.000;-1153.000
307.594; -169.900; -980.000; -727.000
307.731;   18.100; -371.000; -164.000
307.868;   91.000;  -15.000;   20.000
308.006; -210.400; -961.000; -847.000
308.143;  -63.400; -618.000; -330.000
308.281;  437.800;  -37.000; -254.000
308.418;   44.200; -748.000; -640.000
308.555;  -95.300; -400.000; -250.000
308.693;  -92.400; -577.000; -573.000
308.830; -180.200; -712.000; -657.000
308.967;   32.000; -215.000;  -95.000
309.105;   31.500; -507.000; -396.000
309.242;  142.300; -468.000; -367.000
309.379;  771.400; -577.000; -655.000
309.517;  -25.600; -936.000; -948.000
309.654; -152.700; -910.000; -734.000
309.791;  -63.100; -662.000; -580.000
309.928; -183.300; -977.000; -914.000
310.065;  462.400;  819.000;  697.000
310.203;   70.900; -825.000; -850.000
310.340;   64.800; -465.000; -321.000
310.477; -110.300; -412.000; -516.000
310.614;  -25.000; -383.000; -473.000
310.751;  -77.600; -427.000; -518.000
310.889;   40.600;    1.000;   11.000
311.026; -233.300;-1161.000; -939.000
311.163;  -24.400; -386.000; -380.000
311.300;  -74.800; -512.000; -479.000
311.437; -100.900; -658.000; -619.000
311.574; -231.500;-1226.000; -985.000
311.711;  -62.100; -595.000; -433.000
311.848;   23.600; -380.000; -388.000
311.985;   90.200;  270.000;   93.000
312.122; -166.300; -932.000; -762.000
312.259; -184.800; -941.000; -994.000
312.396;  -93.200; -508.000; -551.000
312.533; -111.800; -812.000; -790.000
312.670; -246.000;-1070.000; -898.000
312.807;   16.000; -352.000; -367.000
312.944;  -90.500; -513.000; -611.000
313.081;   -1.600; -150.000; -415.000
313.218; -150.600;-1111.000; -867.000
313.355;   90.200; -531.000; -449.000
313.492;  104.700; -455.000; -292.000
313.629;  373.000;  815.000;  735.000
313.766; -269.600;-1176.000;-1008.000
313.902;   52.000; -186.000;   21.000
314.039;  -39.700; -372.000; -289.000
314.176;  120.300;  286.000;  192.000
314.313;  -68.800; -569.000; -473.000
314.450;  -53.900; -788.000; -684.000
314.587;  -59.300; -468.000; -480.000
314.723;   95.800;  -78.000;  130.000
314.860;  145.900;  318.000;  332.000
314.997;  130.400;  223.000;  142.000
315.134;  -28.600; -385.000; -368.000
315.270;    9.900; -480.000; -496.000
315.407; -200.400;-1094.000; -967.000
315.544;  -11.400; -657.000; -538.000
315.681;  -55.600; -681.000; -565.000
315.817;  107.100; -133.000; -176.000
315.954;   70.700; -613.000; -392.000
316.091; -179.700;-1045.000;-1023.000
316.227;   17.000;  -71.000; -179.000
316.364;   54.600;   23.000;    6.000
316.500;  -16.100; -113.000; -300.000
316.637;    7.300; -181.000; -302.000
316.774; -137.800; -625.000; -358.000
316.910; -100.400; -598.000; -629.000
317.047; -128.300; -487.000; -351.000
317.183;  -67.400; -435.000; -566.000
317.320;    2.600; -367.000; -321.000
317.456; -111.100; -733.000; -805.000
317.593; -121.000; -598.000; -641.000
317.729;   89.500;  168.000;  -67.000
317.866; -351.200;-1434.000;-1285.000
318.002; -126.400; -708.000; -948.000
318.139; -140.200; -883.000; -867.000
318.275; -130.300;-1003.000; -738.000
318.412;  -94.800; -517.000; -336.000
318.548;  -23.500; -751.000; -720.000
318.685; -137.900; -985.000; -888.000
318.821; -124.800; -762.000; -735.000
318.957;   13.700;   34.000;  -23.000
319.094;  144.400;  297.000;  154.000
319.230;  -58.900; -756.000; -742.000
319.367;  260.800; -471.000; -520.000
319.503;  160.800; -538.000; -436.000
319.639; -138.400; -877.000; -793.000
319.775;  -75.600; -750.000; -685.000
319.912;  -75.600; -424.000; -519.000
320.048; -136.600;-1184.000;-1184.000
320.184;  179.500;   59.000;   70.000
320.321;  -70.000; -497.000; -467.000
320.457;  179.500;  475.000;  662.000
320.593;  -57.600; -375.000; -382.000
320.729; -160.800; -732.000; -734.000
320.866;  -55.700; -577.000; -635.000
321.002; -121.900; -759.000; -809.000
321.138;   31.300; -135.000; -211.000
321.274;  178.000; -148.000; -115.000
321.410;   27.000; -585.000; -353.000
321.546;   -5.600;-1011.000; -911.000
321.683;  129.000;  400.000;  185.000
321.819;  106.900;  -48.000; -117.000
321.955; -159.200; -743.000; -722.000
322.091;  -29.200; -585.000; -540.000
322.227;   37.100; -382.000; -202.000
322.363;   -1.000; -320.000; -215.000
322.499;   -6.800; -343.000; -331.000
322.635;  334.000;  636.000;  443.000
322.771;  110.800; -139.000;   12.000
322.907;  277.500;  129.000;  327.000
323.043;   13.600; -115.000; -206.000
323.179;  -33.000; -394.000; -363.000
323.315;  114.800; -401.000; -371.000
323.451;  294.200; -328.000; -236.000
323.587;  179.900;  -60.000;  -77.000
323.723;   74.700; -682.000; -601.000
323.859;   -4.000; -258.000;  -76.000
323.995;  -20.800; -467.000; -409.000
324.131; -213.900; -967.000; -892.000
324.267;  -38.000; -254.000; -276.000
324.402; -208.500; -960.000; -983.000
324.538;   29.800; -279.000; -104.000
324.674;  115.600;  164.000;   77.000
324.810;  427.400;  226.000;  308.000
324.946;  131.800; -810.000; -658.000
325.082;  -60.500; -568.000; -475.000
325.217;   33.200;  -62.000;   16.000
325.353; -118.300; -764.000; -659.000
325.489; -130.600; -540.000; -506.000
325.625; -100.400; -579.000; -525.000
325.760;  151.800;  517.000;  376.000
325.896;  -33.200; -515.000; -702.000
326.032;  -50.400; -403.000; -352.000
326.168;  -51.700; -462.000; -369.000
326.303;  -65.700; -352.000; -461.000
326.439;  -13.700; -336.000; -276.000
326.575;   29.300; -190.000;  -29.000
326.710;   29.000; -156.000;  -30.000
326.846;   42.800;  146.000;  103.000
326.982; -139.400; -530.000; -548.000
327.117; -125.600; -481.000; -442.000
327.253; -114.500; -745.000; -742.000
327.388; -199.300;-1137.000;-1153.000
327.524;   19.600; -811.000; -578.000
327.659;   -7.600;  -58.000;  -22.000
327.795;   27.400;   69.000;   45.000
327.931; -174.600; -723.000; -499.000
328.066;   14.200; -417.000; -276.000
328.202;   29.000;   12.000; -129.000
328.337;  259.800;  957.000;  713.000
328.473;   21.300;  -12.000;  -74.000
328.608;   -9.100; -256.000; -267.000
328.743; -123.700; -799.000; -664.000
328.879;  122.900;  214.000;  114.000
329.014;  -84.800; -102.000; -122.000
329.150; -109.000; -358.000; -483.000
329.285; -105.700; -465.000; -466.000
329.421;  -53.000; -548.000; -246.000
329.556;   24.800;  -36.000;   85.000
329.691; -135.000; -633.000; -615.000
329.827;  -85.500; -626.000; -480.000
329.962;  -45.800;  131.000; -301.000
330.097; -111.600; -673.000; -585.000
330.233;  -23.600; -410.000; -223.000
330.368; -221.900; -839.000; -628.000
330.503;   35.100;    3.000;   98.000
330.638;   66.700;  -93.000; -125.000
330.774;  -64.600; -609.000; -530.000
330.909;  -42.800; -434.000; -244.000
331.044; -144.700; -714.000; -708.000
331.179; -305.000;-1217.000;-1109.000
331.315;   98.500;   77.000;   20.000
331.450;   61.500;  157.000;  285.000
331.585;  -98.800; -805.000; -706.000
331.720; -107.300; -510.000; -460.000
331.855;   15.500;  -35.000; -102.000
331.990;  437.700;   62.000;  138.000
332.126;  272.000; -110.000;   71.000
332.261;  -13.600; -379.000; -265.000
332.396;   50.900; -135.000; -242.000
332.531; -163.000;-1074.000;-1031.000
332.666;   89.400; -519.000; -363.000
332.801; -171.100; -726.000; -807.000
332.936;   52.100; -192.000; -122.000
333.071; -189.400; -870.000; -817.000
333.206;  120.600;  307.000;  379.000
333.341;  103.900;  344.000;  418.000
333.476; -114.000; -627.000; -623.000
333.611;   -5.700; -251.000; -173.000
333.746;  -12.000; -381.000; -464.000
333.881; -199.700; -973.000; -935.000
334.016; -162.700; -936.000; -917.000
334.151; -189.600; -746.000; -702.000
334.286;   85.600;  152.000;  186.000
334.421;   44.200; -125.000; -178.000
334.556;  -97.700; -611.000; -567.000
334.690; -117.200; -631.000; -577.000
334.825;  186.100;  381.000;   83.000
334.960;  -54.300; -285.000; -413.000
335.095;   99.600;  135.000;  -91.000
335.230; -142.700; -722.000; -738.000
335.365; -240.500;-1084.000; -990.000
335.499; -221.000;-1108.000;-1037.000
335.634;  108.300;    9.000;  534.000
335.769; -136.200; -755.000; -720.000
335.904;  -50.400; -603.000; -561.000
336.038;  -47.600; -735.000; -657.000
336.173; -180.600;-1206.000;-1194.000
336.308;   82.400; -116.000; -189.000
336.443;   63.700; -544.000; -634.000
336.577;  -88.300; -936.000; -787.000
336.712;  182.400;   -4.000;  -12.000
336.847;  -16.900; -724.000; -607.000
336.981;  203.300; -272.000; -208.000
337.116;  633.000;  615.000;  501.000
337.250;  414.800; -434.000; -421.000
337.385;  413.100; -297.000; -208.000
337.520;  132.800; -632.000; -603.000
337.654;  -31.200; -215.000; -126.000
337.789; -203.800; -989.000; -933.000
337.923;    6.200; -104.000; -205.000
338.058; -127.900; -673.000; -738.000
338.192;   -4.400; -611.000; -488.000
338.327;   84.300;  -18.000; -155.000
338.461;  -50.200; -299.000; -469.000
338.596; -127.100; -780.000; -638.000
338.730; -179.900; -767.000; -803.000
338.865;  193.900;  -46.000; -140.000
338.999;  -96.100; -846.000; -702.000
339.134;  -11.300; -634.000; -536.000
339.268;   40.000; -741.000; -603.000
339.403;  593.000; -740.000; -775.000
339.537;  208.500; -894.000; -820.000
339.671; -188.300; -829.000; -813.000
339.806; -108.000; -556.000; -512.000
339.940;   72.500; -261.000; -235.000
340.074; -121.000; -685.000; -510.000
340.209;  -32.400; -351.000; -230.000
340.343; -122.200; -517.000; -573.000
340.477;  384.700;  998.000; 1036.000
340.612; -133.600;-1033.000; -900.000
340.746;  236.800; -199.000; -243.000
340.880;  -83.800; -924.000; -785.000
341.014;   18.800;  -45.000; -154.000
341.149; -201.400; -756.000; -718.000
341.283; -157.000; -839.000; -754.000
341.417; -154.900;-1124.000; -938.000
341.551;  324.800; -768.000; -708.000
341.685;  -18.400; -633.000; -611.000
341.820;  -40.600; -562.000; -493.000
341.954;  -69.200; -218.000; -349.000
342.088; -241.500;-1102.000;-1019.000
342.222;  116.300;  565.000;  618.000
342.356;  -53.800; -395.000; -335.000
342.490; -141.200; -880.000; -841.000
342.624;  -36.600; -339.000; -242.000
342.758;   72.800; -364.000; -312.000
342.892;  -34.700; -710.000; -585.000
343.026;  -25.300;  -58.000; -116.000
343.160;  -94.300; -426.000; -376.000
343.294;  -93.100; -474.000; -337.000
343.428;   47.200; -488.000; -448.000
343.562;   13.400; -172.000;  -23.000
343.696;   20.900; -385.000; -314.000
343.830;    0.700; -362.000; -356.000
343.964;   61.500; -231.000; -168.000
344.098; 1849.800;  199.000;   70.000
344.232; 1520.100; -266.000; -127.000
344.366;  218.900; -567.000; -453.000
344.500;  199.500; -665.000; -744.000
344.634;  109.200; -324.000; -164.000
344.768;   41.600; -531.000; -341.000
344.902;  107.600;  278.000;  256.000
345.035;  -84.400; -556.000; -496.000
345.169; -238.900; -933.000; -656.000
345.303;   -8.500; -308.000; -482.000
345.437;  -84.300; -826.000; -717.000
345.571;  -95.400; -675.000; -594.000
345.704;  -66.200; -309.000; -532.000
345.838;   22.800; -331.000; -284.000
345.972;  -26.900; -543.000; -495.000
346.106;  313.000; -179.000; -190.000
346.239;  740.400; -312.000; -243.000
346.373;   75.400; -343.000; -302.000
346.507; -263.300; -950.000; -962.000
346.640;  328.900;  -30.000;   13.000
346.774;   -6.700; -650.000; -797.000
346.908;   51.600; -138.000;  -11.000
347.041; -139.700; -646.000; -593.000
347.175;  117.900;  259.000;   27.000
347.309;  -84.400; -698.000; -628.000
347.442; -142.200; -883.000; -732.000
347.576;  622.100;  670.000;  668.000
347.709;  463.600; -123.000;  -52.000
347.843; -161.900; -933.000; -825.000
347.976;  125.900;  235.000;  294.000
348.110; -317.500;-1268.000;-1186.000
348.243; -169.400; -679.000; -772.000
348.377;   71.500;  -26.000;   60.000
348.510;  198.400;  403.000;  540.000
348.644;  -13.500;  -37.000; -159.000
348.777;   55.000;  180.000;  191.000
348.911;  -18.300; -142.000; -112.000
349.044;  410.500;  471.000;  448.000
349.178;  371.600;-1069.000;-1006.000
349.311;  309.800;  141.000;  255.000
349.444;    0.900; -927.000; -813.000
349.578;   49.800; -347.000; -200.000
349.711; -140.700; -959.000; -862.000
349.845;   51.000; -661.000; -591.000
349.978; -255.000;-1224.000;-1137.000
350.111; -110.500; -546.000; -612.000
350.244;  -88.800; -596.000; -700.000
350.378;   72.400; -392.000; -393.000
350.511;  -83.800; -393.000; -426.000
350.644; -182.300; -808.000; -806.000
350.778;   62.700;  168.000;  104.000
350.911;   52.100;  134.000;  140.000
351.044; -127.700; -685.000; -615.000
351.177;   28.000; -321.000; -281.000
351.310;   19.800;    3.000; -131.000
351.444;  -94.200; -888.000; -788.000
351.577;  309.100;  140.000;   90.000
351.710;  312.000;  593.000;  417.000
351.843;   -9.300; -165.000;  -77.000
351.976;   62.500;  149.000;  -79.000
352.109; -119.000; -621.000; -612.000
352.242;    3.000; -464.000; -419.000
352.376;  -52.000; -580.000; -636.000
352.509;  427.300; -437.000; -356.000
352.642;   59.900; -654.000; -604.000
352.775;  202.600; -141.000;  -98.000
352.908; -148.000; -933.000; -904.000
353.041; -177.500; -814.000; -824.000
353.174;  -83.000; -551.000; -424.000
353.307; -124.100; -753.000; -764.000
353.440;  231.900;  541.000;  453.000
353.573; -166.800; -957.000;-1008.000
353.706;   -7.500; -384.000; -558.000
353.839;   21.000; -264.000; -220.000
353.971; -107.800; -657.000; -512.000
354.104;  -88.800; -896.000; -835.000
354.237;  -35.500; -627.000; -662.000
354.370; -118.200; -846.000; -879.000
354.503; -309.700;-1231.000;-1308.000
354.636;    8.700; -529.000; -348.000
354.769; -213.700; -937.000; -860.000
354.902;   46.700; -230.000; -139.000
355.034;   29.800; -164.000; -220.000
355.167;   32.600; -262.000; -162.000
355.300; -143.300;-1061.000; -880.000
355.433; 1677.200;  -71.000;  -14.000
355.565; 2509.300; -402.000; -384.000
355.698;  615.900; -356.000; -296.000
355.831;   18.700; -882.000; -801.000
355.964;  256.100; -285.000; -170.000
356.096; -107.000; -856.000; -843.000
356.229;   87.000; -523.000; -530.000
356.362;  571.400; -373.000; -266.000
356.494;  978.100; -229.000; -162.000
356.627;  992.400;  269.000;  377.000
356.760; 1184.600;  120.000;   53.000
356.892; 1563.600; -286.000; -601.000
357.025; 1369.600;  403.000;  389.000
357.157; 1249.100; -167.000; -179.000
357.290; 1029.300; -856.000; -713.000
357.423;  326.100; -667.000; -556.000
357.555;  309.300; -217.000; -228.000
357.688;  281.500; -483.000; -364.000
357.820;  832.900; -870.000; -877.000
357.953; 6647.100; -563.000; -589.000
358.085; 1533.200; -632.000; -612.000
358.218; 2532.200;-1131.000; -932.000
358.350;  516.300;  -58.000;  312.000
358.483; -222.500;-1300.000;-1187.000
358.615;   88.500;-1182.000;-1078.000
358.747;  -56.700;-1187.000;-1058.000
358.880;  167.100; -810.000; -744.000
359.012;   38.100; -376.000; -202.000
359.145;   25.400; -480.000; -511.000
359.277;  123.500; -962.000; -913.000
359.409; 5709.800;  536.000;  231.000
359.542; 1429.000; -738.000; -688.000
359.674;  165.100;   46.000;   13.000
359.806;  -70.900; -565.000; -438.000
359.939;  -32.300; -617.000; -516.000
360.071;  -19.300; -583.000; -579.000
360.203;   -5.800; -411.000; -364.000
360.335;  156.700;  164.000;  -16.000
360.468;  410.900; -249.000; -307.000
360.600; 4412.400; -547.000; -454.000
360.732; 4373.700; -546.000; -423.000
360.864;  576.000;-1216.000;-1044.000
360.996;  661.000; -516.000; -554.000
361.129;  163.900; -389.000; -598.000
361.261;   93.500;  110.000; -113.000
361.393;   25.100; -252.000; -214.000
361.525;  145.000;   94.000;  244.000
361.657;  -65.200; -821.000; -703.000
361.789;  104.700; -139.000; -155.000
361.921;  604.000; -642.000; -593.000
362.053;  585.800;  524.000;  541.000
362.185;  168.400;  288.000;   72.000
362.318;  -81.400; -709.000; -705.000
362.450;  363.000;  294.000;  444.000
362.582;  401.100; -913.000; -870.000
362.714;   -8.500; -353.000; -332.000
362.846; -102.800; -606.000; -490.000
362.978; -222.400; -941.000; -811.000
363.109;  179.800; -161.000; -260.000
363.241;  984.200; -739.000; -749.000
363.373;  788.100; -649.000; -564.000
363.505; 1104.000; -186.000;  -91.000
363.637;  286.500; -787.000; -601.000
363.769; -176.500;-1067.000;-1080.000
363.901;  -91.900; -596.000; -654.000
364.033; -126.400;-1103.000;-1062.000
364.165;   59.800; -283.000; -283.000
364.296;  177.300; -316.000; -177.000
364.428;   92.200;-1344.000;-1220.000
364.560;  -84.300; -679.000; -661.000
364.692;  -66.500; -738.000; -835.000
364.824;  622.800; -588.000; -456.000
364.955;  846.100; -402.000; -564.000
365.087; 1306.300;-1097.000; -852.000
365.219;   67.700; -686.000; -816.000
365.351;  -79.200; -526.000; -572.000
365.482;  192.800;  300.000;  240.000
365.614;  -61.700; -402.000; -314.000
365.746; -156.300; -729.000; -752.000
365.877; -161.500; -706.000; -672.000
366.009;  464.000;  -35.000;  -62.000
366.141; -151.400;-1249.000;-1134.000
366.272; -158.400; -803.000; -719.000
366.404; -218.000;-1005.000; -874.000
366.535;   22.000; -139.000;  -12.000
366.667; -119.000; -644.000; -649.000
366.799;  142.400;  353.000;  203.000
366.930; -174.500; -862.000; -996.000
367.062;  247.000; -639.000; -613.000
367.193;  241.800; -872.000; -842.000
367.325;  -37.700; -580.000; -684.000
367.456;  247.700; -246.000;   31.000
367.588;  321.100; -371.000; -318.000
367.719;  103.800;  -44.000;  -45.000
367.851;   49.300; -222.000; -241.000
367.982;  -33.400; -875.000; -732.000
368.113;  262.800; -475.000; -358.000
368.245; -170.300; -960.000; -841.000
368.376;   32.200; -254.000; -302.000
368.508;   21.400; -188.000; -263.000
368.639; -207.400;-1166.000;-1034.000
368.770;   37.300; -670.000; -589.000
368.902;  -44.600; -836.000; -926.000
369.033; -159.700; -906.000; -855.000
369.164;  -42.200; -720.000; -653.000
369.296; -133.800; -452.000; -601.000
369.427;   87.500; -209.000; -144.000
369.558;  -34.600; -593.000; -377.000
369.689; -109.300; -721.000; -569.000
369.821; -204.700; -951.000; -845.000
369.952;   31.900;   42.000; -108.000
370.083;  -38.200; -229.000; -108.000
370.214;  -96.700; -735.000; -650.000
370.345;   50.100;   65.000;   81.000
370.477;  -90.000; -810.000; -790.000
370.608;  533.900; -328.000; -264.000
370.739;  -22.500;-1233.000;-1292.000
370.870;  -21.900;-1102.000; -923.000
371.001;  264.500; -378.000; -467.000
371.132;  -64.400; -754.000; -735.000
371.263;   45.500;  -42.000; -148.000
371.394; -192.600; -841.000; -748.000
371.525;  146.200;  345.000;  225.000
371.657;  -94.900; -808.000; -670.000
371.788;  212.900;  103.000;  199.000
371.919;  344.500; -384.000; -304.000
372.050; 6996.200;  -91.000; -156.000
372.181; 2043.400; -188.000; -294.000
372.311;  850.700;   42.000; -127.000
372.442;  124.600; -457.000; -451.000
372.573;   40.600; -444.000; -340.000
372.704; -182.600;-1008.000; -980.000
372.835;  281.800; -228.000; -289.000
372.966;  -44.900; -646.000; -554.000
373.097;  -67.900; -575.000; -711.000
373.228;  -10.400; -717.000; -542.000
373.359;  327.100; -824.000; -536.000
373.490; 1937.000; -881.000; -727.000
373.620; 2310.900;-1001.000; -803.000
373.751; 3590.300; -332.000; -396.000
373.882; 1611.500; -663.000; -733.000
374.013;  220.500; -449.000; -262.000
374.143;  -19.900; -581.000; -659.000
374.274; -155.300; -987.000; -908.000
374.405;  427.100; -388.000; -276.000
374.536;  928.800; -526.000; -387.000
374.666; 2387.600; -759.000; -807.000
374.797;  530.100; -817.000; -868.000
374.928; 1842.400; -710.000; -560.000
375.058; 1813.500; -535.000; -500.000
375.189;  210.900;  -59.000;  -93.000
375.320; -161.600; -928.000;-1034.000
375.450;  -13.300; -625.000; -616.000
375.581;  -48.900; -526.000; -436.000
375.712;   -5.700; -574.000; -250.000
375.842;  707.700; -438.000; -415.000
375.973;  522.800; -554.000; -513.000
376.103;    5.400; -665.000; -648.000
376.234; -100.900; -531.000; -552.000
376.364;  -12.100; -944.000; -867.000
376.495;  717.200;  925.000;  529.000
376.625;   99.200; -472.000; -485.000
376.756;  210.600; -709.000; -678.000
376.886;  -63.600;-1178.000;-1026.000
377.017;   87.700;-1048.000;-1061.000
377.147;  543.200; -786.000; -782.000
377.278;  196.900;  174.000;  228.000
377.408; -185.900; -801.000; -815.000
377.538; -156.400; -707.000; -693.000
377.669;  -64.000; -537.000; -613.000
377.799;  -98.700; -645.000; -635.000
377.929;  -18.500; -610.000; -428.000
378.060; -195.900; -781.000; -847.000
378.190;  -44.600; -726.000; -531.000
378.320;  -45.100; -401.000; -406.000
378.451;   73.600; -131.000;  -22.000
378.581;   78.200;  -67.000; -110.000
378.711;  380.000; 1035.000;  866.000
378.841;   44.800; -533.000; -675.000
378.972;  -72.900; -871.000; -751.000
379.102;   62.500; -652.000; -579.000
379.232;   58.900; -126.000;  -73.000
379.362; -147.100;-1001.000; -885.000
379.492;   97.900; -373.000; -424.000
379.623;  298.400;    0.000;  111.000
379.753; -107.800;-1107.000; -974.000
379.883;  525.000;   59.000;  156.000
380.013;   89.600;-1081.000;-1017.000
380.143; -152.000;-1097.000;-1056.000
380.273; -146.000; -985.000; -861.000
380.403;   41.100; -344.000; -257.000
380.533;  -11.300; -651.000; -664.000
380.663;  250.700;  173.000;  128.000
380.793; -131.100;-1027.000;-1074.000
380.923;   24.400; -103.000;  -34.000
381.053;  -96.900; -613.000; -623.000
381.183;   31.500; -106.000; -248.000
381.313;  161.100; -656.000; -470.000
381.443;  201.700; -692.000; -473.000
381.573;  535.300; -402.000; -409.000
381.703;  664.100;-1249.000;-1095.000
381.833; -183.900;-1454.000;-1336.000
381.963;  303.600; -134.000;  -87.000
382.093; 2684.100; -925.000; -909.000
382.223;  831.500; -713.000; -602.000
382.353;   61.800; -801.000; -608.000
382.482;  828.000;-1091.000; -964.000
382.612; 1534.900; -872.000; -644.000
382.742;  878.400; -695.000; -622.000
382.872;  656.600; -565.000; -551.000
383.002;  213.900;  347.000; -132.000
383.131;   48.000; -226.000; -160.000
383.261;   14.000; -706.000; -768.000
383.391;  590.300; -552.000; -377.000
383.521; 4957.200;  451.000;  263.000
383.650; 1044.400; -947.000; -904.000
383.780;   17.800; -783.000; -656.000
383.910;  333.400;  880.000;  802.000
384.039;  114.500; -794.000; -656.000
384.169;  492.500;-1205.000;-1017.000
384.299;   38.900; -650.000; -662.000
384.428;  -73.000; -764.000; -680.000
384.558;   27.100; -308.000; -275.000
384.687;    5.200; -414.000; -334.000
384.817;  139.000;   75.000;   -2.000
384.947;  153.800; -234.000; -141.000
385.076;  716.700;  982.000;  912.000
385.206;  294.200;  369.000;  480.000
385.335;   28.200; -549.000; -417.000
385.465;  -67.000; -655.000; -663.000
385.594;  411.700;  -53.000;  -44.000
385.724;  986.200; -868.000; -838.000
385.853;  370.700; -296.000; -270.000
385.982; 2835.200; -743.000; -787.000
386.112; 4218.100;-1052.000; -871.000
386.241;  391.200; -307.000; -312.000
386.371;  136.500; -174.000;  -87.000
386.500;  102.800; -825.000; -789.000
386.629;  142.600; -874.000; -817.000
386.759;  228.600;  -43.000;   68.000
386.888;  170.600; -170.000; -250.000
387.017;  -21.500; -648.000; -620.000
387.147;  -35.600; -771.000; -798.000
387.276;  113.300; -410.000; -397.000
387.405;  125.700; -398.000; -342.000
387.535;   -6.300; -452.000; -361.000
387.664;  -52.100; -692.000; -620.000
387.793;  217.100; -198.000; -113.000
387.922; 1193.600;  255.000;  200.000
388.052;  153.400; -576.000; -423.000
388.181;  226.900; -342.000; -472.000
388.310;  201.900; -889.000; -710.000
388.439;   47.200; -749.000; -742.000
388.568;  445.600;  365.000;  244.000
388.697; 2204.000; -756.000; -653.000
388.826;  446.500; -768.000; -666.000
388.956;  177.800; -285.000; -307.000
389.085;   36.500; -347.000; -287.000
389.214; -111.000; -842.000; -872.000
389.343;  -79.700; -645.000; -413.000
389.472;  788.700;  126.000;  149.000
389.601; 1005.300;   91.000;    0.000
389.730;   75.900; -568.000; -687.000
389.859;  254.500;  226.000;   46.000
389.988;  471.300; -423.000; -408.000
390.117;  340.700; -168.000; -146.000
390.246;  106.300; -331.000; -320.000
390.375;  331.500; -673.000; -626.000
390.504;  -35.100; -703.000; -621.000
390.633; -136.800; -672.000; -726.000
390.761;  -39.400; -732.000; -645.000
390.890;  136.100;   -4.000; -130.000
391.019;   42.700; -421.000; -441.000
391.148; -180.100; -826.000; -855.000
391.277;    2.700; -576.000; -493.000
391.406;  -31.300; -821.000; -805.000
391.534;  137.600;  574.000; -301.000
391.663;  -38.900; -583.000; -645.000
391.792;  -88.700; -673.000; -701.000
391.921;  317.300;   -3.000;   15.000
392.050;  543.400; -287.000; -228.000
392.178;    0.700;-1206.000;-1061.000
392.307;  325.500; -758.000; -712.000
392.436;  213.100; -427.000; -641.000
392.564;  129.100;  166.000;   -6.000
392.693; -122.600; -860.000; -682.000
392.822;  523.700; -529.000; -534.000
392.950;  259.800; -880.000; -714.000
393.079;  767.300; -188.000; -328.000
393.208;  110.800; -488.000; -511.000
393.336;   59.700; -170.000; -145.000
393.465;   -1.500; -317.000; -199.000
393.593;  105.000;   62.000;   79.000
393.722; -212.600;-1121.000; -916.000
393.850;   -3.800; -188.000;  -61.000
393.979; -237.300; -926.000; -805.000
394.107;  -58.300; -517.000; -537.000
394.236;  -19.200; -570.000; -507.000
394.364;  579.600;  383.000;  206.000
394.493;  866.200; -911.000; -767.000
394.621;   -5.300; -955.000; -916.000
394.750; 1214.700; -873.000; -923.000
394.878; 5120.200; -247.000; -149.000
395.007; 6515.400; -721.000; -807.000
395.135;  534.500; -790.000; -721.000
395.263; -124.100;-1038.000;-1040.000
395.392;  116.100;  -25.000; -107.000
395.520; -122.500; -818.000; -679.000
395.648; -135.900; -865.000; -915.000
395.777;   38.100; -366.000; -405.000
395.905;    0.200; -449.000; -564.000
396.033;  119.100;  217.000;  172.000
396.162; 1502.800; -399.000; -453.000
396.290; 1248.600;  -17.000;   -2.000
396.418;  293.100; -555.000; -514.000
396.546;  -95.300; -571.000; -466.000
396.674; -118.400; -850.000; -878.000
396.803;  128.500;  -72.000;  -23.000
396.931;  305.800; -179.000; -199.000
397.059;  192.800;-1026.000; -989.000
397.187; -155.600;-1026.000; -975.000
397.315; -218.100; -884.000; -649.000
397.443; -128.800; -592.000; -443.000
397.572; -132.500; -578.000; -424.000
397.700;   58.100; -607.000; -614.000
397.828;  111.700;  120.000;  -90.000
397.956;  -32.900; -508.000; -478.000
398.084;  -81.900; -767.000; -626.000
398.212;  172.000;  137.000;  124.000
398.340;  105.000;  -56.000;  159.000
398.468;  147.700; -390.000; -169.000
398.596; -185.600; -993.000; -953.000
398.724; -164.000; -762.000; -767.000
398.852; -279.000;-1024.000; -976.000
398.980;  -45.800; -560.000; -560.000
399.108;   -3.200; -982.000; -735.000
399.236;  179.100;   13.000;    8.000
399.363;  130.700;  222.000;  196.000
399.491;  -31.100; -404.000; -398.000
399.619; -183.600; -829.000; -800.000
399.747; -134.200; -859.000; -771.000
399.875;  256.000;  220.000;  234.000
400.003;   -3.400; -359.000; -284.000
400.130; -105.100; -421.000; -341.000
400.258;   -0.500;  -83.000;   38.000
400.386;  -63.100; -352.000; -168.000
400.514;   32.100; -526.000; -587.000
400.641;  -98.100; -928.000; -802.000
400.769; -224.100; -979.000; -888.000
400.897;  -70.200; -838.000; -793.000
401.025;  102.200; -166.000; -152.000
401.152;   79.500;  220.000;   38.000
401.280; -101.700; -430.000; -429.000
401.408; -167.600; -712.000; -576.000
401.535; -100.100; -735.000; -758.000
401.663; -312.900;-1134.000;-1054.000
401.790;  -94.900; -514.000; -525.000
401.918;  162.200;  436.000;  405.000
402.046;   34.600;  134.000;  122.000
402.173;    3.700;  -18.000;    7.000
402.301;  -50.000; -519.000; -397.000
402.428;  159.100;  528.000;  383.000
402.556; -212.400;-1188.000; -913.000
402.683;   50.700;  -20.000;   -1.000
402.811;   55.300;  -37.000; -206.000
402.938;   72.500;   20.000;   27.000
403.066;  432.200; -574.000; -558.000
403.193;  642.300;  299.000;  239.000
403.321;  557.900; -396.000; -574.000
403.448;  690.600;   83.000;   27.000
403.575;  346.900;  -90.000;  -46.000
403.703; -117.300; -732.000; -557.000
403.830;  -51.200; -531.000; -496.000
403.957; -203.400;-1117.000;-1023.000
404.085;   55.800;  -61.000; -172.000
404.212;  310.000;  -50.000;   63.000
404.339;  536.700; -566.000; -306.000
404.467; 9788.000; -612.000; -524.000
404.594; 6527.800; -287.000; -227.000
404.721; 1664.900; -869.000; -764.000
404.848;  230.400; -113.000; -202.000
404.976; -125.000; -856.000; -783.000
405.103;   61.900;  -14.000;  -82.000
405.230;   87.300;  190.000;  226.000
405.357;  151.200;  117.000;   44.000
405.484;  514.900;  -49.000;    5.000
405.612;  127.100; -548.000; -563.000
405.739;  -54.700; -488.000; -243.000
405.866;  282.200;  669.000;  385.000
405.993;  -21.200; -398.000; -102.000
406.120; -195.700; -801.000; -887.000
406.247;  -45.200; -323.000; -342.000
406.374; 1077.900;  540.000;  629.000
406.501;  344.400; -632.000; -702.000
406.628;  -56.100; -621.000; -589.000
406.755; -107.700; -803.000; -620.000
406.882;   10.800; -228.000; -277.000
407.009; -128.200; -719.000; -628.000
407.136;  210.600; -480.000; -401.000
407.263;  387.600; -939.000; -829.000
407.390;  -43.500; -692.000; -614.000
407.517; -198.400;-1139.000;-1187.000
407.644;  -36.500; -332.000; -256.000
407.771;  -68.400; -249.000; -287.000
407.898;  108.500;  168.000;  328.000
408.025;  -62.500; -421.000; -313.000
408.151;   82.100;   82.000;  153.000
408.278;  -59.200; -267.000; -216.000
408.405; -160.100; -931.000; -899.000
408.532;  -47.300; -549.000; -542.000
408.659; -136.400; -677.000; -648.000
408.785; -316.900;-1298.000;-1170.000
408.912;  -12.700; -412.000; -296.000
409.039; -169.400; -610.000; -686.000
409.166; -139.200; -591.000; -555.000
409.292; -149.100; -571.000; -534.000
409.419; -186.400; -665.000; -649.000
409.546; -119.800; -431.000; -192.000
409.672; -133.100; -713.000; -545.000
409.799;   42.700;  -36.000;   34.000
409.926;   -3.000; -180.000; -179.000
410.052; -280.600;-1127.000;-1091.000
410.179;  -50.000; -368.000; -392.000
410.305;  -62.800; -375.000; -493.000
410.432;   -5.800; -220.000; -333.000
410.558; -109.500; -305.000; -380.000
410.685; -112.800; -688.000; -431.000
410.812; -151.400; -409.000; -588.000
410.938; -210.800; -964.000; -808.000
411.065; -115.900; -671.000; -645.000
411.191;   26.300; -189.000; -174.000
411.317; -186.800; -823.000; -742.000
411.444;  -76.300; -317.000; -246.000
411.570;  -65.000; -339.000; -294.000
411.697; -154.700; -758.000; -752.000
411.823; -262.000; -989.000; -999.000
411.949;   68.000;  -56.000;   17.000
412.076; -162.600; -539.000; -519.000
412.202; -161.900; -758.000; -757.000
412.329; -165.400; -798.000; -752.000
412.455; -137.500; -821.000; -657.000
412.581;   40.300;  -15.000;  172.000
412.707;  -42.300; -540.000; -457.000
412.834;  106.900;  156.000;  219.000
412.960; -120.000; -785.000; -784.000
413.086; -140.200; -743.000; -701.000
413.212;  430.500;  604.000;  578.000
413.339;  -73.900; -685.000; -701.000
413.465;  128.100; -364.000; -310.000
413.591; -117.800; -757.000; -474.000
413.717;  -11.400; -358.000; -366.000
413.843; -196.300; -839.000; -861.000
413.969;  -30.400;  -47.000; -292.000
414.096; -119.200; -679.000; -679.000
414.222;   70.700;  -33.000;   85.000
414.348;   36.300; -652.000; -385.000
414.474;  308.400;   38.000;  -52.000
414.600;   43.900; -126.000; -144.000
414.726;   69.500;  -96.000;  -55.000
414.852;  -51.500; -365.000; -342.000
414.978;  167.800;  104.000;  -18.000
415.104;  149.000;   38.000;   80.000
415.230;  116.000; -329.000; -330.000
415.356;  123.800; -409.000; -514.000
415.482;  451.800;   13.000;  -35.000
415.608;  535.400; -247.000; -323.000
415.734; 1790.000;   67.000;   38.000
415.860;36306.900; -875.000; -767.000
415.986;23854.500; -685.000; -607.000
416.111; 1973.700; -798.000; -652.000
416.237;  452.800; -424.000; -571.000
416.363; 2035.700; -765.000; -733.000
416.489; 6967.600; -324.000; -251.000
416.615;  671.800; -707.000; -742.000
416.741;  -31.700; -677.000; -784.000
416.866; -143.200; -673.000; -736.000
416.992; -147.900; -801.000; -818.000
417.118;   26.700;  -41.000;  -80.000
417.244;  -90.900; -798.000; -531.000
417.369;  -62.800; -801.000; -612.000
417.495;   74.500; -325.000; -254.000
417.621;  -99.500;-1015.000; -803.000
417.746;   66.200; -579.000; -572.000
417.872;  164.300; -254.000; -144.000
417.998;  149.200; -515.000; -530.000
418.123; 2041.600;-1073.000; -845.000
418.249; 9093.900; -512.000; -601.000
418.374; 1152.600; -916.000; -824.000
418.500;  244.100; -383.000; -482.000
418.626;  285.900;   70.000;  -59.000
418.751;  240.200; -549.000; -448.000
418.877;  409.900; -637.000; -643.000
419.002; 3452.400; -688.000; -560.000
419.128;21262.400; -930.000; -721.000
419.253; 4642.600; -967.000; -837.000
419.379;  704.000; -391.000; -338.000
419.504;  744.700;  325.000;  415.000
419.629;  921.200; -393.000; -212.000
419.755; 6253.000; -317.000; -254.000
419.880;33471.200;  -98.000;   67.000
420.006;19767.400; -280.000; -221.000
420.131;48864.100; -662.000; -775.000
420.256; 6435.900; -315.000; -316.000
420.382;  959.600; -665.000; -687.000
420.507;  158.700; -649.000; -778.000
420.632;  424.800; -337.000; -339.000
420.758;  589.200; -251.000; -425.000
420.883;  -95.600; -876.000; -672.000
421.008; -105.900; -775.000; -619.000
421.133;  -52.000; -509.000; -467.000
421.259;    8.000; -325.000; -259.000
421.384; -165.200; -834.000; -693.000
421.509;   29.500;-1052.000; -862.000
421.634; 2674.400; -936.000; -820.000
421.759; 1093.400; -359.000; -327.000
421.885;  -25.400; -717.000; -656.000
422.010;  -54.600; -673.000; -542.000
422.135; -211.800; -695.000; -727.000
422.260;  171.000;  340.000;  280.000
422.385;    5.000;   12.000;  -98.000
422.510;  105.100;  151.000;  -26.000
422.635;  166.900;  -87.000;  -43.000
422.760;  218.300; -766.000; -791.000
422.885;  170.100;  -57.000;  -80.000
423.010;   18.200; -112.000; -169.000
423.135; -133.800; -481.000; -561.000
423.260;   82.100; -150.000; -245.000
423.385;  234.900;  476.000;  222.000
423.510;  141.500;   71.000;  -22.000
423.635;  229.100;  133.000;   45.000
423.760;  200.000;  383.000;  328.000
423.885;  189.400;  336.000;  391.000
424.010;  115.100;  -68.000;  -13.000
424.135;   28.100;    5.000;  -33.000
424.259;  -91.400; -654.000; -457.000
424.384;  -49.000; -279.000; -272.000
424.509;   45.300; -260.000; -186.000
424.634; -122.100; -761.000; -623.000
424.759;   15.300; -688.000; -544.000
424.883;   -1.600; -506.000; -527.000
425.008;  383.100; -502.000; -410.000
425.133; 3517.200; -679.000; -653.000
425.258; 1477.200; -517.000; -381.000
425.382; 2114.700; -867.000; -774.000
425.507; 4909.400; -487.000; -543.000
425.632;  791.400; -802.000; -663.000
425.756;  787.200; -256.000; -146.000
425.881;11034.100; -831.000; -857.000
426.006;26598.100; -604.000; -355.000
426.130; 3957.900; -696.000; -508.000
426.255;  527.600; -611.000; -491.000
426.379;  345.800; -189.000; -577.000
426.504;  807.800;  660.000;  544.000
426.629; 7439.500; -519.000; -466.000
426.753; 4639.100;   64.000;  -46.000
426.878;  600.900; -252.000; -288.000
427.002;  420.500; -651.000; -668.000
427.127; 3099.300;  -35.000; -158.000
427.251;19391.300;  372.000;  401.000
427.375; 4960.700; -191.000; -173.000
427.500; 4485.400; -616.000; -610.000
427.624; 1422.900; -234.000; -400.000
427.749;  272.500; -216.000; -225.000
427.873;   -3.700; -499.000; -412.000
427.997;   23.900; -222.000; -230.000
428.122;  287.800;  795.000;  703.000
428.246;  253.700;  433.000;  434.000
428.371; -183.600; -869.000; -773.000
428.495; -104.600; -624.000; -646.000
428.619;   42.700; -186.000; -117.000
428.743;  154.200;   65.000;  132.000
428.868;   90.900; -732.000; -643.000
428.992; 2838.400; -219.000; -326.000
429.116; 1152.500; -329.000; -357.000
429.240;  675.400;  419.000;  426.000
429.365;   71.300; -454.000; -574.000
429.489;   22.800; -638.000; -647.000
429.613;  123.900; -236.000; -177.000
429.737;  172.500; -563.000; -432.000
429.861;  574.200; -247.000; -133.000
429.985;10054.100; -425.000; -305.000
430.109; 9973.800; -770.000; -908.000
430.234; 1149.600;   76.000;  -50.000
430.358;  152.000; -250.000; -160.000
430.482;  -31.300; -672.000; -564.000
430.606;  -22.700; -655.000; -375.000
430.730;  207.900; -437.000; -388.000
430.854;  400.500; -909.000; -835.000
430.978;  -61.300; -795.000; -764.000
431.102;  -52.500; -499.000; -422.000
431.226;  -99.700; -874.000; -815.000
431.350;  221.000;  345.000;  422.000
431.474;  -25.900; -661.000; -373.000
431.597; -201.300;-1060.000; -848.000
431.721; -101.600; -276.000; -267.000
431.845; -181.700; -704.000; -472.000
431.969;  -76.600; -304.000; -349.000
432.093; -106.300; -395.000; -317.000
432.217;   46.200;   32.000;   82.000
432.341;  -89.100; -523.000; -518.000
432.464;   99.700;   96.000;   40.000
432.588;  564.200; -401.000; -329.000
432.712;  270.900;  -52.000;  -52.000
432.836;  174.900;  213.000;  263.000
432.959;   38.900; -372.000; -311.000
433.083;  230.300;   11.000;    2.000
433.207;  727.600;  285.000;  930.000
433.330; 8967.500; -391.000; -200.000
433.454; 9969.400; -654.000; -638.000
433.578; 6030.400;  583.000;  278.000
433.701; 1098.700; -623.000; -675.000
433.825;  368.200; -292.000; -299.000
433.949;  522.300;   28.000;  -72.000
434.072;  208.500; -410.000; -323.000
434.196;   44.900; -309.000; -117.000
434.319; 7931.000;25482.000;25124.000
434.443; 1496.900; -656.000; -603.000
434.566; 4516.800;  281.000;   62.000
434.690;  681.200; -637.000; -383.000
434.813;  174.700; -251.000; -173.000
434.937;  -54.800; -569.000; -696.000
435.060;   46.900; -423.000; -332.000
435.184;  907.100; -492.000; -217.000
435.307;  460.200;  159.000;  102.000
435.431;   85.300;  -40.000;   24.000
435.554;  -70.200; -399.000; -240.000
435.677;  -93.400; -350.000; -258.000
435.801;   16.800;  -25.000;   49.000
435.924;  107.400;    1.000;  -67.000
436.048; -164.200;-1019.000; -732.000
436.171;  -52.600; -240.000;  -66.000
436.294;   48.800; -248.000; -229.000
436.417;  218.500; -963.000; -849.000
436.541;  -74.400; -814.000; -840.000
436.664;  -15.800; -242.000; -316.000
436.787;   89.200;   13.000;  113.000
436.910; -154.600; -792.000; -422.000
437.034;  109.500;  142.000;  143.000
437.157;  284.500;  -11.000;    0.000
437.280;  -18.300; -392.000; -292.000
437.403;  -72.900; -982.000; -869.000
437.526; 1685.600; -903.000; -865.000
437.649; 5190.300; -505.000; -332.000
437.772;  750.100; -692.000; -540.000
437.896;  333.700;  700.000;  544.000
438.019; -143.200; -758.000; -503.000
438.142;  -87.900; -596.000; -506.000
438.265;  106.300; -639.000; -670.000
438.388; 1343.300; -520.000; -410.000
438.511;  291.700; -597.000; -394.000
438.634;   -5.300; -247.000; -125.000
438.757; -183.800; -693.000; -619.000
438.880;   30.100;  -34.000;  -57.000
439.003;  -78.200; -417.000; -437.000
439.126;  -20.600; -287.000; -167.000
439.248;  -69.800;  -98.000; -139.000
439.371;   -5.900;    9.000;  -53.000
439.494;  145.100;  510.000;  439.000
439.617;  -21.300;   65.000;  -88.000
439.740; -266.100; -968.000; -816.000
439.863; -199.200; -755.000; -595.000
439.986; -194.700; -476.000; -431.000
440.108;  -13.900; -161.000; -112.000
440.231; -239.500; -950.000; -836.000
440.354;   21.700;  -64.000; -150.000
440.477;  193.800; -566.000; -542.000
440.599;  101.200; -200.000; -225.000
440.722; -149.700; -709.000; -586.000
440.845;  213.500;  751.000;  928.000
440.968; -132.000; -415.000; -311.000
441.090;  -48.600; -199.000;  -33.000
441.213; -249.000;-1021.000; -825.000
441.336;    3.100; -159.000;   -5.000
441.458;  -78.700; -549.000; -396.000
441.581; -104.500; -628.000; -629.000
441.703;  -27.700; -152.000;   13.000
441.826; -143.300; -557.000; -400.000
441.948;  -10.700;   56.000;   51.000
442.071;  136.400;  555.000;  424.000
442.193; -169.900; -531.000; -485.000
442.316;  130.200;  152.000;   97.000
442.438;   93.600; -233.000;  -10.000
442.561;  223.200;  272.000;  262.000
442.683; 1338.800; -809.000; -522.000
442.806; 2574.500;   -8.000;   74.000
442.928;  113.500; -859.000; -604.000
443.051;  -55.500; -577.000; -373.000
443.173; -101.700; -341.000; -339.000
443.295;  -79.400; -263.000; -371.000
443.418;  -58.400; -321.000;  -29.000
443.540;   65.400; -106.000;   -4.000
443.662; -195.400; -563.000; -465.000
443.785;   74.400;  335.000;  199.000
443.907; -167.900; -362.000; -208.000
444.029; -199.800; -767.000; -494.000
444.152; -203.300; -644.000; -554.000
444.274;   36.400;  -18.000;  -24.000
444.396; -161.400; -461.000; -221.000
444.518; -188.500; -691.000; -454.000
444.640; -135.400; -268.000; -111.000
444.763;   62.200;  388.000;  249.000
444.885; -149.400; -432.000; -392.000
445.007;    8.800;   35.000;   86.000
445.129; -162.000; -610.000; -515.000
445.251; -105.000; -372.000; -439.000
445.373; -194.200; -537.000; -386.000
445.495;  103.000;  242.000;  350.000
445.617;  176.900;  853.000;  753.000
445.739; -120.200; -215.000;  -97.000
445.861;   11.800; -245.000; -112.000
445.984;    1.800; -267.000; -101.000
446.105;  538.900; -418.000; -251.000
446.227; 1334.000; -176.000;  -19.000
446.349;   74.400; -358.000; -249.000
446.471; -132.300; -615.000; -448.000
446.593;  -72.100; -316.000;   19.000
446.715;   55.900;  -67.000;   41.000
446.837;  206.100;  697.000;  832.000
446.959; -143.200; -457.000; -478.000
447.081; -179.800; -628.000; -518.000
447.203;  208.900;  862.000;  834.000
447.325; -109.600; -270.000;   42.000
447.446;   70.900;  286.000;  530.000
447.568; -214.500; -921.000; -803.000
447.690;  -53.700; -236.000; -245.000
447.812; -215.600; -798.000; -519.000
447.933;   15.500;  155.000;  127.000
448.055;  -66.400; -306.000; -261.000
448.177;  417.900;   31.000;   79.000
448.299;  210.900; -935.000; -727.000
448.420;   97.300;  -25.000;  159.000
448.542;  -29.400;   -3.000;   33.000
448.664;   55.000;  109.000;  322.000
448.785;  -23.700;  265.000;   83.000
448.907;  -63.900; -614.000; -353.000
449.028;    3.200; -771.000; -471.000
449.150;  241.100;  492.000;  589.000
449.272; -279.100;-1044.000; -913.000
449.393;  157.400;  612.000;  694.000
449.515; -234.400; -634.000; -581.000
449.636;   -6.800; -264.000; -155.000
449.758;  233.100;  763.000;  622.000
449.879; -106.300; -498.000; -396.000
450.001;  -84.600; -149.000;  -49.000
450.122;   19.800;  -95.000;  162.000
450.244;   34.600;   37.000;  364.000
450.365;  -89.000; -495.000; -301.000
450.486;   14.300;   80.000;  268.000
450.608;  138.500;  393.000;  326.000
450.729;  215.900;  578.000;  645.000
450.850;   48.600; -574.000; -466.000
450.972; 1394.600; -552.000; -389.000
451.093; 8203.000;  190.000;  588.000
451.214; 3071.500; -516.000; -337.000
451.336;  697.400;  773.000;  579.000
451.457;  176.600;  264.000;  393.000
451.578;  -11.400; -118.000;  -74.000
451.699; -191.400; -546.000; -540.000
451.821;  -81.500; -284.000;  -50.000
451.942;   84.800;  278.000;  285.000
452.063;  156.900;  228.000;  419.000
452.184; 1104.700;  -54.000;  -49.000
452.305; 1882.600;  103.000;  170.000
452.427;  193.700; -549.000; -301.000
452.548;   47.200;   23.000;   79.000
452.669;  -11.800; -257.000;  -89.000
452.790;   24.800;    3.000;  -18.000
452.911;   70.700;  195.000;  259.000
453.032;  -55.300; -289.000;  -60.000
453.153;   16.700;  -29.000;   81.000
453.274;  226.200;  737.000;  868.000
453.395;  -35.500;  -51.000;  175.000
453.516;  406.800; 1317.000; 1388.000
453.637;  -17.500; -205.000; -150.000
453.758;  -38.200;   15.000;   69.000
453.879; -174.900; -462.000; -250.000
454.000;  292.900; 1086.000;  948.000
454.121; -153.000; -554.000; -326.000
454.242; -156.400; -599.000; -383.000
454.362;  -41.000;  -99.000;  114.000
454.483;   10.600; -309.000; -229.000
454.604;  207.000;  512.000;  580.000
454.725; -171.800; -627.000; -555.000
454.846; -196.400; -474.000; -406.000
454.967;   36.100;  230.000;  539.000
455.087;   -6.800;  179.000;  153.000
455.208;  128.800;  554.000;  856.000
455.329;  -52.400;  -22.000;   82.000
455.450;  155.200;  473.000;  633.000
455.570;  -81.900; -234.000; -211.000
455.691;   -1.800;  201.000;  407.000
455.812; -131.500; -270.000;  -92.000
455.932;   -3.400;  107.000;  -97.000
456.053; -103.400;   36.000;   24.000
456.173; -133.000; -433.000; -355.000
456.294; -211.500; -476.000; -303.000
456.415;  -48.200;  -73.000;   70.000
456.535;   15.100;  297.000;  273.000
456.656;  -28.500;  132.000;  240.000
456.776;  -68.200;    3.000;  298.000
456.897;   52.000;  308.000;  513.000
457.017;  -83.100; -153.000;   -3.000
457.138; -136.500; -402.000; -249.000
457.258;   24.800;  263.000;  224.000
457.379;  113.100;  509.000;  521.000
457.499;   32.400;  443.000;  432.000
457.620; -172.600; -407.000; -231.000
457.740; -126.000; -132.000;  -11.000
457.860;  -31.500;   87.000;   44.000
457.981;  -14.100;  132.000;  124.000
458.101;  -41.700;  -89.000;   40.000
458.221;   73.500;  336.000;  402.000
458.342;  -30.900;   -4.000;  -37.000
458.462;  125.100;  617.000;  352.000
458.582;   -4.600; -302.000; -294.000
458.703;   80.000;  303.000;  154.000
458.823;   47.600;   22.000;  163.000
458.943;  144.900;  341.000;  467.000
459.063;   94.900; 1124.000;  192.000
459.183;   27.100;  328.000;  313.000
459.304;  102.300;  315.000;  517.000
459.424;  -72.400; -246.000;  -89.000
459.544;  683.400;  388.000;  764.000
459.664; 1471.600;  499.000;  506.000
459.784;  597.800; 1004.000; 1175.000
459.904;  202.400;  867.000;  744.000
460.024;  251.900;  867.000;  684.000
460.144;  121.900;  449.000;  554.000
460.264;   77.100;  515.000;  327.000
460.385; -116.100; -145.000; -119.000
460.505;  155.600;  905.000;  858.000
460.625; -119.300;  -17.000;  -68.000
460.745;   45.400;  396.000;  541.000
460.864;  -25.000;  153.000;  469.000
460.984;  158.700;  499.000;  573.000
461.104;  351.400; 1656.000; 1775.000
461.224;  156.400;  657.000;  650.000
461.344;   40.300;  431.000;  360.000
461.464;   22.400;  258.000;  513.000
461.584;   65.300;  283.000;  466.000
461.704;   19.200;   58.000;  108.000
461.824;  -23.900;  238.000;  259.000
461.943;  -22.900;  191.000;  130.000
462.063;  -82.300;    2.000;  324.000
462.183;  141.000;  639.000;  717.000
462.303;  303.100; 1678.000; 1230.000
462.422;  159.100;  781.000;  840.000
462.542;   14.000;  271.000;  391.000
462.662;  179.800;  353.000;  380.000
462.782;  546.900;  833.000;  572.000
462.901;  893.400;  545.000;  717.000
463.021;  567.000; 1702.000; 1638.000
463.141;   54.000;  337.000;  770.000
463.260;   33.600;  614.000;  474.000
463.380;  108.600;  902.000;  884.000
463.499;    1.200;  342.000;  332.000
463.619;   18.100;  581.000;  559.000
463.738;  312.000; 1644.000;  903.000
463.858;  123.100;  657.000;  811.000
463.978;   25.000;  542.000;  396.000
464.097;  200.100;  921.000; 1114.000
464.217;  309.500; 1196.000; 1143.000
464.336;  302.600; 1068.000; 1130.000
464.455;   36.900;  328.000;  659.000
464.575;  212.900;  597.000;  602.000
464.694;  452.900; 1204.000; 1179.000
464.814;  299.400; 1190.000; 1138.000
464.933;  263.200; 1095.000; 1027.000
465.052;  298.500; 1412.000; 1054.000
465.172;  289.400;  922.000;  799.000
465.291;  371.000; 1376.000; 1320.000
465.410;  116.000;  462.000;  735.000
465.530;  275.700; 1355.000; 1310.000
465.649;  195.800; 1209.000; 1273.000
465.768;  427.800; 1673.000; 1508.000
465.888;  201.000;  941.000; 1174.000
466.007;  299.500; 1335.000; 1440.000
466.126;  101.200;  721.000;  641.000
466.245;  167.000; 1176.000; 1187.000
466.364;  175.800;  950.000; 1060.000
466.484;  215.400; 1024.000; 1213.000
466.603;  139.700; 1101.000; 1222.000
466.722;  354.800; 1490.000; 1769.000
466.841;  204.800; 1151.000; 1401.000
466.960;  196.300; 1069.000;  972.000
467.079;  367.600; 1971.000; 1786.000
467.198;  193.100; 1238.000; 1181.000
467.317;  273.700; 1768.000; 1162.000
467.436;  257.600; 1709.000; 1261.000
467.555;  346.700; 1796.000; 1746.000
467.674;  222.300; 1227.000; 1329.000
467.793;  207.200; 1376.000; 1374.000
467.912;  292.300; 1658.000; 1539.000
468.031;  376.900; 2038.000; 1930.000
468.150;  398.400; 1842.000; 1837.000
468.269;  513.400; 2313.000; 2090.000
468.388;  520.700; 2168.000; 2339.000
468.507;  656.500; 2884.000; 2903.000
468.626;  675.000; 2555.000; 2541.000
468.744;  397.000; 2018.000; 2174.000
468.863;  498.900; 2312.000; 2523.000
468.982;  260.100; 1503.000; 1555.000
469.101;  572.300; 2788.000; 2692.000
469.220;  412.500; 2333.000; 2176.000
469.338;  620.300; 2935.000; 3051.000
469.457;  542.000; 2719.000; 2545.000
469.576;  809.500; 3953.000; 3784.000
469.695;  629.000; 2877.000; 3066.000
469.813;  945.000; 4148.000; 4192.000
469.932;  933.600; 4255.000; 4485.000
470.051;  939.100; 4075.000; 4161.000
470.169; 1729.400; 4470.000; 4338.000
470.288; 2742.300; 4700.000; 4809.000
470.406; 1649.200; 5059.000; 5194.000
470.525; 1333.700; 6101.000; 5787.000
470.644; 1409.800; 6847.000; 6794.000
470.762; 1773.300; 8397.000; 7873.000
470.881; 1906.100; 8651.000; 8464.000
470.999; 2171.300; 9685.000; 9151.000
471.118; 2291.500;11174.000;10711.000

