
Integration time [ms]: 100.000
Averaging Nr. [scans]: 40
Smoothing Nr. [pixels]: 0
Data measured with spectrometer [name]: 2101012U2
Wave   ;Sample   ;Dark     ;Reference
[nm]   ;[counts] ;[counts] ;[counts] 

197.733;   51.600;  516.000;  404.000
197.879;  -78.175; -610.000; -634.000
198.025;  -36.350; -475.000; -420.000
198.171;  -69.550; -602.000; -612.000
198.317;  -47.775; -401.000; -316.000
198.463;  -59.225; -655.000; -404.000
198.609;   20.425;  181.000; -137.000
198.755;  -71.450; -644.000; -410.000
198.901;  -56.525; -505.000; -424.000
199.047;  -64.575; -615.000; -488.000
199.193;  -44.625; -230.000; -468.000
199.339;  -33.300; -222.000; -369.000
199.485;   33.425;  330.000;  271.000
199.631;   26.375;  227.000;  310.000
199.777;  -58.650; -466.000; -398.000
199.923;  -59.750; -610.000; -424.000
200.069;   -6.825; -141.000;  -58.000
200.215;   62.775;  128.000;  453.000
200.361;   54.875;  243.000;  477.000
200.507;  -51.225; -600.000; -373.000
200.653;  -35.850; -371.000; -194.000
200.798;  -41.925; -215.000; -125.000
200.944;   -2.400; -146.000;  -41.000
201.090;   49.425;   61.000;  222.000
201.236;   -8.425; -116.000; -158.000
201.382;  113.500;  874.000;  903.000
201.528;   -1.450;  -58.000;  -48.000
201.674;  -43.675; -386.000; -293.000
201.819;  -70.525; -540.000; -439.000
201.965;  -72.125; -699.000; -447.000
202.111;  -37.000; -273.000; -226.000
202.257;  -30.150; -250.000; -238.000
202.402;   14.775;   13.000;  -36.000
202.548;  -16.775; -169.000; -116.000
202.694;   70.700;  410.000; -183.000
202.840;  -58.650; -603.000; -531.000
202.985;  -77.000; -681.000; -639.000
203.131; -103.075; -832.000; -666.000
203.277;  -27.350; -199.000; -262.000
203.423;  -50.975; -434.000; -520.000
203.568;  -47.925; -462.000; -237.000
203.714;  -41.850; -535.000; -542.000
203.860;  -86.725; -682.000; -641.000
204.005;   23.650;  112.000;  167.000
204.151;   65.775;  561.000;  556.000
204.296;  -16.325; -354.000; -221.000
204.442;  -71.200; -600.000; -547.000
204.588;  -68.000; -592.000; -579.000
204.733;   14.275;  178.000;  168.000
204.879; -119.550;-1018.000; -822.000
205.025;   -2.075;  -99.000;  126.000
205.170;    1.925;  -17.000;   94.000
205.316;   74.075;  438.000;  661.000
205.461;  -69.225; -698.000; -554.000
205.607;   70.150;  609.000;  665.000
205.752;  -69.125; -626.000; -551.000
205.898;  -59.250; -501.000; -391.000
206.043;  -46.675; -578.000; -506.000
206.189;  -36.275; -243.000; -285.000
206.334;   86.375;  554.000;  606.000
206.480;   63.950;  409.000;  239.000
206.625;  -75.875; -529.000; -552.000
206.771;  -45.700; -451.000; -373.000
206.916;  -24.350; -210.000; -537.000
207.062;  -58.750; -545.000; -591.000
207.207;  -56.625; -546.000; -443.000
207.353;   32.625;  185.000;  460.000
207.498;   10.250;  196.000;   85.000
207.643;  -59.350; -501.000; -370.000
207.789; -119.375;-1069.000; -910.000
207.934;  -97.500; -665.000; -713.000
208.080;  -12.700; -154.000;   66.000
208.225;  -19.075;  -22.000;  -57.000
208.370;  -82.700; -727.000; -619.000
208.516;  -65.925; -741.000; -487.000
208.661;  -19.600; -127.000;  -69.000
208.806;  -30.425; -165.000; -171.000
208.952; -115.800;-1044.000; -731.000
209.097;   63.525;  378.000;  349.000
209.242;  -36.725; -307.000; -382.000
209.387;   62.950;  392.000;  350.000
209.533;  -36.225; -321.000; -350.000
209.678;   77.925;  472.000;  543.000
209.823;  -43.250; -408.000; -310.000
209.969; -104.425; -860.000; -757.000
210.114;  -89.300; -907.000; -719.000
210.259; -115.225; -939.000; -889.000
210.404;   -8.325; -171.000;  103.000
210.549;   14.025;  108.000;    3.000
210.695;  -10.100;   -3.000;  -95.000
210.840;   30.825;   94.000;   67.000
210.985;  -60.350; -484.000; -303.000
211.130;   60.650;  268.000;  406.000
211.275;   21.450;  207.000;  199.000
211.420;  -63.600; -300.000; -289.000
211.566;  -52.400; -536.000; -489.000
211.711;   25.075;  218.000;  157.000
211.856;  -67.575; -545.000; -519.000
212.001;    4.125;  151.000;   44.000
212.146;   20.025;  153.000;   49.000
212.291;  -21.275; -210.000; -186.000
212.436;  -23.050; -280.000;   -6.000
212.581;  -86.250; -685.000; -653.000
212.726;  -66.150; -487.000; -538.000
212.871;  -41.850; -552.000; -217.000
213.016; -127.650;-1172.000;-1029.000
213.161;   55.400;  406.000;  291.000
213.306;  -59.125; -435.000; -577.000
213.451;  -92.275; -778.000; -689.000
213.596;  -51.000; -455.000; -347.000
213.741;  -50.825; -448.000; -538.000
213.886;  -85.875; -498.000; -517.000
214.031;  -27.700; -294.000; -124.000
214.176;  -46.425; -408.000; -341.000
214.321;  -34.000; -296.000; -157.000
214.466;  -11.275; -163.000;  -43.000
214.611;   -2.050;  -61.000;  -10.000
214.756; -117.950; -948.000; -858.000
214.901;  -21.375; -388.000; -226.000
215.046; -115.775; -797.000; -825.000
215.191;   13.425;  128.000;   35.000
215.336;  -20.250; -157.000;  -19.000
215.480;  -69.750; -684.000; -505.000
215.625;  -17.125; -175.000;  -19.000
215.770;  -80.475; -757.000; -662.000
215.915;  -13.775;   -5.000;  -97.000
216.060;   -4.000; -113.000;  -21.000
216.205;  -97.900; -731.000; -779.000
216.349;  -66.300; -470.000; -533.000
216.494; -120.425; -939.000; -867.000
216.639; -118.225; -823.000; -888.000
216.784;  -79.300; -577.000; -525.000
216.929;   55.000;  392.000;  281.000
217.073;   -3.050; -244.000;  -31.000
217.218;   -2.100;   78.000;  -47.000
217.363;  -75.950; -656.000; -618.000
217.507;  -78.825; -623.000; -588.000
217.652; -110.425; -845.000; -874.000
217.797;  -89.525; -708.000; -659.000
217.942;  -93.650; -856.000; -720.000
218.086;   69.900;  608.000;  539.000
218.231;  -24.375; -174.000;  -26.000
218.376;  -41.775; -337.000; -229.000
218.520;   10.575;  -41.000;   96.000
218.665;  -30.825; -338.000; -204.000
218.810;  -39.200; -275.000; -233.000
218.954;   15.025;  201.000;   35.000
219.099;  -89.325; -713.000; -963.000
219.243;  -67.375; -589.000; -554.000
219.388;  -22.575; -264.000; -136.000
219.532;  -21.875; -116.000; -116.000
219.677;  -57.025; -564.000; -521.000
219.822;   -1.325;   33.000;   89.000
219.966;   12.350;   17.000;  -99.000
220.111;  -36.325; -328.000;  -40.000
220.255;  -98.625; -797.000; -750.000
220.400;  -16.700; -180.000; -146.000
220.544;  -61.100; -516.000; -450.000
220.689;  -56.775; -422.000; -451.000
220.833;  -22.375; -123.000;  -58.000
220.978;  -49.175; -393.000; -563.000
221.122;   31.225;  319.000;  307.000
221.267; -111.925; -906.000; -837.000
221.411;  -64.400; -478.000; -394.000
221.555;  -11.175; -104.000;  -23.000
221.700;  -40.325; -329.000; -222.000
221.844;   25.050;  255.000;  272.000
221.989;  -34.825; -328.000; -311.000
222.133;  -37.550; -289.000; -307.000
222.277;    5.850;    5.000;   78.000
222.422;   18.175;  227.000;  113.000
222.566;  -12.150; -381.000; -214.000
222.711;  -64.250; -414.000; -479.000
222.855;  -71.650; -643.000; -586.000
222.999;  -78.300; -642.000; -717.000
223.144;  -28.025; -195.000; -194.000
223.288;   46.300;  423.000;  251.000
223.432;   22.600;  184.000;  230.000
223.576;   23.650;  152.000;  -21.000
223.721;   42.725;  364.000;  273.000
223.865;  -53.100; -472.000; -475.000
224.009;  259.375; 1673.000; 1631.000
224.153;  -81.975; -660.000; -671.000
224.298;  -65.750; -531.000; -489.000
224.442;  -17.250;  -74.000;  -33.000
224.586;   -4.275; -169.000; -106.000
224.730;  -94.750; -858.000; -670.000
224.875; -104.500; -739.000; -688.000
225.019;    5.250;  102.000;  188.000
225.163;   51.550;  208.000;  341.000
225.307;   15.525;   97.000;  -91.000
225.451;   41.800;  360.000;  481.000
225.595;   29.150;  264.000;  176.000
225.739;   -2.500; -170.000;  -94.000
225.884;    2.200;   86.000;    5.000
226.028;  -93.025; -760.000; -626.000
226.172;  -38.000; -260.000; -273.000
226.316; -112.975; -941.000; -902.000
226.460;  -66.600; -645.000; -493.000
226.604;  -54.900; -406.000; -400.000
226.748;  -95.275; -836.000; -733.000
226.892;  -31.225; -227.000; -181.000
227.036;  -41.600; -537.000; -447.000
227.180;  -56.725; -551.000; -375.000
227.324;  -66.850; -561.000; -580.000
227.468; -108.100; -819.000; -717.000
227.612;   12.175;  242.000;  -28.000
227.756;  -82.250; -845.000; -698.000
227.900;   48.150;  342.000;  441.000
228.044;  -55.850; -509.000; -290.000
228.188;   48.975;  448.000;  568.000
228.332;  -77.400; -546.000; -472.000
228.476;  -26.975; -223.000; -149.000
228.620;  -35.800; -210.000; -150.000
228.764;   52.350;  431.000;  349.000
228.908;  -12.775; -155.000;   30.000
229.052;  -61.050; -615.000; -528.000
229.195;  -20.325; -172.000;   13.000
229.339;  -28.800; -235.000; -305.000
229.483;  -25.025;    5.000; -162.000
229.627;   -7.625; -156.000;  139.000
229.771;  -47.600; -218.000; -294.000
229.915;   -2.150;  230.000;   79.000
230.059;  -79.775; -648.000; -663.000
230.202;  -39.050; -370.000; -317.000
230.346;  -15.800; -107.000;  107.000
230.490;  -61.675; -489.000; -521.000
230.634;  -94.600; -736.000; -553.000
230.777;   70.300;  478.000;  509.000
230.921;  -60.900; -450.000; -359.000
231.065;  -42.200; -246.000; -286.000
231.209;   22.725;  261.000;  265.000
231.352;   14.075;   54.000;   40.000
231.496;   21.150;  568.000;  188.000
231.640;  -82.225; -693.000; -621.000
231.783;   51.125;  546.000;  525.000
231.927;  -48.150; -294.000; -365.000
232.071; -112.000; -962.000; -736.000
232.214; -105.550; -980.000; -764.000
232.358; -106.475; -683.000; -599.000
232.502;    5.175;  -19.000;    7.000
232.645; -125.825;-1090.000; -927.000
232.789;  -31.900; -257.000; -218.000
232.933;  -35.350; -407.000; -224.000
233.076; -125.875;-1038.000; -897.000
233.220;  -92.450; -752.000; -777.000
233.363;  -70.950; -669.000; -477.000
233.507;   56.300;  371.000;  129.000
233.650;  -97.700; -764.000; -834.000
233.794;   44.350;  438.000;  461.000
233.938;  -68.900; -530.000; -362.000
234.081;  -12.875;  -93.000;   31.000
234.225;  -68.450; -631.000; -539.000
234.368; -104.225; -773.000; -723.000
234.512;  -50.025; -385.000; -299.000
234.655;  -93.400; -582.000; -555.000
234.798;  -67.150; -493.000; -466.000
234.942; -117.600; -884.000;-1002.000
235.085;  -78.450; -651.000; -443.000
235.229;  -58.375; -405.000; -410.000
235.372;  -59.875; -247.000; -191.000
235.516;  -57.425; -397.000; -321.000
235.659;    9.975;   92.000;  121.000
235.802;  -13.925;  -38.000;  -22.000
235.946;   15.525;  335.000;  215.000
236.089;   31.775;  126.000;  250.000
236.233;   43.600;  275.000;  298.000
236.376;  -45.300; -235.000; -378.000
236.519;  -57.300; -297.000; -319.000
236.663;  -24.175; -215.000; -117.000
236.806; -148.150;-1029.000; -999.000
236.949;   42.150;  543.000;  431.000
237.092;   54.650;  412.000;  391.000
237.236;  -73.725; -589.000; -502.000
237.379;   63.350;  352.000;  428.000
237.522; -115.175; -879.000; -768.000
237.666;  -18.850; -271.000;   18.000
237.809; -119.650; -851.000; -823.000
237.952;   38.575;  469.000;  271.000
238.095;  -54.675; -447.000; -442.000
238.238;   65.850;  688.000;  700.000
238.382;   -3.725;  166.000;  103.000
238.525;  -61.775; -598.000; -511.000
238.668; -139.825;-1060.000; -985.000
238.811;  -81.900; -638.000; -643.000
238.954;  -52.400; -483.000; -334.000
239.097;   81.400;  617.000;  664.000
239.241;   21.400;  394.000;  326.000
239.384;  -37.125; -254.000; -214.000
239.527;  -53.825; -424.000; -224.000
239.670; -147.825; -994.000;-1091.000
239.813; -106.075; -696.000; -658.000
239.956;   75.150;  579.000;  473.000
240.099;  -92.800; -778.000; -725.000
240.242;   55.275;  428.000;  432.000
240.385;   39.875;  466.000;  450.000
240.528;  -71.800; -706.000; -473.000
240.671;   22.775;  189.000;  134.000
240.814;  -50.525; -441.000; -158.000
240.957;  -79.350; -767.000; -578.000
241.100;  -90.000; -779.000; -755.000
241.243; -135.225;-1234.000; -893.000
241.386;  -72.700; -508.000; -379.000
241.529;  -79.800; -735.000; -547.000
241.672;  -63.350; -566.000; -495.000
241.815; -112.775; -832.000; -808.000
241.958;  -24.975; -125.000; -182.000
242.101;  -66.675; -545.000; -390.000
242.244;  -49.525; -270.000; -325.000
242.387;  -36.850; -304.000; -246.000
242.530;   58.925;  470.000;  134.000
242.673;  -27.625; -381.000; -309.000
242.815; -129.275; -925.000; -899.000
242.958;  -70.100; -482.000; -381.000
243.101;    4.225;  132.000;  187.000
243.244;  -74.475; -564.000; -521.000
243.387;  -37.700; -313.000; -316.000
243.530;  -97.525; -657.000; -674.000
243.672;    5.150;   43.000;  -92.000
243.815;  -57.500; -355.000; -283.000
243.958;   -8.700;   98.000;  -26.000
244.101;   -3.850;   59.000;  -16.000
244.243;   -3.125;  -47.000;  101.000
244.386;  -93.300; -761.000; -630.000
244.529;  -29.100; -132.000; -139.000
244.672; -145.650;-1154.000; -951.000
244.814;  -99.525; -621.000; -794.000
244.957;  -49.425; -380.000; -304.000
245.100;  -61.275; -489.000; -489.000
245.242;  -60.475; -387.000; -374.000
245.385;  -12.250;  -59.000;  -39.000
245.528;  -99.025; -871.000; -705.000
245.670;   78.750;  612.000;  634.000
245.813;  -74.950; -599.000; -547.000
245.956;  -40.175; -324.000; -275.000
246.098;  -71.175; -508.000; -650.000
246.241;   18.950;  194.000;   48.000
246.383;  -17.950; -119.000;  -73.000
246.526;  -77.700; -454.000; -525.000
246.669; -107.700; -889.000; -780.000
246.811;    3.775;  172.000;   -1.000
246.954;  -53.350; -512.000; -426.000
247.096;  -24.875;  -84.000;   -6.000
247.239;  -64.700; -482.000; -445.000
247.381;  -75.525; -647.000; -488.000
247.524;   72.800;  645.000;  679.000
247.666;  -13.350;   58.000;   11.000
247.809; -111.925; -887.000; -691.000
247.951;  -12.125;  -75.000;  138.000
248.094;   28.525;  432.000;  308.000
248.236; -155.325;-1262.000;-1238.000
248.378;  -19.800; -356.000;  -81.000
248.521;  -35.225; -334.000; -337.000
248.663;  -37.900; -236.000; -267.000
248.806;  -14.475; -300.000; -266.000
248.948;  -97.700; -886.000; -763.000
249.090;  -56.500; -428.000; -398.000
249.233;  -52.925; -344.000; -381.000
249.375;  -61.000; -474.000; -451.000
249.518;  -20.775;  -83.000; -133.000
249.660;  -21.275; -103.000;    3.000
249.802; -165.350;-1303.000;-1189.000
249.945;  -75.225; -612.000; -540.000
250.087;  -98.500; -834.000; -768.000
250.229;  -51.875; -362.000; -480.000
250.371;  -75.175; -494.000; -439.000
250.514;  -59.175; -310.000; -244.000
250.656;  -17.675;   69.000;  102.000
250.798; -110.300; -849.000; -800.000
250.940;  -67.750; -322.000; -322.000
251.083;  -44.325; -335.000; -111.000
251.225;   57.125;  338.000;  310.000
251.367;  -42.650; -274.000; -373.000
251.509;  -31.725; -265.000; -210.000
251.651;  -93.600; -731.000; -671.000
251.794;   39.125;  538.000;  632.000
251.936; -106.475; -821.000; -747.000
252.078;  -64.075; -540.000; -461.000
252.220;  -74.200; -645.000; -477.000
252.362;   63.900;  344.000;  462.000
252.504;  -81.500; -677.000; -584.000
252.646; -108.975; -875.000; -722.000
252.788;  -16.350;   14.000; -128.000
252.931;  -45.800; -257.000; -253.000
253.073;  -55.400; -376.000; -317.000
253.215;   -5.525;  141.000;  122.000
253.357;  -12.975;   82.000; -153.000
253.499;  -53.900; -374.000; -234.000
253.641;  -80.375; -749.000; -594.000
253.783;  -86.900; -609.000; -527.000
253.925;  -92.025; -586.000; -591.000
254.067;  -95.475; -744.000; -667.000
254.209;  -36.650; -391.000; -259.000
254.351; -125.825; -865.000; -883.000
254.493;  -62.050; -441.000; -417.000
254.635; -124.700; -936.000; -818.000
254.777;  -95.525; -752.000; -687.000
254.918;  -46.825; -512.000; -430.000
255.060;  -64.750; -551.000; -395.000
255.202;  -52.125; -473.000; -261.000
255.344;  -83.325; -658.000; -455.000
255.486;  -66.675; -471.000; -406.000
255.628; -120.325; -780.000; -781.000
255.770;  -74.375; -676.000; -536.000
255.912;  -70.150; -559.000; -468.000
256.053;  -88.000; -730.000; -508.000
256.195;  144.775; 1008.000;  903.000
256.337;  -88.825; -861.000; -595.000
256.479;   53.275;  532.000;  416.000
256.621;  -48.600; -394.000; -212.000
256.762; -102.850; -789.000; -742.000
256.904;   50.175;  485.000;  487.000
257.046;  -45.675; -381.000; -271.000
257.188;  -43.950; -351.000; -264.000
257.329;  -81.600; -525.000; -464.000
257.471; -119.450; -939.000; -807.000
257.613;  -67.325; -584.000; -498.000
257.755; -139.300;-1073.000; -982.000
257.896;   22.550;  286.000;  392.000
258.038;  -60.975; -403.000; -352.000
258.180;  -50.950; -354.000; -279.000
258.321;  -87.750; -581.000; -457.000
258.463;   -5.500;  -71.000;  133.000
258.605;  -81.925; -562.000; -570.000
258.746; -119.900; -886.000; -772.000
258.888; -138.800;-1026.000;-1020.000
259.029;   12.425;  121.000;   -8.000
259.171;  -81.525; -614.000; -550.000
259.313;  -11.350;  -49.000;  -47.000
259.454;  -50.875; -536.000; -414.000
259.596;  -61.325; -483.000; -390.000
259.737;  -64.225; -590.000; -474.000
259.879;   29.175;  217.000;  311.000
260.020;   77.950;  901.000;  636.000
260.162;  -27.925; -146.000; -253.000
260.303; -101.400; -768.000; -687.000
260.445;  -75.875; -609.000; -613.000
260.586;   35.775;  392.000;  157.000
260.728;  -41.625; -360.000; -248.000
260.869;  -59.600; -350.000; -343.000
261.011;   80.300;  706.000;  537.000
261.152;  -68.550; -479.000; -319.000
261.293;  -81.400; -576.000; -595.000
261.435;  -29.450; -219.000; -184.000
261.576;  -56.325; -455.000; -325.000
261.718;   40.675;  420.000;  470.000
261.859; -117.750; -940.000; -949.000
262.000; -123.350; -951.000;-1016.000
262.142;  -21.500;  -52.000;  -60.000
262.283; -109.875; -808.000; -691.000
262.424;  -84.400; -666.000; -625.000
262.566; -140.950;-1161.000; -983.000
262.707; -113.050; -840.000; -830.000
262.848; -109.075; -769.000; -726.000
262.990;  -56.600; -362.000; -345.000
263.131;   87.175;  650.000;  681.000
263.272;   -1.600;  -61.000;  -41.000
263.413;  -85.925; -589.000; -561.000
263.555;  -70.675; -669.000; -143.000
263.696;  -80.650; -550.000; -641.000
263.837;  -45.425; -449.000; -551.000
263.978;    5.425;   -5.000;  -77.000
264.119;  -42.825; -283.000; -264.000
264.261; -102.975; -847.000; -630.000
264.402;  -10.800;   33.000;   40.000
264.543;  -77.150; -509.000; -524.000
264.684;  -24.725;   61.000;  -50.000
264.825;  -66.375; -816.000; -538.000
264.966;  -14.950;  -84.000;  -67.000
265.107; -108.925; -646.000; -670.000
265.248; -121.225; -825.000; -812.000
265.390;   -7.775;  152.000;   -9.000
265.531;  -30.650; -238.000; -107.000
265.672;  -85.200; -557.000; -630.000
265.813;   54.675;  563.000;  439.000
265.954; -131.375; -959.000; -940.000
266.095;   -9.450; -372.000; -322.000
266.236;  -89.575; -686.000; -548.000
266.377;  -49.475; -243.000; -297.000
266.518;  -61.125; -619.000; -547.000
266.659;   21.650;  170.000;  268.000
266.800;   16.950;   83.000;   85.000
266.941;  -76.600; -487.000; -478.000
267.082;   21.200;  354.000;   99.000
267.223;  -59.525; -344.000; -273.000
267.364; -102.000; -892.000; -686.000
267.504;  -23.625;    3.000;  135.000
267.645;    7.325;  160.000;   67.000
267.786;  -46.150; -147.000;  -86.000
267.927;  -67.575; -473.000; -379.000
268.068;  -16.700; -186.000;  -61.000
268.209;  -36.300; -175.000; -413.000
268.350;  -63.250; -388.000; -532.000
268.490;  -71.225; -648.000; -521.000
268.631;   19.825;  127.000;  225.000
268.772; -105.275; -874.000; -647.000
268.913;  -50.700; -328.000; -476.000
269.054;  -14.225; -117.000;   12.000
269.194;  -45.200; -418.000; -402.000
269.335; -144.300;-1137.000;-1074.000
269.476;  -16.050;   33.000;  -35.000
269.617;  -49.175; -347.000; -392.000
269.757;  -95.625; -713.000; -646.000
269.898; -105.875; -856.000; -613.000
270.039;  -63.725; -415.000; -405.000
270.180; -119.700; -952.000; -816.000
270.320;  -35.225; -190.000; -250.000
270.461;  -35.800; -277.000; -249.000
270.602;  -35.475; -186.000; -156.000
270.742; -111.950; -868.000; -943.000
270.883;  -60.550; -442.000; -390.000
271.023;  -49.500; -358.000; -357.000
271.164;  -82.425; -607.000; -528.000
271.305;  -95.850; -666.000; -654.000
271.445; -100.025; -722.000; -683.000
271.586;  -60.125; -462.000; -283.000
271.726;  -57.325; -397.000; -322.000
271.867;  -54.875; -594.000; -534.000
272.008;   90.775; -473.000; -285.000
272.148;   86.100;  462.000;  468.000
272.289;    0.325; -113.000; -181.000
272.429;   19.000;   19.000;  185.000
272.570;  -99.775; -633.000; -737.000
272.710;  -97.675; -825.000; -775.000
272.851;  -29.375;  113.000; -130.000
272.991; -165.775;-1173.000;-1077.000
273.131;  -69.250; -419.000; -459.000
273.272;  -97.125; -683.000; -723.000
273.412;  -17.950; -143.000;  -31.000
273.553;  -66.275; -488.000; -507.000
273.693;  120.425;  913.000;  858.000
273.834; -102.275; -894.000; -692.000
273.974;  -74.450; -664.000; -615.000
274.114;  -83.475; -772.000; -560.000
274.255;   65.675;  414.000;  373.000
274.395;  -12.600; -180.000; -125.000
274.535;   24.725;  199.000;  350.000
274.676;   19.350;  225.000;   94.000
274.816;  -19.375;  110.000;   34.000
274.956;  -86.450; -624.000; -690.000
275.097;  -90.550;-1014.000; -922.000
275.237; -120.175; -913.000; -803.000
275.377; -105.100; -778.000; -689.000
275.517; -143.475; -878.000; -937.000
275.658;  -62.725; -590.000; -555.000
275.798;  -77.900; -606.000; -413.000
275.938;    3.925;  215.000;  323.000
276.078;  -76.200; -626.000; -395.000
276.218;  -10.425;   99.000;  104.000
276.359; -126.200;-1026.000;-1024.000
276.499;  -67.625; -605.000; -446.000
276.639;  -22.475; -305.000; -151.000
276.779;  -44.950; -475.000; -357.000
276.919; -104.225; -783.000; -624.000
277.059;  -28.225; -261.000; -212.000
277.199;  -30.300; -357.000; -259.000
277.340;   34.800;  287.000;  175.000
277.480; -104.100; -840.000; -693.000
277.620;   14.300;  192.000;   16.000
277.760; -176.675;-1533.000;-1294.000
277.900;    2.325;  113.000;   33.000
278.040;    9.675;  137.000;  159.000
278.180;    3.500;  270.000;  170.000
278.320;    8.800;   21.000;   56.000
278.460;  -67.500; -443.000; -469.000
278.600;  -82.425; -708.000; -598.000
278.740;   45.700;  448.000;  224.000
278.880;  -88.000; -768.000; -791.000
279.020;  -26.300; -194.000; -144.000
279.160;  -89.125; -672.000; -595.000
279.300; -125.175; -926.000; -873.000
279.440;  -95.625; -709.000; -622.000
279.579;  -56.675;-1014.000; -929.000
279.719;  -56.550; -410.000; -394.000
279.859;   39.250;   -4.000;   41.000
279.999;    7.900; -208.000;  101.000
280.139;  -35.550; -435.000; -387.000
280.279;  -72.350; -708.000; -745.000
280.419;  -12.425; -229.000; -147.000
280.559;  -36.175; -259.000; -180.000
280.698;  -94.500; -790.000; -639.000
280.838;  -91.025; -778.000; -800.000
280.978;  -94.525; -846.000; -790.000
281.118; -100.775; -811.000; -704.000
281.257;   12.075;   24.000;    6.000
281.397; -128.425;-1094.000; -960.000
281.537;  -96.275; -599.000; -712.000
281.677;  -26.325; -150.000; -101.000
281.816;  -78.650; -700.000; -630.000
281.956;  -41.100; -193.000; -257.000
282.096;  -57.575; -539.000; -396.000
282.235;  -95.025; -672.000; -638.000
282.375;  -24.175; -243.000;  -98.000
282.515;  -90.225; -715.000; -707.000
282.654;    9.200;   29.000;  106.000
282.794;   20.625;  388.000;  244.000
282.934;  -54.625; -530.000; -491.000
283.073; -123.125;-1030.000; -857.000
283.213;  -52.300; -460.000; -467.000
283.353;  -35.850; -408.000; -349.000
283.492;  -19.825; -264.000; -296.000
283.632;  -39.475; -254.000; -168.000
283.771; -104.650; -859.000; -730.000
283.911;  -59.000; -369.000; -260.000
284.050; -105.150; -794.000; -748.000
284.190; -143.975;-1229.000;-1096.000
284.329; -131.850;-1055.000; -964.000
284.469;  -87.200; -516.000; -591.000
284.608;  -62.750; -559.000; -598.000
284.748;  -68.950; -614.000; -570.000
284.887;  -17.375;  -87.000;  -20.000
285.027; -114.625; -844.000; -892.000
285.166;  -37.250; -192.000; -249.000
285.306;   -2.425; -116.000;  -33.000
285.445;  -57.825; -229.000; -343.000
285.584;  -81.450; -630.000; -494.000
285.724;  -45.875; -282.000; -322.000
285.863;  -97.700; -857.000; -507.000
286.002;  -56.600; -366.000; -276.000
286.142;  -88.625; -715.000; -622.000
286.281;  -72.125; -525.000; -493.000
286.420;  -60.725; -554.000; -417.000
286.560;  101.100;  653.000;  623.000
286.699; -124.175; -958.000; -912.000
286.838;  -81.650; -590.000; -591.000
286.978;  -69.675; -533.000; -537.000
287.117; -126.475;-1085.000; -950.000
287.256;  -25.625; -228.000; -211.000
287.395;  -47.550; -197.000; -378.000
287.535;  -42.400; -370.000; -298.000
287.674;  -70.675; -509.000; -484.000
287.813;   59.450;  661.000;  533.000
287.952; -120.475;-1010.000; -871.000
288.091; -130.225;-1049.000; -915.000
288.231;    2.550;   13.000;   15.000
288.370; -153.550;-1217.000;-1200.000
288.509;  -92.650; -728.000; -645.000
288.648;  -91.900; -770.000; -548.000
288.787;  -34.750; -243.000;  -87.000
288.926;  -43.675; -454.000; -475.000
289.065;  105.050;  859.000;  672.000
289.204;  -52.800; -377.000; -217.000
289.344;  -91.075; -791.000; -690.000
289.483;   35.075;  416.000;  304.000
289.622;  -31.475; -291.000; -149.000
289.761;   -3.950; -309.000; -166.000
289.900; -110.025; -785.000; -626.000
290.039;  -14.825;  -12.000;  -95.000
290.178;  -45.050; -274.000; -180.000
290.317;  -69.925; -618.000; -479.000
290.456;  -67.525; -463.000; -451.000
290.595; -106.825; -961.000; -833.000
290.734; -133.950; -904.000; -891.000
290.873;  -67.500; -456.000; -420.000
291.011; -107.125; -833.000; -843.000
291.150;  -97.250; -770.000; -682.000
291.289;  -38.100; -343.000; -110.000
291.428;  -81.925; -599.000; -480.000
291.567;  -50.625; -370.000; -442.000
291.706;    3.800;  109.000;  154.000
291.845;  -99.800; -597.000; -505.000
291.984; -145.125;-1234.000;-1061.000
292.122;   73.150;  602.000;  582.000
292.261;   52.450;  620.000;  463.000
292.400;   -8.700; -144.000;  211.000
292.539; -109.975; -959.000; -813.000
292.678;  -46.425; -325.000; -300.000
292.816; -130.375;-1136.000; -965.000
292.955;  -98.150; -844.000; -684.000
293.094;   -8.900; -173.000; -337.000
293.233;  -56.800; -556.000; -400.000
293.371;  -32.800; -225.000;  -84.000
293.510; -114.750; -866.000; -780.000
293.649; -116.925; -959.000; -924.000
293.787;  -97.925;-1083.000;-1012.000
293.926;  -12.725; -113.000;  -32.000
294.065;  -45.600; -379.000; -290.000
294.203;   48.550;  298.000;  406.000
294.342;   29.450;   74.000;  156.000
294.481; 6655.350;51180.000; -836.000
294.619;  -28.725; -425.000; -582.000
294.758; -141.700;-1230.000;-1137.000
294.896;   28.875; -125.000;    5.000
295.035; -124.750;-1040.000;-1006.000
295.174; -125.300;-1082.000; -954.000
295.312;  -40.850; -323.000; -203.000
295.451;  -27.675; -307.000; -428.000
295.589;  -45.675; -389.000; -518.000
295.728;   20.475; -292.000; -165.000
295.866;    4.625;  -36.000;  -51.000
296.005;  -60.925; -584.000; -341.000
296.143;  -62.125; -558.000; -596.000
296.282;  -91.075; -957.000; -881.000
296.420;  -80.000; -657.000; -557.000
296.559;  -97.600; -892.000; -633.000
296.697;  -31.125; -847.000; -665.000
296.835;  -43.375;-1141.000;-1002.000
296.974;   38.175;  -23.000;   39.000
297.112;  -33.475; -443.000; -504.000
297.251;  -83.025; -815.000; -755.000
297.389;    9.225; -576.000; -438.000
297.527;   19.850; -145.000;  -83.000
297.666;  -40.825; -486.000; -438.000
297.804;  -39.000; -404.000; -264.000
297.942;   -5.175; -136.000; -161.000
298.081;  -10.225; -183.000;   63.000
298.219;   23.050;  -17.000;  -19.000
298.357;   23.775; -144.000;  -71.000
298.495;  -42.025; -810.000; -812.000
298.634;   43.075;  245.000;  219.000
298.772;   -6.425; -220.000; -338.000
298.910;  -35.750; -309.000; -182.000
299.048;  -20.000; -130.000; -153.000
299.187;  -33.100; -350.000; -250.000
299.325;   -4.250;   52.000;  122.000
299.463;    2.375; -389.000; -299.000
299.601;   26.075; -327.000; -271.000
299.739; -103.100; -908.000; -883.000
299.877;  -96.975; -791.000; -703.000
300.016;  -80.875;-1095.000; -935.000
300.154;   63.150;  -19.000; -161.000
300.292;   -6.300; -428.000; -348.000
300.430;  -23.250; -408.000; -291.000
300.568;  -98.675; -940.000; -874.000
300.706;  -51.900; -366.000; -469.000
300.844;  -98.725;-1108.000; -979.000
300.982;   79.125;  246.000;  282.000
301.120; -107.950; -965.000; -866.000
301.258;  -81.200; -812.000; -705.000
301.396;    9.450;  104.000;  -41.000
301.534;   -1.150; -218.000; -293.000
301.672;  -56.325; -664.000; -521.000
301.810;  -36.100; -613.000; -545.000
301.948;   43.375;   53.000;  149.000
302.086;  321.525; -250.000;  -32.000
302.224;  403.525; -610.000; -585.000
302.362;  -54.600; -558.000; -622.000
302.500;  -70.875; -923.000; -893.000
302.638;   55.225;  128.000;  245.000
302.776;  -26.950; -352.000; -408.000
302.913;   40.250;  447.000;  236.000
303.051;  -10.000;  -86.000;  -23.000
303.189;   29.000;   90.000;  118.000
303.327;  -32.775; -341.000; -256.000
303.465;  -79.275; -832.000; -588.000
303.603;  -97.775; -805.000; -604.000
303.740;   63.300;  417.000;  241.000
303.878;  -31.125; -800.000; -759.000
304.016;  -97.300; -915.000; -790.000
304.154; -131.400;-1123.000;-1152.000
304.291;  -43.975; -505.000; -554.000
304.429;    1.825;  102.000;   74.000
304.567; -122.350; -908.000; -893.000
304.705;  -59.225; -408.000; -515.000
304.842;   -3.900; -616.000; -540.000
304.980;   28.775;  215.000;   35.000
305.118;   -3.450; -367.000; -365.000
305.255;  -86.575; -945.000; -927.000
305.393;   37.275;  178.000;  239.000
305.531; -117.100;-1173.000; -956.000
305.668;  -74.400; -663.000; -582.000
305.806;   45.700; -358.000; -439.000
305.943;   13.275; -629.000; -637.000
306.081;    7.075; -378.000; -267.000
306.219;  -99.000; -863.000; -748.000
306.356;   23.075;  158.000;   27.000
306.494;  117.675;  981.000;  761.000
306.631;   15.075;  -11.000;  -55.000
306.769;   -8.475; -613.000; -485.000
306.906;  -20.550; -284.000; -258.000
307.044;  -49.625; -473.000; -488.000
307.181;  -45.050; -410.000; -332.000
307.319;    5.150;  112.000;   87.000
307.456; -149.575;-1191.000;-1153.000
307.594;  -96.200; -980.000; -727.000
307.731;   -8.700; -371.000; -164.000
307.868;   -8.575;  -15.000;   20.000
308.006; -118.325; -961.000; -847.000
308.143;  -59.375; -618.000; -330.000
308.281;  112.975;  -37.000; -254.000
308.418;  -36.850; -748.000; -640.000
308.555;  -57.300; -400.000; -250.000
308.693;  -58.125; -577.000; -573.000
308.830;  -84.775; -712.000; -657.000
308.967;   -6.475; -215.000;  -95.000
309.105;   -2.225; -507.000; -396.000
309.242;   17.350; -468.000; -367.000
309.379;  165.150; -577.000; -655.000
309.517;  -71.550; -936.000; -948.000
309.654;  -71.675; -910.000; -734.000
309.791;  -61.300; -662.000; -580.000
309.928;  -98.625; -977.000; -914.000
310.065;  147.550;  819.000;  697.000
310.203;  -44.525; -825.000; -850.000
310.340;   -9.750; -465.000; -321.000
310.477;  -67.050; -412.000; -516.000
310.614;  -51.450; -383.000; -473.000
310.751;  -38.500; -427.000; -518.000
310.889;  -16.100;    1.000;   11.000
311.026; -110.725;-1161.000; -939.000
311.163;  -25.475; -386.000; -380.000
311.300;  -52.350; -512.000; -479.000
311.437;  -52.325; -658.000; -619.000
311.574; -135.975;-1226.000; -985.000
311.711;  -48.350; -595.000; -433.000
311.848;  -14.675; -380.000; -388.000
311.985;   17.325;  270.000;   93.000
312.122;  -96.950; -932.000; -762.000
312.259; -108.175; -941.000; -994.000
312.396;  -48.925; -508.000; -551.000
312.533;  -60.025; -812.000; -790.000
312.670; -117.425;-1070.000; -898.000
312.807;   -9.450; -352.000; -367.000
312.944;  -52.075; -513.000; -611.000
313.081;  -11.875; -150.000; -415.000
313.218;  -62.575;-1111.000; -867.000
313.355;   14.625; -531.000; -449.000
313.492;   14.250; -455.000; -292.000
313.629;  150.775;  815.000;  735.000
313.766; -125.700;-1176.000;-1008.000
313.902;    8.550; -186.000;   21.000
314.039;  -26.125; -372.000; -289.000
314.176;   53.875;  286.000;  192.000
314.313;  -50.650; -569.000; -473.000
314.450;  -70.150; -788.000; -684.000
314.587;  -32.150; -468.000; -480.000
314.723;   23.900;  -78.000;  130.000
314.860;   68.800;  318.000;  332.000
314.997;   53.950;  223.000;  142.000
315.134;    0.650; -385.000; -368.000
315.270;    9.450; -480.000; -496.000
315.407;  -87.050;-1094.000; -967.000
315.544;   -2.675; -657.000; -538.000
315.681;  -21.300; -681.000; -565.000
315.817;   85.825; -133.000; -176.000
315.954;  105.950; -613.000; -392.000
316.091; -109.100;-1045.000;-1023.000
316.227;    1.475;  -71.000; -179.000
316.364;   -3.450;   23.000;    6.000
316.500;  -27.075; -113.000; -300.000
316.637;  -45.200; -181.000; -302.000
316.774;  -77.675; -625.000; -358.000
316.910;  -87.350; -598.000; -629.000
317.047;  -48.700; -487.000; -351.000
317.183;  -59.725; -435.000; -566.000
317.320;   19.950; -367.000; -321.000
317.456;  -48.425; -733.000; -805.000
317.593;  -72.025; -598.000; -641.000
317.729;   13.250;  168.000;  -67.000
317.866; -186.350;-1434.000;-1285.000
318.002;  -80.700; -708.000; -948.000
318.139; -105.650; -883.000; -867.000
318.275; -104.250;-1003.000; -738.000
318.412;  -43.800; -517.000; -336.000
318.548;  -53.125; -751.000; -720.000
318.685;  -97.500; -985.000; -888.000
318.821;  -91.675; -762.000; -735.000
318.957;  -13.525;   34.000;  -23.000
319.094;   48.350;  297.000;  154.000
319.230;  -59.400; -756.000; -742.000
319.367;   38.850; -471.000; -520.000
319.503;   14.575; -538.000; -436.000
319.639;  -89.175; -877.000; -793.000
319.775;  -71.175; -750.000; -685.000
319.912;  -51.075; -424.000; -519.000
320.048;  -86.100;-1184.000;-1184.000
320.184;   81.600;   59.000;   70.000
320.321;  -38.650; -497.000; -467.000
320.457;   68.575;  475.000;  662.000
320.593;  -61.650; -375.000; -382.000
320.729;  -91.950; -732.000; -734.000
320.866;  -66.275; -577.000; -635.000
321.002; -100.575; -759.000; -809.000
321.138;  -16.850; -135.000; -211.000
321.274;   31.600; -148.000; -115.000
321.410;  -39.100; -585.000; -353.000
321.546;  -85.075;-1011.000; -911.000
321.683;   48.650;  400.000;  185.000
321.819;  -12.625;  -48.000; -117.000
321.955; -106.000; -743.000; -722.000
322.091;  -54.750; -585.000; -540.000
322.227;  -14.575; -382.000; -202.000
322.363;  -33.925; -320.000; -215.000
322.499;  -51.175; -343.000; -331.000
322.635;  107.175;  636.000;  443.000
322.771;    0.875; -139.000;   12.000
322.907;   63.350;  129.000;  327.000
323.043;  -22.775; -115.000; -206.000
323.179;  -45.525; -394.000; -363.000
323.315;   -9.475; -401.000; -371.000
323.451;   38.325; -328.000; -236.000
323.587;   68.200;  -60.000;  -77.000
323.723;  -33.350; -682.000; -601.000
323.859;  -26.200; -258.000;  -76.000
323.995;  -46.475; -467.000; -409.000
324.131; -112.250; -967.000; -892.000
324.267;  -39.925; -254.000; -276.000
324.402; -129.375; -960.000; -983.000
324.538;  -28.625; -279.000; -104.000
324.674;    9.700;  164.000;   77.000
324.810;   70.325;  226.000;  308.000
324.946;  -31.375; -810.000; -658.000
325.082;  -84.850; -568.000; -475.000
325.217;    1.200;  -62.000;   16.000
325.353;  -96.675; -764.000; -659.000
325.489;  -74.925; -540.000; -506.000
325.625;  -87.250; -579.000; -525.000
325.760;   45.150;  517.000;  376.000
325.896;  -14.175; -515.000; -702.000
326.032;  -46.200; -403.000; -352.000
326.168;  -55.200; -462.000; -369.000
326.303;  -53.075; -352.000; -461.000
326.439;  -14.900; -336.000; -276.000
326.575;    8.225; -190.000;  -29.000
326.710;  -19.575; -156.000;  -30.000
326.846;   -1.675;  146.000;  103.000
326.982;  -83.925; -530.000; -548.000
327.117;  -59.950; -481.000; -442.000
327.253;  -79.025; -745.000; -742.000
327.388; -130.850;-1137.000;-1153.000
327.524;  -60.925; -811.000; -578.000
327.659;  -28.625;  -58.000;  -22.000
327.795;  -18.250;   69.000;   45.000
327.931;  -72.650; -723.000; -499.000
328.066;  -36.450; -417.000; -276.000
328.202;  -14.325;   12.000; -129.000
328.337;   94.950;  957.000;  713.000
328.473;   45.725;  -12.000;  -74.000
328.608;  -17.650; -256.000; -267.000
328.743;  -82.275; -799.000; -664.000
328.879;   10.350;  214.000;  114.000
329.014;  -37.050; -102.000; -122.000
329.150;  -89.700; -358.000; -483.000
329.285;  -68.900; -465.000; -466.000
329.421;  -47.600; -548.000; -246.000
329.556;  -26.125;  -36.000;   85.000
329.691; -101.150; -633.000; -615.000
329.827;  -68.725; -626.000; -480.000
329.962;  -31.450;  131.000; -301.000
330.097;  -75.125; -673.000; -585.000
330.233;  -38.400; -410.000; -223.000
330.368; -113.025; -839.000; -628.000
330.503;  -23.775;    3.000;   98.000
330.638;  -11.100;  -93.000; -125.000
330.774;  -70.900; -609.000; -530.000
330.909;  -40.425; -434.000; -244.000
331.044;  -95.525; -714.000; -708.000
331.179; -158.275;-1217.000;-1109.000
331.315;   -8.600;   77.000;   20.000
331.450;   28.925;  157.000;  285.000
331.585;  -67.175; -805.000; -706.000
331.720;  -70.625; -510.000; -460.000
331.855;    5.825;  -35.000; -102.000
331.990;  343.350;   62.000;  138.000
332.126;  185.025; -110.000;   71.000
332.261;   20.450; -379.000; -265.000
332.396;   15.250; -135.000; -242.000
332.531;  -56.525;-1074.000;-1031.000
332.666;   77.200; -519.000; -363.000
332.801;  -73.775; -726.000; -807.000
332.936;  -22.375; -192.000; -122.000
333.071; -105.675; -870.000; -817.000
333.206;   18.425;  307.000;  379.000
333.341;   39.775;  344.000;  418.000
333.476;  -63.700; -627.000; -623.000
333.611;  -24.050; -251.000; -173.000
333.746;  -28.625; -381.000; -464.000
333.881;  -97.550; -973.000; -935.000
334.016; -104.425; -936.000; -917.000
334.151; -114.525; -746.000; -702.000
334.286;   39.925;  152.000;  186.000
334.421;    6.200; -125.000; -178.000
334.556;  -48.450; -611.000; -567.000
334.690;  -51.125; -631.000; -577.000
334.825;   89.650;  381.000;   83.000
334.960;  -20.375; -285.000; -413.000
335.095;   45.050;  135.000;  -91.000
335.230;  -52.375; -722.000; -738.000
335.365; -105.400;-1084.000; -990.000
335.499;  -81.400;-1108.000;-1037.000
335.634;   56.500;    9.000;  534.000
335.769;  -32.425; -755.000; -720.000
335.904;  -13.300; -603.000; -561.000
336.038;    6.275; -735.000; -657.000
336.173;  -64.000;-1206.000;-1194.000
336.308;   84.650; -116.000; -189.000
336.443;  109.275; -544.000; -634.000
336.577;   28.675; -936.000; -787.000
336.712;  143.500;   -4.000;  -12.000
336.847;   70.150; -724.000; -607.000
336.981;  166.775; -272.000; -208.000
337.116;  466.400;  615.000;  501.000
337.250;  225.825; -434.000; -421.000
337.385;  349.725; -297.000; -208.000
337.520;  127.225; -632.000; -603.000
337.654;  -14.350; -215.000; -126.000
337.789; -131.200; -989.000; -933.000
337.923;  -25.975; -104.000; -205.000
338.058;  -95.225; -673.000; -738.000
338.192;  -55.325; -611.000; -488.000
338.327;   -8.175;  -18.000; -155.000
338.461;  -54.100; -299.000; -469.000
338.596;  -90.625; -780.000; -638.000
338.730;  -76.025; -767.000; -803.000
338.865;  125.150;  -46.000; -140.000
338.999;  -10.825; -846.000; -702.000
339.134;   -5.875; -634.000; -536.000
339.268;   20.400; -741.000; -603.000
339.403;  441.400; -740.000; -775.000
339.537;  187.325; -894.000; -820.000
339.671; -100.050; -829.000; -813.000
339.806;  -42.175; -556.000; -512.000
339.940;   24.700; -261.000; -235.000
340.074;  -82.200; -685.000; -510.000
340.209;  -55.075; -351.000; -230.000
340.343;  -78.000; -517.000; -573.000
340.477;  133.275;  998.000; 1036.000
340.612;  -20.225;-1033.000; -900.000
340.746;  154.525; -199.000; -243.000
340.880;  -87.000; -924.000; -785.000
341.014;  -39.625;  -45.000; -154.000
341.149; -114.925; -756.000; -718.000
341.283; -101.600; -839.000; -754.000
341.417; -120.725;-1124.000; -938.000
341.551;   11.550; -768.000; -708.000
341.685;  -45.800; -633.000; -611.000
341.820;  -58.750; -562.000; -493.000
341.954;  -50.250; -218.000; -349.000
342.088; -143.300;-1102.000;-1019.000
342.222;   44.350;  565.000;  618.000
342.356;  -75.125; -395.000; -335.000
342.490; -104.700; -880.000; -841.000
342.624;  -53.150; -339.000; -242.000
342.758;  -43.525; -364.000; -312.000
342.892;  -89.075; -710.000; -585.000
343.026;  -35.000;  -58.000; -116.000
343.160;  -61.250; -426.000; -376.000
343.294;  -75.950; -474.000; -337.000
343.428;  -67.225; -488.000; -448.000
343.562;  -18.900; -172.000;  -23.000
343.696;  -48.425; -385.000; -314.000
343.830;  -44.925; -362.000; -356.000
343.964;  -14.450; -231.000; -168.000
344.098;  506.200;  199.000;   70.000
344.232;  408.250; -266.000; -127.000
344.366;   53.750; -567.000; -453.000
344.500;   -5.875; -665.000; -744.000
344.634;  -12.650; -324.000; -164.000
344.768;  -59.925; -531.000; -341.000
344.902;   15.550;  278.000;  256.000
345.035;  -68.600; -556.000; -496.000
345.169; -126.300; -933.000; -656.000
345.303;  -56.675; -308.000; -482.000
345.437;  -92.200; -826.000; -717.000
345.571;  -63.150; -675.000; -594.000
345.704;  -64.550; -309.000; -532.000
345.838;  -26.375; -331.000; -284.000
345.972;  -54.650; -543.000; -495.000
346.106;  199.925; -179.000; -190.000
346.239;  431.375; -312.000; -243.000
346.373;  -13.675; -343.000; -302.000
346.507; -116.900; -950.000; -962.000
346.640;   69.125;  -30.000;   13.000
346.774;  -83.750; -650.000; -797.000
346.908;  -41.800; -138.000;  -11.000
347.041;  -96.675; -646.000; -593.000
347.175;   -7.275;  259.000;   27.000
347.309;  -92.900; -698.000; -628.000
347.442; -117.875; -883.000; -732.000
347.576;  189.850;  670.000;  668.000
347.709;   88.625; -123.000;  -52.000
347.843; -105.325; -933.000; -825.000
347.976;   17.150;  235.000;  294.000
348.110; -151.575;-1268.000;-1186.000
348.243; -100.425; -679.000; -772.000
348.377;   -3.800;  -26.000;   60.000
348.510;   34.500;  403.000;  540.000
348.644;  -39.275;  -37.000; -159.000
348.777;    6.525;  180.000;  191.000
348.911;  -57.500; -142.000; -112.000
349.044;  108.525;  471.000;  448.000
349.178;   34.300;-1069.000;-1006.000
349.311;  100.075;  141.000;  255.000
349.444;   13.525; -927.000; -813.000
349.578;  -28.150; -347.000; -200.000
349.711; -117.075; -959.000; -862.000
349.845;  -42.300; -661.000; -591.000
349.978; -132.800;-1224.000;-1137.000
350.111;  -89.725; -546.000; -612.000
350.244;  -88.250; -596.000; -700.000
350.378;  -37.450; -392.000; -393.000
350.511;  -54.525; -393.000; -426.000
350.644;  -98.575; -808.000; -806.000
350.778;   24.900;  168.000;  104.000
350.911;    6.400;  134.000;  140.000
351.044;  -77.100; -685.000; -615.000
351.177;  -35.250; -321.000; -281.000
351.310;  -25.100;    3.000; -131.000
351.444;  -99.275; -888.000; -788.000
351.577;   78.050;  140.000;   90.000
351.710;   90.675;  593.000;  417.000
351.843;  -27.000; -165.000;  -77.000
351.976;   -0.350;  149.000;  -79.000
352.109;  -91.675; -621.000; -612.000
352.242;  -45.925; -464.000; -419.000
352.376;  -67.250; -580.000; -636.000
352.509;   48.950; -437.000; -356.000
352.642;  -51.250; -654.000; -604.000
352.775;   23.225; -141.000;  -98.000
352.908;  -98.650; -933.000; -904.000
353.041;  -91.850; -814.000; -824.000
353.174;  -50.400; -551.000; -424.000
353.307;  -65.900; -753.000; -764.000
353.440;   78.500;  541.000;  453.000
353.573;  -67.625; -957.000;-1008.000
353.706;  -21.300; -384.000; -558.000
353.839;   -9.875; -264.000; -220.000
353.971;  -77.325; -657.000; -512.000
354.104;  -85.050; -896.000; -835.000
354.237;  -55.400; -627.000; -662.000
354.370;  -82.975; -846.000; -879.000
354.503; -140.750;-1231.000;-1308.000
354.636;  -10.225; -529.000; -348.000
354.769;  -89.475; -937.000; -860.000
354.902;    1.100; -230.000; -139.000
355.034;    1.450; -164.000; -220.000
355.167;    7.175; -262.000; -162.000
355.300;  -37.550;-1061.000; -880.000
355.433; 1295.525;  -71.000;  -14.000
355.565; 2052.775; -402.000; -384.000
355.698;  510.225; -356.000; -296.000
355.831;   26.500; -882.000; -801.000
355.964;   67.550; -285.000; -170.000
356.096;  -38.725; -856.000; -843.000
356.229;   32.350; -523.000; -530.000
356.362;  469.450; -373.000; -266.000
356.494;  802.675; -229.000; -162.000
356.627;  403.400;  269.000;  377.000
356.760;  829.325;  120.000;   53.000
356.892; 1355.350; -286.000; -601.000
357.025;  474.300;  403.000;  389.000
357.157;  350.725; -167.000; -179.000
357.290;  906.000; -856.000; -713.000
357.423;  334.950; -667.000; -556.000
357.555;  155.775; -217.000; -228.000
357.688;  249.950; -483.000; -364.000
357.820;  315.150; -870.000; -877.000
357.953; 2256.075; -563.000; -589.000
358.085;  433.250; -632.000; -612.000
358.218;  409.400;-1131.000; -932.000
358.350;   83.325;  -58.000;  312.000
358.483; -141.200;-1300.000;-1187.000
358.615;  -98.125;-1182.000;-1078.000
358.747; -106.075;-1187.000;-1058.000
358.880;  -25.975; -810.000; -744.000
359.012;  -18.550; -376.000; -202.000
359.145;  -60.700; -480.000; -511.000
359.277;   -9.200; -962.000; -913.000
359.409; 1892.950;  536.000;  231.000
359.542;  477.850; -738.000; -688.000
359.674;   40.775;   46.000;   13.000
359.806;  -75.325; -565.000; -438.000
359.939;  -38.900; -617.000; -516.000
360.071;   22.800; -583.000; -579.000
360.203;  -24.500; -411.000; -364.000
360.335;   37.400;  164.000;  -16.000
360.468;  139.000; -249.000; -307.000
360.600; 1695.000; -547.000; -454.000
360.732; 3442.600; -546.000; -423.000
360.864;  501.800;-1216.000;-1044.000
360.996;  123.950; -516.000; -554.000
361.129;   -6.250; -389.000; -598.000
361.261;   -8.900;  110.000; -113.000
361.393;  -47.000; -252.000; -214.000
361.525;   -1.975;   94.000;  244.000
361.657;  -92.800; -821.000; -703.000
361.789;  -32.375; -139.000; -155.000
361.921;   24.625; -642.000; -593.000
362.053;  132.625;  524.000;  541.000
362.185;   17.975;  288.000;   72.000
362.318; -102.700; -709.000; -705.000
362.450;   60.700;  294.000;  444.000
362.582;  -16.625; -913.000; -870.000
362.714;  -62.575; -353.000; -332.000
362.846;  -92.200; -606.000; -490.000
362.978; -130.075; -941.000; -811.000
363.109;  -19.225; -161.000; -260.000
363.241;  207.600; -739.000; -749.000
363.373;  550.550; -649.000; -564.000
363.505;  863.850; -186.000;  -91.000
363.637;  189.200; -787.000; -601.000
363.769; -121.950;-1067.000;-1080.000
363.901;  -68.400; -596.000; -654.000
364.033; -127.950;-1103.000;-1062.000
364.165;  -28.250; -283.000; -283.000
364.296;   83.500; -316.000; -177.000
364.428;  146.775;-1344.000;-1220.000
364.560;  -54.800; -679.000; -661.000
364.692;  -97.725; -738.000; -835.000
364.824;   55.600; -588.000; -456.000
364.955;  406.925; -402.000; -564.000
365.087; 1231.800;-1097.000; -852.000
365.219;   56.025; -686.000; -816.000
365.351;  -82.975; -526.000; -572.000
365.482;   23.100;  300.000;  240.000
365.614;  -64.925; -402.000; -314.000
365.746; -103.850; -729.000; -752.000
365.877;  -76.100; -706.000; -672.000
366.009;  341.950;  -35.000;  -62.000
366.141;  -46.200;-1249.000;-1134.000
366.272; -113.625; -803.000; -719.000
366.404; -107.075;-1005.000; -874.000
366.535;  -17.000; -139.000;  -12.000
366.667; -104.300; -644.000; -649.000
366.799;   21.900;  353.000;  203.000
366.930; -116.750; -862.000; -996.000
367.062;  144.700; -639.000; -613.000
367.193;  255.250; -872.000; -842.000
367.325;  -42.225; -580.000; -684.000
367.456;   38.400; -246.000;   31.000
367.588;  208.075; -371.000; -318.000
367.719;   36.075;  -44.000;  -45.000
367.851;  -41.375; -222.000; -241.000
367.982;  -76.225; -875.000; -732.000
368.113;   19.825; -475.000; -358.000
368.245; -118.000; -960.000; -841.000
368.376;  -39.800; -254.000; -302.000
368.508;  -42.900; -188.000; -263.000
368.639; -152.025;-1166.000;-1034.000
368.770;  -67.700; -670.000; -589.000
368.902; -102.025; -836.000; -926.000
369.033; -127.200; -906.000; -855.000
369.164;  -45.275; -720.000; -653.000
369.296;  -97.775; -452.000; -601.000
369.427;  -37.000; -209.000; -144.000
369.558;  -65.475; -593.000; -377.000
369.689;  -85.375; -721.000; -569.000
369.821; -112.350; -951.000; -845.000
369.952;  -30.800;   42.000; -108.000
370.083;  -48.450; -229.000; -108.000
370.214;  -96.125; -735.000; -650.000
370.345;   -4.600;   65.000;   81.000
370.477;  -89.975; -810.000; -790.000
370.608;  107.800; -328.000; -264.000
370.739; -105.125;-1233.000;-1292.000
370.870;  -85.350;-1102.000; -923.000
371.001;    8.750; -378.000; -467.000
371.132;  -76.925; -754.000; -735.000
371.263;  -40.775;  -42.000; -148.000
371.394; -135.575; -841.000; -748.000
371.525;   16.275;  345.000;  225.000
371.657;  -99.800; -808.000; -670.000
371.788;   29.225;  103.000;  199.000
371.919;   61.175; -384.000; -304.000
372.050; 2023.225;  -91.000; -156.000
372.181;  633.100; -188.000; -294.000
372.311;  201.250;   42.000; -127.000
372.442;    8.050; -457.000; -451.000
372.573;  -39.050; -444.000; -340.000
372.704; -127.150;-1008.000; -980.000
372.835;   -2.575; -228.000; -289.000
372.966;  -68.875; -646.000; -554.000
373.097;  -65.625; -575.000; -711.000
373.228;  -74.300; -717.000; -542.000
373.359;   20.875; -824.000; -536.000
373.490;  392.575; -881.000; -727.000
373.620;  517.275;-1001.000; -803.000
373.751;  964.525; -332.000; -396.000
373.882;  443.150; -663.000; -733.000
374.013;   14.050; -449.000; -262.000
374.143;  -59.375; -581.000; -659.000
374.274; -110.275; -987.000; -908.000
374.405;   87.750; -388.000; -276.000
374.536;  233.025; -526.000; -387.000
374.666;  581.150; -759.000; -807.000
374.797;   80.950; -817.000; -868.000
374.928;  400.575; -710.000; -560.000
375.058;  398.425; -535.000; -500.000
375.189;   35.525;  -59.000;  -93.000
375.320; -108.175; -928.000;-1034.000
375.450;  -37.800; -625.000; -616.000
375.581;  -18.700; -526.000; -436.000
375.712;  -34.875; -574.000; -250.000
375.842;   85.825; -438.000; -415.000
375.973;   40.075; -554.000; -513.000
376.103;  -69.925; -665.000; -648.000
376.234;  -67.750; -531.000; -552.000
376.364;  -93.450; -944.000; -867.000
376.495;  185.275;  925.000;  529.000
376.625;  -36.000; -472.000; -485.000
376.756;  -18.825; -709.000; -678.000
376.886; -110.975;-1178.000;-1026.000
377.017;   87.750;-1048.000;-1061.000
377.147;  520.275; -786.000; -782.000
377.278;   73.750;  174.000;  228.000
377.408; -109.950; -801.000; -815.000
377.538; -102.875; -707.000; -693.000
377.669;  -78.800; -537.000; -613.000
377.799; -104.650; -645.000; -635.000
377.929;  -62.525; -610.000; -428.000
378.060; -126.475; -781.000; -847.000
378.190;  -28.350; -726.000; -531.000
378.320;  -41.475; -401.000; -406.000
378.451;  -12.375; -131.000;  -22.000
378.581;   -9.450;  -67.000; -110.000
378.711;  121.975; 1035.000;  866.000
378.841;  -54.925; -533.000; -675.000
378.972;  -87.450; -871.000; -751.000
379.102;  -45.075; -652.000; -579.000
379.232;  -17.175; -126.000;  -73.000
379.362; -108.500;-1001.000; -885.000
379.492;  -24.050; -373.000; -424.000
379.623;   78.125;    0.000;  111.000
379.753;  -79.550;-1107.000; -974.000
379.883;  123.150;   59.000;  156.000
380.013;  -43.400;-1081.000;-1017.000
380.143;  -97.125;-1097.000;-1056.000
380.273;  -82.500; -985.000; -861.000
380.403;   39.500; -344.000; -257.000
380.533;    0.500; -651.000; -664.000
380.663;   26.100;  173.000;  128.000
380.793; -138.700;-1027.000;-1074.000
380.923;  -48.025; -103.000;  -34.000
381.053;  -98.050; -613.000; -623.000
381.183;  -44.450; -106.000; -248.000
381.313;  -45.300; -656.000; -470.000
381.443;  -30.150; -692.000; -473.000
381.573;   23.050; -402.000; -409.000
381.703;  -14.350;-1249.000;-1095.000
381.833; -161.000;-1454.000;-1336.000
381.963;   29.200; -134.000;  -87.000
382.093;  634.850; -925.000; -909.000
382.223;  174.200; -713.000; -602.000
382.353;  -77.325; -801.000; -608.000
382.482;  118.500;-1091.000; -964.000
382.612;  346.600; -872.000; -644.000
382.742;  159.500; -695.000; -622.000
382.872;   61.775; -565.000; -551.000
383.002;   22.425;  347.000; -132.000
383.131;  -27.350; -226.000; -160.000
383.261;  -63.400; -706.000; -768.000
383.391;  282.775; -552.000; -377.000
383.521; 3975.400;  451.000;  263.000
383.650; 1134.450; -947.000; -904.000
383.780;   14.975; -783.000; -656.000
383.910;   89.250;  880.000;  802.000
384.039;  -59.900; -794.000; -656.000
384.169;  -13.675;-1205.000;-1017.000
384.299;  -74.750; -650.000; -662.000
384.428; -102.000; -764.000; -680.000
384.558;  -64.000; -308.000; -275.000
384.687;  -61.900; -414.000; -334.000
384.817;   -3.400;   75.000;   -2.000
384.947;  -20.250; -234.000; -141.000
385.076;  206.600;  982.000;  912.000
385.206;   70.625;  369.000;  480.000
385.335;  -57.200; -549.000; -417.000
385.465;  -85.400; -655.000; -663.000
385.594;   53.125;  -53.000;  -44.000
385.724;  168.375; -868.000; -838.000
385.853;   29.875; -296.000; -270.000
385.982;  651.000; -743.000; -787.000
386.112; 1140.175;-1052.000; -871.000
386.241;   67.450; -307.000; -312.000
386.371;   -5.650; -174.000;  -87.000
386.500;  -30.850; -825.000; -789.000
386.629;    5.650; -874.000; -817.000
386.759;   65.850;  -43.000;   68.000
386.888;   -7.350; -170.000; -250.000
387.017;  -88.550; -648.000; -620.000
387.147; -104.500; -771.000; -798.000
387.276;  -38.100; -410.000; -397.000
387.405;  -38.975; -398.000; -342.000
387.535;  -66.150; -452.000; -361.000
387.664;  -56.750; -692.000; -620.000
387.793;   12.950; -198.000; -113.000
387.922;  253.350;  255.000;  200.000
388.052;  -30.875; -576.000; -423.000
388.181;  -34.400; -342.000; -472.000
388.310;  -58.150; -889.000; -710.000
388.439;  -82.850; -749.000; -742.000
388.568;   95.725;  365.000;  244.000
388.697;  522.225; -756.000; -653.000
388.826;   72.175; -768.000; -666.000
388.956;  -11.950; -285.000; -307.000
389.085;  -25.025; -347.000; -287.000
389.214; -110.600; -842.000; -872.000
389.343;  -78.025; -645.000; -413.000
389.472;  470.850;  126.000;  149.000
389.601;  577.800;   91.000;    0.000
389.730;  -24.050; -568.000; -687.000
389.859;   47.100;  226.000;   46.000
389.988;   74.600; -423.000; -408.000
390.117;   73.450; -168.000; -146.000
390.246;  -41.975; -331.000; -320.000
390.375;  -10.950; -673.000; -626.000
390.504;  -79.200; -703.000; -621.000
390.633; -104.425; -672.000; -726.000
390.761; -108.000; -732.000; -645.000
390.890;  -18.425;   -4.000; -130.000
391.019;  -66.650; -421.000; -441.000
391.148; -124.800; -826.000; -855.000
391.277;  -93.575; -576.000; -493.000
391.406;  -89.625; -821.000; -805.000
391.534;   26.025;  574.000; -301.000
391.663;  -79.525; -583.000; -645.000
391.792;  -96.275; -673.000; -701.000
391.921;   18.950;   -3.000;   15.000
392.050;   53.475; -287.000; -228.000
392.178; -108.175;-1206.000;-1061.000
392.307;   27.375; -758.000; -712.000
392.436;   10.750; -427.000; -641.000
392.564;   -4.875;  166.000;   -6.000
392.693; -108.300; -860.000; -682.000
392.822;   71.900; -529.000; -534.000
392.950;   17.250; -880.000; -714.000
393.079;  151.075; -188.000; -328.000
393.208;  -17.650; -488.000; -511.000
393.336;  -19.000; -170.000; -145.000
393.465;  -38.800; -317.000; -199.000
393.593;   -6.350;   62.000;   79.000
393.722; -143.775;-1121.000; -916.000
393.850;  -46.475; -188.000;  -61.000
393.979; -139.850; -926.000; -805.000
394.107;  -79.750; -517.000; -537.000
394.236;  -38.025; -570.000; -507.000
394.364;  125.875;  383.000;  206.000
394.493;  180.300; -911.000; -767.000
394.621;   -5.550; -955.000; -916.000
394.750; 1009.975; -873.000; -923.000
394.878; 4005.750; -247.000; -149.000
395.007; 5795.050; -721.000; -807.000
395.135;  485.475; -790.000; -721.000
395.263;  -67.975;-1038.000;-1040.000
395.392;  -16.950;  -25.000; -107.000
395.520; -108.725; -818.000; -679.000
395.648; -116.250; -865.000; -915.000
395.777;  -45.875; -366.000; -405.000
395.905;  -71.425; -449.000; -564.000
396.033;   19.550;  217.000;  172.000
396.162;  277.650; -399.000; -453.000
396.290;  277.125;  -17.000;   -2.000
396.418;  -16.500; -555.000; -514.000
396.546;  -72.875; -571.000; -466.000
396.674; -125.125; -850.000; -878.000
396.803;  -11.850;  -72.000;  -23.000
396.931;   -9.425; -179.000; -199.000
397.059;  -86.400;-1026.000; -989.000
397.187; -130.975;-1026.000; -975.000
397.315; -142.100; -884.000; -649.000
397.443; -104.275; -592.000; -443.000
397.572;  -96.350; -578.000; -424.000
397.700;  -87.300; -607.000; -614.000
397.828;  -24.150;  120.000;  -90.000
397.956;  -47.350; -508.000; -478.000
398.084;  -43.025; -767.000; -626.000
398.212;   18.900;  137.000;  124.000
398.340;   -6.450;  -56.000;  159.000
398.468;  -30.125; -390.000; -169.000
398.596; -141.425; -993.000; -953.000
398.724; -110.500; -762.000; -767.000
398.852; -160.950;-1024.000; -976.000
398.980;  -72.375; -560.000; -560.000
399.108;  -80.450; -982.000; -735.000
399.236;   -2.050;   13.000;    8.000
399.363;    4.825;  222.000;  196.000
399.491;  -60.450; -404.000; -398.000
399.619;  -96.000; -829.000; -800.000
399.747; -101.800; -859.000; -771.000
399.875;   57.225;  220.000;  234.000
400.003;  -78.375; -359.000; -284.000
400.130;  -83.975; -421.000; -341.000
400.258;  -35.325;  -83.000;   38.000
400.386;  -65.375; -352.000; -168.000
400.514;  -85.200; -526.000; -587.000
400.641; -124.125; -928.000; -802.000
400.769; -150.450; -979.000; -888.000
400.897; -104.375; -838.000; -793.000
401.025;  -45.750; -166.000; -152.000
401.152;   -8.300;  220.000;   38.000
401.280;  -81.500; -430.000; -429.000
401.408; -111.575; -712.000; -576.000
401.535;  -99.350; -735.000; -758.000
401.663; -170.075;-1134.000;-1054.000
401.790; -103.200; -514.000; -525.000
401.918;   33.100;  436.000;  405.000
402.046;  -21.900;  134.000;  122.000
402.173;  -33.350;  -18.000;    7.000
402.301;  -88.100; -519.000; -397.000
402.428;   28.700;  528.000;  383.000
402.556; -153.275;-1188.000; -913.000
402.683;  -36.675;  -20.000;   -1.000
402.811;  -34.975;  -37.000; -206.000
402.938;   -7.725;   20.000;   27.000
403.066;   63.900; -574.000; -558.000
403.193;  200.400;  299.000;  239.000
403.321;  114.625; -396.000; -574.000
403.448;  194.450;   83.000;   27.000
403.575;   69.225;  -90.000;  -46.000
403.703;  -96.625; -732.000; -557.000
403.830;  -65.475; -531.000; -496.000
403.957; -128.400;-1117.000;-1023.000
404.085;    8.475;  -61.000; -172.000
404.212;  114.325;  -50.000;   63.000
404.339;  369.700; -566.000; -306.000
404.467; 7895.325; -612.000; -524.000
404.594; 4926.025; -287.000; -227.000
404.721;  936.650; -869.000; -764.000
404.848;   87.225; -113.000; -202.000
404.976; -100.700; -856.000; -783.000
405.103;  -12.750;  -14.000;  -82.000
405.230;   14.600;  190.000;  226.000
405.357;   59.075;  117.000;   44.000
405.484;  372.775;  -49.000;    5.000
405.612;   98.925; -548.000; -563.000
405.739;  -50.150; -488.000; -243.000
405.866;   95.075;  669.000;  385.000
405.993;  -47.625; -398.000; -102.000
406.120; -158.000; -801.000; -887.000
406.247;  -81.850; -323.000; -342.000
406.374;  156.075;  540.000;  629.000
406.501;  -37.100; -632.000; -702.000
406.628;  -95.325; -621.000; -589.000
406.755; -100.875; -803.000; -620.000
406.882;  -56.700; -228.000; -277.000
407.009; -114.100; -719.000; -628.000
407.136;  -34.750; -480.000; -401.000
407.263;   -6.450; -939.000; -829.000
407.390;  -90.200; -692.000; -614.000
407.517; -173.550;-1139.000;-1187.000
407.644;  -69.700; -332.000; -256.000
407.771;  -73.725; -249.000; -287.000
407.898;  -15.200;  168.000;  328.000
408.025;  -51.875; -421.000; -313.000
408.151;  -13.225;   82.000;  153.000
408.278;  -62.925; -267.000; -216.000
408.405; -135.575; -931.000; -899.000
408.532;  -75.925; -549.000; -542.000
408.659; -114.950; -677.000; -648.000
408.785; -195.400;-1298.000;-1170.000
408.912;  -77.950; -412.000; -296.000
409.039; -108.275; -610.000; -686.000
409.166; -108.650; -591.000; -555.000
409.292; -123.150; -571.000; -534.000
409.419; -123.975; -665.000; -649.000
409.546;  -89.100; -431.000; -192.000
409.672; -116.750; -713.000; -545.000
409.799;  -28.125;  -36.000;   34.000
409.926;  -60.725; -180.000; -179.000
410.052; -174.600;-1127.000;-1091.000
410.179;  -70.400; -368.000; -392.000
410.305;  -90.650; -375.000; -493.000
410.432;  -53.650; -220.000; -333.000
410.558;  -72.825; -305.000; -380.000
410.685; -107.500; -688.000; -431.000
410.812; -107.625; -409.000; -588.000
410.938; -141.900; -964.000; -808.000
411.065; -111.525; -671.000; -645.000
411.191;  -53.550; -189.000; -174.000
411.317; -116.700; -823.000; -742.000
411.444;  -72.725; -317.000; -246.000
411.570;  -80.675; -339.000; -294.000
411.697; -137.325; -758.000; -752.000
411.823; -164.625; -989.000; -999.000
411.949;  -33.200;  -56.000;   17.000
412.076; -103.500; -539.000; -519.000
412.202; -128.300; -758.000; -757.000
412.329; -124.700; -798.000; -752.000
412.455; -122.200; -821.000; -657.000
412.581;   -8.750;  -15.000;  172.000
412.707;  -97.075; -540.000; -457.000
412.834;    6.850;  156.000;  219.000
412.960;  -97.625; -785.000; -784.000
413.086; -105.775; -743.000; -701.000
413.212;  123.450;  604.000;  578.000
413.339;  -77.675; -685.000; -701.000
413.465;  -38.450; -364.000; -310.000
413.591; -100.575; -757.000; -474.000
413.717;  -61.525; -358.000; -366.000
413.843; -127.025; -839.000; -861.000
413.969;  -61.875;  -47.000; -292.000
414.096;  -83.200; -679.000; -679.000
414.222;   -6.300;  -33.000;   85.000
414.348;  -57.225; -652.000; -385.000
414.474;   21.875;   38.000;  -52.000
414.600;  -12.450; -126.000; -144.000
414.726;  -10.925;  -96.000;  -55.000
414.852;  -41.425; -365.000; -342.000
414.978;   28.225;  104.000;  -18.000
415.104;   58.600;   38.000;   80.000
415.230;   36.900; -329.000; -330.000
415.356;   56.350; -409.000; -514.000
415.482;  224.125;   13.000;  -35.000
415.608;  368.700; -247.000; -323.000
415.734; 1283.575;   67.000;   38.000
415.860;26242.750; -875.000; -767.000
415.986;21335.200; -685.000; -607.000
416.111; 1956.200; -798.000; -652.000
416.237;  411.225; -424.000; -571.000
416.363; 1461.125; -765.000; -733.000
416.489; 5930.550; -324.000; -251.000
416.615;  786.275; -707.000; -742.000
416.741;   21.400; -677.000; -784.000
416.866;  -60.625; -673.000; -736.000
416.992; -113.125; -801.000; -818.000
417.118;  -11.600;  -41.000;  -80.000
417.244;  -85.225; -798.000; -531.000
417.369;  -85.450; -801.000; -612.000
417.495;  -10.200; -325.000; -254.000
417.621;  -85.900;-1015.000; -803.000
417.746;   -3.275; -579.000; -572.000
417.872;   76.825; -254.000; -144.000
417.998;  107.225; -515.000; -530.000
418.123; 1387.975;-1073.000; -845.000
418.249; 7573.825; -512.000; -601.000
418.374; 1270.850; -916.000; -824.000
418.500;  194.325; -383.000; -482.000
418.626;  155.975;   70.000;  -59.000
418.751;  134.350; -549.000; -448.000
418.877;  278.975; -637.000; -643.000
419.002; 2310.975; -688.000; -560.000
419.128;17222.575; -930.000; -721.000
419.253; 4725.400; -967.000; -837.000
419.379;  668.400; -391.000; -338.000
419.504;  497.975;  325.000;  415.000
419.629;  709.025; -393.000; -212.000
419.755; 4535.400; -317.000; -254.000
419.880;29645.550;  -98.000;   67.000
420.006;15392.350; -280.000; -221.000
420.131;39350.325; -662.000; -775.000
420.256; 6235.250; -315.000; -316.000
420.382;  842.575; -665.000; -687.000
420.507;  137.575; -649.000; -778.000
420.632;   87.125; -337.000; -339.000
420.758;  123.975; -251.000; -425.000
420.883;  -84.500; -876.000; -672.000
421.008; -102.450; -775.000; -619.000
421.133;  -70.875; -509.000; -467.000
421.259;  -55.050; -325.000; -259.000
421.384; -114.200; -834.000; -693.000
421.509;  -95.200;-1052.000; -862.000
421.634;  551.500; -936.000; -820.000
421.759;  263.650; -359.000; -327.000
421.885;  -72.375; -717.000; -656.000
422.010;  -88.575; -673.000; -542.000
422.135; -145.225; -695.000; -727.000
422.260;    5.800;  340.000;  280.000
422.385;  -45.925;   12.000;  -98.000
422.510;   -8.350;  151.000;  -26.000
422.635;  -13.325;  -87.000;  -43.000
422.760;   12.025; -766.000; -791.000
422.885;   35.675;  -57.000;  -80.000
423.010;  -34.550; -112.000; -169.000
423.135;  -91.525; -481.000; -561.000
423.260;  -18.300; -150.000; -245.000
423.385;   27.275;  476.000;  222.000
423.510;   -1.850;   71.000;  -22.000
423.635;   20.325;  133.000;   45.000
423.760;   52.225;  383.000;  328.000
423.885;   45.950;  336.000;  391.000
424.010;   -7.950;  -68.000;  -13.000
424.135;  -21.850;    5.000;  -33.000
424.259;  -87.175; -654.000; -457.000
424.384;  -53.750; -279.000; -272.000
424.509;  -28.150; -260.000; -186.000
424.634;  -89.875; -761.000; -623.000
424.759;  -35.275; -688.000; -544.000
424.883;    4.575; -506.000; -527.000
425.008;  177.325; -502.000; -410.000
425.133; 2571.250; -679.000; -653.000
425.258; 1354.525; -517.000; -381.000
425.382;  689.675; -867.000; -774.000
425.507; 1727.600; -487.000; -543.000
425.632;  406.925; -802.000; -663.000
425.756;  584.825; -256.000; -146.000
425.881; 8210.550; -831.000; -857.000
426.006;24923.775; -604.000; -355.000
426.130; 4125.375; -696.000; -508.000
426.255;  533.225; -611.000; -491.000
426.379;  248.525; -189.000; -577.000
426.504;  482.800;  660.000;  544.000
426.629; 5495.250; -519.000; -466.000
426.753; 4221.175;   64.000;  -46.000
426.878;  527.975; -252.000; -288.000
427.002;  285.525; -651.000; -668.000
427.127; 1894.500;  -35.000; -158.000
427.251;15211.300;  372.000;  401.000
427.375; 4922.750; -191.000; -173.000
427.500; 1699.925; -616.000; -610.000
427.624;  587.325; -234.000; -400.000
427.749;  119.100; -216.000; -225.000
427.873;    7.575; -499.000; -412.000
427.997;  -49.550; -222.000; -230.000
428.122;   61.050;  795.000;  703.000
428.246;   37.250;  433.000;  434.000
428.371; -116.750; -869.000; -773.000
428.495; -112.400; -624.000; -646.000
428.619;  -34.950; -186.000; -117.000
428.743;    7.350;   65.000;  132.000
428.868;  -50.100; -732.000; -643.000
428.992;  787.025; -219.000; -326.000
429.116;  351.000; -329.000; -357.000
429.240;  186.025;  419.000;  426.000
429.365;  -27.375; -454.000; -574.000
429.489;  -55.550; -638.000; -647.000
429.613;   30.025; -236.000; -177.000
429.737;   67.175; -563.000; -432.000
429.861;  353.475; -247.000; -133.000
429.985; 7199.675; -425.000; -305.000
430.109; 9063.625; -770.000; -908.000
430.234; 1092.225;   76.000;  -50.000
430.358;  135.525; -250.000; -160.000
430.482;  -51.900; -672.000; -564.000
430.606;  -70.200; -655.000; -375.000
430.730;  -45.375; -437.000; -388.000
430.854;  -30.450; -909.000; -835.000
430.978;  -81.425; -795.000; -764.000
431.102;  -79.200; -499.000; -422.000
431.226; -123.350; -874.000; -815.000
431.350;   29.300;  345.000;  422.000
431.474;  -89.900; -661.000; -373.000
431.597; -164.700;-1060.000; -848.000
431.721;  -84.175; -276.000; -267.000
431.845; -124.600; -704.000; -472.000
431.969;  -77.775; -304.000; -349.000
432.093;  -89.350; -395.000; -317.000
432.217;  -14.200;   32.000;   82.000
432.341;  -76.600; -523.000; -518.000
432.464;  -13.100;   96.000;   40.000
432.588;   29.975; -401.000; -329.000
432.712;   27.900;  -52.000;  -52.000
432.836;   49.950;  213.000;  263.000
432.959;    1.950; -372.000; -311.000
433.083;  141.050;   11.000;    2.000
433.207;  503.875;  285.000;  930.000
433.330; 6717.775; -391.000; -200.000
433.454; 9221.200; -654.000; -638.000
433.578; 5194.700;  583.000;  278.000
433.701; 1104.175; -623.000; -675.000
433.825;  163.225; -292.000; -299.000
433.949;   80.100;   28.000;  -72.000
434.072;   13.275; -410.000; -323.000
434.196;  -17.750; -309.000; -117.000
434.319; 3522.000;25482.000;25124.000
434.443;  800.175; -656.000; -603.000
434.566; 3588.150;  281.000;   62.000
434.690;  734.275; -637.000; -383.000
434.813;  147.925; -251.000; -173.000
434.937;  -43.000; -569.000; -696.000
435.060;  -66.425; -423.000; -332.000
435.184;   72.800; -492.000; -217.000
435.307;   69.175;  159.000;  102.000
435.431;  -29.050;  -40.000;   24.000
435.554;  -85.350; -399.000; -240.000
435.677;  -85.375; -350.000; -258.000
435.801;  -47.000;  -25.000;   49.000
435.924;  -28.425;    1.000;  -67.000
436.048; -141.025;-1019.000; -732.000
436.171;  -76.600; -240.000;  -66.000
436.294;  -12.875; -248.000; -229.000
436.417;  163.300; -963.000; -849.000
436.541;  -31.675; -814.000; -840.000
436.664;  -52.600; -242.000; -316.000
436.787;  -19.150;   13.000;  113.000
436.910; -113.325; -792.000; -422.000
437.034;   -2.100;  142.000;  143.000
437.157;   27.550;  -11.000;    0.000
437.280;  -54.250; -392.000; -292.000
437.403; -120.025; -982.000; -869.000
437.526;  239.500; -903.000; -865.000
437.649; 1238.750; -505.000; -332.000
437.772;  147.800; -692.000; -540.000
437.896;   88.575;  700.000;  544.000
438.019;  -87.625; -758.000; -503.000
438.142; -114.975; -596.000; -506.000
438.265;  -83.000; -639.000; -670.000
438.388;  156.150; -520.000; -410.000
438.511;  -14.900; -597.000; -394.000
438.634;  -67.625; -247.000; -125.000
438.757; -128.550; -693.000; -619.000
438.880;  -53.650;  -34.000;  -57.000
439.003;  -84.700; -417.000; -437.000
439.126;  -77.725; -287.000; -167.000
439.248;  -62.125;  -98.000; -139.000
439.371;  -68.025;    9.000;  -53.000
439.494;    4.950;  510.000;  439.000
439.617;  -57.350;   65.000;  -88.000
439.740; -164.750; -968.000; -816.000
439.863; -143.400; -755.000; -595.000
439.986; -115.325; -476.000; -431.000
440.108;  -36.075; -161.000; -112.000
440.231; -154.700; -950.000; -836.000
440.354;  -60.350;  -64.000; -150.000
440.477;  -79.825; -566.000; -542.000
440.599;  -65.975; -200.000; -225.000
440.722; -124.025; -709.000; -586.000
440.845;   66.975;  751.000;  928.000
440.968;  -97.675; -415.000; -311.000
441.090;  -73.275; -199.000;  -33.000
441.213; -175.725;-1021.000; -825.000
441.336;  -66.575; -159.000;   -5.000
441.458;  -88.800; -549.000; -396.000
441.581; -120.950; -628.000; -629.000
441.703;  -89.675; -152.000;   13.000
441.826; -122.675; -557.000; -400.000
441.948;  -50.225;   56.000;   51.000
442.071;   13.075;  555.000;  424.000
442.193; -119.125; -531.000; -485.000
442.316;   -9.325;  152.000;   97.000
442.438;   67.825; -233.000;  -10.000
442.561;   69.850;  272.000;  262.000
442.683;  228.575; -809.000; -522.000
442.806;  635.325;   -8.000;   74.000
442.928;  -40.200; -859.000; -604.000
443.051;  -79.475; -577.000; -373.000
443.173;  -81.800; -341.000; -339.000
443.295; -102.375; -263.000; -371.000
443.418;  -61.325; -321.000;  -29.000
443.540;  -34.350; -106.000;   -4.000
443.662; -121.650; -563.000; -465.000
443.785;  -25.700;  335.000;  199.000
443.907;  -89.100; -362.000; -208.000
444.029; -129.050; -767.000; -494.000
444.152; -128.925; -644.000; -554.000
444.274;  -46.125;  -18.000;  -24.000
444.396; -114.500; -461.000; -221.000
444.518; -131.625; -691.000; -454.000
444.640; -100.275; -268.000; -111.000
444.763;  -26.250;  388.000;  249.000
444.885; -109.300; -432.000; -392.000
445.007;  -31.750;   35.000;   86.000
445.129; -132.000; -610.000; -515.000
445.251; -109.475; -372.000; -439.000
445.373; -151.150; -537.000; -386.000
445.495;  -16.450;  242.000;  350.000
445.617;   53.000;  853.000;  753.000
445.739;  -82.450; -215.000;  -97.000
445.861;  -47.175; -245.000; -112.000
445.984;  -55.525; -267.000; -101.000
446.105;   45.450; -418.000; -251.000
446.227;  285.050; -176.000;  -19.000
446.349;  -39.375; -358.000; -249.000
446.471; -123.475; -615.000; -448.000
446.593;  -71.700; -316.000;   19.000
446.715;  -36.400;  -67.000;   41.000
446.837;   56.175;  697.000;  832.000
446.959; -110.925; -457.000; -478.000
447.081; -150.650; -628.000; -518.000
447.203;   37.650;  862.000;  834.000
447.325;  -77.450; -270.000;   42.000
447.446;  -15.750;  286.000;  530.000
447.568; -146.625; -921.000; -803.000
447.690;  -81.925; -236.000; -245.000
447.812; -142.450; -798.000; -519.000
447.933;  -39.475;  155.000;  127.000
448.055;  -82.450; -306.000; -261.000
448.177;   44.550;   31.000;   79.000
448.299;  -36.825; -935.000; -727.000
448.420;   -6.650;  -25.000;  159.000
448.542;  -60.125;   -3.000;   33.000
448.664;  -33.025;  109.000;  322.000
448.785;  -55.250;  265.000;   83.000
448.907;  -99.925; -614.000; -353.000
449.028;  -88.150; -771.000; -471.000
449.150;   22.025;  492.000;  589.000
449.272; -161.100;-1044.000; -913.000
449.393;   14.125;  612.000;  694.000
449.515; -147.600; -634.000; -581.000
449.636;  -84.925; -264.000; -155.000
449.758;   50.350;  763.000;  622.000
449.879;  -90.725; -498.000; -396.000
450.001;  -83.725; -149.000;  -49.000
450.122;  -56.500;  -95.000;  162.000
450.244;  -34.025;   37.000;  364.000
450.365;  -91.225; -495.000; -301.000
450.486;   -2.500;   80.000;  268.000
450.608;   31.950;  393.000;  326.000
450.729;   82.725;  578.000;  645.000
450.850;   75.450; -574.000; -466.000
450.972; 1024.850; -552.000; -389.000
451.093; 6833.100;  190.000;  588.000
451.214; 3474.475; -516.000; -337.000
451.336;  597.100;  773.000;  579.000
451.457;   93.050;  264.000;  393.000
451.578;  -40.250; -118.000;  -74.000
451.699; -107.675; -546.000; -540.000
451.821;  -71.025; -284.000;  -50.000
451.942;   19.225;  278.000;  285.000
452.063;   30.525;  228.000;  419.000
452.184;  707.625;  -54.000;  -49.000
452.305; 1525.075;  103.000;  170.000
452.427;  269.575; -549.000; -301.000
452.548;   -5.825;   23.000;   79.000
452.669;  -64.850; -257.000;  -89.000
452.790;  -63.450;    3.000;  -18.000
452.911;  -11.700;  195.000;  259.000
453.032;  -88.450; -289.000;  -60.000
453.153;  -47.150;  -29.000;   81.000
453.274;   33.275;  737.000;  868.000
453.395;  -66.400;  -51.000;  175.000
453.516;   93.800; 1317.000; 1388.000
453.637;  -88.350; -205.000; -150.000
453.758;  -54.275;   15.000;   69.000
453.879; -109.175; -462.000; -250.000
454.000;   63.350; 1086.000;  948.000
454.121; -119.150; -554.000; -326.000
454.242; -123.475; -599.000; -383.000
454.362;  -52.175;  -99.000;  114.000
454.483;  -19.675; -309.000; -229.000
454.604;   75.975;  512.000;  580.000
454.725; -123.150; -627.000; -555.000
454.846; -117.550; -474.000; -406.000
454.967;  -23.500;  230.000;  539.000
455.087;  -46.250;  179.000;  153.000
455.208;    7.950;  554.000;  856.000
455.329;  -58.875;  -22.000;   82.000
455.450;   36.975;  473.000;  633.000
455.570;  -78.075; -234.000; -211.000
455.691;  -43.200;  201.000;  407.000
455.812; -101.250; -270.000;  -92.000
455.932;  -72.775;  107.000;  -97.000
456.053;  -75.400;   36.000;   24.000
456.173; -113.400; -433.000; -355.000
456.294; -116.825; -476.000; -303.000
456.415;  -57.125;  -73.000;   70.000
456.535;  -45.825;  297.000;  273.000
456.656;  -49.900;  132.000;  240.000
456.776;  -65.075;    3.000;  298.000
456.897;  -36.650;  308.000;  513.000
457.017;  -78.575; -153.000;   -3.000
457.138; -109.125; -402.000; -249.000
457.258;  -32.900;  263.000;  224.000
457.379;  -14.525;  509.000;  521.000
457.499;  -43.875;  443.000;  432.000
457.620; -127.975; -407.000; -231.000
457.740;  -92.650; -132.000;  -11.000
457.860;  -66.600;   87.000;   44.000
457.981;  -31.975;  132.000;  124.000
458.101;  -79.025;  -89.000;   40.000
458.221;  -24.875;  336.000;  402.000
458.342;  -60.675;   -4.000;  -37.000
458.462;   28.125;  617.000;  352.000
458.582;  -17.650; -302.000; -294.000
458.703;   24.650;  303.000;  154.000
458.823;  -15.350;   22.000;  163.000
458.943;   43.900;  341.000;  467.000
459.063;   15.475; 1124.000;  192.000
459.183;  -26.925;  328.000;  313.000
459.304;   11.375;  315.000;  517.000
459.424;  -54.900; -246.000;  -89.000
459.544;  418.875;  388.000;  764.000
459.664; 1163.925;  499.000;  506.000
459.784;  447.100; 1004.000; 1175.000
459.904;   80.750;  867.000;  744.000
460.024;   60.850;  867.000;  684.000
460.144;   -6.000;  449.000;  554.000
460.264;  -13.775;  515.000;  327.000
460.385;  -82.725; -145.000; -119.000
460.505;   28.075;  905.000;  858.000
460.625;  -82.450;  -17.000;  -68.000
460.745;  -22.625;  396.000;  541.000
460.864;  -35.675;  153.000;  469.000
460.984;   42.100;  499.000;  573.000
461.104;  150.500; 1656.000; 1775.000
461.224;   20.825;  657.000;  650.000
461.344;  -36.325;  431.000;  360.000
461.464;  -49.625;  258.000;  513.000
461.584;  -30.350;  283.000;  466.000
461.704;  -69.875;   58.000;  108.000
461.824;  -57.625;  238.000;  259.000
461.943;  -58.825;  191.000;  130.000
462.063;  -81.725;    2.000;  324.000
462.183;   21.550;  639.000;  717.000
462.303;  106.350; 1678.000; 1230.000
462.422;   16.600;  781.000;  840.000
462.542;  -47.675;  271.000;  391.000
462.662;   29.225;  353.000;  380.000
462.782;  296.850;  833.000;  572.000
462.901;  660.375;  545.000;  717.000
463.021;  382.925; 1702.000; 1638.000
463.141;    8.375;  337.000;  770.000
463.260;  -10.875;  614.000;  474.000
463.380;    7.250;  902.000;  884.000
463.499;  -31.850;  342.000;  332.000
463.619;  -23.800;  581.000;  559.000
463.738;  111.175; 1644.000;  903.000
463.858;   16.800;  657.000;  811.000
463.978;  -29.325;  542.000;  396.000
464.097;   40.375;  921.000; 1114.000
464.217;  131.725; 1196.000; 1143.000
464.336;  133.600; 1068.000; 1130.000
464.455;  -20.500;  328.000;  659.000
464.575;    8.975;  597.000;  602.000
464.694;  142.800; 1204.000; 1179.000
464.814;  133.425; 1190.000; 1138.000
464.933;   67.275; 1095.000; 1027.000
465.052;   79.825; 1412.000; 1054.000
465.172;   73.225;  922.000;  799.000
465.291;  115.175; 1376.000; 1320.000
465.410;   22.250;  462.000;  735.000
465.530;   69.950; 1355.000; 1310.000
465.649;   54.100; 1209.000; 1273.000
465.768;  135.275; 1673.000; 1508.000
465.888;   74.500;  941.000; 1174.000
466.007;   83.975; 1335.000; 1440.000
466.126;    7.725;  721.000;  641.000
466.245;   45.075; 1176.000; 1187.000
466.364;   34.225;  950.000; 1060.000
466.484;   50.700; 1024.000; 1213.000
466.603;   41.975; 1101.000; 1222.000
466.722;  112.950; 1490.000; 1769.000
466.841;   62.025; 1151.000; 1401.000
466.960;   25.825; 1069.000;  972.000
467.079;  113.875; 1971.000; 1786.000
467.198;   38.550; 1238.000; 1181.000
467.317;   92.750; 1768.000; 1162.000
467.436;   58.175; 1709.000; 1261.000
467.555;  114.650; 1796.000; 1746.000
467.674;   53.375; 1227.000; 1329.000
467.793;   59.200; 1376.000; 1374.000
467.912;   82.300; 1658.000; 1539.000
468.031;  120.875; 2038.000; 1930.000
468.150;  130.175; 1842.000; 1837.000
468.269;  196.025; 2313.000; 2090.000
468.388;  176.475; 2168.000; 2339.000
468.507;  253.600; 2884.000; 2903.000
468.626;  251.025; 2555.000; 2541.000
468.744;  141.850; 2018.000; 2174.000
468.863;  192.775; 2312.000; 2523.000
468.982;  105.200; 1503.000; 1555.000
469.101;  214.425; 2788.000; 2692.000
469.220;  147.800; 2333.000; 2176.000
469.338;  238.625; 2935.000; 3051.000
469.457;  209.525; 2719.000; 2545.000
469.576;  331.500; 3953.000; 3784.000
469.695;  230.075; 2877.000; 3066.000
469.813;  414.325; 4148.000; 4192.000
469.932;  414.925; 4255.000; 4485.000
470.051;  414.500; 4075.000; 4161.000
470.169;  975.400; 4470.000; 4338.000
470.288; 1855.175; 4700.000; 4809.000
470.406; 1116.575; 5059.000; 5194.000
470.525;  648.450; 6101.000; 5787.000
470.644;  648.500; 6847.000; 6794.000
470.762;  775.775; 8397.000; 7873.000
470.881;  897.175; 8651.000; 8464.000
470.999; 1064.700; 9685.000; 9151.000
471.118; 1118.725;11174.000;10711.000

