
Integration time [ms]: 200.000
Averaging Nr. [scans]: 10
Smoothing Nr. [pixels]: 0
Data measured with spectrometer [name]: 2101012U2
Wave   ;Sample   ;Dark     ;Reference
[nm]   ;[counts] ;[counts] ;[counts] 

197.733;  151.800;  516.000;  404.000
197.879; -147.400; -610.000; -634.000
198.025;  -76.100; -475.000; -420.000
198.171; -133.800; -602.000; -612.000
198.317;  -48.100; -401.000; -316.000
198.463; -118.400; -655.000; -404.000
198.609;   84.100;  181.000; -137.000
198.755; -160.100; -644.000; -410.000
198.901; -130.800; -505.000; -424.000
199.047; -138.800; -615.000; -488.000
199.193;  -87.100; -230.000; -468.000
199.339; -122.600; -222.000; -369.000
199.485;   97.000;  330.000;  271.000
199.631;   43.600;  227.000;  310.000
199.777;  -78.700; -466.000; -398.000
199.923; -140.800; -610.000; -424.000
200.069;   -2.800; -141.000;  -58.000
200.215;  123.300;  128.000;  453.000
200.361;   88.700;  243.000;  477.000
200.507; -124.900; -600.000; -373.000
200.653;  -58.900; -371.000; -194.000
200.798;  -60.000; -215.000; -125.000
200.944;   -4.600; -146.000;  -41.000
201.090;   76.500;   61.000;  222.000
201.236;   28.300; -116.000; -158.000
201.382;  264.900;  874.000;  903.000
201.528;    5.100;  -58.000;  -48.000
201.674; -128.800; -386.000; -293.000
201.819; -150.100; -540.000; -439.000
201.965; -150.700; -699.000; -447.000
202.111;  -42.800; -273.000; -226.000
202.257;  -61.000; -250.000; -238.000
202.402;   41.800;   13.000;  -36.000
202.548;  -46.500; -169.000; -116.000
202.694;  192.000;  410.000; -183.000
202.840; -152.800; -603.000; -531.000
202.985; -136.900; -681.000; -639.000
203.131; -216.100; -832.000; -666.000
203.277;  -33.400; -199.000; -262.000
203.423;  -98.300; -434.000; -520.000
203.568;  -64.700; -462.000; -237.000
203.714; -130.400; -535.000; -542.000
203.860; -172.600; -682.000; -641.000
204.005;   24.000;  112.000;  167.000
204.151;  167.300;  561.000;  556.000
204.296; -112.700; -354.000; -221.000
204.442; -136.500; -600.000; -547.000
204.588; -143.600; -592.000; -579.000
204.733;   73.000;  178.000;  168.000
204.879; -256.200;-1018.000; -822.000
205.025;   18.600;  -99.000;  126.000
205.170;   18.500;  -17.000;   94.000
205.316;  160.800;  438.000;  661.000
205.461; -182.200; -698.000; -554.000
205.607;  210.300;  609.000;  665.000
205.752; -158.000; -626.000; -551.000
205.898; -100.400; -501.000; -391.000
206.043; -149.700; -578.000; -506.000
206.189;  -36.000; -243.000; -285.000
206.334;  175.800;  554.000;  606.000
206.480;  206.200;  409.000;  239.000
206.625; -161.500; -529.000; -552.000
206.771;  -92.000; -451.000; -373.000
206.916;  -91.100; -210.000; -537.000
207.062; -139.300; -545.000; -591.000
207.207; -111.800; -546.000; -443.000
207.353;  112.500;  185.000;  460.000
207.498;   32.000;  196.000;   85.000
207.643; -107.300; -501.000; -370.000
207.789; -293.400;-1069.000; -910.000
207.934; -215.900; -665.000; -713.000
208.080;  -57.600; -154.000;   66.000
208.225;   22.000;  -22.000;  -57.000
208.370; -194.400; -727.000; -619.000
208.516; -177.400; -741.000; -487.000
208.661;  -69.300; -127.000;  -69.000
208.806;  -32.400; -165.000; -171.000
208.952; -254.300;-1044.000; -731.000
209.097;  155.400;  378.000;  349.000
209.242;  -98.700; -307.000; -382.000
209.387;  141.600;  392.000;  350.000
209.533;  -87.900; -321.000; -350.000
209.678;  154.700;  472.000;  543.000
209.823; -106.000; -408.000; -310.000
209.969; -196.000; -860.000; -757.000
210.114; -232.000; -907.000; -719.000
210.259; -214.200; -939.000; -889.000
210.404;  -17.900; -171.000;  103.000
210.549;   42.000;  108.000;    3.000
210.695;   -3.400;   -3.000;  -95.000
210.840;  100.900;   94.000;   67.000
210.985; -137.200; -484.000; -303.000
211.130;  171.700;  268.000;  406.000
211.275;   32.400;  207.000;  199.000
211.420; -111.000; -300.000; -289.000
211.566; -148.600; -536.000; -489.000
211.711;   48.800;  218.000;  157.000
211.856; -119.200; -545.000; -519.000
212.001;   39.200;  151.000;   44.000
212.146;   28.200;  153.000;   49.000
212.291;  -22.500; -210.000; -186.000
212.436;  -71.600; -280.000;   -6.000
212.581; -146.500; -685.000; -653.000
212.726; -145.000; -487.000; -538.000
212.871;  -71.400; -552.000; -217.000
213.016; -319.300;-1172.000;-1029.000
213.161;  126.100;  406.000;  291.000
213.306; -175.000; -435.000; -577.000
213.451; -180.200; -778.000; -689.000
213.596; -112.200; -455.000; -347.000
213.741; -101.400; -448.000; -538.000
213.886; -177.100; -498.000; -517.000
214.031;  -39.800; -294.000; -124.000
214.176; -131.500; -408.000; -341.000
214.321;  -13.500; -296.000; -157.000
214.466;  -53.800; -163.000;  -43.000
214.611;   17.400;  -61.000;  -10.000
214.756; -259.800; -948.000; -858.000
214.901;  -45.400; -388.000; -226.000
215.046; -244.500; -797.000; -825.000
215.191;   59.800;  128.000;   35.000
215.336;  -40.100; -157.000;  -19.000
215.480; -127.900; -684.000; -505.000
215.625;  -24.500; -175.000;  -19.000
215.770; -156.700; -757.000; -662.000
215.915;   -1.000;   -5.000;  -97.000
216.060;   38.600; -113.000;  -21.000
216.205; -235.900; -731.000; -779.000
216.349; -116.300; -470.000; -533.000
216.494; -290.100; -939.000; -867.000
216.639; -219.300; -823.000; -888.000
216.784; -155.400; -577.000; -525.000
216.929;  136.200;  392.000;  281.000
217.073;  -36.200; -244.000;  -31.000
217.218;   55.800;   78.000;  -47.000
217.363; -171.000; -656.000; -618.000
217.507; -152.200; -623.000; -588.000
217.652; -249.100; -845.000; -874.000
217.797; -179.100; -708.000; -659.000
217.942; -233.200; -856.000; -720.000
218.086;  180.000;  608.000;  539.000
218.231;  -41.000; -174.000;  -26.000
218.376;  -52.200; -337.000; -229.000
218.520;   -9.600;  -41.000;   96.000
218.665;  -70.000; -338.000; -204.000
218.810;  -87.600; -275.000; -233.000
218.954;   72.600;  201.000;   35.000
219.099; -203.200; -713.000; -963.000
219.243; -146.500; -589.000; -554.000
219.388;  -48.900; -264.000; -136.000
219.532;  -16.700; -116.000; -116.000
219.677; -152.200; -564.000; -521.000
219.822;   -0.400;   33.000;   89.000
219.966;   36.400;   17.000;  -99.000
220.111;  -46.900; -328.000;  -40.000
220.255; -197.800; -797.000; -750.000
220.400;  -43.000; -180.000; -146.000
220.544; -115.700; -516.000; -450.000
220.689; -110.200; -422.000; -451.000
220.833;  -25.400; -123.000;  -58.000
220.978;  -79.500; -393.000; -563.000
221.122;   49.100;  319.000;  307.000
221.267; -225.500; -906.000; -837.000
221.411; -123.000; -478.000; -394.000
221.555;   -3.800; -104.000;  -23.000
221.700;  -92.300; -329.000; -222.000
221.844;  122.000;  255.000;  272.000
221.989; -102.300; -328.000; -311.000
222.133;  -47.000; -289.000; -307.000
222.277;  -19.700;    5.000;   78.000
222.422;   78.900;  227.000;  113.000
222.566;  -83.400; -381.000; -214.000
222.711;  -91.100; -414.000; -479.000
222.855; -147.600; -643.000; -586.000
222.999; -160.300; -642.000; -717.000
223.144;  -46.000; -195.000; -194.000
223.288;  154.100;  423.000;  251.000
223.432;   10.500;  184.000;  230.000
223.576;   56.400;  152.000;  -21.000
223.721;   83.900;  364.000;  273.000
223.865;  -97.000; -472.000; -475.000
224.009;  457.900; 1673.000; 1631.000
224.153; -130.000; -660.000; -671.000
224.298; -130.000; -531.000; -489.000
224.442;  -14.500;  -74.000;  -33.000
224.586;   -4.200; -169.000; -106.000
224.730; -184.100; -858.000; -670.000
224.875; -238.900; -739.000; -688.000
225.019;   15.000;  102.000;  188.000
225.163;   99.600;  208.000;  341.000
225.307;   70.500;   97.000;  -91.000
225.451;  123.800;  360.000;  481.000
225.595;   88.200;  264.000;  176.000
225.739;  -28.900; -170.000;  -94.000
225.884;   14.800;   86.000;    5.000
226.028; -230.200; -760.000; -626.000
226.172;  -41.300; -260.000; -273.000
226.316; -245.400; -941.000; -902.000
226.460; -131.500; -645.000; -493.000
226.604; -120.300; -406.000; -400.000
226.748; -193.600; -836.000; -733.000
226.892;  -83.900; -227.000; -181.000
227.036;  -74.100; -537.000; -447.000
227.180; -108.800; -551.000; -375.000
227.324; -117.700; -561.000; -580.000
227.468; -234.700; -819.000; -717.000
227.612;   57.000;  242.000;  -28.000
227.756; -178.100; -845.000; -698.000
227.900;  148.300;  342.000;  441.000
228.044; -103.900; -509.000; -290.000
228.188;  144.800;  448.000;  568.000
228.332; -173.200; -546.000; -472.000
228.476;  -26.800; -223.000; -149.000
228.620;  -94.700; -210.000; -150.000
228.764;  176.600;  431.000;  349.000
228.908;  -32.900; -155.000;   30.000
229.052; -114.000; -615.000; -528.000
229.195;  -11.100; -172.000;   13.000
229.339;  -35.800; -235.000; -305.000
229.483;  -76.500;    5.000; -162.000
229.627;   24.300; -156.000;  139.000
229.771; -124.700; -218.000; -294.000
229.915;   45.800;  230.000;   79.000
230.059; -174.700; -648.000; -663.000
230.202;  -61.600; -370.000; -317.000
230.346;  -40.500; -107.000;  107.000
230.490; -115.800; -489.000; -521.000
230.634; -216.100; -736.000; -553.000
230.777;  198.800;  478.000;  509.000
230.921; -132.500; -450.000; -359.000
231.065; -102.200; -246.000; -286.000
231.209;   55.000;  261.000;  265.000
231.352;   58.500;   54.000;   40.000
231.496;   53.200;  568.000;  188.000
231.640; -166.100; -693.000; -621.000
231.783;  118.600;  546.000;  525.000
231.927;  -71.600; -294.000; -365.000
232.071; -231.600; -962.000; -736.000
232.214; -203.900; -980.000; -764.000
232.358; -190.000; -683.000; -599.000
232.502;   14.700;  -19.000;    7.000
232.645; -276.200;-1090.000; -927.000
232.789;  -27.400; -257.000; -218.000
232.933;  -80.600; -407.000; -224.000
233.076; -225.100;-1038.000; -897.000
233.220; -233.900; -752.000; -777.000
233.363; -126.700; -669.000; -477.000
233.507;  120.200;  371.000;  129.000
233.650; -190.700; -764.000; -834.000
233.794;  120.800;  438.000;  461.000
233.938; -101.900; -530.000; -362.000
234.081;  -26.200;  -93.000;   31.000
234.225; -148.900; -631.000; -539.000
234.368; -241.300; -773.000; -723.000
234.512;  -77.400; -385.000; -299.000
234.655; -183.900; -582.000; -555.000
234.798;  -77.500; -493.000; -466.000
234.942; -280.600; -884.000;-1002.000
235.085; -125.400; -651.000; -443.000
235.229; -126.800; -405.000; -410.000
235.372;  -73.100; -247.000; -191.000
235.516; -127.700; -397.000; -321.000
235.659;   58.300;   92.000;  121.000
235.802;   -8.600;  -38.000;  -22.000
235.946;   77.000;  335.000;  215.000
236.089;   73.200;  126.000;  250.000
236.233;  106.700;  275.000;  298.000
236.376;  -53.400; -235.000; -378.000
236.519;  -71.900; -297.000; -319.000
236.663;  -48.000; -215.000; -117.000
236.806; -256.000;-1029.000; -999.000
236.949;  147.400;  543.000;  431.000
237.092;  146.700;  412.000;  391.000
237.236; -198.600; -589.000; -502.000
237.379;  165.100;  352.000;  428.000
237.522; -239.100; -879.000; -768.000
237.666;  -19.400; -271.000;   18.000
237.809; -265.500; -851.000; -823.000
237.952;   83.800;  469.000;  271.000
238.095; -147.100; -447.000; -442.000
238.238;  190.500;  688.000;  700.000
238.382;   -3.800;  166.000;  103.000
238.525; -119.500; -598.000; -511.000
238.668; -283.800;-1060.000; -985.000
238.811; -131.300; -638.000; -643.000
238.954; -125.000; -483.000; -334.000
239.097;  231.500;  617.000;  664.000
239.241;   51.800;  394.000;  326.000
239.384;  -35.500; -254.000; -214.000
239.527;  -79.700; -424.000; -224.000
239.670; -266.100; -994.000;-1091.000
239.813; -193.000; -696.000; -658.000
239.956;  197.000;  579.000;  473.000
240.099; -223.200; -778.000; -725.000
240.242;  192.100;  428.000;  432.000
240.385;  147.900;  466.000;  450.000
240.528; -118.100; -706.000; -473.000
240.671;   27.500;  189.000;  134.000
240.814;  -37.800; -441.000; -158.000
240.957; -191.700; -767.000; -578.000
241.100; -165.300; -779.000; -755.000
241.243; -285.000;-1234.000; -893.000
241.386; -115.600; -508.000; -379.000
241.529; -155.900; -735.000; -547.000
241.672;  -93.400; -566.000; -495.000
241.815; -249.800; -832.000; -808.000
241.958;  -44.900; -125.000; -182.000
242.101; -173.400; -545.000; -390.000
242.244;  -49.900; -270.000; -325.000
242.387;  -62.200; -304.000; -246.000
242.530;  141.100;  470.000;  134.000
242.673;  -63.300; -381.000; -309.000
242.815; -216.700; -925.000; -899.000
242.958; -136.600; -482.000; -381.000
243.101;   34.700;  132.000;  187.000
243.244; -177.000; -564.000; -521.000
243.387;  -82.500; -313.000; -316.000
243.530; -222.200; -657.000; -674.000
243.672;   19.500;   43.000;  -92.000
243.815;  -82.700; -355.000; -283.000
243.958;   19.900;   98.000;  -26.000
244.101;   -7.100;   59.000;  -16.000
244.243;   -2.800;  -47.000;  101.000
244.386; -223.500; -761.000; -630.000
244.529;  -11.500; -132.000; -139.000
244.672; -322.500;-1154.000; -951.000
244.814; -201.600; -621.000; -794.000
244.957; -108.300; -380.000; -304.000
245.100; -148.200; -489.000; -489.000
245.242; -118.300; -387.000; -374.000
245.385;  -11.500;  -59.000;  -39.000
245.528; -226.600; -871.000; -705.000
245.670;  205.900;  612.000;  634.000
245.813; -153.100; -599.000; -547.000
245.956;  -65.900; -324.000; -275.000
246.098; -170.600; -508.000; -650.000
246.241;   45.800;  194.000;   48.000
246.383;  -19.600; -119.000;  -73.000
246.526; -149.900; -454.000; -525.000
246.669; -235.000; -889.000; -780.000
246.811;   30.700;  172.000;   -1.000
246.954; -129.900; -512.000; -426.000
247.096;  -26.300;  -84.000;   -6.000
247.239; -134.900; -482.000; -445.000
247.381; -129.500; -647.000; -488.000
247.524;  175.900;  645.000;  679.000
247.666;  -14.200;   58.000;   11.000
247.809; -198.000; -887.000; -691.000
247.951;   12.100;  -75.000;  138.000
248.094;   46.700;  432.000;  308.000
248.236; -325.900;-1262.000;-1238.000
248.378;    0.600; -356.000;  -81.000
248.521;  -46.800; -334.000; -337.000
248.663;  -81.900; -236.000; -267.000
248.806;  -53.400; -300.000; -266.000
248.948; -186.500; -886.000; -763.000
249.090;  -86.300; -428.000; -398.000
249.233;  -89.400; -344.000; -381.000
249.375; -111.500; -474.000; -451.000
249.518;  -24.600;  -83.000; -133.000
249.660;   10.300; -103.000;    3.000
249.802; -340.300;-1303.000;-1189.000
249.945;  -99.700; -612.000; -540.000
250.087; -207.500; -834.000; -768.000
250.229;  -86.700; -362.000; -480.000
250.371; -129.500; -494.000; -439.000
250.514;  -94.400; -310.000; -244.000
250.656; -121.700;   69.000;  102.000
250.798; -222.100; -849.000; -800.000
250.940; -109.200; -322.000; -322.000
251.083;  -42.400; -335.000; -111.000
251.225;  141.400;  338.000;  310.000
251.367;  -88.300; -274.000; -373.000
251.509;  -60.800; -265.000; -210.000
251.651; -184.300; -731.000; -671.000
251.794;  108.500;  538.000;  632.000
251.936; -200.000; -821.000; -747.000
252.078; -160.200; -540.000; -461.000
252.220; -132.600; -645.000; -477.000
252.362;  165.900;  344.000;  462.000
252.504; -129.600; -677.000; -584.000
252.646; -214.200; -875.000; -722.000
252.788;   -3.100;   14.000; -128.000
252.931;  -62.300; -257.000; -253.000
253.073;  -76.900; -376.000; -317.000
253.215;   -5.300;  141.000;  122.000
253.357;    7.800;   82.000; -153.000
253.499;  -83.900; -374.000; -234.000
253.641; -150.900; -749.000; -594.000
253.783; -197.500; -609.000; -527.000
253.925; -155.600; -586.000; -591.000
254.067; -224.700; -744.000; -667.000
254.209;  -15.900; -391.000; -259.000
254.351; -264.200; -865.000; -883.000
254.493; -114.900; -441.000; -417.000
254.635; -205.100; -936.000; -818.000
254.777; -150.300; -752.000; -687.000
254.918; -156.100; -512.000; -430.000
255.060;  -86.800; -551.000; -395.000
255.202; -112.400; -473.000; -261.000
255.344; -144.100; -658.000; -455.000
255.486;  -99.400; -471.000; -406.000
255.628; -182.000; -780.000; -781.000
255.770; -160.500; -676.000; -536.000
255.912; -104.600; -559.000; -468.000
256.053; -176.000; -730.000; -508.000
256.195;  327.300; 1008.000;  903.000
256.337; -208.700; -861.000; -595.000
256.479;  153.700;  532.000;  416.000
256.621;  -74.700; -394.000; -212.000
256.762; -183.800; -789.000; -742.000
256.904;  131.600;  485.000;  487.000
257.046;  -62.100; -381.000; -271.000
257.188;  -82.700; -351.000; -264.000
257.329; -110.000; -525.000; -464.000
257.471; -230.100; -939.000; -807.000
257.613;  -82.600; -584.000; -498.000
257.755; -309.300;-1073.000; -982.000
257.896;   77.100;  286.000;  392.000
258.038; -143.700; -403.000; -352.000
258.180;  -60.900; -354.000; -279.000
258.321; -143.600; -581.000; -457.000
258.463;   38.400;  -71.000;  133.000
258.605; -156.500; -562.000; -570.000
258.746; -194.800; -886.000; -772.000
258.888; -305.100;-1026.000;-1020.000
259.029;   54.400;  121.000;   -8.000
259.171; -156.900; -614.000; -550.000
259.313;   26.200;  -49.000;  -47.000
259.454; -122.000; -536.000; -414.000
259.596; -106.500; -483.000; -390.000
259.737; -134.500; -590.000; -474.000
259.879;   76.500;  217.000;  311.000
260.020;  206.000;  901.000;  636.000
260.162;  -19.000; -146.000; -253.000
260.303; -228.200; -768.000; -687.000
260.445; -128.800; -609.000; -613.000
260.586;   63.300;  392.000;  157.000
260.728;  -58.300; -360.000; -248.000
260.869; -134.800; -350.000; -343.000
261.011;  208.800;  706.000;  537.000
261.152;  -98.600; -479.000; -319.000
261.293; -140.200; -576.000; -595.000
261.435;  -42.200; -219.000; -184.000
261.576; -106.300; -455.000; -325.000
261.718;  152.100;  420.000;  470.000
261.859; -219.400; -940.000; -949.000
262.000; -271.600; -951.000;-1016.000
262.142;  -26.700;  -52.000;  -60.000
262.283; -237.000; -808.000; -691.000
262.424; -154.700; -666.000; -625.000
262.566; -306.300;-1161.000; -983.000
262.707; -226.600; -840.000; -830.000
262.848; -229.600; -769.000; -726.000
262.990;  -55.900; -362.000; -345.000
263.131;  206.600;  650.000;  681.000
263.272;   11.500;  -61.000;  -41.000
263.413; -174.400; -589.000; -561.000
263.555;  -88.800; -669.000; -143.000
263.696; -169.600; -550.000; -641.000
263.837;  -75.300; -449.000; -551.000
263.978;    4.700;   -5.000;  -77.000
264.119;  -92.100; -283.000; -264.000
264.261; -235.400; -847.000; -630.000
264.402;   46.200;   33.000;   40.000
264.543; -170.900; -509.000; -524.000
264.684;    9.500;   61.000;  -50.000
264.825; -125.000; -816.000; -538.000
264.966;   27.400;  -84.000;  -67.000
265.107; -215.400; -646.000; -670.000
265.248; -224.800; -825.000; -812.000
265.390;   19.100;  152.000;   -9.000
265.531;   -7.100; -238.000; -107.000
265.672; -159.900; -557.000; -630.000
265.813;  158.800;  563.000;  439.000
265.954; -272.400; -959.000; -940.000
266.095;    2.200; -372.000; -322.000
266.236; -195.500; -686.000; -548.000
266.377;  -57.100; -243.000; -297.000
266.518; -127.200; -619.000; -547.000
266.659;   67.400;  170.000;  268.000
266.800;   47.800;   83.000;   85.000
266.941; -126.900; -487.000; -478.000
267.082;   38.000;  354.000;   99.000
267.223;  -83.300; -344.000; -273.000
267.364; -234.600; -892.000; -686.000
267.504;  -14.900;    3.000;  135.000
267.645;   41.900;  160.000;   67.000
267.786;  -66.700; -147.000;  -86.000
267.927; -137.700; -473.000; -379.000
268.068;  -15.700; -186.000;  -61.000
268.209;  -68.600; -175.000; -413.000
268.350; -102.600; -388.000; -532.000
268.490; -163.000; -648.000; -521.000
268.631;  111.300;  127.000;  225.000
268.772; -202.200; -874.000; -647.000
268.913;  -78.500; -328.000; -476.000
269.054;  -20.800; -117.000;   12.000
269.194;  -47.300; -418.000; -402.000
269.335; -314.400;-1137.000;-1074.000
269.476;  -26.700;   33.000;  -35.000
269.617;  -86.100; -347.000; -392.000
269.757; -128.300; -713.000; -646.000
269.898; -204.600; -856.000; -613.000
270.039; -106.500; -415.000; -405.000
270.180; -263.900; -952.000; -816.000
270.320;   -6.500; -190.000; -250.000
270.461;  -58.000; -277.000; -249.000
270.602;   21.700; -186.000; -156.000
270.742; -239.100; -868.000; -943.000
270.883;  -80.500; -442.000; -390.000
271.023; -108.100; -358.000; -357.000
271.164; -113.400; -607.000; -528.000
271.305; -199.400; -666.000; -654.000
271.445; -156.700; -722.000; -683.000
271.586; -115.600; -462.000; -283.000
271.726;  -34.700; -397.000; -322.000
271.867; -121.500; -594.000; -534.000
272.008;  319.300; -473.000; -285.000
272.148;  234.800;  462.000;  468.000
272.289;   53.300; -113.000; -181.000
272.429;   81.800;   19.000;  185.000
272.570; -166.500; -633.000; -737.000
272.710; -210.100; -825.000; -775.000
272.851;  -18.100;  113.000; -130.000
272.991; -332.200;-1173.000;-1077.000
273.131; -119.200; -419.000; -459.000
273.272; -179.100; -683.000; -723.000
273.412;   29.300; -143.000;  -31.000
273.553; -102.000; -488.000; -507.000
273.693;  343.000;  913.000;  858.000
273.834; -217.100; -894.000; -692.000
273.974; -107.900; -664.000; -615.000
274.114; -170.300; -772.000; -560.000
274.255;  186.500;  414.000;  373.000
274.395;    3.000; -180.000; -125.000
274.535;  130.600;  199.000;  350.000
274.676;   85.300;  225.000;   94.000
274.816;   61.900;  110.000;   34.000
274.956; -134.100; -624.000; -690.000
275.097; -172.300;-1014.000; -922.000
275.237; -222.200; -913.000; -803.000
275.377; -178.600; -778.000; -689.000
275.517; -263.800; -878.000; -937.000
275.658; -111.500; -590.000; -555.000
275.798; -149.300; -606.000; -413.000
275.938;  107.500;  215.000;  323.000
276.078; -144.400; -626.000; -395.000
276.218;   56.500;   99.000;  104.000
276.359; -240.300;-1026.000;-1024.000
276.499; -124.500; -605.000; -446.000
276.639;  -57.100; -305.000; -151.000
276.779;  -61.900; -475.000; -357.000
276.919; -187.500; -783.000; -624.000
277.059;   -2.700; -261.000; -212.000
277.199;  -59.600; -357.000; -259.000
277.340;  129.000;  287.000;  175.000
277.480; -196.800; -840.000; -693.000
277.620;   79.500;  192.000;   16.000
277.760; -375.900;-1533.000;-1294.000
277.900;   63.100;  113.000;   33.000
278.040;   68.400;  137.000;  159.000
278.180;   97.200;  270.000;  170.000
278.320;   13.200;   21.000;   56.000
278.460; -101.500; -443.000; -469.000
278.600; -136.200; -708.000; -598.000
278.740;  127.300;  448.000;  224.000
278.880; -117.400; -768.000; -791.000
279.020;   58.900; -194.000; -144.000
279.160; -173.200; -672.000; -595.000
279.300; -230.200; -926.000; -873.000
279.440; -147.300; -709.000; -622.000
279.579;  -73.900;-1014.000; -929.000
279.719; -122.900; -410.000; -394.000
279.859;  158.000;   -4.000;   41.000
279.999;   56.100; -208.000;  101.000
280.139;  -27.800; -435.000; -387.000
280.279; -145.200; -708.000; -745.000
280.419;   17.700; -229.000; -147.000
280.559;  -43.000; -259.000; -180.000
280.698; -166.900; -790.000; -639.000
280.838; -186.600; -778.000; -800.000
280.978; -169.700; -846.000; -790.000
281.118; -195.600; -811.000; -704.000
281.257;   48.900;   24.000;    6.000
281.397; -237.000;-1094.000; -960.000
281.537; -173.500; -599.000; -712.000
281.677;    9.700; -150.000; -101.000
281.816; -144.900; -700.000; -630.000
281.956;  -11.800; -193.000; -257.000
282.096;  -92.300; -539.000; -396.000
282.235; -201.800; -672.000; -638.000
282.375;   14.400; -243.000;  -98.000
282.515; -167.700; -715.000; -707.000
282.654;  105.900;   29.000;  106.000
282.794;   93.600;  388.000;  244.000
282.934;  -87.100; -530.000; -491.000
283.073; -262.700;-1030.000; -857.000
283.213;  -92.700; -460.000; -467.000
283.353;  -66.900; -408.000; -349.000
283.492;  -28.000; -264.000; -296.000
283.632;  -37.700; -254.000; -168.000
283.771; -174.700; -859.000; -730.000
283.911;  -81.600; -369.000; -260.000
284.050; -201.300; -794.000; -748.000
284.190; -313.000;-1229.000;-1096.000
284.329; -269.900;-1055.000; -964.000
284.469; -118.000; -516.000; -591.000
284.608;  -76.900; -559.000; -598.000
284.748; -143.700; -614.000; -570.000
284.887;   33.300;  -87.000;  -20.000
285.027; -259.200; -844.000; -892.000
285.166;   -1.000; -192.000; -249.000
285.306;   45.200; -116.000;  -33.000
285.445;  -33.200; -229.000; -343.000
285.584; -182.900; -630.000; -494.000
285.724;  -94.300; -282.000; -322.000
285.863; -207.500; -857.000; -507.000
286.002; -112.400; -366.000; -276.000
286.142; -179.900; -715.000; -622.000
286.281;  -83.900; -525.000; -493.000
286.420; -121.100; -554.000; -417.000
286.560;  217.700;  653.000;  623.000
286.699; -280.900; -958.000; -912.000
286.838; -122.200; -590.000; -591.000
286.978; -175.300; -533.000; -537.000
287.117; -238.800;-1085.000; -950.000
287.256;  -56.400; -228.000; -211.000
287.395;  -78.100; -197.000; -378.000
287.535;  -87.400; -370.000; -298.000
287.674; -121.700; -509.000; -484.000
287.813;  133.300;  661.000;  533.000
287.952; -203.300;-1010.000; -871.000
288.091; -302.600;-1049.000; -915.000
288.231;   82.100;   13.000;   15.000
288.370; -362.000;-1217.000;-1200.000
288.509; -128.400; -728.000; -645.000
288.648; -187.600; -770.000; -548.000
288.787;  -27.300; -243.000;  -87.000
288.926; -115.400; -454.000; -475.000
289.065;  278.300;  859.000;  672.000
289.204;  -74.900; -377.000; -217.000
289.344; -152.000; -791.000; -690.000
289.483;   56.600;  416.000;  304.000
289.622;  -10.200; -291.000; -149.000
289.761;  -18.300; -309.000; -166.000
289.900; -192.900; -785.000; -626.000
290.039;   -1.700;  -12.000;  -95.000
290.178;  -26.100; -274.000; -180.000
290.317; -172.700; -618.000; -479.000
290.456; -112.600; -463.000; -451.000
290.595; -279.300; -961.000; -833.000
290.734; -249.500; -904.000; -891.000
290.873; -125.900; -456.000; -420.000
291.011; -183.100; -833.000; -843.000
291.150; -194.400; -770.000; -682.000
291.289;  -46.400; -343.000; -110.000
291.428; -183.800; -599.000; -480.000
291.567;  -60.400; -370.000; -442.000
291.706;   27.400;  109.000;  154.000
291.845; -146.300; -597.000; -505.000
291.984; -326.900;-1234.000;-1061.000
292.122;  189.300;  602.000;  582.000
292.261;  157.900;  620.000;  463.000
292.400;   73.400; -144.000;  211.000
292.539; -218.400; -959.000; -813.000
292.678;  -26.500; -325.000; -300.000
292.816; -304.200;-1136.000; -965.000
292.955; -172.300; -844.000; -684.000
293.094;  -14.000; -173.000; -337.000
293.233;  -72.200; -556.000; -400.000
293.371;  -62.700; -225.000;  -84.000
293.510; -201.900; -866.000; -780.000
293.649; -241.700; -959.000; -924.000
293.787; -129.800;-1083.000;-1012.000
293.926;   38.200; -113.000;  -32.000
294.065;  -41.200; -379.000; -290.000
294.203;   96.000;  298.000;  406.000
294.342;   77.500;   74.000;  156.000
294.481;11682.400;51180.000; -836.000
294.619;  -40.600; -425.000; -582.000
294.758; -281.700;-1230.000;-1137.000
294.896;  145.100; -125.000;    5.000
295.035; -240.600;-1040.000;-1006.000
295.174; -203.700;-1082.000; -954.000
295.312;  -65.700; -323.000; -203.000
295.451;  -12.700; -307.000; -428.000
295.589;  -73.000; -389.000; -518.000
295.728;   66.800; -292.000; -165.000
295.866;   34.700;  -36.000;  -51.000
296.005; -111.700; -584.000; -341.000
296.143; -132.000; -558.000; -596.000
296.282; -160.000; -957.000; -881.000
296.420; -149.500; -657.000; -557.000
296.559; -149.500; -892.000; -633.000
296.697;   14.800; -847.000; -665.000
296.835;   78.700;-1141.000;-1002.000
296.974;  101.600;  -23.000;   39.000
297.112;   46.700; -443.000; -504.000
297.251; -126.900; -815.000; -755.000
297.389;  150.300; -576.000; -438.000
297.527;  134.900; -145.000;  -83.000
297.666;  -84.000; -486.000; -438.000
297.804;  -81.900; -404.000; -264.000
297.942;   13.300; -136.000; -161.000
298.081;   11.500; -183.000;   63.000
298.219;  107.600;  -17.000;  -19.000
298.357;   84.300; -144.000;  -71.000
298.495;   25.900; -810.000; -812.000
298.634;  152.200;  245.000;  219.000
298.772;  139.300; -220.000; -338.000
298.910;  -69.300; -309.000; -182.000
299.048;   -8.100; -130.000; -153.000
299.187;  -52.900; -350.000; -250.000
299.325;   52.900;   52.000;  122.000
299.463;   82.700; -389.000; -299.000
299.601;  183.700; -327.000; -271.000
299.739; -174.300; -908.000; -883.000
299.877; -125.400; -791.000; -703.000
300.016; -124.600;-1095.000; -935.000
300.154;  272.700;  -19.000; -161.000
300.292;  103.700; -428.000; -348.000
300.430;   79.900; -408.000; -291.000
300.568; -214.700; -940.000; -874.000
300.706;  -68.700; -366.000; -469.000
300.844; -169.900;-1108.000; -979.000
300.982;  264.600;  246.000;  282.000
301.120; -233.200; -965.000; -866.000
301.258; -114.100; -812.000; -705.000
301.396;   93.700;  104.000;  -41.000
301.534;  128.800; -218.000; -293.000
301.672;   -2.900; -664.000; -521.000
301.810;   44.800; -613.000; -545.000
301.948;  255.900;   53.000;  149.000
302.086;  933.700; -250.000;  -32.000
302.224; 1500.900; -610.000; -585.000
302.362;   52.600; -558.000; -622.000
302.500;  -73.300; -923.000; -893.000
302.638;  236.800;  128.000;  245.000
302.776;    3.700; -352.000; -408.000
302.913;  100.100;  447.000;  236.000
303.051;    6.200;  -86.000;  -23.000
303.189;  117.800;   90.000;  118.000
303.327;  -67.800; -341.000; -256.000
303.465; -132.900; -832.000; -588.000
303.603; -156.100; -805.000; -604.000
303.740;  231.800;  417.000;  241.000
303.878;   31.500; -800.000; -759.000
304.016; -171.500; -915.000; -790.000
304.154; -237.000;-1123.000;-1152.000
304.291;  -51.600; -505.000; -554.000
304.429;   44.600;  102.000;   74.000
304.567; -232.200; -908.000; -893.000
304.705; -101.100; -408.000; -515.000
304.842;  130.100; -616.000; -540.000
304.980;  132.000;  215.000;   35.000
305.118;  116.800; -367.000; -365.000
305.255; -158.000; -945.000; -927.000
305.393;  153.700;  178.000;  239.000
305.531; -208.100;-1173.000; -956.000
305.668; -102.700; -663.000; -582.000
305.806;  158.400; -358.000; -439.000
305.943;  162.200; -629.000; -637.000
306.081;  101.500; -378.000; -267.000
306.219; -160.500; -863.000; -748.000
306.356;   37.600;  158.000;   27.000
306.494;  298.100;  981.000;  761.000
306.631;   63.400;  -11.000;  -55.000
306.769;   24.200; -613.000; -485.000
306.906;   -3.700; -284.000; -258.000
307.044;  -38.000; -473.000; -488.000
307.181;  -84.500; -410.000; -332.000
307.319;  148.500;  112.000;   87.000
307.456; -314.200;-1191.000;-1153.000
307.594; -184.400; -980.000; -727.000
307.731;    1.800; -371.000; -164.000
307.868;   31.900;  -15.000;   20.000
308.006; -223.500; -961.000; -847.000
308.143;  -84.100; -618.000; -330.000
308.281;  375.600;  -37.000; -254.000
308.418;   -0.500; -748.000; -640.000
308.555; -105.000; -400.000; -250.000
308.693;  -86.900; -577.000; -573.000
308.830; -186.400; -712.000; -657.000
308.967;   11.300; -215.000;  -95.000
309.105;   -5.500; -507.000; -396.000
309.242;  117.100; -468.000; -367.000
309.379;  689.100; -577.000; -655.000
309.517;  -92.000; -936.000; -948.000
309.654; -179.400; -910.000; -734.000
309.791;  -89.600; -662.000; -580.000
309.928; -185.700; -977.000; -914.000
310.065;  391.000;  819.000;  697.000
310.203;  -14.800; -825.000; -850.000
310.340;   47.200; -465.000; -321.000
310.477; -128.900; -412.000; -516.000
310.614; -106.300; -383.000; -473.000
310.751; -118.000; -427.000; -518.000
310.889;   -3.700;    1.000;   11.000
311.026; -259.600;-1161.000; -939.000
311.163;  -54.900; -386.000; -380.000
311.300; -133.400; -512.000; -479.000
311.437; -105.200; -658.000; -619.000
311.574; -298.600;-1226.000; -985.000
311.711;  -92.300; -595.000; -433.000
311.848;  -21.600; -380.000; -388.000
311.985;   79.300;  270.000;   93.000
312.122; -221.700; -932.000; -762.000
312.259; -224.300; -941.000; -994.000
312.396; -109.900; -508.000; -551.000
312.533; -112.100; -812.000; -790.000
312.670; -231.600;-1070.000; -898.000
312.807;   -6.900; -352.000; -367.000
312.944; -100.400; -513.000; -611.000
313.081;   -4.600; -150.000; -415.000
313.218; -197.100;-1111.000; -867.000
313.355;   46.900; -531.000; -449.000
313.492;   18.000; -455.000; -292.000
313.629;  323.300;  815.000;  735.000
313.766; -278.500;-1176.000;-1008.000
313.902;   64.000; -186.000;   21.000
314.039;  -67.600; -372.000; -289.000
314.176;   84.700;  286.000;  192.000
314.313;  -91.400; -569.000; -473.000
314.450; -109.000; -788.000; -684.000
314.587;  -98.200; -468.000; -480.000
314.723;   38.500;  -78.000;  130.000
314.860;   89.300;  318.000;  332.000
314.997;  133.100;  223.000;  142.000
315.134;  -37.300; -385.000; -368.000
315.270;  -45.300; -480.000; -496.000
315.407; -242.500;-1094.000; -967.000
315.544;  -52.800; -657.000; -538.000
315.681; -106.200; -681.000; -565.000
315.817;   89.000; -133.000; -176.000
315.954;   43.400; -613.000; -392.000
316.091; -212.400;-1045.000;-1023.000
316.227;    5.700;  -71.000; -179.000
316.364;   58.900;   23.000;    6.000
316.500;  -59.300; -113.000; -300.000
316.637;  -22.600; -181.000; -302.000
316.774; -122.700; -625.000; -358.000
316.910; -165.600; -598.000; -629.000
317.047;  -96.400; -487.000; -351.000
317.183;  -70.400; -435.000; -566.000
317.320;  -51.500; -367.000; -321.000
317.456; -107.000; -733.000; -805.000
317.593; -138.600; -598.000; -641.000
317.729;   64.300;  168.000;  -67.000
317.866; -389.800;-1434.000;-1285.000
318.002; -129.100; -708.000; -948.000
318.139; -178.700; -883.000; -867.000
318.275; -173.800;-1003.000; -738.000
318.412;  -87.700; -517.000; -336.000
318.548;  -45.300; -751.000; -720.000
318.685; -181.600; -985.000; -888.000
318.821; -162.700; -762.000; -735.000
318.957;    0.900;   34.000;  -23.000
319.094;  153.400;  297.000;  154.000
319.230; -123.200; -756.000; -742.000
319.367;  196.900; -471.000; -520.000
319.503;  101.000; -538.000; -436.000
319.639; -143.900; -877.000; -793.000
319.775; -142.300; -750.000; -685.000
319.912;  -63.900; -424.000; -519.000
320.048; -187.900;-1184.000;-1184.000
320.184;  171.900;   59.000;   70.000
320.321; -105.400; -497.000; -467.000
320.457;  189.200;  475.000;  662.000
320.593;  -69.500; -375.000; -382.000
320.729; -151.400; -732.000; -734.000
320.866; -132.700; -577.000; -635.000
321.002; -129.300; -759.000; -809.000
321.138;  -22.300; -135.000; -211.000
321.274;  130.200; -148.000; -115.000
321.410;  -37.700; -585.000; -353.000
321.546;  -57.600;-1011.000; -911.000
321.683;  158.500;  400.000;  185.000
321.819;   68.000;  -48.000; -117.000
321.955; -192.900; -743.000; -722.000
322.091;  -47.200; -585.000; -540.000
322.227;   16.800; -382.000; -202.000
322.363;  -19.000; -320.000; -215.000
322.499;  -54.500; -343.000; -331.000
322.635;  312.700;  636.000;  443.000
322.771;   51.900; -139.000;   12.000
322.907;  230.500;  129.000;  327.000
323.043;  -16.300; -115.000; -206.000
323.179;  -15.000; -394.000; -363.000
323.315;   22.000; -401.000; -371.000
323.451;  201.100; -328.000; -236.000
323.587;  123.900;  -60.000;  -77.000
323.723;   36.200; -682.000; -601.000
323.859;  -47.400; -258.000;  -76.000
323.995;  -55.000; -467.000; -409.000
324.131; -248.200; -967.000; -892.000
324.267;  -31.500; -254.000; -276.000
324.402; -199.300; -960.000; -983.000
324.538;    0.900; -279.000; -104.000
324.674;  100.000;  164.000;   77.000
324.810;  279.100;  226.000;  308.000
324.946;   69.600; -810.000; -658.000
325.082;  -96.100; -568.000; -475.000
325.217;   16.100;  -62.000;   16.000
325.353; -195.100; -764.000; -659.000
325.489; -164.000; -540.000; -506.000
325.625; -106.300; -579.000; -525.000
325.760;  145.200;  517.000;  376.000
325.896;  -15.600; -515.000; -702.000
326.032;  -64.700; -403.000; -352.000
326.168;  -95.700; -462.000; -369.000
326.303; -110.000; -352.000; -461.000
326.439;   29.800; -336.000; -276.000
326.575;   59.600; -190.000;  -29.000
326.710;   41.000; -156.000;  -30.000
326.846;   43.400;  146.000;  103.000
326.982; -139.300; -530.000; -548.000
327.117; -121.100; -481.000; -442.000
327.253; -156.700; -745.000; -742.000
327.388; -298.000;-1137.000;-1153.000
327.524;  -54.900; -811.000; -578.000
327.659;   -8.400;  -58.000;  -22.000
327.795;   17.400;   69.000;   45.000
327.931; -135.800; -723.000; -499.000
328.066;    5.900; -417.000; -276.000
328.202;   11.500;   12.000; -129.000
328.337;  267.900;  957.000;  713.000
328.473;   12.600;  -12.000;  -74.000
328.608;   16.400; -256.000; -267.000
328.743; -144.200; -799.000; -664.000
328.879;   82.600;  214.000;  114.000
329.014;  -87.300; -102.000; -122.000
329.150;  -96.700; -358.000; -483.000
329.285; -112.100; -465.000; -466.000
329.421;  -29.700; -548.000; -246.000
329.556;    5.000;  -36.000;   85.000
329.691; -147.200; -633.000; -615.000
329.827; -167.300; -626.000; -480.000
329.962;  -52.100;  131.000; -301.000
330.097; -138.400; -673.000; -585.000
330.233;  -11.700; -410.000; -223.000
330.368; -231.600; -839.000; -628.000
330.503;   42.400;    3.000;   98.000
330.638;   25.400;  -93.000; -125.000
330.774;  -69.200; -609.000; -530.000
330.909;  -56.600; -434.000; -244.000
331.044; -145.500; -714.000; -708.000
331.179; -350.800;-1217.000;-1109.000
331.315;   84.100;   77.000;   20.000
331.450;   70.600;  157.000;  285.000
331.585; -144.100; -805.000; -706.000
331.720; -148.000; -510.000; -460.000
331.855;   46.200;  -35.000; -102.000
331.990;  490.800;   62.000;  138.000
332.126;  284.500; -110.000;   71.000
332.261;   19.200; -379.000; -265.000
332.396;   65.800; -135.000; -242.000
332.531; -186.400;-1074.000;-1031.000
332.666;   76.300; -519.000; -363.000
332.801; -168.700; -726.000; -807.000
332.936;    8.100; -192.000; -122.000
333.071; -280.300; -870.000; -817.000
333.206;  107.600;  307.000;  379.000
333.341;  125.600;  344.000;  418.000
333.476; -130.600; -627.000; -623.000
333.611;  -25.000; -251.000; -173.000
333.746;  -59.800; -381.000; -464.000
333.881; -232.300; -973.000; -935.000
334.016; -220.900; -936.000; -917.000
334.151; -233.300; -746.000; -702.000
334.286;  104.900;  152.000;  186.000
334.421;  -20.400; -125.000; -178.000
334.556; -151.100; -611.000; -567.000
334.690; -158.800; -631.000; -577.000
334.825;  181.400;  381.000;   83.000
334.960; -116.200; -285.000; -413.000
335.095;   58.500;  135.000;  -91.000
335.230; -181.100; -722.000; -738.000
335.365; -256.200;-1084.000; -990.000
335.499; -240.800;-1108.000;-1037.000
335.634;   82.100;    9.000;  534.000
335.769; -164.400; -755.000; -720.000
335.904;  -86.100; -603.000; -561.000
336.038;  -93.100; -735.000; -657.000
336.173; -209.100;-1206.000;-1194.000
336.308;   42.800; -116.000; -189.000
336.443;   41.900; -544.000; -634.000
336.577; -169.900; -936.000; -787.000
336.712;  146.600;   -4.000;  -12.000
336.847;  -94.600; -724.000; -607.000
336.981;   83.500; -272.000; -208.000
337.116;  526.000;  615.000;  501.000
337.250;  287.400; -434.000; -421.000
337.385;  453.600; -297.000; -208.000
337.520;  186.800; -632.000; -603.000
337.654;  -53.800; -215.000; -126.000
337.789; -192.000; -989.000; -933.000
337.923;  -19.400; -104.000; -205.000
338.058; -153.100; -673.000; -738.000
338.192;  -41.000; -611.000; -488.000
338.327;   40.800;  -18.000; -155.000
338.461;  -95.200; -299.000; -469.000
338.596; -120.600; -780.000; -638.000
338.730; -193.900; -767.000; -803.000
338.865;  189.300;  -46.000; -140.000
338.999; -114.700; -846.000; -702.000
339.134;  -26.100; -634.000; -536.000
339.268;    9.400; -741.000; -603.000
339.403;  644.200; -740.000; -775.000
339.537;  239.100; -894.000; -820.000
339.671; -162.600; -829.000; -813.000
339.806;  -99.800; -556.000; -512.000
339.940;   31.000; -261.000; -235.000
340.074; -193.500; -685.000; -510.000
340.209;  -51.200; -351.000; -230.000
340.343; -139.200; -517.000; -573.000
340.477;  338.200;  998.000; 1036.000
340.612;  -84.500;-1033.000; -900.000
340.746;  279.000; -199.000; -243.000
340.880; -145.900; -924.000; -785.000
341.014;   33.500;  -45.000; -154.000
341.149; -223.300; -756.000; -718.000
341.283; -172.600; -839.000; -754.000
341.417; -164.400;-1124.000; -938.000
341.551;  212.600; -768.000; -708.000
341.685;  -42.600; -633.000; -611.000
341.820;  -93.500; -562.000; -493.000
341.954;  -35.200; -218.000; -349.000
342.088; -266.800;-1102.000;-1019.000
342.222;  119.000;  565.000;  618.000
342.356;  -84.700; -395.000; -335.000
342.490; -181.300; -880.000; -841.000
342.624;  -37.200; -339.000; -242.000
342.758;   -6.900; -364.000; -312.000
342.892; -101.100; -710.000; -585.000
343.026;  -40.600;  -58.000; -116.000
343.160;  -90.800; -426.000; -376.000
343.294; -125.900; -474.000; -337.000
343.428;   -5.700; -488.000; -448.000
343.562;    1.800; -172.000;  -23.000
343.696;  -22.400; -385.000; -314.000
343.830;  -26.600; -362.000; -356.000
343.964;   84.400; -231.000; -168.000
344.098; 1438.000;  199.000;   70.000
344.232; 1232.700; -266.000; -127.000
344.366;  148.400; -567.000; -453.000
344.500;  103.700; -665.000; -744.000
344.634;   64.500; -324.000; -164.000
344.768;   -8.100; -531.000; -341.000
344.902;  102.700;  278.000;  256.000
345.035;  -81.000; -556.000; -496.000
345.169; -249.800; -933.000; -656.000
345.303;  -20.900; -308.000; -482.000
345.437; -114.600; -826.000; -717.000
345.571;  -83.000; -675.000; -594.000
345.704; -126.300; -309.000; -532.000
345.838;   16.600; -331.000; -284.000
345.972;  -53.700; -543.000; -495.000
346.106;  340.100; -179.000; -190.000
346.239;  754.900; -312.000; -243.000
346.373;   45.900; -343.000; -302.000
346.507; -287.100; -950.000; -962.000
346.640;  254.900;  -30.000;   13.000
346.774;  -89.600; -650.000; -797.000
346.908;   36.200; -138.000;  -11.000
347.041; -173.300; -646.000; -593.000
347.175;   42.700;  259.000;   27.000
347.309; -145.100; -698.000; -628.000
347.442; -137.100; -883.000; -732.000
347.576;  547.100;  670.000;  668.000
347.709;  336.700; -123.000;  -52.000
347.843; -189.900; -933.000; -825.000
347.976;  120.900;  235.000;  294.000
348.110; -318.000;-1268.000;-1186.000
348.243; -134.000; -679.000; -772.000
348.377;   49.300;  -26.000;   60.000
348.510;  172.000;  403.000;  540.000
348.644;  -47.900;  -37.000; -159.000
348.777;   66.800;  180.000;  191.000
348.911;  -42.400; -142.000; -112.000
349.044;  367.400;  471.000;  448.000
349.178;  233.000;-1069.000;-1006.000
349.311;  257.800;  141.000;  255.000
349.444;  -27.300; -927.000; -813.000
349.578;   27.800; -347.000; -200.000
349.711; -220.600; -959.000; -862.000
349.845;   -0.900; -661.000; -591.000
349.978; -310.700;-1224.000;-1137.000
350.111; -112.100; -546.000; -612.000
350.244; -140.400; -596.000; -700.000
350.378;   46.200; -392.000; -393.000
350.511; -110.700; -393.000; -426.000
350.644; -183.400; -808.000; -806.000
350.778;   74.700;  168.000;  104.000
350.911;   69.800;  134.000;  140.000
351.044; -136.400; -685.000; -615.000
351.177;    4.100; -321.000; -281.000
351.310;    0.300;    3.000; -131.000
351.444; -139.200; -888.000; -788.000
351.577;  242.000;  140.000;   90.000
351.710;  255.500;  593.000;  417.000
351.843;  -62.300; -165.000;  -77.000
351.976;   55.900;  149.000;  -79.000
352.109; -152.500; -621.000; -612.000
352.242;  -17.800; -464.000; -419.000
352.376; -109.200; -580.000; -636.000
352.509;  291.800; -437.000; -356.000
352.642;  -33.500; -654.000; -604.000
352.775;  163.800; -141.000;  -98.000
352.908; -209.200; -933.000; -904.000
353.041; -153.300; -814.000; -824.000
353.174; -103.600; -551.000; -424.000
353.307; -157.900; -753.000; -764.000
353.440;  134.900;  541.000;  453.000
353.573; -179.200; -957.000;-1008.000
353.706; -100.800; -384.000; -558.000
353.839;   -7.700; -264.000; -220.000
353.971; -156.300; -657.000; -512.000
354.104; -128.400; -896.000; -835.000
354.237;  -49.400; -627.000; -662.000
354.370; -132.000; -846.000; -879.000
354.503; -339.000;-1231.000;-1308.000
354.636;  -38.800; -529.000; -348.000
354.769; -244.600; -937.000; -860.000
354.902;    4.300; -230.000; -139.000
355.034;   -7.300; -164.000; -220.000
355.167;   -6.700; -262.000; -162.000
355.300; -168.000;-1061.000; -880.000
355.433; 1882.300;  -71.000;  -14.000
355.565; 2756.400; -402.000; -384.000
355.698;  705.400; -356.000; -296.000
355.831;  -23.500; -882.000; -801.000
355.964;  160.200; -285.000; -170.000
356.096; -156.100; -856.000; -843.000
356.229;    8.900; -523.000; -530.000
356.362;  593.900; -373.000; -266.000
356.494; 1083.600; -229.000; -162.000
356.627;  833.600;  269.000;  377.000
356.760; 1232.400;  120.000;   53.000
356.892; 1803.400; -286.000; -601.000
357.025; 1162.600;  403.000;  389.000
357.157; 1016.400; -167.000; -179.000
357.290; 1204.900; -856.000; -713.000
357.423;  325.500; -667.000; -556.000
357.555;  220.000; -217.000; -228.000
357.688;  230.500; -483.000; -364.000
357.820;  683.300; -870.000; -877.000
357.953; 5781.000; -563.000; -589.000
358.085; 1268.300; -632.000; -612.000
358.218; 1730.000;-1131.000; -932.000
358.350;  351.000;  -58.000;  312.000
358.483; -247.400;-1300.000;-1187.000
358.615;  -51.200;-1182.000;-1078.000
358.747; -160.300;-1187.000;-1058.000
358.880;   45.600; -810.000; -744.000
359.012;   14.600; -376.000; -202.000
359.145;  -55.800; -480.000; -511.000
359.277;   51.200; -962.000; -913.000
359.409; 4884.300;  536.000;  231.000
359.542; 1226.200; -738.000; -688.000
359.674;  179.300;   46.000;   13.000
359.806; -100.700; -565.000; -438.000
359.939;  -10.200; -617.000; -516.000
360.071;   18.100; -583.000; -579.000
360.203;   -5.900; -411.000; -364.000
360.335;  114.600;  164.000;  -16.000
360.468;  337.400; -249.000; -307.000
360.600; 3853.500; -547.000; -454.000
360.732; 5002.200; -546.000; -423.000
360.864;  631.700;-1216.000;-1044.000
360.996;  486.600; -516.000; -554.000
361.129;   85.200; -389.000; -598.000
361.261;   67.800;  110.000; -113.000
361.393;   -5.400; -252.000; -214.000
361.525;   83.400;   94.000;  244.000
361.657;  -69.000; -821.000; -703.000
361.789;   91.000; -139.000; -155.000
361.921;  370.900; -642.000; -593.000
362.053;  533.700;  524.000;  541.000
362.185;  130.500;  288.000;   72.000
362.318; -109.300; -709.000; -705.000
362.450;  271.100;  294.000;  444.000
362.582;  166.100; -913.000; -870.000
362.714;  -21.300; -353.000; -332.000
362.846; -142.000; -606.000; -490.000
362.978; -257.300; -941.000; -811.000
363.109;  109.200; -161.000; -260.000
363.241;  751.100; -739.000; -749.000
363.373;  816.900; -649.000; -564.000
363.505; 1238.700; -186.000;  -91.000
363.637;  318.800; -787.000; -601.000
363.769; -194.200;-1067.000;-1080.000
363.901;  -97.500; -596.000; -654.000
364.033; -248.300;-1103.000;-1062.000
364.165;   56.300; -283.000; -283.000
364.296;  156.700; -316.000; -177.000
364.428;  147.200;-1344.000;-1220.000
364.560; -102.300; -679.000; -661.000
364.692;  -82.000; -738.000; -835.000
364.824;  434.200; -588.000; -456.000
364.955;  811.900; -402.000; -564.000
365.087; 1702.400;-1097.000; -852.000
365.219;   80.800; -686.000; -816.000
365.351; -102.100; -526.000; -572.000
365.482;  153.600;  300.000;  240.000
365.614;  -44.300; -402.000; -314.000
365.746; -162.300; -729.000; -752.000
365.877; -157.300; -706.000; -672.000
366.009;  560.500;  -35.000;  -62.000
366.141; -163.000;-1249.000;-1134.000
366.272; -137.800; -803.000; -719.000
366.404; -186.400;-1005.000; -874.000
366.535;   20.500; -139.000;  -12.000
366.667; -164.200; -644.000; -649.000
366.799;  136.800;  353.000;  203.000
366.930; -188.400; -862.000; -996.000
367.062;  262.900; -639.000; -613.000
367.193;  310.700; -872.000; -842.000
367.325;  -57.100; -580.000; -684.000
367.456;  101.500; -246.000;   31.000
367.588;  318.100; -371.000; -318.000
367.719;   54.300;  -44.000;  -45.000
367.851;   33.200; -222.000; -241.000
367.982;  -90.100; -875.000; -732.000
368.113;  126.400; -475.000; -358.000
368.245; -220.300; -960.000; -841.000
368.376;    9.400; -254.000; -302.000
368.508;  -42.000; -188.000; -263.000
368.639; -224.600;-1166.000;-1034.000
368.770;  -44.000; -670.000; -589.000
368.902;  -94.400; -836.000; -926.000
369.033; -173.000; -906.000; -855.000
369.164;  -45.100; -720.000; -653.000
369.296; -186.400; -452.000; -601.000
369.427;   14.900; -209.000; -144.000
369.558;  -79.100; -593.000; -377.000
369.689; -107.600; -721.000; -569.000
369.821; -245.600; -951.000; -845.000
369.952;   31.500;   42.000; -108.000
370.083;  -63.200; -229.000; -108.000
370.214; -127.900; -735.000; -650.000
370.345;   32.100;   65.000;   81.000
370.477; -153.400; -810.000; -790.000
370.608;  400.100; -328.000; -264.000
370.739; -108.100;-1233.000;-1292.000
370.870;  -79.700;-1102.000; -923.000
371.001;  163.300; -378.000; -467.000
371.132; -122.800; -754.000; -735.000
371.263;   14.500;  -42.000; -148.000
371.394; -227.900; -841.000; -748.000
371.525;   91.900;  345.000;  225.000
371.657; -150.100; -808.000; -670.000
371.788;  164.000;  103.000;  199.000
371.919;  282.700; -384.000; -304.000
372.050; 5744.900;  -91.000; -156.000
372.181; 1635.900; -188.000; -294.000
372.311;  623.500;   42.000; -127.000
372.442;   65.300; -457.000; -451.000
372.573;    2.400; -444.000; -340.000
372.704; -198.400;-1008.000; -980.000
372.835;  166.200; -228.000; -289.000
372.966;  -81.300; -646.000; -554.000
373.097; -114.900; -575.000; -711.000
373.228;  -47.300; -717.000; -542.000
373.359;  211.600; -824.000; -536.000
373.490; 1508.500; -881.000; -727.000
373.620; 1729.200;-1001.000; -803.000
373.751; 2871.000; -332.000; -396.000
373.882; 1191.400; -663.000; -733.000
374.013;  114.400; -449.000; -262.000
374.143;  -53.200; -581.000; -659.000
374.274; -166.300; -987.000; -908.000
374.405;  299.500; -388.000; -276.000
374.536;  723.700; -526.000; -387.000
374.666; 1707.900; -759.000; -807.000
374.797;  344.700; -817.000; -868.000
374.928; 1427.200; -710.000; -560.000
375.058; 1391.200; -535.000; -500.000
375.189;  141.000;  -59.000;  -93.000
375.320; -183.900; -928.000;-1034.000
375.450;  -64.100; -625.000; -616.000
375.581;  -68.400; -526.000; -436.000
375.712;  -36.500; -574.000; -250.000
375.842;  505.600; -438.000; -415.000
375.973;  369.500; -554.000; -513.000
376.103;  -37.400; -665.000; -648.000
376.234; -114.700; -531.000; -552.000
376.364;  -36.300; -944.000; -867.000
376.495;  635.700;  925.000;  529.000
376.625;  -11.100; -472.000; -485.000
376.756;  105.700; -709.000; -678.000
376.886; -131.300;-1178.000;-1026.000
377.017;  113.200;-1048.000;-1061.000
377.147;  663.600; -786.000; -782.000
377.278;  165.700;  174.000;  228.000
377.408; -223.800; -801.000; -815.000
377.538; -149.800; -707.000; -693.000
377.669; -142.300; -537.000; -613.000
377.799; -132.900; -645.000; -635.000
377.929;  -98.800; -610.000; -428.000
378.060; -232.300; -781.000; -847.000
378.190;  -84.000; -726.000; -531.000
378.320;  -71.700; -401.000; -406.000
378.451;    9.700; -131.000;  -22.000
378.581;   66.000;  -67.000; -110.000
378.711;  342.000; 1035.000;  866.000
378.841;  -25.700; -533.000; -675.000
378.972; -114.400; -871.000; -751.000
379.102;    7.900; -652.000; -579.000
379.232;  -20.100; -126.000;  -73.000
379.362; -160.900;-1001.000; -885.000
379.492;   55.900; -373.000; -424.000
379.623;  245.800;    0.000;  111.000
379.753; -161.700;-1107.000; -974.000
379.883;  382.300;   59.000;  156.000
380.013;  -19.600;-1081.000;-1017.000
380.143; -184.200;-1097.000;-1056.000
380.273; -174.500; -985.000; -861.000
380.403;   33.000; -344.000; -257.000
380.533;  -79.700; -651.000; -664.000
380.663;  186.900;  173.000;  128.000
380.793; -163.900;-1027.000;-1074.000
380.923;   -2.000; -103.000;  -34.000
381.053; -146.000; -613.000; -623.000
381.183;   16.300; -106.000; -248.000
381.313;   68.900; -656.000; -470.000
381.443;   91.200; -692.000; -473.000
381.573;  297.800; -402.000; -409.000
381.703;  457.800;-1249.000;-1095.000
381.833; -254.500;-1454.000;-1336.000
381.963;  255.900; -134.000;  -87.000
382.093; 2196.100; -925.000; -909.000
382.223;  604.700; -713.000; -602.000
382.353;  -25.500; -801.000; -608.000
382.482;  595.500;-1091.000; -964.000
382.612; 1170.500; -872.000; -644.000
382.742;  678.400; -695.000; -622.000
382.872;  428.300; -565.000; -551.000
383.002;  180.100;  347.000; -132.000
383.131;   50.300; -226.000; -160.000
383.261;  -45.000; -706.000; -768.000
383.391;  529.800; -552.000; -377.000
383.521; 5912.600;  451.000;  263.000
383.650; 1285.800; -947.000; -904.000
383.780;   49.900; -783.000; -656.000
383.910;  277.000;  880.000;  802.000
384.039;   59.600; -794.000; -656.000
384.169;  343.800;-1205.000;-1017.000
384.299;   -2.400; -650.000; -662.000
384.428; -128.000; -764.000; -680.000
384.558;  -18.100; -308.000; -275.000
384.687;  -11.000; -414.000; -334.000
384.817;  108.100;   75.000;   -2.000
384.947;   54.800; -234.000; -141.000
385.076;  590.600;  982.000;  912.000
385.206;  279.900;  369.000;  480.000
385.335;  -14.600; -549.000; -417.000
385.465; -127.900; -655.000; -663.000
385.594;  284.900;  -53.000;  -44.000
385.724;  630.300; -868.000; -838.000
385.853;  265.000; -296.000; -270.000
385.982; 2255.000; -743.000; -787.000
386.112; 3257.500;-1052.000; -871.000
386.241;  224.000; -307.000; -312.000
386.371;  107.700; -174.000;  -87.000
386.500;   20.900; -825.000; -789.000
386.629;   55.300; -874.000; -817.000
386.759;  172.100;  -43.000;   68.000
386.888;   95.200; -170.000; -250.000
387.017; -106.600; -648.000; -620.000
387.147; -128.800; -771.000; -798.000
387.276;   24.100; -410.000; -397.000
387.405;   58.100; -398.000; -342.000
387.535;  -44.100; -452.000; -361.000
387.664;  -61.900; -692.000; -620.000
387.793;  139.200; -198.000; -113.000
387.922;  853.400;  255.000;  200.000
388.052;   66.500; -576.000; -423.000
388.181;   86.000; -342.000; -472.000
388.310;  -30.800; -889.000; -710.000
388.439;  -29.200; -749.000; -742.000
388.568;  370.800;  365.000;  244.000
388.697; 1658.700; -756.000; -653.000
388.826;  285.400; -768.000; -666.000
388.956;  103.000; -285.000; -307.000
389.085;  -32.500; -347.000; -287.000
389.214; -156.500; -842.000; -872.000
389.343;  -73.900; -645.000; -413.000
389.472;  858.300;  126.000;  149.000
389.601;  933.300;   91.000;    0.000
389.730;   47.700; -568.000; -687.000
389.859;  158.200;  226.000;   46.000
389.988;  344.100; -423.000; -408.000
390.117;  229.800; -168.000; -146.000
390.246;   49.100; -331.000; -320.000
390.375;  146.800; -673.000; -626.000
390.504;  -64.800; -703.000; -621.000
390.633; -141.600; -672.000; -726.000
390.761;  -96.300; -732.000; -645.000
390.890;   65.300;   -4.000; -130.000
391.019;  -23.200; -421.000; -441.000
391.148; -202.300; -826.000; -855.000
391.277; -101.500; -576.000; -493.000
391.406; -135.900; -821.000; -805.000
391.534;  108.100;  574.000; -301.000
391.663;  -84.500; -583.000; -645.000
391.792;  -89.000; -673.000; -701.000
391.921;  179.900;   -3.000;   15.000
392.050;  319.100; -287.000; -228.000
392.178;  -96.600;-1206.000;-1061.000
392.307;  217.400; -758.000; -712.000
392.436;  109.900; -427.000; -641.000
392.564;  117.200;  166.000;   -6.000
392.693; -156.400; -860.000; -682.000
392.822;  344.200; -529.000; -534.000
392.950;   93.800; -880.000; -714.000
393.079;  517.900; -188.000; -328.000
393.208;    4.000; -488.000; -511.000
393.336;   30.800; -170.000; -145.000
393.465;  -46.400; -317.000; -199.000
393.593;   70.900;   62.000;   79.000
393.722; -244.800;-1121.000; -916.000
393.850;   19.600; -188.000;  -61.000
393.979; -266.700; -926.000; -805.000
394.107;  -57.200; -517.000; -537.000
394.236;  -17.800; -570.000; -507.000
394.364;  511.000;  383.000;  206.000
394.493;  722.100; -911.000; -767.000
394.621;   26.500; -955.000; -916.000
394.750; 1406.100; -873.000; -923.000
394.878; 5725.600; -247.000; -149.000
395.007; 7156.900; -721.000; -807.000
395.135;  530.900; -790.000; -721.000
395.263; -143.100;-1038.000;-1040.000
395.392;   66.200;  -25.000; -107.000
395.520; -178.900; -818.000; -679.000
395.648; -177.700; -865.000; -915.000
395.777;    1.500; -366.000; -405.000
395.905;  -52.700; -449.000; -564.000
396.033;   75.300;  217.000;  172.000
396.162; 1232.800; -399.000; -453.000
396.290; 1027.800;  -17.000;   -2.000
396.418;  206.700; -555.000; -514.000
396.546; -151.100; -571.000; -466.000
396.674; -132.200; -850.000; -878.000
396.803;   41.300;  -72.000;  -23.000
396.931;  208.800; -179.000; -199.000
397.059;   56.300;-1026.000; -989.000
397.187; -181.700;-1026.000; -975.000
397.315; -204.600; -884.000; -649.000
397.443; -134.700; -592.000; -443.000
397.572; -143.200; -578.000; -424.000
397.700;  -12.100; -607.000; -614.000
397.828;   29.700;  120.000;  -90.000
397.956;  -24.600; -508.000; -478.000
398.084;  -97.600; -767.000; -626.000
398.212;  110.100;  137.000;  124.000
398.340;  100.500;  -56.000;  159.000
398.468;   67.600; -390.000; -169.000
398.596; -220.800; -993.000; -953.000
398.724; -189.400; -762.000; -767.000
398.852; -270.900;-1024.000; -976.000
398.980;  -98.900; -560.000; -560.000
399.108;  -84.200; -982.000; -735.000
399.236;  167.400;   13.000;    8.000
399.363;   76.400;  222.000;  196.000
399.491;  -70.200; -404.000; -398.000
399.619; -200.500; -829.000; -800.000
399.747; -157.100; -859.000; -771.000
399.875;  148.600;  220.000;  234.000
400.003;  -83.600; -359.000; -284.000
400.130; -120.700; -421.000; -341.000
400.258;   -8.000;  -83.000;   38.000
400.386;  -91.600; -352.000; -168.000
400.514;  -43.900; -526.000; -587.000
400.641; -163.900; -928.000; -802.000
400.769; -229.600; -979.000; -888.000
400.897; -159.400; -838.000; -793.000
401.025;   18.800; -166.000; -152.000
401.152;   30.600;  220.000;   38.000
401.280;  -77.800; -430.000; -429.000
401.408; -156.200; -712.000; -576.000
401.535; -166.100; -735.000; -758.000
401.663; -332.200;-1134.000;-1054.000
401.790; -124.500; -514.000; -525.000
401.918;  116.900;  436.000;  405.000
402.046;   42.100;  134.000;  122.000
402.173;  -21.400;  -18.000;    7.000
402.301; -111.200; -519.000; -397.000
402.428;  161.000;  528.000;  383.000
402.556; -200.300;-1188.000; -913.000
402.683;    3.100;  -20.000;   -1.000
402.811;   12.700;  -37.000; -206.000
402.938;   33.500;   20.000;   27.000
403.066;  315.200; -574.000; -558.000
403.193;  542.300;  299.000;  239.000
403.321;  434.600; -396.000; -574.000
403.448;  529.800;   83.000;   27.000
403.575;  283.000;  -90.000;  -46.000
403.703; -178.800; -732.000; -557.000
403.830;  -66.300; -531.000; -496.000
403.957; -230.300;-1117.000;-1023.000
404.085;   97.600;  -61.000; -172.000
404.212;  226.100;  -50.000;   63.000
404.339;  583.500; -566.000; -306.000
404.467;11043.100; -612.000; -524.000
404.594; 6634.100; -287.000; -227.000
404.721; 1474.100; -869.000; -764.000
404.848;  205.500; -113.000; -202.000
404.976; -138.000; -856.000; -783.000
405.103;   39.300;  -14.000;  -82.000
405.230;   42.200;  190.000;  226.000
405.357;  116.700;  117.000;   44.000
405.484;  558.200;  -49.000;    5.000
405.612;  139.500; -548.000; -563.000
405.739;  -65.500; -488.000; -243.000
405.866;  231.500;  669.000;  385.000
405.993;  -42.300; -398.000; -102.000
406.120; -203.900; -801.000; -887.000
406.247;  -59.900; -323.000; -342.000
406.374;  802.100;  540.000;  629.000
406.501;  129.300; -632.000; -702.000
406.628;  -87.500; -621.000; -589.000
406.755; -141.000; -803.000; -620.000
406.882;  -22.200; -228.000; -277.000
407.009; -187.100; -719.000; -628.000
407.136;  136.400; -480.000; -401.000
407.263;  196.200; -939.000; -829.000
407.390;  -89.000; -692.000; -614.000
407.517; -303.100;-1139.000;-1187.000
407.644;  -52.600; -332.000; -256.000
407.771; -109.600; -249.000; -287.000
407.898;   44.800;  168.000;  328.000
408.025;  -76.600; -421.000; -313.000
408.151;   29.500;   82.000;  153.000
408.278; -111.000; -267.000; -216.000
408.405; -163.100; -931.000; -899.000
408.532;  -77.300; -549.000; -542.000
408.659; -152.700; -677.000; -648.000
408.785; -333.300;-1298.000;-1170.000
408.912;  -48.600; -412.000; -296.000
409.039; -145.100; -610.000; -686.000
409.166; -173.000; -591.000; -555.000
409.292; -174.100; -571.000; -534.000
409.419; -150.800; -665.000; -649.000
409.546; -126.000; -431.000; -192.000
409.672; -163.500; -713.000; -545.000
409.799;   19.700;  -36.000;   34.000
409.926;  -21.000; -180.000; -179.000
410.052; -339.300;-1127.000;-1091.000
410.179;  -42.100; -368.000; -392.000
410.305; -139.000; -375.000; -493.000
410.432;  -55.600; -220.000; -333.000
410.558; -130.300; -305.000; -380.000
410.685; -140.300; -688.000; -431.000
410.812; -134.500; -409.000; -588.000
410.938; -212.100; -964.000; -808.000
411.065; -126.100; -671.000; -645.000
411.191;   23.500; -189.000; -174.000
411.317; -202.700; -823.000; -742.000
411.444;  -65.900; -317.000; -246.000
411.570;  -96.500; -339.000; -294.000
411.697; -167.500; -758.000; -752.000
411.823; -298.300; -989.000; -999.000
411.949;   42.100;  -56.000;   17.000
412.076; -140.200; -539.000; -519.000
412.202; -172.900; -758.000; -757.000
412.329; -212.900; -798.000; -752.000
412.455; -146.800; -821.000; -657.000
412.581;   20.200;  -15.000;  172.000
412.707;  -75.600; -540.000; -457.000
412.834;   98.100;  156.000;  219.000
412.960; -116.200; -785.000; -784.000
413.086; -180.100; -743.000; -701.000
413.212;  353.100;  604.000;  578.000
413.339; -146.100; -685.000; -701.000
413.465;   44.900; -364.000; -310.000
413.591; -165.800; -757.000; -474.000
413.717;  -57.400; -358.000; -366.000
413.843; -218.500; -839.000; -861.000
413.969;  -28.600;  -47.000; -292.000
414.096; -146.700; -679.000; -679.000
414.222;   42.800;  -33.000;   85.000
414.348;  -20.900; -652.000; -385.000
414.474;  222.200;   38.000;  -52.000
414.600;    0.700; -126.000; -144.000
414.726;   21.000;  -96.000;  -55.000
414.852;  -57.800; -365.000; -342.000
414.978;  120.800;  104.000;  -18.000
415.104;  150.500;   38.000;   80.000
415.230;  101.000; -329.000; -330.000
415.356;   80.200; -409.000; -514.000
415.482;  404.700;   13.000;  -35.000
415.608;  564.600; -247.000; -323.000
415.734; 1962.600;   67.000;   38.000
415.860;39150.600; -875.000; -767.000
415.986;25521.800; -685.000; -607.000
416.111; 2067.200; -798.000; -652.000
416.237;  489.400; -424.000; -571.000
416.363; 2373.600; -765.000; -733.000
416.489; 7778.500; -324.000; -251.000
416.615;  763.300; -707.000; -742.000
416.741;   -3.000; -677.000; -784.000
416.866; -165.000; -673.000; -736.000
416.992; -197.100; -801.000; -818.000
417.118;   12.000;  -41.000;  -80.000
417.244;  -88.900; -798.000; -531.000
417.369; -122.400; -801.000; -612.000
417.495;   62.900; -325.000; -254.000
417.621; -102.700;-1015.000; -803.000
417.746;   66.500; -579.000; -572.000
417.872;  140.400; -254.000; -144.000
417.998;  140.800; -515.000; -530.000
418.123; 2264.700;-1073.000; -845.000
418.249;10102.200; -512.000; -601.000
418.374; 1270.100; -916.000; -824.000
418.500;  258.600; -383.000; -482.000
418.626;  251.000;   70.000;  -59.000
418.751;  296.200; -549.000; -448.000
418.877;  387.900; -637.000; -643.000
419.002; 3743.600; -688.000; -560.000
419.128;23760.100; -930.000; -721.000
419.253; 5182.900; -967.000; -837.000
419.379;  763.200; -391.000; -338.000
419.504;  789.400;  325.000;  415.000
419.629;  956.000; -393.000; -212.000
419.755; 7325.200; -317.000; -254.000
419.880;38994.500;  -98.000;   67.000
420.006;22093.500; -280.000; -221.000
420.131;53515.800; -662.000; -775.000
420.256; 6937.100; -315.000; -316.000
420.382;  953.500; -665.000; -687.000
420.507;  151.900; -649.000; -778.000
420.632;  246.000; -337.000; -339.000
420.758;  372.100; -251.000; -425.000
420.883; -138.300; -876.000; -672.000
421.008; -155.800; -775.000; -619.000
421.133; -113.600; -509.000; -467.000
421.259;   -2.700; -325.000; -259.000
421.384; -191.700; -834.000; -693.000
421.509;  -49.900;-1052.000; -862.000
421.634; 1763.800; -936.000; -820.000
421.759;  693.400; -359.000; -327.000
421.885; -114.400; -717.000; -656.000
422.010;  -96.400; -673.000; -542.000
422.135; -262.500; -695.000; -727.000
422.260;  141.100;  340.000;  280.000
422.385;   -4.800;   12.000;  -98.000
422.510;   91.400;  151.000;  -26.000
422.635;   49.800;  -87.000;  -43.000
422.760;  200.300; -766.000; -791.000
422.885;  121.100;  -57.000;  -80.000
423.010;   -0.400; -112.000; -169.000
423.135; -147.500; -481.000; -561.000
423.260;   33.900; -150.000; -245.000
423.385;  188.000;  476.000;  222.000
423.510;  117.400;   71.000;  -22.000
423.635;  183.100;  133.000;   45.000
423.760;  184.800;  383.000;  328.000
423.885;  144.800;  336.000;  391.000
424.010;   73.000;  -68.000;  -13.000
424.135;   43.600;    5.000;  -33.000
424.259;  -82.900; -654.000; -457.000
424.384;  -84.600; -279.000; -272.000
424.509;    6.300; -260.000; -186.000
424.634; -116.600; -761.000; -623.000
424.759;   -2.400; -688.000; -544.000
424.883;    7.400; -506.000; -527.000
425.008;  347.100; -502.000; -410.000
425.133; 3892.900; -679.000; -653.000
425.258; 1602.100; -517.000; -381.000
425.382; 1814.800; -867.000; -774.000
425.507; 3922.100; -487.000; -543.000
425.632;  734.000; -802.000; -663.000
425.756;  900.800; -256.000; -146.000
425.881;13178.900; -831.000; -857.000
426.006;32008.200; -604.000; -355.000
426.130; 4500.700; -696.000; -508.000
426.255;  618.300; -611.000; -491.000
426.379;  364.500; -189.000; -577.000
426.504;  784.600;  660.000;  544.000
426.629; 8086.900; -519.000; -466.000
426.753; 4889.700;   64.000;  -46.000
426.878;  630.300; -252.000; -288.000
427.002;  315.900; -651.000; -668.000
427.127; 3302.500;  -35.000; -158.000
427.251;21738.100;  372.000;  401.000
427.375; 5385.200; -191.000; -173.000
427.500; 3661.600; -616.000; -610.000
427.624; 1096.400; -234.000; -400.000
427.749;  203.700; -216.000; -225.000
427.873;  -67.800; -499.000; -412.000
427.997;   -4.700; -222.000; -230.000
428.122;  233.400;  795.000;  703.000
428.246;  224.800;  433.000;  434.000
428.371; -223.200; -869.000; -773.000
428.495; -146.200; -624.000; -646.000
428.619;   -1.900; -186.000; -117.000
428.743;  140.400;   65.000;  132.000
428.868;   65.600; -732.000; -643.000
428.992; 2281.600; -219.000; -326.000
429.116;  790.200; -329.000; -357.000
429.240;  514.900;  419.000;  426.000
429.365;  -10.300; -454.000; -574.000
429.489;  -44.400; -638.000; -647.000
429.613;  100.600; -236.000; -177.000
429.737;  104.400; -563.000; -432.000
429.861;  574.300; -247.000; -133.000
429.985;11188.800; -425.000; -305.000
430.109;10831.000; -770.000; -908.000
430.234; 1267.700;   76.000;  -50.000
430.358;  180.600; -250.000; -160.000
430.482;  -56.100; -672.000; -564.000
430.606;  -69.100; -655.000; -375.000
430.730;   88.100; -437.000; -388.000
430.854;  216.200; -909.000; -835.000
430.978; -106.800; -795.000; -764.000
431.102; -106.600; -499.000; -422.000
431.226; -130.800; -874.000; -815.000
431.350;  151.400;  345.000;  422.000
431.474;  -71.600; -661.000; -373.000
431.597; -264.700;-1060.000; -848.000
431.721;  -61.100; -276.000; -267.000
431.845; -199.700; -704.000; -472.000
431.969;  -89.700; -304.000; -349.000
432.093; -135.000; -395.000; -317.000
432.217;   64.800;   32.000;   82.000
432.341; -129.800; -523.000; -518.000
432.464;   96.900;   96.000;   40.000
432.588;  357.800; -401.000; -329.000
432.712;  205.200;  -52.000;  -52.000
432.836;  147.700;  213.000;  263.000
432.959;   44.400; -372.000; -311.000
433.083;  220.500;   11.000;    2.000
433.207;  763.100;  285.000;  930.000
433.330;10144.300; -391.000; -200.000
433.454;11212.100; -654.000; -638.000
433.578; 6649.600;  583.000;  278.000
433.701; 1127.900; -623.000; -675.000
433.825;  237.400; -292.000; -299.000
433.949;  339.200;   28.000;  -72.000
434.072;  106.100; -410.000; -323.000
434.196;   37.000; -309.000; -117.000
434.319; 7942.400;25482.000;25124.000
434.443; 1487.100; -656.000; -603.000
434.566; 4982.800;  281.000;   62.000
434.690;  780.200; -637.000; -383.000
434.813;  108.000; -251.000; -173.000
434.937;  -84.900; -569.000; -696.000
435.060;  -44.400; -423.000; -332.000
435.184;  536.500; -492.000; -217.000
435.307;  264.500;  159.000;  102.000
435.431;   12.400;  -40.000;   24.000
435.554;  -99.700; -399.000; -240.000
435.677; -109.400; -350.000; -258.000
435.801;   12.200;  -25.000;   49.000
435.924;   45.600;    1.000;  -67.000
436.048; -237.400;-1019.000; -732.000
436.171;  -67.800; -240.000;  -66.000
436.294;   44.000; -248.000; -229.000
436.417;  238.400; -963.000; -849.000
436.541; -130.400; -814.000; -840.000
436.664;  -27.200; -242.000; -316.000
436.787;   73.500;   13.000;  113.000
436.910; -161.200; -792.000; -422.000
437.034;   46.100;  142.000;  143.000
437.157;  152.600;  -11.000;    0.000
437.280;  -66.700; -392.000; -292.000
437.403; -157.200; -982.000; -869.000
437.526; 1000.200; -903.000; -865.000
437.649; 3342.900; -505.000; -332.000
437.772;  388.500; -692.000; -540.000
437.896;  312.900;  700.000;  544.000
438.019; -126.500; -758.000; -503.000
438.142;  -94.800; -596.000; -506.000
438.265;  -34.300; -639.000; -670.000
438.388;  904.300; -520.000; -410.000
438.511;  143.500; -597.000; -394.000
438.634;  -35.500; -247.000; -125.000
438.757; -223.900; -693.000; -619.000
438.880;   31.200;  -34.000;  -57.000
439.003; -113.300; -417.000; -437.000
439.126;  -81.400; -287.000; -167.000
439.248;  -77.900;  -98.000; -139.000
439.371;    2.000;    9.000;  -53.000
439.494;  126.000;  510.000;  439.000
439.617;  -43.000;   65.000;  -88.000
439.740; -305.800; -968.000; -816.000
439.863; -206.100; -755.000; -595.000
439.986; -192.200; -476.000; -431.000
440.108;  -45.100; -161.000; -112.000
440.231; -253.300; -950.000; -836.000
440.354;   -5.400;  -64.000; -150.000
440.477;   75.200; -566.000; -542.000
440.599;   69.100; -200.000; -225.000
440.722; -188.100; -709.000; -586.000
440.845;  222.900;  751.000;  928.000
440.968; -156.300; -415.000; -311.000
441.090;  -41.200; -199.000;  -33.000
441.213; -271.600;-1021.000; -825.000
441.336;  -21.400; -159.000;   -5.000
441.458;  -91.100; -549.000; -396.000
441.581; -123.900; -628.000; -629.000
441.703;  -88.700; -152.000;   13.000
441.826; -170.900; -557.000; -400.000
441.948;  -49.600;   56.000;   51.000
442.071;  154.900;  555.000;  424.000
442.193; -180.100; -531.000; -485.000
442.316;  117.500;  152.000;   97.000
442.438;  101.100; -233.000;  -10.000
442.561;  178.300;  272.000;  262.000
442.683;  873.100; -809.000; -522.000
442.806; 1691.100;   -8.000;   74.000
442.928;  -15.500; -859.000; -604.000
443.051;  -75.200; -577.000; -373.000
443.173; -137.000; -341.000; -339.000
443.295; -110.200; -263.000; -371.000
443.418; -120.200; -321.000;  -29.000
443.540;   51.500; -106.000;   -4.000
443.662; -185.100; -563.000; -465.000
443.785;   45.300;  335.000;  199.000
443.907; -160.400; -362.000; -208.000
444.029; -195.900; -767.000; -494.000
444.152; -190.000; -644.000; -554.000
444.274;   24.700;  -18.000;  -24.000
444.396; -172.000; -461.000; -221.000
444.518; -190.400; -691.000; -454.000
444.640; -157.000; -268.000; -111.000
444.763;   65.000;  388.000;  249.000
444.885; -152.300; -432.000; -392.000
445.007;    2.100;   35.000;   86.000
445.129; -178.100; -610.000; -515.000
445.251; -139.600; -372.000; -439.000
445.373; -215.300; -537.000; -386.000
445.495;  109.400;  242.000;  350.000
445.617;  158.700;  853.000;  753.000
445.739;  -67.900; -215.000;  -97.000
445.861;  -15.000; -245.000; -112.000
445.984;  -21.100; -267.000; -101.000
446.105;  283.700; -418.000; -251.000
446.227;  976.300; -176.000;  -19.000
446.349;   -6.600; -358.000; -249.000
446.471; -134.700; -615.000; -448.000
446.593;  -52.400; -316.000;   19.000
446.715;   41.800;  -67.000;   41.000
446.837;  175.400;  697.000;  832.000
446.959; -135.900; -457.000; -478.000
447.081; -200.000; -628.000; -518.000
447.203;  216.400;  862.000;  834.000
447.325; -115.400; -270.000;   42.000
447.446;   47.400;  286.000;  530.000
447.568; -293.000; -921.000; -803.000
447.690; -100.100; -236.000; -245.000
447.812; -259.200; -798.000; -519.000
447.933;  -10.500;  155.000;  127.000
448.055;  -58.100; -306.000; -261.000
448.177;  279.100;   31.000;   79.000
448.299;   85.000; -935.000; -727.000
448.420;  113.800;  -25.000;  159.000
448.542;  -22.900;   -3.000;   33.000
448.664;   44.200;  109.000;  322.000
448.785;  -16.700;  265.000;   83.000
448.907;  -88.500; -614.000; -353.000
449.028;  -48.400; -771.000; -471.000
449.150;  194.200;  492.000;  589.000
449.272; -342.800;-1044.000; -913.000
449.393;  160.600;  612.000;  694.000
449.515; -210.800; -634.000; -581.000
449.636;  -53.300; -264.000; -155.000
449.758;  213.300;  763.000;  622.000
449.879; -126.600; -498.000; -396.000
450.001;  -94.400; -149.000;  -49.000
450.122;   12.400;  -95.000;  162.000
450.244;   24.300;   37.000;  364.000
450.365; -103.900; -495.000; -301.000
450.486;   -2.700;   80.000;  268.000
450.608;  123.100;  393.000;  326.000
450.729;  219.300;  578.000;  645.000
450.850;   53.300; -574.000; -466.000
450.972; 1585.800; -552.000; -389.000
451.093; 9481.500;  190.000;  588.000
451.214; 3587.700; -516.000; -337.000
451.336;  747.000;  773.000;  579.000
451.457;  147.400;  264.000;  393.000
451.578;  -12.800; -118.000;  -74.000
451.699; -195.500; -546.000; -540.000
451.821;  -73.500; -284.000;  -50.000
451.942;   73.800;  278.000;  285.000
452.063;  149.200;  228.000;  419.000
452.184; 1198.100;  -54.000;  -49.000
452.305; 2061.900;  103.000;  170.000
452.427;  260.600; -549.000; -301.000
452.548;   57.800;   23.000;   79.000
452.669;  -32.600; -257.000;  -89.000
452.790;  -15.300;    3.000;  -18.000
452.911;   61.600;  195.000;  259.000
453.032;  -66.300; -289.000;  -60.000
453.153;   -2.400;  -29.000;   81.000
453.274;  230.600;  737.000;  868.000
453.395;  -28.900;  -51.000;  175.000
453.516;  372.600; 1317.000; 1388.000
453.637;  -70.200; -205.000; -150.000
453.758;  -28.600;   15.000;   69.000
453.879; -185.100; -462.000; -250.000
454.000;  258.000; 1086.000;  948.000
454.121; -197.600; -554.000; -326.000
454.242; -152.500; -599.000; -383.000
454.362;  -35.600;  -99.000;  114.000
454.483;  -22.700; -309.000; -229.000
454.604;  163.100;  512.000;  580.000
454.725; -178.500; -627.000; -555.000
454.846; -196.500; -474.000; -406.000
454.967;   27.900;  230.000;  539.000
455.087;   -5.300;  179.000;  153.000
455.208;  175.300;  554.000;  856.000
455.329;  -53.400;  -22.000;   82.000
455.450;  173.900;  473.000;  633.000
455.570; -105.700; -234.000; -211.000
455.691;   -5.500;  201.000;  407.000
455.812; -121.800; -270.000;  -92.000
455.932;  -36.400;  107.000;  -97.000
456.053;  -95.700;   36.000;   24.000
456.173; -155.000; -433.000; -355.000
456.294; -210.700; -476.000; -303.000
456.415;  -27.700;  -73.000;   70.000
456.535;   -0.600;  297.000;  273.000
456.656;   10.400;  132.000;  240.000
456.776;  -63.700;    3.000;  298.000
456.897;   55.600;  308.000;  513.000
457.017;  -79.700; -153.000;   -3.000
457.138; -120.700; -402.000; -249.000
457.258;    4.500;  263.000;  224.000
457.379;   60.700;  509.000;  521.000
457.499;   14.900;  443.000;  432.000
457.620; -157.200; -407.000; -231.000
457.740; -117.500; -132.000;  -11.000
457.860;  -48.200;   87.000;   44.000
457.981;  -29.800;  132.000;  124.000
458.101;  -87.000;  -89.000;   40.000
458.221;   25.900;  336.000;  402.000
458.342;  -44.100;   -4.000;  -37.000
458.462;  119.800;  617.000;  352.000
458.582;  -37.700; -302.000; -294.000
458.703;   64.100;  303.000;  154.000
458.823;    6.600;   22.000;  163.000
458.943;  129.000;  341.000;  467.000
459.063;   17.000; 1124.000;  192.000
459.183;    5.100;  328.000;  313.000
459.304;  104.500;  315.000;  517.000
459.424;  -74.700; -246.000;  -89.000
459.544;  803.200;  388.000;  764.000
459.664; 1656.600;  499.000;  506.000
459.784;  620.200; 1004.000; 1175.000
459.904;  199.200;  867.000;  744.000
460.024;  235.000;  867.000;  684.000
460.144;   76.500;  449.000;  554.000
460.264;   73.900;  515.000;  327.000
460.385;  -97.900; -145.000; -119.000
460.505;  172.500;  905.000;  858.000
460.625;  -99.900;  -17.000;  -68.000
460.745;   43.100;  396.000;  541.000
460.864;  -38.800;  153.000;  469.000
460.984;  101.500;  499.000;  573.000
461.104;  355.300; 1656.000; 1775.000
461.224;  113.200;  657.000;  650.000
461.344;   -2.300;  431.000;  360.000
461.464;   -1.000;  258.000;  513.000
461.584;   28.400;  283.000;  466.000
461.704;  -54.100;   58.000;  108.000
461.824;  -45.600;  238.000;  259.000
461.943;  -18.900;  191.000;  130.000
462.063;  -78.200;    2.000;  324.000
462.183;  135.700;  639.000;  717.000
462.303;  270.000; 1678.000; 1230.000
462.422;  110.900;  781.000;  840.000
462.542;   -3.900;  271.000;  391.000
462.662;  117.200;  353.000;  380.000
462.782;  512.400;  833.000;  572.000
462.901;  962.700;  545.000;  717.000
463.021;  569.400; 1702.000; 1638.000
463.141;   49.200;  337.000;  770.000
463.260;    4.500;  614.000;  474.000
463.380;   96.400;  902.000;  884.000
463.499;    2.000;  342.000;  332.000
463.619;   58.000;  581.000;  559.000
463.738;  311.700; 1644.000;  903.000
463.858;  136.000;  657.000;  811.000
463.978;   -6.300;  542.000;  396.000
464.097;  156.500;  921.000; 1114.000
464.217;  317.700; 1196.000; 1143.000
464.336;  310.200; 1068.000; 1130.000
464.455;  -20.300;  328.000;  659.000
464.575;  165.500;  597.000;  602.000
464.694;  364.000; 1204.000; 1179.000
464.814;  302.900; 1190.000; 1138.000
464.933;  210.600; 1095.000; 1027.000
465.052;  274.500; 1412.000; 1054.000
465.172;  255.900;  922.000;  799.000
465.291;  351.200; 1376.000; 1320.000
465.410;   87.800;  462.000;  735.000
465.530;  256.800; 1355.000; 1310.000
465.649;  199.900; 1209.000; 1273.000
465.768;  388.600; 1673.000; 1508.000
465.888;  163.500;  941.000; 1174.000
466.007;  295.800; 1335.000; 1440.000
466.126;   91.300;  721.000;  641.000
466.245;  189.500; 1176.000; 1187.000
466.364;  125.800;  950.000; 1060.000
466.484;  202.600; 1024.000; 1213.000
466.603;  148.200; 1101.000; 1222.000
466.722;  319.200; 1490.000; 1769.000
466.841;  236.200; 1151.000; 1401.000
466.960;  171.100; 1069.000;  972.000
467.079;  351.700; 1971.000; 1786.000
467.198;  211.200; 1238.000; 1181.000
467.317;  258.700; 1768.000; 1162.000
467.436;  193.000; 1709.000; 1261.000
467.555;  310.600; 1796.000; 1746.000
467.674;  208.900; 1227.000; 1329.000
467.793;  149.100; 1376.000; 1374.000
467.912;  254.000; 1658.000; 1539.000
468.031;  353.000; 2038.000; 1930.000
468.150;  404.500; 1842.000; 1837.000
468.269;  422.600; 2313.000; 2090.000
468.388;  461.000; 2168.000; 2339.000
468.507;  584.800; 2884.000; 2903.000
468.626;  677.500; 2555.000; 2541.000
468.744;  352.600; 2018.000; 2174.000
468.863;  496.600; 2312.000; 2523.000
468.982;  283.900; 1503.000; 1555.000
469.101;  549.300; 2788.000; 2692.000
469.220;  390.400; 2333.000; 2176.000
469.338;  615.600; 2935.000; 3051.000
469.457;  484.700; 2719.000; 2545.000
469.576;  813.500; 3953.000; 3784.000
469.695;  565.000; 2877.000; 3066.000
469.813;  948.600; 4148.000; 4192.000
469.932;  902.300; 4255.000; 4485.000
470.051;  954.700; 4075.000; 4161.000
470.169; 1836.500; 4470.000; 4338.000
470.288; 2952.600; 4700.000; 4809.000
470.406; 1678.800; 5059.000; 5194.000
470.525; 1326.200; 6101.000; 5787.000
470.644; 1357.000; 6847.000; 6794.000
470.762; 1780.800; 8397.000; 7873.000
470.881; 1957.900; 8651.000; 8464.000
470.999; 2188.400; 9685.000; 9151.000
471.118; 2291.600;11174.000;10711.000

