
Integration time [ms]: 100.000
Averaging Nr. [scans]: 40
Smoothing Nr. [pixels]: 0
Data measured with spectrometer [name]: 2101012U2
Wave   ;Sample   ;Dark     ;Reference
[nm]   ;[counts] ;[counts] ;[counts] 

197.733;   67.625;  516.000;  404.000
197.879;  -76.250; -610.000; -634.000
198.025;  -41.250; -475.000; -420.000
198.171;  -71.375; -602.000; -612.000
198.317;  -32.025; -401.000; -316.000
198.463;  -64.375; -655.000; -404.000
198.609;   14.425;  181.000; -137.000
198.755;  -59.450; -644.000; -410.000
198.901;  -65.150; -505.000; -424.000
199.047;  -63.725; -615.000; -488.000
199.193;  -33.400; -230.000; -468.000
199.339;  -45.225; -222.000; -369.000
199.485;   22.450;  330.000;  271.000
199.631;    5.400;  227.000;  310.000
199.777;  -56.900; -466.000; -398.000
199.923;  -61.225; -610.000; -424.000
200.069;   -0.250; -141.000;  -58.000
200.215;   57.100;  128.000;  453.000
200.361;   35.600;  243.000;  477.000
200.507;  -55.475; -600.000; -373.000
200.653;  -24.375; -371.000; -194.000
200.798;  -38.175; -215.000; -125.000
200.944;  -10.600; -146.000;  -41.000
201.090;   37.750;   61.000;  222.000
201.236;   -7.775; -116.000; -158.000
201.382;  110.475;  874.000;  903.000
201.528;   -1.325;  -58.000;  -48.000
201.674;  -40.600; -386.000; -293.000
201.819;  -61.300; -540.000; -439.000
201.965;  -82.350; -699.000; -447.000
202.111;  -35.375; -273.000; -226.000
202.257;  -27.675; -250.000; -238.000
202.402;    1.150;   13.000;  -36.000
202.548;  -13.950; -169.000; -116.000
202.694;   68.525;  410.000; -183.000
202.840;  -70.725; -603.000; -531.000
202.985;  -67.975; -681.000; -639.000
203.131;  -90.200; -832.000; -666.000
203.277;  -28.350; -199.000; -262.000
203.423;  -49.175; -434.000; -520.000
203.568;  -35.925; -462.000; -237.000
203.714;  -47.300; -535.000; -542.000
203.860;  -80.075; -682.000; -641.000
204.005;   16.850;  112.000;  167.000
204.151;   72.825;  561.000;  556.000
204.296;  -33.450; -354.000; -221.000
204.442;  -64.850; -600.000; -547.000
204.588;  -76.600; -592.000; -579.000
204.733;   11.375;  178.000;  168.000
204.879; -115.350;-1018.000; -822.000
205.025;   14.075;  -99.000;  126.000
205.170;   -3.300;  -17.000;   94.000
205.316;   79.525;  438.000;  661.000
205.461;  -67.800; -698.000; -554.000
205.607;   73.000;  609.000;  665.000
205.752;  -70.350; -626.000; -551.000
205.898;  -53.150; -501.000; -391.000
206.043;  -56.450; -578.000; -506.000
206.189;  -43.425; -243.000; -285.000
206.334;   72.250;  554.000;  606.000
206.480;   60.925;  409.000;  239.000
206.625;  -66.425; -529.000; -552.000
206.771;  -53.225; -451.000; -373.000
206.916;  -17.175; -210.000; -537.000
207.062;  -71.400; -545.000; -591.000
207.207;  -63.100; -546.000; -443.000
207.353;   48.475;  185.000;  460.000
207.498;    9.200;  196.000;   85.000
207.643;  -47.200; -501.000; -370.000
207.789; -119.750;-1069.000; -910.000
207.934;  -81.775; -665.000; -713.000
208.080;  -26.075; -154.000;   66.000
208.225;  -15.825;  -22.000;  -57.000
208.370;  -85.700; -727.000; -619.000
208.516;  -79.425; -741.000; -487.000
208.661;  -37.150; -127.000;  -69.000
208.806;  -28.650; -165.000; -171.000
208.952;  -99.800;-1044.000; -731.000
209.097;   71.050;  378.000;  349.000
209.242;  -37.725; -307.000; -382.000
209.387;   82.875;  392.000;  350.000
209.533;  -37.625; -321.000; -350.000
209.678;   81.375;  472.000;  543.000
209.823;  -49.425; -408.000; -310.000
209.969; -107.875; -860.000; -757.000
210.114;  -97.675; -907.000; -719.000
210.259; -109.975; -939.000; -889.000
210.404;   -8.500; -171.000;  103.000
210.549;   13.150;  108.000;    3.000
210.695;  -16.275;   -3.000;  -95.000
210.840;   35.600;   94.000;   67.000
210.985;  -57.950; -484.000; -303.000
211.130;   67.225;  268.000;  406.000
211.275;   19.400;  207.000;  199.000
211.420;  -47.275; -300.000; -289.000
211.566;  -61.050; -536.000; -489.000
211.711;   17.300;  218.000;  157.000
211.856;  -58.350; -545.000; -519.000
212.001;   11.800;  151.000;   44.000
212.146;   25.900;  153.000;   49.000
212.291;  -15.550; -210.000; -186.000
212.436;  -29.450; -280.000;   -6.000
212.581;  -79.625; -685.000; -653.000
212.726;  -56.350; -487.000; -538.000
212.871;  -48.400; -552.000; -217.000
213.016; -146.525;-1172.000;-1029.000
213.161;   50.550;  406.000;  291.000
213.306;  -69.625; -435.000; -577.000
213.451;  -97.300; -778.000; -689.000
213.596;  -34.400; -455.000; -347.000
213.741;  -48.425; -448.000; -538.000
213.886;  -75.125; -498.000; -517.000
214.031;  -28.750; -294.000; -124.000
214.176;  -30.025; -408.000; -341.000
214.321;  -30.350; -296.000; -157.000
214.466;  -15.675; -163.000;  -43.000
214.611;  -10.375;  -61.000;  -10.000
214.756; -115.150; -948.000; -858.000
214.901;  -28.700; -388.000; -226.000
215.046; -118.300; -797.000; -825.000
215.191;   18.800;  128.000;   35.000
215.336;  -10.425; -157.000;  -19.000
215.480;  -73.700; -684.000; -505.000
215.625;   -7.475; -175.000;  -19.000
215.770;  -85.825; -757.000; -662.000
215.915;   -5.275;   -5.000;  -97.000
216.060;  -11.150; -113.000;  -21.000
216.205;  -91.725; -731.000; -779.000
216.349;  -76.500; -470.000; -533.000
216.494; -125.150; -939.000; -867.000
216.639; -107.425; -823.000; -888.000
216.784;  -82.525; -577.000; -525.000
216.929;   49.700;  392.000;  281.000
217.073;   -7.700; -244.000;  -31.000
217.218;    1.600;   78.000;  -47.000
217.363;  -79.875; -656.000; -618.000
217.507;  -74.025; -623.000; -588.000
217.652; -119.100; -845.000; -874.000
217.797;  -98.050; -708.000; -659.000
217.942;  -96.125; -856.000; -720.000
218.086;   79.475;  608.000;  539.000
218.231;  -21.250; -174.000;  -26.000
218.376;  -30.450; -337.000; -229.000
218.520;    5.600;  -41.000;   96.000
218.665;  -34.700; -338.000; -204.000
218.810;  -20.850; -275.000; -233.000
218.954;    6.450;  201.000;   35.000
219.099;  -92.250; -713.000; -963.000
219.243;  -80.025; -589.000; -554.000
219.388;  -20.825; -264.000; -136.000
219.532;   -5.225; -116.000; -116.000
219.677;  -70.125; -564.000; -521.000
219.822;  -15.150;   33.000;   89.000
219.966;    2.600;   17.000;  -99.000
220.111;  -32.850; -328.000;  -40.000
220.255;  -84.500; -797.000; -750.000
220.400;  -24.125; -180.000; -146.000
220.544;  -74.250; -516.000; -450.000
220.689;  -58.675; -422.000; -451.000
220.833;  -19.275; -123.000;  -58.000
220.978;  -45.025; -393.000; -563.000
221.122;   21.875;  319.000;  307.000
221.267; -108.425; -906.000; -837.000
221.411;  -67.725; -478.000; -394.000
221.555;   -6.925; -104.000;  -23.000
221.700;  -44.000; -329.000; -222.000
221.844;   27.100;  255.000;  272.000
221.989;  -29.025; -328.000; -311.000
222.133;  -34.750; -289.000; -307.000
222.277;   -7.675;    5.000;   78.000
222.422;    6.275;  227.000;  113.000
222.566;  -39.300; -381.000; -214.000
222.711;  -49.475; -414.000; -479.000
222.855;  -78.575; -643.000; -586.000
222.999;  -83.625; -642.000; -717.000
223.144;  -24.600; -195.000; -194.000
223.288;   47.325;  423.000;  251.000
223.432;   17.625;  184.000;  230.000
223.576;    1.875;  152.000;  -21.000
223.721;   44.925;  364.000;  273.000
223.865;  -55.575; -472.000; -475.000
224.009;  208.025; 1673.000; 1631.000
224.153;  -82.725; -660.000; -671.000
224.298;  -69.225; -531.000; -489.000
224.442;  -14.950;  -74.000;  -33.000
224.586;  -10.425; -169.000; -106.000
224.730;  -92.350; -858.000; -670.000
224.875;  -92.350; -739.000; -688.000
225.019;    7.525;  102.000;  188.000
225.163;   51.425;  208.000;  341.000
225.307;   11.000;   97.000;  -91.000
225.451;   41.750;  360.000;  481.000
225.595;   18.200;  264.000;  176.000
225.739;  -21.375; -170.000;  -94.000
225.884;    3.150;   86.000;    5.000
226.028;  -91.375; -760.000; -626.000
226.172;  -35.825; -260.000; -273.000
226.316; -103.800; -941.000; -902.000
226.460;  -76.350; -645.000; -493.000
226.604;  -37.725; -406.000; -400.000
226.748;  -91.325; -836.000; -733.000
226.892;  -41.375; -227.000; -181.000
227.036;  -37.800; -537.000; -447.000
227.180;  -46.075; -551.000; -375.000
227.324;  -75.850; -561.000; -580.000
227.468; -108.825; -819.000; -717.000
227.612;    5.325;  242.000;  -28.000
227.756;  -97.025; -845.000; -698.000
227.900;   36.075;  342.000;  441.000
228.044;  -59.925; -509.000; -290.000
228.188;   57.250;  448.000;  568.000
228.332;  -86.950; -546.000; -472.000
228.476;  -31.700; -223.000; -149.000
228.620;  -31.250; -210.000; -150.000
228.764;   53.225;  431.000;  349.000
228.908;  -26.400; -155.000;   30.000
229.052;  -74.200; -615.000; -528.000
229.195;  -18.000; -172.000;   13.000
229.339;  -29.250; -235.000; -305.000
229.483;  -21.775;    5.000; -162.000
229.627;  -14.175; -156.000;  139.000
229.771;  -35.525; -218.000; -294.000
229.915;   -3.175;  230.000;   79.000
230.059;  -74.800; -648.000; -663.000
230.202;  -38.125; -370.000; -317.000
230.346;   -5.425; -107.000;  107.000
230.490;  -66.925; -489.000; -521.000
230.634;  -99.250; -736.000; -553.000
230.777;   63.900;  478.000;  509.000
230.921;  -66.350; -450.000; -359.000
231.065;  -50.600; -246.000; -286.000
231.209;   36.475;  261.000;  265.000
231.352;   22.825;   54.000;   40.000
231.496;   23.000;  568.000;  188.000
231.640;  -70.925; -693.000; -621.000
231.783;   53.175;  546.000;  525.000
231.927;  -63.025; -294.000; -365.000
232.071; -128.125; -962.000; -736.000
232.214; -103.000; -980.000; -764.000
232.358;  -84.700; -683.000; -599.000
232.502;   -4.050;  -19.000;    7.000
232.645; -124.100;-1090.000; -927.000
232.789;  -23.925; -257.000; -218.000
232.933;  -34.200; -407.000; -224.000
233.076; -106.850;-1038.000; -897.000
233.220; -103.450; -752.000; -777.000
233.363;  -64.100; -669.000; -477.000
233.507;   55.625;  371.000;  129.000
233.650; -102.375; -764.000; -834.000
233.794;   32.050;  438.000;  461.000
233.938;  -64.925; -530.000; -362.000
234.081;  -26.250;  -93.000;   31.000
234.225;  -67.800; -631.000; -539.000
234.368; -106.550; -773.000; -723.000
234.512;  -52.125; -385.000; -299.000
234.655;  -82.875; -582.000; -555.000
234.798;  -60.450; -493.000; -466.000
234.942; -123.825; -884.000;-1002.000
235.085;  -73.675; -651.000; -443.000
235.229;  -70.225; -405.000; -410.000
235.372;  -49.575; -247.000; -191.000
235.516;  -62.650; -397.000; -321.000
235.659;   15.325;   92.000;  121.000
235.802;  -24.425;  -38.000;  -22.000
235.946;   25.225;  335.000;  215.000
236.089;   25.925;  126.000;  250.000
236.233;   43.250;  275.000;  298.000
236.376;  -45.600; -235.000; -378.000
236.519;  -53.750; -297.000; -319.000
236.663;  -21.500; -215.000; -117.000
236.806; -132.725;-1029.000; -999.000
236.949;   54.575;  543.000;  431.000
237.092;   59.250;  412.000;  391.000
237.236;  -76.200; -589.000; -502.000
237.379;   62.100;  352.000;  428.000
237.522; -112.050; -879.000; -768.000
237.666;  -10.325; -271.000;   18.000
237.809; -111.800; -851.000; -823.000
237.952;   26.650;  469.000;  271.000
238.095;  -66.075; -447.000; -442.000
238.238;   77.200;  688.000;  700.000
238.382;   -2.400;  166.000;  103.000
238.525;  -67.900; -598.000; -511.000
238.668; -121.400;-1060.000; -985.000
238.811;  -74.300; -638.000; -643.000
238.954;  -58.075; -483.000; -334.000
239.097;   79.075;  617.000;  664.000
239.241;   29.775;  394.000;  326.000
239.384;  -31.475; -254.000; -214.000
239.527;  -57.100; -424.000; -224.000
239.670; -130.425; -994.000;-1091.000
239.813;  -93.675; -696.000; -658.000
239.956;   69.325;  579.000;  473.000
240.099;  -98.000; -778.000; -725.000
240.242;   54.800;  428.000;  432.000
240.385;   36.150;  466.000;  450.000
240.528;  -71.225; -706.000; -473.000
240.671;   12.675;  189.000;  134.000
240.814;  -44.275; -441.000; -158.000
240.957;  -90.225; -767.000; -578.000
241.100;  -85.450; -779.000; -755.000
241.243; -129.975;-1234.000; -893.000
241.386;  -76.250; -508.000; -379.000
241.529;  -78.275; -735.000; -547.000
241.672;  -55.425; -566.000; -495.000
241.815; -108.075; -832.000; -808.000
241.958;  -24.800; -125.000; -182.000
242.101;  -64.300; -545.000; -390.000
242.244;  -50.225; -270.000; -325.000
242.387;  -52.150; -304.000; -246.000
242.530;   45.250;  470.000;  134.000
242.673;  -47.250; -381.000; -309.000
242.815; -127.500; -925.000; -899.000
242.958;  -66.725; -482.000; -381.000
243.101;    8.425;  132.000;  187.000
243.244;  -65.150; -564.000; -521.000
243.387;  -56.175; -313.000; -316.000
243.530;  -82.850; -657.000; -674.000
243.672;   -0.425;   43.000;  -92.000
243.815;  -38.950; -355.000; -283.000
243.958;   -8.125;   98.000;  -26.000
244.101;   -0.325;   59.000;  -16.000
244.243;  -20.475;  -47.000;  101.000
244.386; -107.625; -761.000; -630.000
244.529;  -29.275; -132.000; -139.000
244.672; -134.200;-1154.000; -951.000
244.814; -105.350; -621.000; -794.000
244.957;  -35.800; -380.000; -304.000
245.100;  -79.325; -489.000; -489.000
245.242;  -66.350; -387.000; -374.000
245.385;   -5.550;  -59.000;  -39.000
245.528; -110.575; -871.000; -705.000
245.670;   84.500;  612.000;  634.000
245.813;  -73.250; -599.000; -547.000
245.956;  -25.300; -324.000; -275.000
246.098;  -76.050; -508.000; -650.000
246.241;    2.225;  194.000;   48.000
246.383;  -22.025; -119.000;  -73.000
246.526;  -85.600; -454.000; -525.000
246.669; -106.800; -889.000; -780.000
246.811;   -0.325;  172.000;   -1.000
246.954;  -67.800; -512.000; -426.000
247.096;  -27.925;  -84.000;   -6.000
247.239;  -70.475; -482.000; -445.000
247.381;  -80.425; -647.000; -488.000
247.524;   77.475;  645.000;  679.000
247.666;  -29.100;   58.000;   11.000
247.809;  -96.950; -887.000; -691.000
247.951;  -16.375;  -75.000;  138.000
248.094;   19.900;  432.000;  308.000
248.236; -160.575;-1262.000;-1238.000
248.378;  -16.125; -356.000;  -81.000
248.521;  -41.400; -334.000; -337.000
248.663;  -40.875; -236.000; -267.000
248.806;  -34.100; -300.000; -266.000
248.948; -115.575; -886.000; -763.000
249.090;  -65.575; -428.000; -398.000
249.233;  -64.875; -344.000; -381.000
249.375;  -68.725; -474.000; -451.000
249.518;  -43.400;  -83.000; -133.000
249.660;  -17.050; -103.000;    3.000
249.802; -166.300;-1303.000;-1189.000
249.945;  -83.850; -612.000; -540.000
250.087; -108.525; -834.000; -768.000
250.229;  -63.875; -362.000; -480.000
250.371;  -71.375; -494.000; -439.000
250.514;  -50.425; -310.000; -244.000
250.656;    0.825;   69.000;  102.000
250.798; -110.425; -849.000; -800.000
250.940;  -59.350; -322.000; -322.000
251.083;  -20.550; -335.000; -111.000
251.225;   59.275;  338.000;  310.000
251.367;  -50.325; -274.000; -373.000
251.509;  -31.125; -265.000; -210.000
251.651; -104.450; -731.000; -671.000
251.794;   57.075;  538.000;  632.000
251.936; -108.725; -821.000; -747.000
252.078;  -75.800; -540.000; -461.000
252.220;  -65.450; -645.000; -477.000
252.362;   54.750;  344.000;  462.000
252.504;  -81.050; -677.000; -584.000
252.646; -102.100; -875.000; -722.000
252.788;  -27.825;   14.000; -128.000
252.931;  -45.150; -257.000; -253.000
253.073;  -44.000; -376.000; -317.000
253.215;  -10.300;  141.000;  122.000
253.357;  -15.225;   82.000; -153.000
253.499;  -45.100; -374.000; -234.000
253.641;  -87.750; -749.000; -594.000
253.783;  -92.775; -609.000; -527.000
253.925;  -88.800; -586.000; -591.000
254.067; -101.650; -744.000; -667.000
254.209;  -44.075; -391.000; -259.000
254.351; -137.175; -865.000; -883.000
254.493;  -57.275; -441.000; -417.000
254.635; -112.500; -936.000; -818.000
254.777; -104.775; -752.000; -687.000
254.918;  -65.975; -512.000; -430.000
255.060;  -63.500; -551.000; -395.000
255.202;  -60.425; -473.000; -261.000
255.344;  -80.075; -658.000; -455.000
255.486;  -64.850; -471.000; -406.000
255.628; -101.950; -780.000; -781.000
255.770;  -80.975; -676.000; -536.000
255.912;  -67.425; -559.000; -468.000
256.053;  -84.025; -730.000; -508.000
256.195;  129.400; 1008.000;  903.000
256.337;  -99.100; -861.000; -595.000
256.479;   52.975;  532.000;  416.000
256.621;  -54.825; -394.000; -212.000
256.762; -106.150; -789.000; -742.000
256.904;   54.925;  485.000;  487.000
257.046;  -42.250; -381.000; -271.000
257.188;  -33.825; -351.000; -264.000
257.329;  -68.700; -525.000; -464.000
257.471; -111.500; -939.000; -807.000
257.613;  -76.075; -584.000; -498.000
257.755; -136.850;-1073.000; -982.000
257.896;   26.450;  286.000;  392.000
258.038;  -73.725; -403.000; -352.000
258.180;  -42.950; -354.000; -279.000
258.321;  -68.225; -581.000; -457.000
258.463;   -2.000;  -71.000;  133.000
258.605;  -94.525; -562.000; -570.000
258.746; -108.325; -886.000; -772.000
258.888; -152.575;-1026.000;-1020.000
259.029;   15.375;  121.000;   -8.000
259.171;  -85.650; -614.000; -550.000
259.313;  -21.275;  -49.000;  -47.000
259.454;  -75.000; -536.000; -414.000
259.596;  -54.150; -483.000; -390.000
259.737;  -75.750; -590.000; -474.000
259.879;   25.650;  217.000;  311.000
260.020;   61.625;  901.000;  636.000
260.162;  -36.925; -146.000; -253.000
260.303;  -97.550; -768.000; -687.000
260.445;  -75.225; -609.000; -613.000
260.586;   26.025;  392.000;  157.000
260.728;  -50.800; -360.000; -248.000
260.869;  -59.175; -350.000; -343.000
261.011;   57.750;  706.000;  537.000
261.152;  -59.375; -479.000; -319.000
261.293;  -88.650; -576.000; -595.000
261.435;  -26.800; -219.000; -184.000
261.576;  -45.975; -455.000; -325.000
261.718;   48.900;  420.000;  470.000
261.859; -116.000; -940.000; -949.000
262.000; -122.050; -951.000;-1016.000
262.142;  -27.800;  -52.000;  -60.000
262.283; -113.850; -808.000; -691.000
262.424;  -89.700; -666.000; -625.000
262.566; -146.250;-1161.000; -983.000
262.707; -115.550; -840.000; -830.000
262.848; -120.300; -769.000; -726.000
262.990;  -49.000; -362.000; -345.000
263.131;   66.050;  650.000;  681.000
263.272;  -12.525;  -61.000;  -41.000
263.413;  -91.775; -589.000; -561.000
263.555;  -70.850; -669.000; -143.000
263.696;  -76.925; -550.000; -641.000
263.837;  -63.900; -449.000; -551.000
263.978;   -1.625;   -5.000;  -77.000
264.119;  -56.175; -283.000; -264.000
264.261; -122.000; -847.000; -630.000
264.402;  -11.825;   33.000;   40.000
264.543;  -77.875; -509.000; -524.000
264.684;  -23.400;   61.000;  -50.000
264.825;  -88.625; -816.000; -538.000
264.966;  -20.300;  -84.000;  -67.000
265.107;  -97.700; -646.000; -670.000
265.248; -129.150; -825.000; -812.000
265.390;    0.925;  152.000;   -9.000
265.531;  -30.800; -238.000; -107.000
265.672;  -72.975; -557.000; -630.000
265.813;   52.750;  563.000;  439.000
265.954; -143.925; -959.000; -940.000
266.095;  -23.900; -372.000; -322.000
266.236;  -98.125; -686.000; -548.000
266.377;  -45.175; -243.000; -297.000
266.518;  -70.900; -619.000; -547.000
266.659;   23.800;  170.000;  268.000
266.800;   10.175;   83.000;   85.000
266.941;  -78.875; -487.000; -478.000
267.082;    6.450;  354.000;   99.000
267.223;  -63.300; -344.000; -273.000
267.364; -105.625; -892.000; -686.000
267.504;  -19.200;    3.000;  135.000
267.645;  -13.525;  160.000;   67.000
267.786;  -36.300; -147.000;  -86.000
267.927;  -73.975; -473.000; -379.000
268.068;  -28.225; -186.000;  -61.000
268.209;  -59.225; -175.000; -413.000
268.350;  -52.125; -388.000; -532.000
268.490;  -92.600; -648.000; -521.000
268.631;   20.950;  127.000;  225.000
268.772; -106.550; -874.000; -647.000
268.913;  -61.425; -328.000; -476.000
269.054;  -21.900; -117.000;   12.000
269.194;  -51.225; -418.000; -402.000
269.335; -152.300;-1137.000;-1074.000
269.476;  -24.900;   33.000;  -35.000
269.617;  -50.875; -347.000; -392.000
269.757; -104.725; -713.000; -646.000
269.898; -103.375; -856.000; -613.000
270.039;  -69.525; -415.000; -405.000
270.180; -122.525; -952.000; -816.000
270.320;  -17.875; -190.000; -250.000
270.461;  -50.875; -277.000; -249.000
270.602;  -17.700; -186.000; -156.000
270.742; -119.100; -868.000; -943.000
270.883;  -71.275; -442.000; -390.000
271.023;  -44.800; -358.000; -357.000
271.164;  -77.000; -607.000; -528.000
271.305; -104.100; -666.000; -654.000
271.445;  -89.550; -722.000; -683.000
271.586;  -63.400; -462.000; -283.000
271.726;  -57.825; -397.000; -322.000
271.867;  -67.900; -594.000; -534.000
272.008;   33.475; -473.000; -285.000
272.148;   67.925;  462.000;  468.000
272.289;  -19.925; -113.000; -181.000
272.429;    9.050;   19.000;  185.000
272.570;  -94.200; -633.000; -737.000
272.710;  -96.375; -825.000; -775.000
272.851;  -34.825;  113.000; -130.000
272.991; -145.400;-1173.000;-1077.000
273.131;  -64.950; -419.000; -459.000
273.272;  -98.875; -683.000; -723.000
273.412;  -29.150; -143.000;  -31.000
273.553;  -71.175; -488.000; -507.000
273.693;  108.425;  913.000;  858.000
273.834; -121.650; -894.000; -692.000
273.974;  -88.250; -664.000; -615.000
274.114;  -98.775; -772.000; -560.000
274.255;   36.800;  414.000;  373.000
274.395;  -29.950; -180.000; -125.000
274.535;   23.450;  199.000;  350.000
274.676;    8.275;  225.000;   94.000
274.816;  -24.175;  110.000;   34.000
274.956;  -87.575; -624.000; -690.000
275.097;  -98.075;-1014.000; -922.000
275.237; -120.525; -913.000; -803.000
275.377;  -95.625; -778.000; -689.000
275.517; -148.900; -878.000; -937.000
275.658;  -80.525; -590.000; -555.000
275.798;  -81.575; -606.000; -413.000
275.938;   12.675;  215.000;  323.000
276.078;  -80.225; -626.000; -395.000
276.218;   -8.925;   99.000;  104.000
276.359; -138.075;-1026.000;-1024.000
276.499;  -79.750; -605.000; -446.000
276.639;  -27.750; -305.000; -151.000
276.779;  -63.250; -475.000; -357.000
276.919; -105.875; -783.000; -624.000
277.059;  -21.725; -261.000; -212.000
277.199;  -48.275; -357.000; -259.000
277.340;   22.250;  287.000;  175.000
277.480; -114.575; -840.000; -693.000
277.620;   14.125;  192.000;   16.000
277.760; -185.100;-1533.000;-1294.000
277.900;  -14.475;  113.000;   33.000
278.040;    2.900;  137.000;  159.000
278.180;   15.700;  270.000;  170.000
278.320;   -9.075;   21.000;   56.000
278.460;  -76.950; -443.000; -469.000
278.600;  -83.750; -708.000; -598.000
278.740;   44.750;  448.000;  224.000
278.880; -108.625; -768.000; -791.000
279.020;  -37.125; -194.000; -144.000
279.160;  -96.775; -672.000; -595.000
279.300; -125.350; -926.000; -873.000
279.440;  -96.825; -709.000; -622.000
279.579; -100.725;-1014.000; -929.000
279.719;  -73.050; -410.000; -394.000
279.859;   26.825;   -4.000;   41.000
279.999;   -1.500; -208.000;  101.000
280.139;  -54.875; -435.000; -387.000
280.279; -102.050; -708.000; -745.000
280.419;  -16.975; -229.000; -147.000
280.559;  -48.075; -259.000; -180.000
280.698; -107.600; -790.000; -639.000
280.838; -113.975; -778.000; -800.000
280.978; -100.600; -846.000; -790.000
281.118; -104.700; -811.000; -704.000
281.257;   -9.950;   24.000;    6.000
281.397; -139.625;-1094.000; -960.000
281.537;  -95.050; -599.000; -712.000
281.677;   -7.875; -150.000; -101.000
281.816;  -94.825; -700.000; -630.000
281.956;  -41.950; -193.000; -257.000
282.096;  -67.975; -539.000; -396.000
282.235; -100.300; -672.000; -638.000
282.375;  -37.425; -243.000;  -98.000
282.515;  -96.075; -715.000; -707.000
282.654;    4.150;   29.000;  106.000
282.794;   18.375;  388.000;  244.000
282.934;  -56.800; -530.000; -491.000
283.073; -118.800;-1030.000; -857.000
283.213;  -67.675; -460.000; -467.000
283.353;  -45.500; -408.000; -349.000
283.492;  -37.175; -264.000; -296.000
283.632;  -39.075; -254.000; -168.000
283.771;  -99.800; -859.000; -730.000
283.911;  -58.925; -369.000; -260.000
284.050; -109.125; -794.000; -748.000
284.190; -143.375;-1229.000;-1096.000
284.329; -150.525;-1055.000; -964.000
284.469;  -83.200; -516.000; -591.000
284.608;  -51.500; -559.000; -598.000
284.748;  -86.200; -614.000; -570.000
284.887;  -12.700;  -87.000;  -20.000
285.027; -115.175; -844.000; -892.000
285.166;  -32.400; -192.000; -249.000
285.306;  -25.600; -116.000;  -33.000
285.445;  -44.325; -229.000; -343.000
285.584;  -93.825; -630.000; -494.000
285.724;  -48.400; -282.000; -322.000
285.863; -101.825; -857.000; -507.000
286.002;  -54.575; -366.000; -276.000
286.142;  -98.925; -715.000; -622.000
286.281;  -73.000; -525.000; -493.000
286.420;  -71.325; -554.000; -417.000
286.560;   77.475;  653.000;  623.000
286.699; -137.075; -958.000; -912.000
286.838;  -85.850; -590.000; -591.000
286.978;  -89.375; -533.000; -537.000
287.117; -141.900;-1085.000; -950.000
287.256;  -39.450; -228.000; -211.000
287.395;  -67.700; -197.000; -378.000
287.535;  -47.850; -370.000; -298.000
287.674;  -88.125; -509.000; -484.000
287.813;   37.100;  661.000;  533.000
287.952; -139.350;-1010.000; -871.000
288.091; -145.550;-1049.000; -915.000
288.231;   -3.700;   13.000;   15.000
288.370; -166.075;-1217.000;-1200.000
288.509;  -90.050; -728.000; -645.000
288.648;  -97.050; -770.000; -548.000
288.787;  -34.200; -243.000;  -87.000
288.926;  -70.275; -454.000; -475.000
289.065;   81.450;  859.000;  672.000
289.204;  -53.850; -377.000; -217.000
289.344; -114.675; -791.000; -690.000
289.483;   12.025;  416.000;  304.000
289.622;  -47.350; -291.000; -149.000
289.761;  -19.100; -309.000; -166.000
289.900; -106.625; -785.000; -626.000
290.039;  -22.925;  -12.000;  -95.000
290.178;  -55.425; -274.000; -180.000
290.317;  -90.875; -618.000; -479.000
290.456;  -73.875; -463.000; -451.000
290.595; -115.625; -961.000; -833.000
290.734; -137.325; -904.000; -891.000
290.873;  -63.575; -456.000; -420.000
291.011; -113.800; -833.000; -843.000
291.150; -104.200; -770.000; -682.000
291.289;  -42.550; -343.000; -110.000
291.428;  -86.850; -599.000; -480.000
291.567;  -57.100; -370.000; -442.000
291.706;   -6.175;  109.000;  154.000
291.845;  -93.025; -597.000; -505.000
291.984; -151.100;-1234.000;-1061.000
292.122;   61.600;  602.000;  582.000
292.261;   47.675;  620.000;  463.000
292.400;  -18.400; -144.000;  211.000
292.539; -115.700; -959.000; -813.000
292.678;  -54.550; -325.000; -300.000
292.816; -159.300;-1136.000; -965.000
292.955; -110.150; -844.000; -684.000
293.094;  -35.600; -173.000; -337.000
293.233;  -61.525; -556.000; -400.000
293.371;  -34.875; -225.000;  -84.000
293.510; -103.400; -866.000; -780.000
293.649; -130.175; -959.000; -924.000
293.787; -111.500;-1083.000;-1012.000
293.926;  -35.175; -113.000;  -32.000
294.065;  -43.275; -379.000; -290.000
294.203;   28.150;  298.000;  406.000
294.342;   17.025;   74.000;  156.000
294.481; 4992.375;51180.000; -836.000
294.619;  -30.000; -425.000; -582.000
294.758; -151.450;-1230.000;-1137.000
294.896;    5.425; -125.000;    5.000
295.035; -127.575;-1040.000;-1006.000
295.174; -138.425;-1082.000; -954.000
295.312;  -46.275; -323.000; -203.000
295.451;  -47.900; -307.000; -428.000
295.589;  -65.525; -389.000; -518.000
295.728;    1.875; -292.000; -165.000
295.866;   -9.675;  -36.000;  -51.000
296.005;  -70.950; -584.000; -341.000
296.143;  -68.775; -558.000; -596.000
296.282; -110.225; -957.000; -881.000
296.420;  -82.200; -657.000; -557.000
296.559;  -97.050; -892.000; -633.000
296.697;  -54.825; -847.000; -665.000
296.835;  -99.975;-1141.000;-1002.000
296.974;   17.950;  -23.000;   39.000
297.112;  -58.000; -443.000; -504.000
297.251;  -94.625; -815.000; -755.000
297.389;  -17.950; -576.000; -438.000
297.527;   10.025; -145.000;  -83.000
297.666;  -68.350; -486.000; -438.000
297.804;  -44.300; -404.000; -264.000
297.942;  -11.850; -136.000; -161.000
298.081;  -12.050; -183.000;   63.000
298.219;    5.975;  -17.000;  -19.000
298.357;  -19.025; -144.000;  -71.000
298.495;  -74.175; -810.000; -812.000
298.634;   16.025;  245.000;  219.000
298.772;  -45.850; -220.000; -338.000
298.910;  -51.500; -309.000; -182.000
299.048;  -29.925; -130.000; -153.000
299.187;  -43.475; -350.000; -250.000
299.325;  -10.300;   52.000;  122.000
299.463;  -30.875; -389.000; -299.000
299.601;   -4.275; -327.000; -271.000
299.739; -121.125; -908.000; -883.000
299.877; -101.725; -791.000; -703.000
300.016; -111.325;-1095.000; -935.000
300.154;   32.375;  -19.000; -161.000
300.292;  -31.225; -428.000; -348.000
300.430;  -38.650; -408.000; -291.000
300.568; -120.400; -940.000; -874.000
300.706;  -78.225; -366.000; -469.000
300.844; -118.775;-1108.000; -979.000
300.982;   57.025;  246.000;  282.000
301.120; -126.925; -965.000; -866.000
301.258;  -97.275; -812.000; -705.000
301.396;    0.650;  104.000;  -41.000
301.534;  -28.025; -218.000; -293.000
301.672;  -66.025; -664.000; -521.000
301.810;  -66.775; -613.000; -545.000
301.948;   32.000;   53.000;  149.000
302.086;  158.200; -250.000;  -32.000
302.224;  205.150; -610.000; -585.000
302.362;  -60.050; -558.000; -622.000
302.500;  -93.225; -923.000; -893.000
302.638;   24.800;  128.000;  245.000
302.776;  -39.600; -352.000; -408.000
302.913;   36.550;  447.000;  236.000
303.051;  -33.175;  -86.000;  -23.000
303.189;    3.950;   90.000;  118.000
303.327;  -52.975; -341.000; -256.000
303.465;  -83.125; -832.000; -588.000
303.603;  -98.800; -805.000; -604.000
303.740;   54.450;  417.000;  241.000
303.878;  -79.500; -800.000; -759.000
304.016; -120.775; -915.000; -790.000
304.154; -146.325;-1123.000;-1152.000
304.291;  -75.250; -505.000; -554.000
304.429;   -2.700;  102.000;   74.000
304.567; -145.750; -908.000; -893.000
304.705;  -67.175; -408.000; -515.000
304.842;  -42.575; -616.000; -540.000
304.980;   21.100;  215.000;   35.000
305.118;  -30.625; -367.000; -365.000
305.255; -120.900; -945.000; -927.000
305.393;   17.800;  178.000;  239.000
305.531; -142.750;-1173.000; -956.000
305.668;  -86.600; -663.000; -582.000
305.806;   -8.175; -358.000; -439.000
305.943;  -21.925; -629.000; -637.000
306.081;  -27.100; -378.000; -267.000
306.219; -115.200; -863.000; -748.000
306.356;   13.750;  158.000;   27.000
306.494;  120.800;  981.000;  761.000
306.631;   -0.725;  -11.000;  -55.000
306.769;   -5.325; -613.000; -485.000
306.906;  -16.400; -284.000; -258.000
307.044;  -61.725; -473.000; -488.000
307.181;  -54.650; -410.000; -332.000
307.319;    4.650;  112.000;   87.000
307.456; -160.650;-1191.000;-1153.000
307.594; -107.975; -980.000; -727.000
307.731;  -24.900; -371.000; -164.000
307.868;   -5.775;  -15.000;   20.000
308.006; -130.775; -961.000; -847.000
308.143;  -64.400; -618.000; -330.000
308.281;   26.250;  -37.000; -254.000
308.418;  -51.550; -748.000; -640.000
308.555;  -61.350; -400.000; -250.000
308.693;  -64.200; -577.000; -573.000
308.830;  -86.000; -712.000; -657.000
308.967;  -13.325; -215.000;  -95.000
309.105;  -30.225; -507.000; -396.000
309.242;   -9.275; -468.000; -367.000
309.379;   32.300; -577.000; -655.000
309.517;  -87.300; -936.000; -948.000
309.654;  -97.750; -910.000; -734.000
309.791;  -71.125; -662.000; -580.000
309.928; -113.525; -977.000; -914.000
310.065;  125.600;  819.000;  697.000
310.203;  -76.750; -825.000; -850.000
310.340;  -32.300; -465.000; -321.000
310.477;  -67.750; -412.000; -516.000
310.614;  -60.375; -383.000; -473.000
310.751;  -57.225; -427.000; -518.000
310.889;  -17.425;    1.000;   11.000
311.026; -137.775;-1161.000; -939.000
311.163;  -33.050; -386.000; -380.000
311.300;  -65.250; -512.000; -479.000
311.437;  -74.425; -658.000; -619.000
311.574; -142.175;-1226.000; -985.000
311.711;  -74.350; -595.000; -433.000
311.848;  -29.925; -380.000; -388.000
311.985;    7.625;  270.000;   93.000
312.122; -108.250; -932.000; -762.000
312.259; -117.425; -941.000; -994.000
312.396;  -67.700; -508.000; -551.000
312.533;  -86.675; -812.000; -790.000
312.670; -127.250;-1070.000; -898.000
312.807;  -28.125; -352.000; -367.000
312.944;  -59.650; -513.000; -611.000
313.081;  -24.900; -150.000; -415.000
313.218;  -79.750;-1111.000; -867.000
313.355;  -19.575; -531.000; -449.000
313.492;   -3.375; -455.000; -292.000
313.629;  112.225;  815.000;  735.000
313.766; -145.250;-1176.000;-1008.000
313.902;   -8.575; -186.000;   21.000
314.039;  -43.475; -372.000; -289.000
314.176;   25.875;  286.000;  192.000
314.313;  -67.250; -569.000; -473.000
314.450;  -83.000; -788.000; -684.000
314.587;  -58.500; -468.000; -480.000
314.723;    8.750;  -78.000;  130.000
314.860;   41.325;  318.000;  332.000
314.997;   12.850;  223.000;  142.000
315.134;  -32.675; -385.000; -368.000
315.270;  -31.400; -480.000; -496.000
315.407; -115.500;-1094.000; -967.000
315.544;  -48.225; -657.000; -538.000
315.681;  -49.250; -681.000; -565.000
315.817;   32.625; -133.000; -176.000
315.954;   28.250; -613.000; -392.000
316.091; -127.550;-1045.000;-1023.000
316.227;  -34.150;  -71.000; -179.000
316.364;  -10.175;   23.000;    6.000
316.500;  -44.350; -113.000; -300.000
316.637;  -59.925; -181.000; -302.000
316.774;  -98.800; -625.000; -358.000
316.910;  -92.000; -598.000; -629.000
317.047;  -65.025; -487.000; -351.000
317.183;  -61.475; -435.000; -566.000
317.320;   29.350; -367.000; -321.000
317.456;  -51.975; -733.000; -805.000
317.593;  -76.050; -598.000; -641.000
317.729;   -3.650;  168.000;  -67.000
317.866; -177.650;-1434.000;-1285.000
318.002;  -95.600; -708.000; -948.000
318.139; -129.950; -883.000; -867.000
318.275; -121.825;-1003.000; -738.000
318.412;  -62.825; -517.000; -336.000
318.548;  -88.700; -751.000; -720.000
318.685;  -91.625; -985.000; -888.000
318.821;  -95.175; -762.000; -735.000
318.957;  -31.400;   34.000;  -23.000
319.094;   33.150;  297.000;  154.000
319.230;  -98.100; -756.000; -742.000
319.367;  -12.625; -471.000; -520.000
319.503;  -30.625; -538.000; -436.000
319.639; -101.175; -877.000; -793.000
319.775;  -98.450; -750.000; -685.000
319.912;  -81.250; -424.000; -519.000
320.048; -104.025;-1184.000;-1184.000
320.184;   76.925;   59.000;   70.000
320.321;  -47.075; -497.000; -467.000
320.457;   64.700;  475.000;  662.000
320.593;  -65.650; -375.000; -382.000
320.729; -104.050; -732.000; -734.000
320.866;  -59.650; -577.000; -635.000
321.002; -101.650; -759.000; -809.000
321.138;  -36.225; -135.000; -211.000
321.274;   -2.625; -148.000; -115.000
321.410;  -55.400; -585.000; -353.000
321.546; -104.850;-1011.000; -911.000
321.683;   19.675;  400.000;  185.000
321.819;  -33.250;  -48.000; -117.000
321.955; -113.975; -743.000; -722.000
322.091;  -74.225; -585.000; -540.000
322.227;  -34.050; -382.000; -202.000
322.363;  -55.675; -320.000; -215.000
322.499;  -57.850; -343.000; -331.000
322.635;   88.325;  636.000;  443.000
322.771;  -13.750; -139.000;   12.000
322.907;   34.225;  129.000;  327.000
323.043;  -53.075; -115.000; -206.000
323.179;  -55.825; -394.000; -363.000
323.315;  -51.600; -401.000; -371.000
323.451;    5.975; -328.000; -236.000
323.587;   56.150;  -60.000;  -77.000
323.723;  -56.175; -682.000; -601.000
323.859;  -16.925; -258.000;  -76.000
323.995;  -48.700; -467.000; -409.000
324.131; -121.800; -967.000; -892.000
324.267;  -48.625; -254.000; -276.000
324.402; -122.225; -960.000; -983.000
324.538;  -34.075; -279.000; -104.000
324.674;   17.375;  164.000;   77.000
324.810;   33.200;  226.000;  308.000
324.946;  -56.100; -810.000; -658.000
325.082;  -78.550; -568.000; -475.000
325.217;   -9.675;  -62.000;   16.000
325.353; -102.650; -764.000; -659.000
325.489;  -94.250; -540.000; -506.000
325.625;  -76.275; -579.000; -525.000
325.760;   71.400;  517.000;  376.000
325.896;    3.625; -515.000; -702.000
326.032;  -57.775; -403.000; -352.000
326.168;  -69.875; -462.000; -369.000
326.303;  -48.400; -352.000; -461.000
326.439;  -25.250; -336.000; -276.000
326.575;  -15.700; -190.000;  -29.000
326.710;  -34.025; -156.000;  -30.000
326.846;  -15.225;  146.000;  103.000
326.982; -111.000; -530.000; -548.000
327.117;  -70.200; -481.000; -442.000
327.253;  -90.950; -745.000; -742.000
327.388; -177.650;-1137.000;-1153.000
327.524;  -84.025; -811.000; -578.000
327.659;  -25.125;  -58.000;  -22.000
327.795;  -14.325;   69.000;   45.000
327.931;  -61.700; -723.000; -499.000
328.066;  -41.375; -417.000; -276.000
328.202;  -24.650;   12.000; -129.000
328.337;   80.950;  957.000;  713.000
328.473;   34.275;  -12.000;  -74.000
328.608;  -23.600; -256.000; -267.000
328.743; -106.075; -799.000; -664.000
328.879;    2.225;  214.000;  114.000
329.014;  -27.425; -102.000; -122.000
329.150;  -89.975; -358.000; -483.000
329.285;  -82.150; -465.000; -466.000
329.421;  -52.775; -548.000; -246.000
329.556;  -18.350;  -36.000;   85.000
329.691;  -98.375; -633.000; -615.000
329.827;  -74.100; -626.000; -480.000
329.962;  -48.250;  131.000; -301.000
330.097;  -69.000; -673.000; -585.000
330.233;  -63.125; -410.000; -223.000
330.368; -123.025; -839.000; -628.000
330.503;  -14.875;    3.000;   98.000
330.638;  -13.550;  -93.000; -125.000
330.774;  -97.175; -609.000; -530.000
330.909;  -51.450; -434.000; -244.000
331.044; -101.300; -714.000; -708.000
331.179; -165.300;-1217.000;-1109.000
331.315;   -4.050;   77.000;   20.000
331.450;    6.825;  157.000;  285.000
331.585; -100.850; -805.000; -706.000
331.720;  -94.100; -510.000; -460.000
331.855;   -7.650;  -35.000; -102.000
331.990;  426.800;   62.000;  138.000
332.126;  208.250; -110.000;   71.000
332.261;   -2.300; -379.000; -265.000
332.396;   10.650; -135.000; -242.000
332.531;  -60.250;-1074.000;-1031.000
332.666;  105.925; -519.000; -363.000
332.801;  -91.700; -726.000; -807.000
332.936;  -30.550; -192.000; -122.000
333.071; -133.950; -870.000; -817.000
333.206;   12.025;  307.000;  379.000
333.341;   20.300;  344.000;  418.000
333.476;  -94.125; -627.000; -623.000
333.611;  -41.850; -251.000; -173.000
333.746;  -53.550; -381.000; -464.000
333.881; -109.400; -973.000; -935.000
334.016; -126.400; -936.000; -917.000
334.151; -117.950; -746.000; -702.000
334.286;   -3.250;  152.000;  186.000
334.421;  -13.650; -125.000; -178.000
334.556;  -95.850; -611.000; -567.000
334.690;  -86.075; -631.000; -577.000
334.825;   32.125;  381.000;   83.000
334.960;  -58.475; -285.000; -413.000
335.095;   -9.800;  135.000;  -91.000
335.230;  -75.175; -722.000; -738.000
335.365; -130.900;-1084.000; -990.000
335.499; -149.675;-1108.000;-1037.000
335.634;    9.725;    9.000;  534.000
335.769;  -95.075; -755.000; -720.000
335.904;  -66.400; -603.000; -561.000
336.038;  -50.950; -735.000; -657.000
336.173; -105.175;-1206.000;-1194.000
336.308;    8.825; -116.000; -189.000
336.443;   50.275; -544.000; -634.000
336.577;  -60.150; -936.000; -787.000
336.712;   59.550;   -4.000;  -12.000
336.847;  -20.250; -724.000; -607.000
336.981;   47.350; -272.000; -208.000
337.116;  274.225;  615.000;  501.000
337.250;  100.300; -434.000; -421.000
337.385;  460.375; -297.000; -208.000
337.520;  215.050; -632.000; -603.000
337.654;  -32.400; -215.000; -126.000
337.789; -126.275; -989.000; -933.000
337.923;  -32.650; -104.000; -205.000
338.058; -110.575; -673.000; -738.000
338.192;  -68.275; -611.000; -488.000
338.327;  -18.175;  -18.000; -155.000
338.461;  -54.400; -299.000; -469.000
338.596;  -98.450; -780.000; -638.000
338.730;  -88.200; -767.000; -803.000
338.865;  153.175;  -46.000; -140.000
338.999;    8.300; -846.000; -702.000
339.134;    1.700; -634.000; -536.000
339.268;   25.750; -741.000; -603.000
339.403;  568.725; -740.000; -775.000
339.537;  263.900; -894.000; -820.000
339.671; -103.775; -829.000; -813.000
339.806;  -21.200; -556.000; -512.000
339.940;   30.550; -261.000; -235.000
340.074; -104.050; -685.000; -510.000
340.209;  -54.650; -351.000; -230.000
340.343;  -82.800; -517.000; -573.000
340.477;  124.275;  998.000; 1036.000
340.612;   10.075;-1033.000; -900.000
340.746;  228.100; -199.000; -243.000
340.880;  -97.425; -924.000; -785.000
341.014;  -28.025;  -45.000; -154.000
341.149; -118.625; -756.000; -718.000
341.283; -112.525; -839.000; -754.000
341.417; -125.500;-1124.000; -938.000
341.551;  -38.675; -768.000; -708.000
341.685;  -71.600; -633.000; -611.000
341.820;  -54.275; -562.000; -493.000
341.954;  -41.875; -218.000; -349.000
342.088; -152.500;-1102.000;-1019.000
342.222;   35.850;  565.000;  618.000
342.356;  -70.625; -395.000; -335.000
342.490; -117.725; -880.000; -841.000
342.624;  -54.575; -339.000; -242.000
342.758;  -51.300; -364.000; -312.000
342.892;  -98.550; -710.000; -585.000
343.026;  -47.800;  -58.000; -116.000
343.160;  -56.850; -426.000; -376.000
343.294;  -89.275; -474.000; -337.000
343.428;  -77.775; -488.000; -448.000
343.562;  -27.850; -172.000;  -23.000
343.696;  -44.350; -385.000; -314.000
343.830;  -59.575; -362.000; -356.000
343.964;  -30.000; -231.000; -168.000
344.098;  265.300;  199.000;   70.000
344.232;  227.250; -266.000; -127.000
344.366;   66.700; -567.000; -453.000
344.500;  -56.150; -665.000; -744.000
344.634;  -29.600; -324.000; -164.000
344.768;  -67.175; -531.000; -341.000
344.902;   13.425;  278.000;  256.000
345.035;  -72.750; -556.000; -496.000
345.169; -126.800; -933.000; -656.000
345.303;  -59.000; -308.000; -482.000
345.437;  -88.650; -826.000; -717.000
345.571;  -87.175; -675.000; -594.000
345.704;  -62.000; -309.000; -532.000
345.838;  -21.375; -331.000; -284.000
345.972;  -63.300; -543.000; -495.000
346.106;  246.950; -179.000; -190.000
346.239;  474.400; -312.000; -243.000
346.373;  -16.025; -343.000; -302.000
346.507; -140.775; -950.000; -962.000
346.640;   20.525;  -30.000;   13.000
346.774;  -91.375; -650.000; -797.000
346.908;  -38.100; -138.000;  -11.000
347.041; -109.225; -646.000; -593.000
347.175;   -7.375;  259.000;   27.000
347.309;  -94.725; -698.000; -628.000
347.442; -142.450; -883.000; -732.000
347.576;  128.325;  670.000;  668.000
347.709;   25.975; -123.000;  -52.000
347.843; -120.050; -933.000; -825.000
347.976;   17.950;  235.000;  294.000
348.110; -172.050;-1268.000;-1186.000
348.243; -109.575; -679.000; -772.000
348.377;    7.125;  -26.000;   60.000
348.510;   41.525;  403.000;  540.000
348.644;  -44.825;  -37.000; -159.000
348.777;  -17.375;  180.000;  191.000
348.911;  -54.100; -142.000; -112.000
349.044;   75.100;  471.000;  448.000
349.178;  -39.100;-1069.000;-1006.000
349.311;   81.625;  141.000;  255.000
349.444;   55.350; -927.000; -813.000
349.578;  -25.125; -347.000; -200.000
349.711; -129.475; -959.000; -862.000
349.845;  -66.025; -661.000; -591.000
349.978; -163.775;-1224.000;-1137.000
350.111;  -93.800; -546.000; -612.000
350.244; -108.600; -596.000; -700.000
350.378;  -61.975; -392.000; -393.000
350.511;  -84.725; -393.000; -426.000
350.644; -101.600; -808.000; -806.000
350.778;   13.425;  168.000;  104.000
350.911;  -16.275;  134.000;  140.000
351.044;  -96.350; -685.000; -615.000
351.177;  -54.925; -321.000; -281.000
351.310;  -37.250;    3.000; -131.000
351.444; -101.375; -888.000; -788.000
351.577;   39.925;  140.000;   90.000
351.710;   67.750;  593.000;  417.000
351.843;  -41.300; -165.000;  -77.000
351.976;  -15.325;  149.000;  -79.000
352.109; -100.050; -621.000; -612.000
352.242;  -66.975; -464.000; -419.000
352.376;  -97.675; -580.000; -636.000
352.509;    2.825; -437.000; -356.000
352.642;  -96.675; -654.000; -604.000
352.775;   -0.725; -141.000;  -98.000
352.908; -111.475; -933.000; -904.000
353.041;  -99.925; -814.000; -824.000
353.174;  -65.300; -551.000; -424.000
353.307; -109.450; -753.000; -764.000
353.440;   64.900;  541.000;  453.000
353.573;  -97.600; -957.000;-1008.000
353.706;  -50.375; -384.000; -558.000
353.839;  -29.150; -264.000; -220.000
353.971;  -90.625; -657.000; -512.000
354.104; -118.500; -896.000; -835.000
354.237;  -82.600; -627.000; -662.000
354.370; -106.775; -846.000; -879.000
354.503; -180.325;-1231.000;-1308.000
354.636;  -36.350; -529.000; -348.000
354.769; -121.750; -937.000; -860.000
354.902;  -33.850; -230.000; -139.000
355.034;  -17.675; -164.000; -220.000
355.167;  -15.375; -262.000; -162.000
355.300;  -67.675;-1061.000; -880.000
355.433; 1458.075;  -71.000;  -14.000
355.565; 2295.525; -402.000; -384.000
355.698;  599.850; -356.000; -296.000
355.831;    4.125; -882.000; -801.000
355.964;   14.700; -285.000; -170.000
356.096;  -84.250; -856.000; -843.000
356.229;   -3.375; -523.000; -530.000
356.362;  513.550; -373.000; -266.000
356.494;  926.950; -229.000; -162.000
356.627;  349.850;  269.000;  377.000
356.760;  912.500;  120.000;   53.000
356.892; 1551.300; -286.000; -601.000
357.025;  329.175;  403.000;  389.000
357.157;  223.925; -167.000; -179.000
357.290; 1241.250; -856.000; -713.000
357.423;  381.550; -667.000; -556.000
357.555;   83.400; -217.000; -228.000
357.688;  123.050; -483.000; -364.000
357.820;  148.025; -870.000; -877.000
357.953; 1372.200; -563.000; -589.000
358.085;  212.225; -632.000; -612.000
358.218;  108.400;-1131.000; -932.000
358.350;   41.550;  -58.000;  312.000
358.483; -152.225;-1300.000;-1187.000
358.615; -129.125;-1182.000;-1078.000
358.747; -153.175;-1187.000;-1058.000
358.880;  -58.675; -810.000; -744.000
359.012;  -29.875; -376.000; -202.000
359.145;  -70.050; -480.000; -511.000
359.277;  -59.675; -962.000; -913.000
359.409; 1144.050;  536.000;  231.000
359.542;  245.750; -738.000; -688.000
359.674;    1.450;   46.000;   13.000
359.806;  -70.275; -565.000; -438.000
359.939;  -41.875; -617.000; -516.000
360.071;   43.100; -583.000; -579.000
360.203;  -29.600; -411.000; -364.000
360.335;   30.300;  164.000;  -16.000
360.468;   83.075; -249.000; -307.000
360.600; 1248.875; -547.000; -454.000
360.732; 4305.425; -546.000; -423.000
360.864;  653.925;-1216.000;-1044.000
360.996;   58.775; -516.000; -554.000
361.129;  -44.600; -389.000; -598.000
361.261;   -8.300;  110.000; -113.000
361.393;  -49.075; -252.000; -214.000
361.525;  -22.625;   94.000;  244.000
361.657; -102.850; -821.000; -703.000
361.789;  -40.850; -139.000; -155.000
361.921;  -34.375; -642.000; -593.000
362.053;   86.275;  524.000;  541.000
362.185;    1.325;  288.000;   72.000
362.318; -121.925; -709.000; -705.000
362.450;   45.725;  294.000;  444.000
362.582;  -88.475; -913.000; -870.000
362.714;  -59.650; -353.000; -332.000
362.846;  -88.625; -606.000; -490.000
362.978; -138.275; -941.000; -811.000
363.109;  -32.225; -161.000; -260.000
363.241;  143.250; -739.000; -749.000
363.373;  646.325; -649.000; -564.000
363.505; 1075.600; -186.000;  -91.000
363.637;  241.625; -787.000; -601.000
363.769; -131.725;-1067.000;-1080.000
363.901; -102.100; -596.000; -654.000
364.033; -152.550;-1103.000;-1062.000
364.165;  -39.525; -283.000; -283.000
364.296;   95.875; -316.000; -177.000
364.428;  210.725;-1344.000;-1220.000
364.560;  -60.275; -679.000; -661.000
364.692; -100.275; -738.000; -835.000
364.824;  -17.925; -588.000; -456.000
364.955;  504.075; -402.000; -564.000
365.087; 1753.950;-1097.000; -852.000
365.219;  100.850; -686.000; -816.000
365.351;  -75.525; -526.000; -572.000
365.482;   19.200;  300.000;  240.000
365.614;  -57.400; -402.000; -314.000
365.746; -104.800; -729.000; -752.000
365.877;  -88.325; -706.000; -672.000
366.009;  421.575;  -35.000;  -62.000
366.141;  -19.700;-1249.000;-1134.000
366.272; -103.550; -803.000; -719.000
366.404; -110.700;-1005.000; -874.000
366.535;   -6.025; -139.000;  -12.000
366.667; -107.725; -644.000; -649.000
366.799;    9.600;  353.000;  203.000
366.930; -132.600; -862.000; -996.000
367.062;  195.800; -639.000; -613.000
367.193;  350.600; -872.000; -842.000
367.325;  -50.325; -580.000; -684.000
367.456;   -9.975; -246.000;   31.000
367.588;  287.950; -371.000; -318.000
367.719;   50.275;  -44.000;  -45.000
367.851;  -44.550; -222.000; -241.000
367.982; -116.200; -875.000; -732.000
368.113;  -29.375; -475.000; -358.000
368.245; -145.775; -960.000; -841.000
368.376;  -55.650; -254.000; -302.000
368.508;  -59.875; -188.000; -263.000
368.639; -153.675;-1166.000;-1034.000
368.770;  -87.700; -670.000; -589.000
368.902; -111.525; -836.000; -926.000
369.033; -115.875; -906.000; -855.000
369.164;  -36.175; -720.000; -653.000
369.296;  -99.350; -452.000; -601.000
369.427;  -36.325; -209.000; -144.000
369.558;  -78.350; -593.000; -377.000
369.689;  -91.900; -721.000; -569.000
369.821; -131.600; -951.000; -845.000
369.952;  -43.175;   42.000; -108.000
370.083;  -59.075; -229.000; -108.000
370.214; -100.225; -735.000; -650.000
370.345;  -24.650;   65.000;   81.000
370.477; -117.700; -810.000; -790.000
370.608;   26.625; -328.000; -264.000
370.739; -135.925;-1233.000;-1292.000
370.870; -110.675;-1102.000; -923.000
371.001;  -33.550; -378.000; -467.000
371.132; -107.700; -754.000; -735.000
371.263;  -46.150;  -42.000; -148.000
371.394; -127.725; -841.000; -748.000
371.525;    5.650;  345.000;  225.000
371.657; -124.125; -808.000; -670.000
371.788;   18.300;  103.000;  199.000
371.919;   -3.375; -384.000; -304.000
372.050; 1162.375;  -91.000; -156.000
372.181;  358.150; -188.000; -294.000
372.311;   94.000;   42.000; -127.000
372.442;  -48.100; -457.000; -451.000
372.573;  -63.100; -444.000; -340.000
372.704; -148.000;-1008.000; -980.000
372.835;  -34.425; -228.000; -289.000
372.966;  -96.450; -646.000; -554.000
373.097; -107.625; -575.000; -711.000
373.228;  -95.700; -717.000; -542.000
373.359;  -48.275; -824.000; -536.000
373.490;  144.175; -881.000; -727.000
373.620;  222.925;-1001.000; -803.000
373.751;  473.100; -332.000; -396.000
373.882;  193.575; -663.000; -733.000
374.013;  -24.200; -449.000; -262.000
374.143;  -76.925; -581.000; -659.000
374.274; -121.050; -987.000; -908.000
374.405;   60.700; -388.000; -276.000
374.536;   93.050; -526.000; -387.000
374.666;  247.025; -759.000; -807.000
374.797;  -21.000; -817.000; -868.000
374.928;  153.900; -710.000; -560.000
375.058;  168.925; -535.000; -500.000
375.189;   -3.725;  -59.000;  -93.000
375.320; -135.550; -928.000;-1034.000
375.450;  -68.000; -625.000; -616.000
375.581;  -51.975; -526.000; -436.000
375.712;  -57.425; -574.000; -250.000
375.842;    0.225; -438.000; -415.000
375.973;  -19.925; -554.000; -513.000
376.103; -111.650; -665.000; -648.000
376.234; -102.675; -531.000; -552.000
376.364; -113.125; -944.000; -867.000
376.495;  141.125;  925.000;  529.000
376.625;  -55.600; -472.000; -485.000
376.756;  -78.350; -709.000; -678.000
376.886; -140.950;-1178.000;-1026.000
377.017;  136.725;-1048.000;-1061.000
377.147;  674.300; -786.000; -782.000
377.278;   74.850;  174.000;  228.000
377.408; -121.400; -801.000; -815.000
377.538; -104.025; -707.000; -693.000
377.669;  -82.175; -537.000; -613.000
377.799; -114.500; -645.000; -635.000
377.929;  -93.525; -610.000; -428.000
378.060; -131.225; -781.000; -847.000
378.190;  -42.275; -726.000; -531.000
378.320;  -54.225; -401.000; -406.000
378.451;  -18.925; -131.000;  -22.000
378.581;  -28.375;  -67.000; -110.000
378.711;   87.950; 1035.000;  866.000
378.841;  -80.850; -533.000; -675.000
378.972; -112.550; -871.000; -751.000
379.102;  -84.450; -652.000; -579.000
379.232;  -42.025; -126.000;  -73.000
379.362; -131.825;-1001.000; -885.000
379.492;  -52.700; -373.000; -424.000
379.623;   24.975;    0.000;  111.000
379.753; -113.000;-1107.000; -974.000
379.883;   56.125;   59.000;  156.000
380.013;  -96.675;-1081.000;-1017.000
380.143; -128.950;-1097.000;-1056.000
380.273; -105.450; -985.000; -861.000
380.403;  -24.125; -344.000; -257.000
380.533;  -54.150; -651.000; -664.000
380.663;   11.850;  173.000;  128.000
380.793; -149.575;-1027.000;-1074.000
380.923;  -38.600; -103.000;  -34.000
381.053; -104.700; -613.000; -623.000
381.183;  -52.450; -106.000; -248.000
381.313;  -71.825; -656.000; -470.000
381.443;  -54.750; -692.000; -473.000
381.573;  -28.750; -402.000; -409.000
381.703;  -92.825;-1249.000;-1095.000
381.833; -181.250;-1454.000;-1336.000
381.963;    5.200; -134.000;  -87.000
382.093;  383.650; -925.000; -909.000
382.223;   67.875; -713.000; -602.000
382.353;  -82.875; -801.000; -608.000
382.482;   -3.350;-1091.000; -964.000
382.612;  154.700; -872.000; -644.000
382.742;   62.925; -695.000; -622.000
382.872;  -15.925; -565.000; -551.000
383.002;   19.550;  347.000; -132.000
383.131;  -32.700; -226.000; -160.000
383.261;  -43.900; -706.000; -768.000
383.391;  325.025; -552.000; -377.000
383.521; 5181.600;  451.000;  263.000
383.650; 1543.625; -947.000; -904.000
383.780;   45.400; -783.000; -656.000
383.910;   94.975;  880.000;  802.000
384.039;  -86.725; -794.000; -656.000
384.169; -102.200;-1205.000;-1017.000
384.299;  -84.950; -650.000; -662.000
384.428; -109.075; -764.000; -680.000
384.558;  -69.400; -308.000; -275.000
384.687;  -68.625; -414.000; -334.000
384.817;  -22.950;   75.000;   -2.000
384.947;  -37.550; -234.000; -141.000
385.076;  146.825;  982.000;  912.000
385.206;   51.400;  369.000;  480.000
385.335;  -76.650; -549.000; -417.000
385.465; -107.350; -655.000; -663.000
385.594;   19.800;  -53.000;  -44.000
385.724;   19.050; -868.000; -838.000
385.853;  -17.800; -296.000; -270.000
385.982;  301.000; -743.000; -787.000
386.112;  598.275;-1052.000; -871.000
386.241;   10.800; -307.000; -312.000
386.371;  -27.850; -174.000;  -87.000
386.500;  -52.350; -825.000; -789.000
386.629;  -23.025; -874.000; -817.000
386.759;   80.800;  -43.000;   68.000
386.888;  -30.700; -170.000; -250.000
387.017;  -95.575; -648.000; -620.000
387.147; -119.375; -771.000; -798.000
387.276;  -64.475; -410.000; -397.000
387.405;  -51.850; -398.000; -342.000
387.535;  -80.800; -452.000; -361.000
387.664;  -76.375; -692.000; -620.000
387.793;  -20.575; -198.000; -113.000
387.922;  115.800;  255.000;  200.000
388.052;  -60.525; -576.000; -423.000
388.181;  -60.500; -342.000; -472.000
388.310;  -95.650; -889.000; -710.000
388.439; -113.850; -749.000; -742.000
388.568;   43.825;  365.000;  244.000
388.697;  212.850; -756.000; -653.000
388.826;  -17.275; -768.000; -666.000
388.956;  -39.475; -285.000; -307.000
389.085;  -65.425; -347.000; -287.000
389.214; -107.350; -842.000; -872.000
389.343;  -81.150; -645.000; -413.000
389.472;  551.525;  126.000;  149.000
389.601;  619.675;   91.000;    0.000
389.730;  -21.400; -568.000; -687.000
389.859;   20.475;  226.000;   46.000
389.988;    9.875; -423.000; -408.000
390.117;   34.950; -168.000; -146.000
390.246;  -42.725; -331.000; -320.000
390.375;  -66.600; -673.000; -626.000
390.504;  -92.150; -703.000; -621.000
390.633; -120.600; -672.000; -726.000
390.761; -113.250; -732.000; -645.000
390.890;  -23.275;   -4.000; -130.000
391.019;  -78.175; -421.000; -441.000
391.148; -119.475; -826.000; -855.000
391.277;  -88.425; -576.000; -493.000
391.406; -111.400; -821.000; -805.000
391.534;   -9.100;  574.000; -301.000
391.663; -100.300; -583.000; -645.000
391.792; -118.400; -673.000; -701.000
391.921;  -14.350;   -3.000;   15.000
392.050;  -13.925; -287.000; -228.000
392.178; -132.100;-1206.000;-1061.000
392.307;  -43.350; -758.000; -712.000
392.436;  -51.100; -427.000; -641.000
392.564;    4.700;  166.000;   -6.000
392.693; -123.475; -860.000; -682.000
392.822;    4.300; -529.000; -534.000
392.950;  -45.125; -880.000; -714.000
393.079;   38.050; -188.000; -328.000
393.208;  -54.150; -488.000; -511.000
393.336;  -35.150; -170.000; -145.000
393.465;  -46.750; -317.000; -199.000
393.593;   -4.000;   62.000;   79.000
393.722; -154.600;-1121.000; -916.000
393.850;  -28.425; -188.000;  -61.000
393.979; -142.550; -926.000; -805.000
394.107;  -64.550; -517.000; -537.000
394.236;  -50.800; -570.000; -507.000
394.364;   94.675;  383.000;  206.000
394.493;   38.000; -911.000; -767.000
394.621;  -11.750; -955.000; -916.000
394.750; 1166.175; -873.000; -923.000
394.878; 4484.275; -247.000; -149.000
395.007; 6675.575; -721.000; -807.000
395.135;  593.750; -790.000; -721.000
395.263;  -62.100;-1038.000;-1040.000
395.392;   -2.350;  -25.000; -107.000
395.520; -124.150; -818.000; -679.000
395.648; -124.450; -865.000; -915.000
395.777;  -68.850; -366.000; -405.000
395.905;  -87.275; -449.000; -564.000
396.033;  -18.475;  217.000;  172.000
396.162;   85.275; -399.000; -453.000
396.290;  103.225;  -17.000;   -2.000
396.418;  -70.600; -555.000; -514.000
396.546; -101.675; -571.000; -466.000
396.674; -139.275; -850.000; -878.000
396.803;  -30.775;  -72.000;  -23.000
396.931;  -31.750; -179.000; -199.000
397.059; -134.800;-1026.000; -989.000
397.187; -142.725;-1026.000; -975.000
397.315; -133.575; -884.000; -649.000
397.443; -108.050; -592.000; -443.000
397.572;  -99.025; -578.000; -424.000
397.700;  -96.525; -607.000; -614.000
397.828;  -39.600;  120.000;  -90.000
397.956;  -53.725; -508.000; -478.000
398.084;  -22.850; -767.000; -626.000
398.212;  -11.075;  137.000;  124.000
398.340;  -21.525;  -56.000;  159.000
398.468;  -58.550; -390.000; -169.000
398.596; -149.075; -993.000; -953.000
398.724; -135.625; -762.000; -767.000
398.852; -159.700;-1024.000; -976.000
398.980; -100.325; -560.000; -560.000
399.108; -110.675; -982.000; -735.000
399.236;  -19.975;   13.000;    8.000
399.363;   -8.875;  222.000;  196.000
399.491;  -69.650; -404.000; -398.000
399.619; -133.200; -829.000; -800.000
399.747; -117.875; -859.000; -771.000
399.875;   36.750;  220.000;  234.000
400.003;  -66.700; -359.000; -284.000
400.130; -106.800; -421.000; -341.000
400.258;  -45.200;  -83.000;   38.000
400.386;  -71.125; -352.000; -168.000
400.514;  -95.200; -526.000; -587.000
400.641; -145.075; -928.000; -802.000
400.769; -146.900; -979.000; -888.000
400.897; -121.300; -838.000; -793.000
401.025;  -47.375; -166.000; -152.000
401.152;  -18.675;  220.000;   38.000
401.280;  -89.750; -430.000; -429.000
401.408; -116.875; -712.000; -576.000
401.535; -125.700; -735.000; -758.000
401.663; -192.225;-1134.000;-1054.000
401.790;  -90.050; -514.000; -525.000
401.918;   23.575;  436.000;  405.000
402.046;  -28.575;  134.000;  122.000
402.173;  -47.975;  -18.000;    7.000
402.301;  -84.725; -519.000; -397.000
402.428;   34.750;  528.000;  383.000
402.556; -167.650;-1188.000; -913.000
402.683;  -35.725;  -20.000;   -1.000
402.811;  -41.450;  -37.000; -206.000
402.938;  -25.900;   20.000;   27.000
403.066;  -24.600; -574.000; -558.000
403.193;   84.150;  299.000;  239.000
403.321;   51.950; -396.000; -574.000
403.448;  118.200;   83.000;   27.000
403.575;   42.775;  -90.000;  -46.000
403.703; -102.375; -732.000; -557.000
403.830;  -56.450; -531.000; -496.000
403.957; -125.850;-1117.000;-1023.000
404.085;   18.300;  -61.000; -172.000
404.212;  118.575;  -50.000;   63.000
404.339;  433.025; -566.000; -306.000
404.467; 9085.350; -612.000; -524.000
404.594; 5645.525; -287.000; -227.000
404.721;  980.450; -869.000; -764.000
404.848;   97.250; -113.000; -202.000
404.976;  -98.200; -856.000; -783.000
405.103;   -9.700;  -14.000;  -82.000
405.230;   -9.800;  190.000;  226.000
405.357;   34.525;  117.000;   44.000
405.484;  435.175;  -49.000;    5.000
405.612;  119.500; -548.000; -563.000
405.739;  -60.275; -488.000; -243.000
405.866;   60.325;  669.000;  385.000
405.993;  -56.325; -398.000; -102.000
406.120; -143.300; -801.000; -887.000
406.247;  -90.075; -323.000; -342.000
406.374;   99.625;  540.000;  629.000
406.501;  -88.800; -632.000; -702.000
406.628;  -90.050; -621.000; -589.000
406.755; -123.250; -803.000; -620.000
406.882;  -79.075; -228.000; -277.000
407.009; -108.350; -719.000; -628.000
407.136;  -47.325; -480.000; -401.000
407.263;  -58.025; -939.000; -829.000
407.390; -107.450; -692.000; -614.000
407.517; -184.250;-1139.000;-1187.000
407.644;  -69.750; -332.000; -256.000
407.771; -150.100; -249.000; -287.000
407.898;  -15.700;  168.000;  328.000
408.025;  -82.625; -421.000; -313.000
408.151;  -12.075;   82.000;  153.000
408.278;  -76.650; -267.000; -216.000
408.405; -127.700; -931.000; -899.000
408.532;  -96.725; -549.000; -542.000
408.659; -131.100; -677.000; -648.000
408.785; -195.650;-1298.000;-1170.000
408.912;  -69.475; -412.000; -296.000
409.039; -116.875; -610.000; -686.000
409.166; -107.350; -591.000; -555.000
409.292; -117.575; -571.000; -534.000
409.419; -133.725; -665.000; -649.000
409.546;  -82.200; -431.000; -192.000
409.672; -117.525; -713.000; -545.000
409.799;  -32.475;  -36.000;   34.000
409.926;  -48.425; -180.000; -179.000
410.052; -184.725;-1127.000;-1091.000
410.179;  -75.100; -368.000; -392.000
410.305;  -83.300; -375.000; -493.000
410.432;  -37.725; -220.000; -333.000
410.558;  -87.075; -305.000; -380.000
410.685; -107.800; -688.000; -431.000
410.812; -103.150; -409.000; -588.000
410.938; -144.625; -964.000; -808.000
411.065; -109.575; -671.000; -645.000
411.191;  -41.175; -189.000; -174.000
411.317; -135.875; -823.000; -742.000
411.444;  -77.800; -317.000; -246.000
411.570;  -77.475; -339.000; -294.000
411.697; -124.000; -758.000; -752.000
411.823; -179.700; -989.000; -999.000
411.949;  -59.900;  -56.000;   17.000
412.076; -124.875; -539.000; -519.000
412.202; -136.450; -758.000; -757.000
412.329; -137.275; -798.000; -752.000
412.455; -117.150; -821.000; -657.000
412.581;  -39.425;  -15.000;  172.000
412.707;  -94.475; -540.000; -457.000
412.834;  -10.975;  156.000;  219.000
412.960; -116.625; -785.000; -784.000
413.086; -102.800; -743.000; -701.000
413.212;  119.050;  604.000;  578.000
413.339;  -94.600; -685.000; -701.000
413.465;  -80.100; -364.000; -310.000
413.591; -124.050; -757.000; -474.000
413.717;  -50.250; -358.000; -366.000
413.843; -143.500; -839.000; -861.000
413.969;  -62.625;  -47.000; -292.000
414.096;  -88.325; -679.000; -679.000
414.222;  -21.925;  -33.000;   85.000
414.348;  -82.525; -652.000; -385.000
414.474;   -3.125;   38.000;  -52.000
414.600;  -16.075; -126.000; -144.000
414.726;  -16.325;  -96.000;  -55.000
414.852;  -50.700; -365.000; -342.000
414.978;   48.300;  104.000;  -18.000
415.104;   66.950;   38.000;   80.000
415.230;   38.475; -329.000; -330.000
415.356;   64.200; -409.000; -514.000
415.482;  226.650;   13.000;  -35.000
415.608;  403.600; -247.000; -323.000
415.734; 1318.500;   67.000;   38.000
415.860;27729.800; -875.000; -767.000
415.986;23261.875; -685.000; -607.000
416.111; 2195.250; -798.000; -652.000
416.237;  466.750; -424.000; -571.000
416.363; 1697.025; -765.000; -733.000
416.489; 6849.650; -324.000; -251.000
416.615;  958.875; -707.000; -742.000
416.741;   57.075; -677.000; -784.000
416.866;  -61.550; -673.000; -736.000
416.992; -108.225; -801.000; -818.000
417.118;  -23.225;  -41.000;  -80.000
417.244;  -78.400; -798.000; -531.000
417.369;  -76.425; -801.000; -612.000
417.495;   -8.700; -325.000; -254.000
417.621;  -80.250;-1015.000; -803.000
417.746;   -9.575; -579.000; -572.000
417.872;   69.200; -254.000; -144.000
417.998;  129.525; -515.000; -530.000
418.123; 1551.175;-1073.000; -845.000
418.249; 8670.850; -512.000; -601.000
418.374; 1539.300; -916.000; -824.000
418.500;  251.700; -383.000; -482.000
418.626;  182.675;   70.000;  -59.000
418.751;  171.625; -549.000; -448.000
418.877;  325.325; -637.000; -643.000
419.002; 2549.200; -688.000; -560.000
419.128;19802.375; -930.000; -721.000
419.253; 5729.650; -967.000; -837.000
419.379;  785.600; -391.000; -338.000
419.504;  593.300;  325.000;  415.000
419.629;  842.025; -393.000; -212.000
419.755; 5373.850; -317.000; -254.000
419.880;35284.075;  -98.000;   67.000
420.006;17751.700; -280.000; -221.000
420.131;44186.575; -662.000; -775.000
420.256; 7291.225; -315.000; -316.000
420.382; 1009.375; -665.000; -687.000
420.507;  181.700; -649.000; -778.000
420.632;   52.175; -337.000; -339.000
420.758;   39.275; -251.000; -425.000
420.883; -100.825; -876.000; -672.000
421.008; -113.550; -775.000; -619.000
421.133;  -90.150; -509.000; -467.000
421.259;  -57.225; -325.000; -259.000
421.384; -137.350; -834.000; -693.000
421.509; -128.525;-1052.000; -862.000
421.634;  143.150; -936.000; -820.000
421.759;   61.175; -359.000; -327.000
421.885;  -91.775; -717.000; -656.000
422.010;  -94.875; -673.000; -542.000
422.135; -142.575; -695.000; -727.000
422.260;    6.525;  340.000;  280.000
422.385;  -40.250;   12.000;  -98.000
422.510;   -8.050;  151.000;  -26.000
422.635;  -26.200;  -87.000;  -43.000
422.760;  -37.825; -766.000; -791.000
422.885;   26.850;  -57.000;  -80.000
423.010;  -35.900; -112.000; -169.000
423.135;  -82.050; -481.000; -561.000
423.260;  -50.225; -150.000; -245.000
423.385;   26.875;  476.000;  222.000
423.510;    8.550;   71.000;  -22.000
423.635;    2.350;  133.000;   45.000
423.760;   40.575;  383.000;  328.000
423.885;   31.400;  336.000;  391.000
424.010;  -10.700;  -68.000;  -13.000
424.135;  -27.325;    5.000;  -33.000
424.259;  -79.325; -654.000; -457.000
424.384;  -43.000; -279.000; -272.000
424.509;  -19.575; -260.000; -186.000
424.634;  -77.275; -761.000; -623.000
424.759;  -39.725; -688.000; -544.000
424.883;   -6.825; -506.000; -527.000
425.008;  192.300; -502.000; -410.000
425.133; 2917.650; -679.000; -653.000
425.258; 1581.125; -517.000; -381.000
425.382;  490.850; -867.000; -774.000
425.507; 1055.375; -487.000; -543.000
425.632;  375.825; -802.000; -663.000
425.756;  706.750; -256.000; -146.000
425.881;10109.200; -831.000; -857.000
426.006;31560.825; -604.000; -355.000
426.130; 5351.850; -696.000; -508.000
426.255;  700.250; -611.000; -491.000
426.379;  284.050; -189.000; -577.000
426.504;  491.200;  660.000;  544.000
426.629; 5716.375; -519.000; -466.000
426.753; 4580.000;   64.000;  -46.000
426.878;  546.625; -252.000; -288.000
427.002;  315.225; -651.000; -668.000
427.127; 2057.575;  -35.000; -158.000
427.251;17499.500;  372.000;  401.000
427.375; 5822.325; -191.000; -173.000
427.500; 1280.475; -616.000; -610.000
427.624;  400.975; -234.000; -400.000
427.749;   69.175; -216.000; -225.000
427.873;  -13.500; -499.000; -412.000
427.997;  -46.600; -222.000; -230.000
428.122;   57.875;  795.000;  703.000
428.246;   31.925;  433.000;  434.000
428.371; -140.875; -869.000; -773.000
428.495; -114.500; -624.000; -646.000
428.619;  -47.700; -186.000; -117.000
428.743;   -3.600;   65.000;  132.000
428.868;  -78.225; -732.000; -643.000
428.992;  428.150; -219.000; -326.000
429.116;  165.750; -329.000; -357.000
429.240;   90.600;  419.000;  426.000
429.365;  -42.150; -454.000; -574.000
429.489;  -70.450; -638.000; -647.000
429.613;   38.850; -236.000; -177.000
429.737;   86.150; -563.000; -432.000
429.861;  391.450; -247.000; -133.000
429.985; 7985.575; -425.000; -305.000
430.109;10278.325; -770.000; -908.000
430.234; 1279.700;   76.000;  -50.000
430.358;  166.650; -250.000; -160.000
430.482;  -35.350; -672.000; -564.000
430.606;  -75.000; -655.000; -375.000
430.730;  -54.475; -437.000; -388.000
430.854;  -90.675; -909.000; -835.000
430.978;  -97.725; -795.000; -764.000
431.102;  -76.000; -499.000; -422.000
431.226; -126.125; -874.000; -815.000
431.350;   25.850;  345.000;  422.000
431.474;  -86.575; -661.000; -373.000
431.597; -157.400;-1060.000; -848.000
431.721;  -77.000; -276.000; -267.000
431.845; -132.925; -704.000; -472.000
431.969;  -84.825; -304.000; -349.000
432.093;  -91.725; -395.000; -317.000
432.217;   -0.150;   32.000;   82.000
432.341;  -80.575; -523.000; -518.000
432.464;  -20.600;   96.000;   40.000
432.588;  -13.375; -401.000; -329.000
432.712;    8.925;  -52.000;  -52.000
432.836;   61.300;  213.000;  263.000
432.959;   42.650; -372.000; -311.000
433.083;  164.550;   11.000;    2.000
433.207;  568.325;  285.000;  930.000
433.330; 7688.175; -391.000; -200.000
433.454;10785.025; -654.000; -638.000
433.578; 5973.550;  583.000;  278.000
433.701; 1297.675; -623.000; -675.000
433.825;  170.700; -292.000; -299.000
433.949;   40.700;   28.000;  -72.000
434.072;  -22.450; -410.000; -323.000
434.196;   -6.675; -309.000; -117.000
434.319; 3460.050;25482.000;25124.000
434.443;  875.100; -656.000; -603.000
434.566; 4172.175;  281.000;   62.000
434.690;  927.825; -637.000; -383.000
434.813;  163.600; -251.000; -173.000
434.937;  -39.525; -569.000; -696.000
435.060;  -74.825; -423.000; -332.000
435.184;  -19.125; -492.000; -217.000
435.307;    1.900;  159.000;  102.000
435.431;  -40.550;  -40.000;   24.000
435.554;  -83.325; -399.000; -240.000
435.677;  -92.325; -350.000; -258.000
435.801;  -45.300;  -25.000;   49.000
435.924;  -44.275;    1.000;  -67.000
436.048; -139.250;-1019.000; -732.000
436.171;  -71.175; -240.000;  -66.000
436.294;    6.400; -248.000; -229.000
436.417;  231.000; -963.000; -849.000
436.541;  -25.600; -814.000; -840.000
436.664;  -48.550; -242.000; -316.000
436.787;  -34.900;   13.000;  113.000
436.910; -122.375; -792.000; -422.000
437.034;   -8.475;  142.000;  143.000
437.157;   -2.000;  -11.000;    0.000
437.280;  -85.625; -392.000; -292.000
437.403; -144.275; -982.000; -869.000
437.526;  -19.125; -903.000; -865.000
437.649;  416.850; -505.000; -332.000
437.772;   -8.175; -692.000; -540.000
437.896;   49.975;  700.000;  544.000
438.019; -103.350; -758.000; -503.000
438.142; -111.125; -596.000; -506.000
438.265; -112.875; -639.000; -670.000
438.388;   10.375; -520.000; -410.000
438.511;  -81.275; -597.000; -394.000
438.634;  -85.050; -247.000; -125.000
438.757; -138.550; -693.000; -619.000
438.880;  -55.225;  -34.000;  -57.000
439.003; -105.800; -417.000; -437.000
439.126;  -85.000; -287.000; -167.000
439.248;  -65.050;  -98.000; -139.000
439.371;  -60.900;    9.000;  -53.000
439.494;   14.075;  510.000;  439.000
439.617;  -62.775;   65.000;  -88.000
439.740; -170.550; -968.000; -816.000
439.863; -145.350; -755.000; -595.000
439.986; -120.325; -476.000; -431.000
440.108;  -56.050; -161.000; -112.000
440.231; -161.900; -950.000; -836.000
440.354;  -59.375;  -64.000; -150.000
440.477; -120.175; -566.000; -542.000
440.599;  -84.600; -200.000; -225.000
440.722; -130.425; -709.000; -586.000
440.845;   48.250;  751.000;  928.000
440.968; -109.525; -415.000; -311.000
441.090;  -77.925; -199.000;  -33.000
441.213; -162.075;-1021.000; -825.000
441.336;  -68.425; -159.000;   -5.000
441.458; -101.850; -549.000; -396.000
441.581; -118.650; -628.000; -629.000
441.703;  -72.825; -152.000;   13.000
441.826; -126.750; -557.000; -400.000
441.948;  -38.200;   56.000;   51.000
442.071;   -4.950;  555.000;  424.000
442.193; -124.000; -531.000; -485.000
442.316;   -4.875;  152.000;   97.000
442.438;   85.925; -233.000;  -10.000
442.561;   51.775;  272.000;  262.000
442.683;   23.975; -809.000; -522.000
442.806;  229.150;   -8.000;   74.000
442.928;  -99.575; -859.000; -604.000
443.051;  -85.950; -577.000; -373.000
443.173; -102.800; -341.000; -339.000
443.295; -103.000; -263.000; -371.000
443.418;  -80.125; -321.000;  -29.000
443.540;  -47.925; -106.000;   -4.000
443.662; -118.950; -563.000; -465.000
443.785;  -28.250;  335.000;  199.000
443.907; -103.300; -362.000; -208.000
444.029; -126.450; -767.000; -494.000
444.152; -150.250; -644.000; -554.000
444.274;  -55.125;  -18.000;  -24.000
444.396; -124.125; -461.000; -221.000
444.518; -134.650; -691.000; -454.000
444.640; -100.075; -268.000; -111.000
444.763;  -25.925;  388.000;  249.000
444.885; -121.025; -432.000; -392.000
445.007;  -43.825;   35.000;   86.000
445.129; -114.250; -610.000; -515.000
445.251; -111.475; -372.000; -439.000
445.373; -151.875; -537.000; -386.000
445.495;  -20.175;  242.000;  350.000
445.617;   31.775;  853.000;  753.000
445.739;  -88.075; -215.000;  -97.000
445.861;  -61.825; -245.000; -112.000
445.984;  -76.475; -267.000; -101.000
446.105;  -26.900; -418.000; -251.000
446.227;   87.225; -176.000;  -19.000
446.349;  -79.475; -358.000; -249.000
446.471; -132.325; -615.000; -448.000
446.593;  -92.200; -316.000;   19.000
446.715;  -57.250;  -67.000;   41.000
446.837;   47.425;  697.000;  832.000
446.959; -124.375; -457.000; -478.000
447.081; -133.300; -628.000; -518.000
447.203;   43.250;  862.000;  834.000
447.325;  -87.125; -270.000;   42.000
447.446;  -26.800;  286.000;  530.000
447.568; -148.650; -921.000; -803.000
447.690; -102.500; -236.000; -245.000
447.812; -145.350; -798.000; -519.000
447.933;  -40.500;  155.000;  127.000
448.055;  -63.675; -306.000; -261.000
448.177;    5.225;   31.000;   79.000
448.299; -100.975; -935.000; -727.000
448.420;  -24.000;  -25.000;  159.000
448.542;  -54.575;   -3.000;   33.000
448.664;  -33.950;  109.000;  322.000
448.785;  -37.700;  265.000;   83.000
448.907; -123.300; -614.000; -353.000
449.028; -111.775; -771.000; -471.000
449.150;   30.725;  492.000;  589.000
449.272; -182.500;-1044.000; -913.000
449.393;   14.475;  612.000;  694.000
449.515; -146.725; -634.000; -581.000
449.636;  -86.975; -264.000; -155.000
449.758;   44.775;  763.000;  622.000
449.879;  -98.175; -498.000; -396.000
450.001;  -76.875; -149.000;  -49.000
450.122;  -42.750;  -95.000;  162.000
450.244;   -7.575;   37.000;  364.000
450.365;  -86.775; -495.000; -301.000
450.486;    3.425;   80.000;  268.000
450.608;   41.800;  393.000;  326.000
450.729;  113.300;  578.000;  645.000
450.850;   87.025; -574.000; -466.000
450.972; 1235.450; -552.000; -389.000
451.093; 8000.325;  190.000;  588.000
451.214; 4245.825; -516.000; -337.000
451.336;  707.925;  773.000;  579.000
451.457;  123.875;  264.000;  393.000
451.578;  -22.575; -118.000;  -74.000
451.699;  -99.900; -546.000; -540.000
451.821;  -51.975; -284.000;  -50.000
451.942;    7.575;  278.000;  285.000
452.063;   55.200;  228.000;  419.000
452.184;  827.425;  -54.000;  -49.000
452.305; 1770.825;  103.000;  170.000
452.427;  358.325; -549.000; -301.000
452.548;   -3.200;   23.000;   79.000
452.669;  -65.975; -257.000;  -89.000
452.790;  -61.375;    3.000;  -18.000
452.911;  -22.225;  195.000;  259.000
453.032;  -81.000; -289.000;  -60.000
453.153;  -53.200;  -29.000;   81.000
453.274;   44.625;  737.000;  868.000
453.395;  -60.400;  -51.000;  175.000
453.516;   96.850; 1317.000; 1388.000
453.637;  -87.975; -205.000; -150.000
453.758;  -68.625;   15.000;   69.000
453.879; -110.575; -462.000; -250.000
454.000;   55.225; 1086.000;  948.000
454.121; -125.625; -554.000; -326.000
454.242; -121.600; -599.000; -383.000
454.362;  -51.600;  -99.000;  114.000
454.483;  -10.450; -309.000; -229.000
454.604;   53.375;  512.000;  580.000
454.725; -125.700; -627.000; -555.000
454.846; -126.675; -474.000; -406.000
454.967;  -25.550;  230.000;  539.000
455.087;  -38.100;  179.000;  153.000
455.208;   -2.525;  554.000;  856.000
455.329;  -60.525;  -22.000;   82.000
455.450;   58.050;  473.000;  633.000
455.570;  -56.000; -234.000; -211.000
455.691;  -40.325;  201.000;  407.000
455.812;  -95.400; -270.000;  -92.000
455.932;  -64.950;  107.000;  -97.000
456.053;  -69.775;   36.000;   24.000
456.173; -114.000; -433.000; -355.000
456.294; -119.875; -476.000; -303.000
456.415;  -64.725;  -73.000;   70.000
456.535;  -40.300;  297.000;  273.000
456.656;  -52.800;  132.000;  240.000
456.776;  -65.425;    3.000;  298.000
456.897;   -1.975;  308.000;  513.000
457.017;  -73.100; -153.000;   -3.000
457.138; -105.475; -402.000; -249.000
457.258;  -38.700;  263.000;  224.000
457.379;  -10.950;  509.000;  521.000
457.499;  -33.500;  443.000;  432.000
457.620; -118.975; -407.000; -231.000
457.740;  -90.875; -132.000;  -11.000
457.860;  -53.400;   87.000;   44.000
457.981;  -48.300;  132.000;  124.000
458.101;  -81.050;  -89.000;   40.000
458.221;  -17.600;  336.000;  402.000
458.342;  -60.700;   -4.000;  -37.000
458.462;   46.675;  617.000;  352.000
458.582;   25.300; -302.000; -294.000
458.703;   81.025;  303.000;  154.000
458.823;    4.300;   22.000;  163.000
458.943;   52.400;  341.000;  467.000
459.063;   25.900; 1124.000;  192.000
459.183;  -29.075;  328.000;  313.000
459.304;   14.725;  315.000;  517.000
459.424;  -29.025; -246.000;  -89.000
459.544;  466.275;  388.000;  764.000
459.664; 1337.775;  499.000;  506.000
459.784;  514.650; 1004.000; 1175.000
459.904;   84.700;  867.000;  744.000
460.024;   50.350;  867.000;  684.000
460.144;   -5.650;  449.000;  554.000
460.264;  -19.125;  515.000;  327.000
460.385;  -88.350; -145.000; -119.000
460.505;   24.300;  905.000;  858.000
460.625;  -95.800;  -17.000;  -68.000
460.745;  -36.575;  396.000;  541.000
460.864;  -32.625;  153.000;  469.000
460.984;   20.500;  499.000;  573.000
461.104;  147.950; 1656.000; 1775.000
461.224;   -1.850;  657.000;  650.000
461.344;  -46.350;  431.000;  360.000
461.464;  -33.525;  258.000;  513.000
461.584;  -15.175;  283.000;  466.000
461.704;  -80.325;   58.000;  108.000
461.824;  -54.450;  238.000;  259.000
461.943;  -59.175;  191.000;  130.000
462.063;  -74.300;    2.000;  324.000
462.183;    4.800;  639.000;  717.000
462.303;   69.775; 1678.000; 1230.000
462.422;   30.075;  781.000;  840.000
462.542;  -40.550;  271.000;  391.000
462.662;   24.375;  353.000;  380.000
462.782;  336.425;  833.000;  572.000
462.901;  757.175;  545.000;  717.000
463.021;  398.575; 1702.000; 1638.000
463.141;    3.850;  337.000;  770.000
463.260;  -20.250;  614.000;  474.000
463.380;   18.725;  902.000;  884.000
463.499;  -40.250;  342.000;  332.000
463.619;  -47.700;  581.000;  559.000
463.738;   93.450; 1644.000;  903.000
463.858;   -1.975;  657.000;  811.000
463.978;  -25.425;  542.000;  396.000
464.097;   37.875;  921.000; 1114.000
464.217;  140.000; 1196.000; 1143.000
464.336;  156.525; 1068.000; 1130.000
464.455;  -23.900;  328.000;  659.000
464.575;    4.900;  597.000;  602.000
464.694;  118.850; 1204.000; 1179.000
464.814;  173.050; 1190.000; 1138.000
464.933;   85.875; 1095.000; 1027.000
465.052;   88.625; 1412.000; 1054.000
465.172;   82.275;  922.000;  799.000
465.291;  111.350; 1376.000; 1320.000
465.410;    0.675;  462.000;  735.000
465.530;   59.225; 1355.000; 1310.000
465.649;   55.475; 1209.000; 1273.000
465.768;  138.675; 1673.000; 1508.000
465.888;   67.750;  941.000; 1174.000
466.007;   83.200; 1335.000; 1440.000
466.126;    6.425;  721.000;  641.000
466.245;   20.200; 1176.000; 1187.000
466.364;   13.650;  950.000; 1060.000
466.484;   49.325; 1024.000; 1213.000
466.603;   14.250; 1101.000; 1222.000
466.722;  112.575; 1490.000; 1769.000
466.841;   69.350; 1151.000; 1401.000
466.960;   36.850; 1069.000;  972.000
467.079;  144.550; 1971.000; 1786.000
467.198;   44.750; 1238.000; 1181.000
467.317;   80.900; 1768.000; 1162.000
467.436;   61.350; 1709.000; 1261.000
467.555;  136.300; 1796.000; 1746.000
467.674;   58.425; 1227.000; 1329.000
467.793;   46.650; 1376.000; 1374.000
467.912;   78.475; 1658.000; 1539.000
468.031;  131.525; 2038.000; 1930.000
468.150;  105.500; 1842.000; 1837.000
468.269;  179.650; 2313.000; 2090.000
468.388;  182.100; 2168.000; 2339.000
468.507;  244.800; 2884.000; 2903.000
468.626;  234.525; 2555.000; 2541.000
468.744;  146.375; 2018.000; 2174.000
468.863;  200.800; 2312.000; 2523.000
468.982;   97.925; 1503.000; 1555.000
469.101;  227.950; 2788.000; 2692.000
469.220;  154.725; 2333.000; 2176.000
469.338;  244.075; 2935.000; 3051.000
469.457;  195.850; 2719.000; 2545.000
469.576;  338.900; 3953.000; 3784.000
469.695;  237.900; 2877.000; 3066.000
469.813;  400.450; 4148.000; 4192.000
469.932;  415.825; 4255.000; 4485.000
470.051;  437.150; 4075.000; 4161.000
470.169; 1032.775; 4470.000; 4338.000
470.288; 2018.625; 4700.000; 4809.000
470.406; 1185.025; 5059.000; 5194.000
470.525;  659.475; 6101.000; 5787.000
470.644;  644.775; 6847.000; 6794.000
470.762;  807.550; 8397.000; 7873.000
470.881;  909.750; 8651.000; 8464.000
470.999; 1067.525; 9685.000; 9151.000
471.118; 1119.425;11174.000;10711.000

