
Integration time [ms]: 100.000
Averaging Nr. [scans]: 40
Smoothing Nr. [pixels]: 0
Data measured with spectrometer [name]: 2101012U2
Wave   ;Sample   ;Dark     ;Reference
[nm]   ;[counts] ;[counts] ;[counts] 

197.733;   51.500;  516.000;  404.000
197.879;  -82.350; -610.000; -634.000
198.025;  -56.700; -475.000; -420.000
198.171;  -72.375; -602.000; -612.000
198.317;  -27.275; -401.000; -316.000
198.463;  -46.350; -655.000; -404.000
198.609;   20.375;  181.000; -137.000
198.755;  -90.075; -644.000; -410.000
198.901;  -50.775; -505.000; -424.000
199.047;  -60.925; -615.000; -488.000
199.193;  -34.400; -230.000; -468.000
199.339;  -42.950; -222.000; -369.000
199.485;   33.225;  330.000;  271.000
199.631;    8.775;  227.000;  310.000
199.777;  -43.475; -466.000; -398.000
199.923;  -62.075; -610.000; -424.000
200.069;    4.775; -141.000;  -58.000
200.215;   69.800;  128.000;  453.000
200.361;   36.825;  243.000;  477.000
200.507;  -61.075; -600.000; -373.000
200.653;  -21.200; -371.000; -194.000
200.798;  -26.650; -215.000; -125.000
200.944;    2.125; -146.000;  -41.000
201.090;   30.725;   61.000;  222.000
201.236;   -3.675; -116.000; -158.000
201.382;  117.275;  874.000;  903.000
201.528;    6.925;  -58.000;  -48.000
201.674;  -44.050; -386.000; -293.000
201.819;  -59.950; -540.000; -439.000
201.965;  -72.750; -699.000; -447.000
202.111;  -25.875; -273.000; -226.000
202.257;  -35.700; -250.000; -238.000
202.402;   17.775;   13.000;  -36.000
202.548;  -34.175; -169.000; -116.000
202.694;   81.100;  410.000; -183.000
202.840;  -62.675; -603.000; -531.000
202.985;  -77.625; -681.000; -639.000
203.131; -101.600; -832.000; -666.000
203.277;  -24.700; -199.000; -262.000
203.423;  -48.625; -434.000; -520.000
203.568;  -43.650; -462.000; -237.000
203.714;  -65.550; -535.000; -542.000
203.860;  -78.500; -682.000; -641.000
204.005;   12.475;  112.000;  167.000
204.151;   69.950;  561.000;  556.000
204.296;  -37.875; -354.000; -221.000
204.442;  -75.225; -600.000; -547.000
204.588;  -72.150; -592.000; -579.000
204.733;   11.000;  178.000;  168.000
204.879; -116.525;-1018.000; -822.000
205.025;    0.525;  -99.000;  126.000
205.170;   -3.625;  -17.000;   94.000
205.316;   74.125;  438.000;  661.000
205.461;  -76.750; -698.000; -554.000
205.607;   69.575;  609.000;  665.000
205.752;  -72.050; -626.000; -551.000
205.898;  -45.900; -501.000; -391.000
206.043;  -56.300; -578.000; -506.000
206.189;  -45.450; -243.000; -285.000
206.334;   70.400;  554.000;  606.000
206.480;   71.225;  409.000;  239.000
206.625;  -75.500; -529.000; -552.000
206.771;  -50.000; -451.000; -373.000
206.916;  -28.550; -210.000; -537.000
207.062;  -71.375; -545.000; -591.000
207.207;  -59.925; -546.000; -443.000
207.353;   44.400;  185.000;  460.000
207.498;   21.075;  196.000;   85.000
207.643;  -46.800; -501.000; -370.000
207.789; -125.000;-1069.000; -910.000
207.934;  -95.025; -665.000; -713.000
208.080;  -30.050; -154.000;   66.000
208.225;  -12.825;  -22.000;  -57.000
208.370;  -82.475; -727.000; -619.000
208.516;  -76.300; -741.000; -487.000
208.661;  -28.525; -127.000;  -69.000
208.806;  -22.300; -165.000; -171.000
208.952; -119.825;-1044.000; -731.000
209.097;   73.000;  378.000;  349.000
209.242;  -59.525; -307.000; -382.000
209.387;   77.050;  392.000;  350.000
209.533;  -52.400; -321.000; -350.000
209.678;   84.375;  472.000;  543.000
209.823;  -51.650; -408.000; -310.000
209.969;  -93.300; -860.000; -757.000
210.114; -103.475; -907.000; -719.000
210.259; -117.125; -939.000; -889.000
210.404;   -7.125; -171.000;  103.000
210.549;   -5.900;  108.000;    3.000
210.695;  -11.800;   -3.000;  -95.000
210.840;   26.125;   94.000;   67.000
210.985;  -51.500; -484.000; -303.000
211.130;   62.150;  268.000;  406.000
211.275;   12.900;  207.000;  199.000
211.420;  -50.075; -300.000; -289.000
211.566;  -74.150; -536.000; -489.000
211.711;   16.600;  218.000;  157.000
211.856;  -55.500; -545.000; -519.000
212.001;    6.725;  151.000;   44.000
212.146;   22.275;  153.000;   49.000
212.291;  -33.025; -210.000; -186.000
212.436;  -19.225; -280.000;   -6.000
212.581;  -78.775; -685.000; -653.000
212.726;  -52.550; -487.000; -538.000
212.871;  -58.300; -552.000; -217.000
213.016; -142.650;-1172.000;-1029.000
213.161;   55.200;  406.000;  291.000
213.306;  -79.300; -435.000; -577.000
213.451;  -90.075; -778.000; -689.000
213.596;  -33.375; -455.000; -347.000
213.741;  -59.125; -448.000; -538.000
213.886;  -72.625; -498.000; -517.000
214.031;  -28.600; -294.000; -124.000
214.176;  -42.250; -408.000; -341.000
214.321;  -21.450; -296.000; -157.000
214.466;  -28.825; -163.000;  -43.000
214.611;    5.325;  -61.000;  -10.000
214.756; -105.150; -948.000; -858.000
214.901;  -29.050; -388.000; -226.000
215.046; -109.325; -797.000; -825.000
215.191;    9.625;  128.000;   35.000
215.336;   -9.375; -157.000;  -19.000
215.480;  -60.675; -684.000; -505.000
215.625;  -19.350; -175.000;  -19.000
215.770;  -82.500; -757.000; -662.000
215.915;   -5.425;   -5.000;  -97.000
216.060;   -4.425; -113.000;  -21.000
216.205; -112.675; -731.000; -779.000
216.349;  -72.800; -470.000; -533.000
216.494; -126.050; -939.000; -867.000
216.639; -110.775; -823.000; -888.000
216.784;  -89.325; -577.000; -525.000
216.929;   51.575;  392.000;  281.000
217.073;  -17.600; -244.000;  -31.000
217.218;    9.675;   78.000;  -47.000
217.363;  -91.825; -656.000; -618.000
217.507;  -70.775; -623.000; -588.000
217.652; -114.375; -845.000; -874.000
217.797;  -83.625; -708.000; -659.000
217.942;  -98.900; -856.000; -720.000
218.086;   76.225;  608.000;  539.000
218.231;  -21.600; -174.000;  -26.000
218.376;  -27.225; -337.000; -229.000
218.520;    0.425;  -41.000;   96.000
218.665;  -30.250; -338.000; -204.000
218.810;  -46.075; -275.000; -233.000
218.954;   23.825;  201.000;   35.000
219.099; -109.100; -713.000; -963.000
219.243;  -57.925; -589.000; -554.000
219.388;  -28.075; -264.000; -136.000
219.532;  -21.775; -116.000; -116.000
219.677;  -72.125; -564.000; -521.000
219.822;   16.950;   33.000;   89.000
219.966;   18.525;   17.000;  -99.000
220.111;  -36.525; -328.000;  -40.000
220.255; -105.825; -797.000; -750.000
220.400;   -4.400; -180.000; -146.000
220.544;  -67.500; -516.000; -450.000
220.689;  -42.125; -422.000; -451.000
220.833;  -32.600; -123.000;  -58.000
220.978;  -43.850; -393.000; -563.000
221.122;   35.975;  319.000;  307.000
221.267; -111.300; -906.000; -837.000
221.411;  -61.825; -478.000; -394.000
221.555;   -8.325; -104.000;  -23.000
221.700;  -39.550; -329.000; -222.000
221.844;   32.450;  255.000;  272.000
221.989;  -41.300; -328.000; -311.000
222.133;  -35.350; -289.000; -307.000
222.277;   -0.150;    5.000;   78.000
222.422;   15.950;  227.000;  113.000
222.566;  -52.400; -381.000; -214.000
222.711;  -53.675; -414.000; -479.000
222.855;  -73.450; -643.000; -586.000
222.999;  -82.925; -642.000; -717.000
223.144;  -31.000; -195.000; -194.000
223.288;   62.400;  423.000;  251.000
223.432;   12.225;  184.000;  230.000
223.576;   15.325;  152.000;  -21.000
223.721;   34.675;  364.000;  273.000
223.865;  -56.650; -472.000; -475.000
224.009;  221.150; 1673.000; 1631.000
224.153;  -76.200; -660.000; -671.000
224.298;  -67.250; -531.000; -489.000
224.442;  -14.700;  -74.000;  -33.000
224.586;  -14.825; -169.000; -106.000
224.730;  -86.050; -858.000; -670.000
224.875;  -98.550; -739.000; -688.000
225.019;   16.875;  102.000;  188.000
225.163;   61.725;  208.000;  341.000
225.307;   23.550;   97.000;  -91.000
225.451;   50.500;  360.000;  481.000
225.595;   41.400;  264.000;  176.000
225.739;  -24.500; -170.000;  -94.000
225.884;    3.725;   86.000;    5.000
226.028;  -95.100; -760.000; -626.000
226.172;  -29.525; -260.000; -273.000
226.316; -110.775; -941.000; -902.000
226.460;  -76.150; -645.000; -493.000
226.604;  -41.350; -406.000; -400.000
226.748;  -94.725; -836.000; -733.000
226.892;  -40.625; -227.000; -181.000
227.036;  -53.125; -537.000; -447.000
227.180;  -52.525; -551.000; -375.000
227.324;  -63.525; -561.000; -580.000
227.468; -106.350; -819.000; -717.000
227.612;    8.350;  242.000;  -28.000
227.756;  -91.575; -845.000; -698.000
227.900;   35.000;  342.000;  441.000
228.044;  -54.650; -509.000; -290.000
228.188;   46.250;  448.000;  568.000
228.332;  -72.225; -546.000; -472.000
228.476;  -32.400; -223.000; -149.000
228.620;  -39.725; -210.000; -150.000
228.764;   79.175;  431.000;  349.000
228.908;  -19.500; -155.000;   30.000
229.052;  -72.675; -615.000; -528.000
229.195;  -12.600; -172.000;   13.000
229.339;  -34.075; -235.000; -305.000
229.483;  -34.600;    5.000; -162.000
229.627;  -11.650; -156.000;  139.000
229.771;  -47.725; -218.000; -294.000
229.915;   10.850;  230.000;   79.000
230.059; -102.225; -648.000; -663.000
230.202;  -36.925; -370.000; -317.000
230.346;  -17.750; -107.000;  107.000
230.490;  -50.200; -489.000; -521.000
230.634;  -90.525; -736.000; -553.000
230.777;   66.225;  478.000;  509.000
230.921;  -48.450; -450.000; -359.000
231.065;  -44.600; -246.000; -286.000
231.209;   12.000;  261.000;  265.000
231.352;    5.925;   54.000;   40.000
231.496;    7.475;  568.000;  188.000
231.640;  -65.650; -693.000; -621.000
231.783;   58.875;  546.000;  525.000
231.927;  -56.200; -294.000; -365.000
232.071; -119.000; -962.000; -736.000
232.214; -109.800; -980.000; -764.000
232.358;  -97.175; -683.000; -599.000
232.502;   -0.025;  -19.000;    7.000
232.645; -132.175;-1090.000; -927.000
232.789;  -17.600; -257.000; -218.000
232.933;  -46.500; -407.000; -224.000
233.076; -127.350;-1038.000; -897.000
233.220;  -97.525; -752.000; -777.000
233.363;  -70.300; -669.000; -477.000
233.507;   51.400;  371.000;  129.000
233.650;  -85.225; -764.000; -834.000
233.794;   29.050;  438.000;  461.000
233.938;  -62.825; -530.000; -362.000
234.081;  -22.700;  -93.000;   31.000
234.225;  -64.675; -631.000; -539.000
234.368; -122.425; -773.000; -723.000
234.512;  -37.025; -385.000; -299.000
234.655;  -93.825; -582.000; -555.000
234.798;  -67.700; -493.000; -466.000
234.942; -117.550; -884.000;-1002.000
235.085;  -73.525; -651.000; -443.000
235.229;  -78.800; -405.000; -410.000
235.372;  -42.875; -247.000; -191.000
235.516;  -66.375; -397.000; -321.000
235.659;   13.375;   92.000;  121.000
235.802;  -23.075;  -38.000;  -22.000
235.946;   31.575;  335.000;  215.000
236.089;   14.175;  126.000;  250.000
236.233;   47.975;  275.000;  298.000
236.376;  -45.625; -235.000; -378.000
236.519;  -43.550; -297.000; -319.000
236.663;  -21.200; -215.000; -117.000
236.806; -132.350;-1029.000; -999.000
236.949;   50.100;  543.000;  431.000
237.092;   53.525;  412.000;  391.000
237.236;  -75.875; -589.000; -502.000
237.379;   58.825;  352.000;  428.000
237.522; -120.350; -879.000; -768.000
237.666;  -14.675; -271.000;   18.000
237.809; -122.500; -851.000; -823.000
237.952;   18.325;  469.000;  271.000
238.095;  -65.075; -447.000; -442.000
238.238;   78.000;  688.000;  700.000
238.382;    2.900;  166.000;  103.000
238.525;  -66.125; -598.000; -511.000
238.668; -119.700;-1060.000; -985.000
238.811;  -89.875; -638.000; -643.000
238.954;  -50.000; -483.000; -334.000
239.097;   86.600;  617.000;  664.000
239.241;   19.950;  394.000;  326.000
239.384;  -28.700; -254.000; -214.000
239.527;  -67.200; -424.000; -224.000
239.670; -137.875; -994.000;-1091.000
239.813; -105.425; -696.000; -658.000
239.956;   94.025;  579.000;  473.000
240.099; -116.100; -778.000; -725.000
240.242;   57.075;  428.000;  432.000
240.385;   49.075;  466.000;  450.000
240.528;  -76.425; -706.000; -473.000
240.671;    5.475;  189.000;  134.000
240.814;  -52.550; -441.000; -158.000
240.957;  -99.075; -767.000; -578.000
241.100;  -86.475; -779.000; -755.000
241.243; -131.100;-1234.000; -893.000
241.386;  -61.150; -508.000; -379.000
241.529;  -88.025; -735.000; -547.000
241.672;  -59.800; -566.000; -495.000
241.815; -117.800; -832.000; -808.000
241.958;  -27.725; -125.000; -182.000
242.101;  -68.375; -545.000; -390.000
242.244;  -42.300; -270.000; -325.000
242.387;  -58.475; -304.000; -246.000
242.530;   53.100;  470.000;  134.000
242.673;  -46.400; -381.000; -309.000
242.815; -119.525; -925.000; -899.000
242.958;  -84.825; -482.000; -381.000
243.101;   14.275;  132.000;  187.000
243.244;  -74.525; -564.000; -521.000
243.387;  -51.050; -313.000; -316.000
243.530;  -92.850; -657.000; -674.000
243.672;    2.825;   43.000;  -92.000
243.815;  -40.950; -355.000; -283.000
243.958;   10.625;   98.000;  -26.000
244.101;    8.550;   59.000;  -16.000
244.243;   -2.200;  -47.000;  101.000
244.386;  -97.450; -761.000; -630.000
244.529;  -30.725; -132.000; -139.000
244.672; -155.600;-1154.000; -951.000
244.814;  -88.750; -621.000; -794.000
244.957;  -60.150; -380.000; -304.000
245.100;  -75.300; -489.000; -489.000
245.242;  -64.875; -387.000; -374.000
245.385;   -5.550;  -59.000;  -39.000
245.528; -111.250; -871.000; -705.000
245.670;   87.025;  612.000;  634.000
245.813;  -86.250; -599.000; -547.000
245.956;  -37.150; -324.000; -275.000
246.098;  -68.225; -508.000; -650.000
246.241;    8.725;  194.000;   48.000
246.383;  -18.950; -119.000;  -73.000
246.526;  -77.225; -454.000; -525.000
246.669; -112.375; -889.000; -780.000
246.811;   10.900;  172.000;   -1.000
246.954;  -58.850; -512.000; -426.000
247.096;  -37.475;  -84.000;   -6.000
247.239;  -57.975; -482.000; -445.000
247.381;  -69.200; -647.000; -488.000
247.524;   83.075;  645.000;  679.000
247.666;   -5.425;   58.000;   11.000
247.809; -119.450; -887.000; -691.000
247.951;  -18.300;  -75.000;  138.000
248.094;   14.275;  432.000;  308.000
248.236; -155.350;-1262.000;-1238.000
248.378;  -15.775; -356.000;  -81.000
248.521;  -38.600; -334.000; -337.000
248.663;  -40.800; -236.000; -267.000
248.806;  -23.900; -300.000; -266.000
248.948; -112.100; -886.000; -763.000
249.090;  -43.550; -428.000; -398.000
249.233;  -54.600; -344.000; -381.000
249.375;  -66.875; -474.000; -451.000
249.518;  -23.650;  -83.000; -133.000
249.660;  -15.650; -103.000;    3.000
249.802; -161.400;-1303.000;-1189.000
249.945;  -90.250; -612.000; -540.000
250.087; -123.225; -834.000; -768.000
250.229;  -47.850; -362.000; -480.000
250.371;  -67.975; -494.000; -439.000
250.514;  -62.050; -310.000; -244.000
250.656;   -4.850;   69.000;  102.000
250.798; -120.800; -849.000; -800.000
250.940;  -55.150; -322.000; -322.000
251.083;  -26.725; -335.000; -111.000
251.225;   61.100;  338.000;  310.000
251.367;  -37.000; -274.000; -373.000
251.509;  -42.475; -265.000; -210.000
251.651;  -89.075; -731.000; -671.000
251.794;   49.700;  538.000;  632.000
251.936;  -87.025; -821.000; -747.000
252.078;  -82.150; -540.000; -461.000
252.220;  -73.950; -645.000; -477.000
252.362;   47.650;  344.000;  462.000
252.504;  -66.025; -677.000; -584.000
252.646; -105.650; -875.000; -722.000
252.788;  -16.300;   14.000; -128.000
252.931;  -56.925; -257.000; -253.000
253.073;  -43.450; -376.000; -317.000
253.215;   -6.925;  141.000;  122.000
253.357;  -11.500;   82.000; -153.000
253.499;  -48.275; -374.000; -234.000
253.641; -100.175; -749.000; -594.000
253.783;  -92.650; -609.000; -527.000
253.925;  -80.275; -586.000; -591.000
254.067;  -98.200; -744.000; -667.000
254.209;  -34.775; -391.000; -259.000
254.351; -134.550; -865.000; -883.000
254.493;  -76.750; -441.000; -417.000
254.635; -126.700; -936.000; -818.000
254.777;  -92.925; -752.000; -687.000
254.918;  -73.950; -512.000; -430.000
255.060;  -49.050; -551.000; -395.000
255.202;  -54.075; -473.000; -261.000
255.344;  -63.050; -658.000; -455.000
255.486;  -78.875; -471.000; -406.000
255.628; -102.775; -780.000; -781.000
255.770;  -87.800; -676.000; -536.000
255.912;  -52.300; -559.000; -468.000
256.053;  -85.100; -730.000; -508.000
256.195;  142.550; 1008.000;  903.000
256.337; -101.375; -861.000; -595.000
256.479;   58.575;  532.000;  416.000
256.621;  -49.825; -394.000; -212.000
256.762;  -85.000; -789.000; -742.000
256.904;   47.100;  485.000;  487.000
257.046;  -50.050; -381.000; -271.000
257.188;  -36.975; -351.000; -264.000
257.329;  -71.275; -525.000; -464.000
257.471; -113.125; -939.000; -807.000
257.613;  -76.100; -584.000; -498.000
257.755; -139.975;-1073.000; -982.000
257.896;   36.075;  286.000;  392.000
258.038;  -57.200; -403.000; -352.000
258.180;  -46.450; -354.000; -279.000
258.321;  -84.350; -581.000; -457.000
258.463;  -11.600;  -71.000;  133.000
258.605;  -84.725; -562.000; -570.000
258.746; -102.250; -886.000; -772.000
258.888; -153.000;-1026.000;-1020.000
259.029;   15.275;  121.000;   -8.000
259.171;  -84.625; -614.000; -550.000
259.313;   -5.400;  -49.000;  -47.000
259.454;  -75.575; -536.000; -414.000
259.596;  -64.375; -483.000; -390.000
259.737;  -70.925; -590.000; -474.000
259.879;   21.275;  217.000;  311.000
260.020;   64.275;  901.000;  636.000
260.162;  -43.975; -146.000; -253.000
260.303; -128.125; -768.000; -687.000
260.445;  -77.425; -609.000; -613.000
260.586;   24.025;  392.000;  157.000
260.728;  -42.425; -360.000; -248.000
260.869;  -72.700; -350.000; -343.000
261.011;   74.800;  706.000;  537.000
261.152;  -64.150; -479.000; -319.000
261.293;  -69.775; -576.000; -595.000
261.435;  -37.025; -219.000; -184.000
261.576;  -56.500; -455.000; -325.000
261.718;   62.125;  420.000;  470.000
261.859; -123.300; -940.000; -949.000
262.000; -129.500; -951.000;-1016.000
262.142;  -40.750;  -52.000;  -60.000
262.283; -111.675; -808.000; -691.000
262.424;  -92.800; -666.000; -625.000
262.566; -147.000;-1161.000; -983.000
262.707; -113.600; -840.000; -830.000
262.848; -114.375; -769.000; -726.000
262.990;  -53.650; -362.000; -345.000
263.131;   62.300;  650.000;  681.000
263.272;   -9.400;  -61.000;  -41.000
263.413;  -91.050; -589.000; -561.000
263.555;  -67.800; -669.000; -143.000
263.696;  -85.000; -550.000; -641.000
263.837;  -60.650; -449.000; -551.000
263.978;  -19.275;   -5.000;  -77.000
264.119;  -46.025; -283.000; -264.000
264.261; -114.425; -847.000; -630.000
264.402;    0.375;   33.000;   40.000
264.543;  -79.575; -509.000; -524.000
264.684;   -6.650;   61.000;  -50.000
264.825;  -62.250; -816.000; -538.000
264.966;   -5.325;  -84.000;  -67.000
265.107; -111.900; -646.000; -670.000
265.248; -112.775; -825.000; -812.000
265.390;  -11.575;  152.000;   -9.000
265.531;  -34.750; -238.000; -107.000
265.672;  -80.850; -557.000; -630.000
265.813;   68.075;  563.000;  439.000
265.954; -145.425; -959.000; -940.000
266.095;  -27.000; -372.000; -322.000
266.236;  -99.300; -686.000; -548.000
266.377;  -42.125; -243.000; -297.000
266.518;  -76.900; -619.000; -547.000
266.659;   35.150;  170.000;  268.000
266.800;   -6.950;   83.000;   85.000
266.941;  -79.150; -487.000; -478.000
267.082;   11.325;  354.000;   99.000
267.223;  -63.275; -344.000; -273.000
267.364; -115.425; -892.000; -686.000
267.504;  -16.550;    3.000;  135.000
267.645;   -3.100;  160.000;   67.000
267.786;  -35.325; -147.000;  -86.000
267.927;  -79.675; -473.000; -379.000
268.068;  -20.450; -186.000;  -61.000
268.209;  -51.550; -175.000; -413.000
268.350;  -56.225; -388.000; -532.000
268.490;  -84.550; -648.000; -521.000
268.631;   33.300;  127.000;  225.000
268.772; -127.075; -874.000; -647.000
268.913;  -58.850; -328.000; -476.000
269.054;  -23.825; -117.000;   12.000
269.194;  -65.050; -418.000; -402.000
269.335; -145.325;-1137.000;-1074.000
269.476;  -13.450;   33.000;  -35.000
269.617;  -62.250; -347.000; -392.000
269.757;  -98.050; -713.000; -646.000
269.898;  -98.425; -856.000; -613.000
270.039;  -63.100; -415.000; -405.000
270.180; -135.275; -952.000; -816.000
270.320;  -41.875; -190.000; -250.000
270.461;  -43.525; -277.000; -249.000
270.602;  -29.475; -186.000; -156.000
270.742; -125.475; -868.000; -943.000
270.883;  -59.000; -442.000; -390.000
271.023;  -49.175; -358.000; -357.000
271.164;  -79.050; -607.000; -528.000
271.305;  -95.575; -666.000; -654.000
271.445;  -93.700; -722.000; -683.000
271.586;  -73.300; -462.000; -283.000
271.726;  -50.100; -397.000; -322.000
271.867;  -72.400; -594.000; -534.000
272.008;   58.450; -473.000; -285.000
272.148;   62.225;  462.000;  468.000
272.289;  -17.575; -113.000; -181.000
272.429;  -15.675;   19.000;  185.000
272.570;  -88.425; -633.000; -737.000
272.710; -101.950; -825.000; -775.000
272.851;  -31.125;  113.000; -130.000
272.991; -149.475;-1173.000;-1077.000
273.131;  -70.800; -419.000; -459.000
273.272; -101.325; -683.000; -723.000
273.412;  -14.000; -143.000;  -31.000
273.553;  -72.475; -488.000; -507.000
273.693;   99.550;  913.000;  858.000
273.834; -113.450; -894.000; -692.000
273.974;  -84.725; -664.000; -615.000
274.114; -106.000; -772.000; -560.000
274.255;   54.725;  414.000;  373.000
274.395;  -23.275; -180.000; -125.000
274.535;   28.625;  199.000;  350.000
274.676;   12.200;  225.000;   94.000
274.816;    1.525;  110.000;   34.000
274.956;  -93.000; -624.000; -690.000
275.097;  -96.800;-1014.000; -922.000
275.237; -120.075; -913.000; -803.000
275.377; -102.075; -778.000; -689.000
275.517; -148.175; -878.000; -937.000
275.658;  -68.000; -590.000; -555.000
275.798;  -83.925; -606.000; -413.000
275.938;   23.600;  215.000;  323.000
276.078;  -76.350; -626.000; -395.000
276.218;   -8.000;   99.000;  104.000
276.359; -139.800;-1026.000;-1024.000
276.499;  -71.575; -605.000; -446.000
276.639;  -36.925; -305.000; -151.000
276.779;  -55.875; -475.000; -357.000
276.919; -108.550; -783.000; -624.000
277.059;  -31.700; -261.000; -212.000
277.199;  -52.800; -357.000; -259.000
277.340;   38.675;  287.000;  175.000
277.480; -122.750; -840.000; -693.000
277.620;   20.525;  192.000;   16.000
277.760; -193.775;-1533.000;-1294.000
277.900;   -7.050;  113.000;   33.000
278.040;  -11.625;  137.000;  159.000
278.180;   13.550;  270.000;  170.000
278.320;  -19.800;   21.000;   56.000
278.460;  -77.225; -443.000; -469.000
278.600;  -90.725; -708.000; -598.000
278.740;   44.975;  448.000;  224.000
278.880; -110.850; -768.000; -791.000
279.020;  -30.475; -194.000; -144.000
279.160; -107.150; -672.000; -595.000
279.300; -118.225; -926.000; -873.000
279.440; -105.750; -709.000; -622.000
279.579;  -81.825;-1014.000; -929.000
279.719;  -65.175; -410.000; -394.000
279.859;   25.325;   -4.000;   41.000
279.999;  -11.775; -208.000;  101.000
280.139;  -38.575; -435.000; -387.000
280.279; -100.425; -708.000; -745.000
280.419;  -24.125; -229.000; -147.000
280.559;  -45.700; -259.000; -180.000
280.698;  -99.625; -790.000; -639.000
280.838;  -98.500; -778.000; -800.000
280.978;  -96.850; -846.000; -790.000
281.118;  -99.250; -811.000; -704.000
281.257;    3.225;   24.000;    6.000
281.397; -151.600;-1094.000; -960.000
281.537;  -96.650; -599.000; -712.000
281.677;  -22.375; -150.000; -101.000
281.816;  -98.925; -700.000; -630.000
281.956;  -46.975; -193.000; -257.000
282.096;  -55.500; -539.000; -396.000
282.235; -103.975; -672.000; -638.000
282.375;  -12.825; -243.000;  -98.000
282.515; -106.525; -715.000; -707.000
282.654;   15.475;   29.000;  106.000
282.794;   12.550;  388.000;  244.000
282.934;  -63.075; -530.000; -491.000
283.073; -137.350;-1030.000; -857.000
283.213;  -59.000; -460.000; -467.000
283.353;  -48.450; -408.000; -349.000
283.492;  -17.500; -264.000; -296.000
283.632;  -54.825; -254.000; -168.000
283.771; -110.400; -859.000; -730.000
283.911;  -44.675; -369.000; -260.000
284.050; -109.000; -794.000; -748.000
284.190; -151.175;-1229.000;-1096.000
284.329; -145.225;-1055.000; -964.000
284.469;  -91.850; -516.000; -591.000
284.608;  -66.400; -559.000; -598.000
284.748;  -86.450; -614.000; -570.000
284.887;  -14.525;  -87.000;  -20.000
285.027; -127.375; -844.000; -892.000
285.166;  -44.925; -192.000; -249.000
285.306;  -16.200; -116.000;  -33.000
285.445;  -52.050; -229.000; -343.000
285.584;  -87.475; -630.000; -494.000
285.724;  -57.600; -282.000; -322.000
285.863; -107.325; -857.000; -507.000
286.002;  -53.450; -366.000; -276.000
286.142; -116.125; -715.000; -622.000
286.281;  -75.200; -525.000; -493.000
286.420;  -87.275; -554.000; -417.000
286.560;   82.550;  653.000;  623.000
286.699; -136.525; -958.000; -912.000
286.838;  -93.200; -590.000; -591.000
286.978;  -85.775; -533.000; -537.000
287.117; -134.625;-1085.000; -950.000
287.256;  -44.125; -228.000; -211.000
287.395;  -51.950; -197.000; -378.000
287.535;  -62.500; -370.000; -298.000
287.674;  -76.975; -509.000; -484.000
287.813;   41.225;  661.000;  533.000
287.952; -136.075;-1010.000; -871.000
288.091; -150.525;-1049.000; -915.000
288.231;   -1.475;   13.000;   15.000
288.370; -172.825;-1217.000;-1200.000
288.509;  -93.025; -728.000; -645.000
288.648; -100.300; -770.000; -548.000
288.787;  -43.850; -243.000;  -87.000
288.926;  -68.925; -454.000; -475.000
289.065;  102.825;  859.000;  672.000
289.204;  -57.125; -377.000; -217.000
289.344; -101.075; -791.000; -690.000
289.483;   -0.875;  416.000;  304.000
289.622;  -20.625; -291.000; -149.000
289.761;  -29.825; -309.000; -166.000
289.900; -112.475; -785.000; -626.000
290.039;  -32.875;  -12.000;  -95.000
290.178;  -44.350; -274.000; -180.000
290.317;  -74.975; -618.000; -479.000
290.456;  -66.975; -463.000; -451.000
290.595; -134.975; -961.000; -833.000
290.734; -132.800; -904.000; -891.000
290.873;  -62.425; -456.000; -420.000
291.011;  -99.325; -833.000; -843.000
291.150; -108.350; -770.000; -682.000
291.289;  -39.600; -343.000; -110.000
291.428;  -99.350; -599.000; -480.000
291.567;  -55.450; -370.000; -442.000
291.706;   -6.125;  109.000;  154.000
291.845;  -86.625; -597.000; -505.000
291.984; -164.450;-1234.000;-1061.000
292.122;   52.325;  602.000;  582.000
292.261;   25.275;  620.000;  463.000
292.400;   -2.900; -144.000;  211.000
292.539; -133.100; -959.000; -813.000
292.678;  -43.350; -325.000; -300.000
292.816; -157.750;-1136.000; -965.000
292.955; -103.050; -844.000; -684.000
293.094;  -30.100; -173.000; -337.000
293.233;  -70.675; -556.000; -400.000
293.371;  -41.400; -225.000;  -84.000
293.510; -108.450; -866.000; -780.000
293.649; -141.925; -959.000; -924.000
293.787; -117.425;-1083.000;-1012.000
293.926;  -16.300; -113.000;  -32.000
294.065;  -42.550; -379.000; -290.000
294.203;   39.450;  298.000;  406.000
294.342;   26.475;   74.000;  156.000
294.481; 5947.525;51180.000; -836.000
294.619;  -26.400; -425.000; -582.000
294.758; -149.725;-1230.000;-1137.000
294.896;    7.275; -125.000;    5.000
295.035; -140.550;-1040.000;-1006.000
295.174; -139.000;-1082.000; -954.000
295.312;  -49.800; -323.000; -203.000
295.451;  -41.000; -307.000; -428.000
295.589;  -73.725; -389.000; -518.000
295.728;   -5.425; -292.000; -165.000
295.866;  -12.850;  -36.000;  -51.000
296.005;  -68.650; -584.000; -341.000
296.143;  -75.800; -558.000; -596.000
296.282; -114.325; -957.000; -881.000
296.420;  -94.100; -657.000; -557.000
296.559; -103.400; -892.000; -633.000
296.697;  -71.300; -847.000; -665.000
296.835;  -88.325;-1141.000;-1002.000
296.974;   18.250;  -23.000;   39.000
297.112;  -36.625; -443.000; -504.000
297.251;  -95.275; -815.000; -755.000
297.389;  -37.525; -576.000; -438.000
297.527;   -5.725; -145.000;  -83.000
297.666;  -62.400; -486.000; -438.000
297.804;  -59.750; -404.000; -264.000
297.942;  -14.050; -136.000; -161.000
298.081;   -4.150; -183.000;   63.000
298.219;    2.775;  -17.000;  -19.000
298.357;  -12.825; -144.000;  -71.000
298.495;  -68.750; -810.000; -812.000
298.634;   -1.775;  245.000;  219.000
298.772;  -27.025; -220.000; -338.000
298.910;  -72.050; -309.000; -182.000
299.048;  -10.175; -130.000; -153.000
299.187;  -46.925; -350.000; -250.000
299.325;  -17.025;   52.000;  122.000
299.463;  -33.500; -389.000; -299.000
299.601;   -3.750; -327.000; -271.000
299.739; -137.075; -908.000; -883.000
299.877;  -98.325; -791.000; -703.000
300.016; -102.300;-1095.000; -935.000
300.154;   33.575;  -19.000; -161.000
300.292;  -38.500; -428.000; -348.000
300.430;  -25.275; -408.000; -291.000
300.568; -136.150; -940.000; -874.000
300.706;  -59.775; -366.000; -469.000
300.844; -120.325;-1108.000; -979.000
300.982;   60.325;  246.000;  282.000
301.120; -126.300; -965.000; -866.000
301.258;  -85.825; -812.000; -705.000
301.396;   -7.375;  104.000;  -41.000
301.534;  -25.650; -218.000; -293.000
301.672;  -74.850; -664.000; -521.000
301.810;  -66.750; -613.000; -545.000
301.948;    4.700;   53.000;  149.000
302.086;  195.050; -250.000;  -32.000
302.224;  221.400; -610.000; -585.000
302.362;  -68.925; -558.000; -622.000
302.500; -107.425; -923.000; -893.000
302.638;   35.675;  128.000;  245.000
302.776;  -33.500; -352.000; -408.000
302.913;   29.225;  447.000;  236.000
303.051;  -28.750;  -86.000;  -23.000
303.189;   15.450;   90.000;  118.000
303.327;  -59.125; -341.000; -256.000
303.465;  -92.575; -832.000; -588.000
303.603; -116.375; -805.000; -604.000
303.740;   67.775;  417.000;  241.000
303.878;  -79.200; -800.000; -759.000
304.016;  -96.275; -915.000; -790.000
304.154; -156.775;-1123.000;-1152.000
304.291;  -68.100; -505.000; -554.000
304.429;    3.650;  102.000;   74.000
304.567; -139.450; -908.000; -893.000
304.705;  -66.775; -408.000; -515.000
304.842;  -29.475; -616.000; -540.000
304.980;   15.900;  215.000;   35.000
305.118;  -23.400; -367.000; -365.000
305.255; -120.400; -945.000; -927.000
305.393;   16.475;  178.000;  239.000
305.531; -140.225;-1173.000; -956.000
305.668;  -70.675; -663.000; -582.000
305.806;    3.225; -358.000; -439.000
305.943;   -2.850; -629.000; -637.000
306.081;  -12.725; -378.000; -267.000
306.219; -111.200; -863.000; -748.000
306.356;    2.700;  158.000;   27.000
306.494;  109.675;  981.000;  761.000
306.631;  -10.625;  -11.000;  -55.000
306.769;  -41.550; -613.000; -485.000
306.906;  -52.975; -284.000; -258.000
307.044;  -63.550; -473.000; -488.000
307.181;  -58.050; -410.000; -332.000
307.319;    3.100;  112.000;   87.000
307.456; -170.025;-1191.000;-1153.000
307.594; -101.925; -980.000; -727.000
307.731;  -28.875; -371.000; -164.000
307.868;   -3.475;  -15.000;   20.000
308.006; -139.350; -961.000; -847.000
308.143;  -91.325; -618.000; -330.000
308.281;   34.975;  -37.000; -254.000
308.418;  -70.675; -748.000; -640.000
308.555;  -89.075; -400.000; -250.000
308.693;  -75.275; -577.000; -573.000
308.830; -103.200; -712.000; -657.000
308.967;  -19.225; -215.000;  -95.000
309.105;  -35.950; -507.000; -396.000
309.242;  -21.125; -468.000; -367.000
309.379;   39.500; -577.000; -655.000
309.517; -109.950; -936.000; -948.000
309.654; -112.425; -910.000; -734.000
309.791;  -64.300; -662.000; -580.000
309.928; -121.300; -977.000; -914.000
310.065;  126.525;  819.000;  697.000
310.203;  -74.350; -825.000; -850.000
310.340;  -37.925; -465.000; -321.000
310.477;  -70.725; -412.000; -516.000
310.614;  -59.775; -383.000; -473.000
310.751;  -75.225; -427.000; -518.000
310.889;  -32.400;    1.000;   11.000
311.026; -155.075;-1161.000; -939.000
311.163;  -60.200; -386.000; -380.000
311.300;  -78.450; -512.000; -479.000
311.437;  -82.875; -658.000; -619.000
311.574; -150.950;-1226.000; -985.000
311.711;  -54.650; -595.000; -433.000
311.848;  -38.825; -380.000; -388.000
311.985;    7.550;  270.000;   93.000
312.122; -130.375; -932.000; -762.000
312.259; -115.925; -941.000; -994.000
312.396;  -89.075; -508.000; -551.000
312.533; -105.200; -812.000; -790.000
312.670; -125.350;-1070.000; -898.000
312.807;  -47.600; -352.000; -367.000
312.944;  -87.750; -513.000; -611.000
313.081;  -28.950; -150.000; -415.000
313.218;  -96.600;-1111.000; -867.000
313.355;  -14.275; -531.000; -449.000
313.492;  -29.400; -455.000; -292.000
313.629;  120.375;  815.000;  735.000
313.766; -152.100;-1176.000;-1008.000
313.902;  -20.275; -186.000;   21.000
314.039;  -64.550; -372.000; -289.000
314.176;   30.525;  286.000;  192.000
314.313;  -72.900; -569.000; -473.000
314.450;  -88.500; -788.000; -684.000
314.587;  -67.800; -468.000; -480.000
314.723;    7.950;  -78.000;  130.000
314.860;   40.550;  318.000;  332.000
314.997;   29.250;  223.000;  142.000
315.134;  -41.675; -385.000; -368.000
315.270;  -26.350; -480.000; -496.000
315.407; -128.175;-1094.000; -967.000
315.544;  -38.225; -657.000; -538.000
315.681;  -65.375; -681.000; -565.000
315.817;   20.625; -133.000; -176.000
315.954;   34.950; -613.000; -392.000
316.091; -120.700;-1045.000;-1023.000
316.227;  -29.050;  -71.000; -179.000
316.364;   -3.375;   23.000;    6.000
316.500;  -43.800; -113.000; -300.000
316.637;  -51.325; -181.000; -302.000
316.774;  -92.525; -625.000; -358.000
316.910;  -88.975; -598.000; -629.000
317.047;  -84.575; -487.000; -351.000
317.183;  -56.575; -435.000; -566.000
317.320;   29.925; -367.000; -321.000
317.456;  -26.150; -733.000; -805.000
317.593;  -99.575; -598.000; -641.000
317.729;  -13.250;  168.000;  -67.000
317.866; -203.100;-1434.000;-1285.000
318.002;  -94.550; -708.000; -948.000
318.139; -121.225; -883.000; -867.000
318.275; -121.650;-1003.000; -738.000
318.412;  -73.925; -517.000; -336.000
318.548;  -83.550; -751.000; -720.000
318.685; -111.225; -985.000; -888.000
318.821;  -79.300; -762.000; -735.000
318.957;  -39.325;   34.000;  -23.000
319.094;   22.825;  297.000;  154.000
319.230;  -88.925; -756.000; -742.000
319.367;   -9.325; -471.000; -520.000
319.503;  -23.050; -538.000; -436.000
319.639; -106.625; -877.000; -793.000
319.775;  -95.350; -750.000; -685.000
319.912;  -50.125; -424.000; -519.000
320.048;  -91.450;-1184.000;-1184.000
320.184;   66.550;   59.000;   70.000
320.321;  -49.950; -497.000; -467.000
320.457;   47.575;  475.000;  662.000
320.593;  -71.400; -375.000; -382.000
320.729; -106.525; -732.000; -734.000
320.866;  -80.800; -577.000; -635.000
321.002; -100.425; -759.000; -809.000
321.138;  -39.875; -135.000; -211.000
321.274;    4.200; -148.000; -115.000
321.410;  -59.775; -585.000; -353.000
321.546; -118.325;-1011.000; -911.000
321.683;   20.875;  400.000;  185.000
321.819;  -24.675;  -48.000; -117.000
321.955; -107.825; -743.000; -722.000
322.091;  -76.500; -585.000; -540.000
322.227;  -52.875; -382.000; -202.000
322.363;  -56.800; -320.000; -215.000
322.499;  -64.075; -343.000; -331.000
322.635;   92.100;  636.000;  443.000
322.771;  -24.625; -139.000;   12.000
322.907;   39.225;  129.000;  327.000
323.043;  -49.475; -115.000; -206.000
323.179;  -49.900; -394.000; -363.000
323.315;  -50.425; -401.000; -371.000
323.451;   -1.075; -328.000; -236.000
323.587;   49.400;  -60.000;  -77.000
323.723;  -43.075; -682.000; -601.000
323.859;  -36.375; -258.000;  -76.000
323.995;  -49.625; -467.000; -409.000
324.131; -142.150; -967.000; -892.000
324.267;  -61.000; -254.000; -276.000
324.402; -129.550; -960.000; -983.000
324.538;  -39.000; -279.000; -104.000
324.674;  -25.175;  164.000;   77.000
324.810;   32.550;  226.000;  308.000
324.946;  -35.950; -810.000; -658.000
325.082;  -89.225; -568.000; -475.000
325.217;   -6.900;  -62.000;   16.000
325.353; -114.575; -764.000; -659.000
325.489; -110.725; -540.000; -506.000
325.625;  -73.675; -579.000; -525.000
325.760;   78.775;  517.000;  376.000
325.896;   17.400; -515.000; -702.000
326.032;  -58.825; -403.000; -352.000
326.168;  -69.175; -462.000; -369.000
326.303;  -56.400; -352.000; -461.000
326.439;   -7.900; -336.000; -276.000
326.575;   -1.000; -190.000;  -29.000
326.710;   -6.550; -156.000;  -30.000
326.846;  -28.900;  146.000;  103.000
326.982;  -92.425; -530.000; -548.000
327.117;  -86.025; -481.000; -442.000
327.253;  -88.125; -745.000; -742.000
327.388; -151.575;-1137.000;-1153.000
327.524; -102.400; -811.000; -578.000
327.659;  -33.125;  -58.000;  -22.000
327.795;  -39.200;   69.000;   45.000
327.931;  -80.150; -723.000; -499.000
328.066;  -27.300; -417.000; -276.000
328.202;  -24.500;   12.000; -129.000
328.337;   87.175;  957.000;  713.000
328.473;   15.950;  -12.000;  -74.000
328.608;  -39.125; -256.000; -267.000
328.743; -116.300; -799.000; -664.000
328.879;   10.825;  214.000;  114.000
329.014;  -40.550; -102.000; -122.000
329.150;  -89.900; -358.000; -483.000
329.285; -104.300; -465.000; -466.000
329.421;  -71.925; -548.000; -246.000
329.556;  -28.025;  -36.000;   85.000
329.691;  -99.200; -633.000; -615.000
329.827;  -93.650; -626.000; -480.000
329.962;  -42.475;  131.000; -301.000
330.097;  -85.225; -673.000; -585.000
330.233;  -55.475; -410.000; -223.000
330.368; -127.150; -839.000; -628.000
330.503;  -19.775;    3.000;   98.000
330.638;  -13.300;  -93.000; -125.000
330.774;  -93.875; -609.000; -530.000
330.909;  -65.500; -434.000; -244.000
331.044;  -99.125; -714.000; -708.000
331.179; -178.800;-1217.000;-1109.000
331.315;   -0.125;   77.000;   20.000
331.450;    6.550;  157.000;  285.000
331.585; -102.175; -805.000; -706.000
331.720;  -83.975; -510.000; -460.000
331.855;   -8.475;  -35.000; -102.000
331.990;  423.275;   62.000;  138.000
332.126;  224.900; -110.000;   71.000
332.261;    8.375; -379.000; -265.000
332.396;   12.975; -135.000; -242.000
332.531;  -69.825;-1074.000;-1031.000
332.666;   96.050; -519.000; -363.000
332.801;  -84.775; -726.000; -807.000
332.936;  -13.800; -192.000; -122.000
333.071; -128.875; -870.000; -817.000
333.206;   13.025;  307.000;  379.000
333.341;    4.475;  344.000;  418.000
333.476;  -81.300; -627.000; -623.000
333.611;  -41.425; -251.000; -173.000
333.746;  -49.275; -381.000; -464.000
333.881; -133.175; -973.000; -935.000
334.016; -129.175; -936.000; -917.000
334.151; -119.575; -746.000; -702.000
334.286;    2.025;  152.000;  186.000
334.421;  -12.625; -125.000; -178.000
334.556;  -76.325; -611.000; -567.000
334.690;  -81.150; -631.000; -577.000
334.825;   41.925;  381.000;   83.000
334.960;  -53.750; -285.000; -413.000
335.095;  -17.375;  135.000;  -91.000
335.230;  -91.200; -722.000; -738.000
335.365; -133.600;-1084.000; -990.000
335.499; -120.075;-1108.000;-1037.000
335.634;   13.275;    9.000;  534.000
335.769;  -84.800; -755.000; -720.000
335.904;  -64.425; -603.000; -561.000
336.038;  -44.625; -735.000; -657.000
336.173; -107.550;-1206.000;-1194.000
336.308;    0.525; -116.000; -189.000
336.443;   54.675; -544.000; -634.000
336.577;  -66.950; -936.000; -787.000
336.712;   71.600;   -4.000;  -12.000
336.847;  -19.625; -724.000; -607.000
336.981;   76.200; -272.000; -208.000
337.116;  303.600;  615.000;  501.000
337.250;  135.600; -434.000; -421.000
337.385;  464.950; -297.000; -208.000
337.520;  222.350; -632.000; -603.000
337.654;  -35.125; -215.000; -126.000
337.789; -133.550; -989.000; -933.000
337.923;  -35.025; -104.000; -205.000
338.058; -105.675; -673.000; -738.000
338.192;  -55.775; -611.000; -488.000
338.327;  -16.900;  -18.000; -155.000
338.461;  -69.650; -299.000; -469.000
338.596;  -97.275; -780.000; -638.000
338.730;  -88.100; -767.000; -803.000
338.865;  158.450;  -46.000; -140.000
338.999;   13.750; -846.000; -702.000
339.134;   -7.400; -634.000; -536.000
339.268;   39.450; -741.000; -603.000
339.403;  541.800; -740.000; -775.000
339.537;  267.250; -894.000; -820.000
339.671; -107.575; -829.000; -813.000
339.806;  -39.700; -556.000; -512.000
339.940;   31.950; -261.000; -235.000
340.074; -108.500; -685.000; -510.000
340.209;  -50.425; -351.000; -230.000
340.343;  -94.900; -517.000; -573.000
340.477;  127.750;  998.000; 1036.000
340.612;    7.675;-1033.000; -900.000
340.746;  232.950; -199.000; -243.000
340.880;  -99.125; -924.000; -785.000
341.014;  -36.550;  -45.000; -154.000
341.149; -122.375; -756.000; -718.000
341.283; -114.025; -839.000; -754.000
341.417; -144.575;-1124.000; -938.000
341.551;  -39.050; -768.000; -708.000
341.685;  -68.450; -633.000; -611.000
341.820;  -44.100; -562.000; -493.000
341.954;  -53.325; -218.000; -349.000
342.088; -150.450;-1102.000;-1019.000
342.222;   57.350;  565.000;  618.000
342.356;  -68.750; -395.000; -335.000
342.490; -116.150; -880.000; -841.000
342.624;  -60.875; -339.000; -242.000
342.758;  -54.500; -364.000; -312.000
342.892;  -92.750; -710.000; -585.000
343.026;  -30.725;  -58.000; -116.000
343.160;  -59.025; -426.000; -376.000
343.294;  -93.200; -474.000; -337.000
343.428;  -75.250; -488.000; -448.000
343.562;  -30.250; -172.000;  -23.000
343.696;  -56.650; -385.000; -314.000
343.830;  -61.325; -362.000; -356.000
343.964;  -31.825; -231.000; -168.000
344.098;  305.275;  199.000;   70.000
344.232;  271.700; -266.000; -127.000
344.366;   59.625; -567.000; -453.000
344.500;  -42.975; -665.000; -744.000
344.634;  -46.525; -324.000; -164.000
344.768;  -74.975; -531.000; -341.000
344.902;    2.875;  278.000;  256.000
345.035;  -84.050; -556.000; -496.000
345.169; -132.300; -933.000; -656.000
345.303;  -54.625; -308.000; -482.000
345.437; -104.150; -826.000; -717.000
345.571;  -70.325; -675.000; -594.000
345.704;  -70.750; -309.000; -532.000
345.838;  -36.600; -331.000; -284.000
345.972;  -65.300; -543.000; -495.000
346.106;  236.725; -179.000; -190.000
346.239;  485.500; -312.000; -243.000
346.373;   -3.525; -343.000; -302.000
346.507; -145.425; -950.000; -962.000
346.640;   18.100;  -30.000;   13.000
346.774;  -95.925; -650.000; -797.000
346.908;  -28.775; -138.000;  -11.000
347.041; -104.375; -646.000; -593.000
347.175;  -10.175;  259.000;   27.000
347.309; -106.000; -698.000; -628.000
347.442; -122.400; -883.000; -732.000
347.576;  121.475;  670.000;  668.000
347.709;   54.900; -123.000;  -52.000
347.843; -135.100; -933.000; -825.000
347.976;   17.025;  235.000;  294.000
348.110; -183.625;-1268.000;-1186.000
348.243; -102.100; -679.000; -772.000
348.377;   -4.500;  -26.000;   60.000
348.510;   29.725;  403.000;  540.000
348.644;  -47.425;  -37.000; -159.000
348.777;   -7.500;  180.000;  191.000
348.911;  -63.525; -142.000; -112.000
349.044;   68.475;  471.000;  448.000
349.178;  -34.800;-1069.000;-1006.000
349.311;  104.575;  141.000;  255.000
349.444;   42.250; -927.000; -813.000
349.578;  -30.150; -347.000; -200.000
349.711; -135.100; -959.000; -862.000
349.845;  -68.150; -661.000; -591.000
349.978; -161.175;-1224.000;-1137.000
350.111;  -88.850; -546.000; -612.000
350.244;  -97.275; -596.000; -700.000
350.378;  -61.675; -392.000; -393.000
350.511;  -74.250; -393.000; -426.000
350.644;  -94.450; -808.000; -806.000
350.778;   14.600;  168.000;  104.000
350.911;  -11.500;  134.000;  140.000
351.044;  -99.675; -685.000; -615.000
351.177;  -34.900; -321.000; -281.000
351.310;  -33.025;    3.000; -131.000
351.444; -113.250; -888.000; -788.000
351.577;   32.375;  140.000;   90.000
351.710;   61.000;  593.000;  417.000
351.843;  -49.900; -165.000;  -77.000
351.976;  -17.750;  149.000;  -79.000
352.109; -107.000; -621.000; -612.000
352.242;  -51.900; -464.000; -419.000
352.376;  -92.225; -580.000; -636.000
352.509;    7.250; -437.000; -356.000
352.642; -100.025; -654.000; -604.000
352.775;   -0.500; -141.000;  -98.000
352.908; -123.375; -933.000; -904.000
353.041; -107.100; -814.000; -824.000
353.174;  -71.375; -551.000; -424.000
353.307; -101.550; -753.000; -764.000
353.440;   49.900;  541.000;  453.000
353.573; -104.075; -957.000;-1008.000
353.706;  -57.075; -384.000; -558.000
353.839;  -12.550; -264.000; -220.000
353.971;  -92.375; -657.000; -512.000
354.104; -106.350; -896.000; -835.000
354.237;  -83.525; -627.000; -662.000
354.370;  -93.075; -846.000; -879.000
354.503; -175.025;-1231.000;-1308.000
354.636;  -19.475; -529.000; -348.000
354.769; -122.200; -937.000; -860.000
354.902;  -20.925; -230.000; -139.000
355.034;  -12.900; -164.000; -220.000
355.167;  -17.550; -262.000; -162.000
355.300;  -73.625;-1061.000; -880.000
355.433; 1433.500;  -71.000;  -14.000
355.565; 2263.925; -402.000; -384.000
355.698;  581.225; -356.000; -296.000
355.831;  -18.425; -882.000; -801.000
355.964;   19.925; -285.000; -170.000
356.096;  -67.575; -856.000; -843.000
356.229;   -9.225; -523.000; -530.000
356.362;  526.950; -373.000; -266.000
356.494;  907.600; -229.000; -162.000
356.627;  306.925;  269.000;  377.000
356.760;  882.100;  120.000;   53.000
356.892; 1498.850; -286.000; -601.000
357.025;  340.425;  403.000;  389.000
357.157;  235.475; -167.000; -179.000
357.290; 1231.150; -856.000; -713.000
357.423;  372.075; -667.000; -556.000
357.555;   86.850; -217.000; -228.000
357.688;  119.375; -483.000; -364.000
357.820;  170.800; -870.000; -877.000
357.953; 1568.675; -563.000; -589.000
358.085;  253.550; -632.000; -612.000
358.218;  114.050;-1131.000; -932.000
358.350;   42.800;  -58.000;  312.000
358.483; -157.875;-1300.000;-1187.000
358.615; -131.000;-1182.000;-1078.000
358.747; -148.175;-1187.000;-1058.000
358.880;  -54.550; -810.000; -744.000
359.012;  -33.000; -376.000; -202.000
359.145;  -66.200; -480.000; -511.000
359.277;  -58.575; -962.000; -913.000
359.409; 1316.125;  536.000;  231.000
359.542;  279.950; -738.000; -688.000
359.674;   23.350;   46.000;   13.000
359.806;  -75.450; -565.000; -438.000
359.939;  -58.350; -617.000; -516.000
360.071;   26.425; -583.000; -579.000
360.203;  -30.550; -411.000; -364.000
360.335;   24.650;  164.000;  -16.000
360.468;   88.625; -249.000; -307.000
360.600; 1351.275; -547.000; -454.000
360.732; 4252.275; -546.000; -423.000
360.864;  638.625;-1216.000;-1044.000
360.996;   70.975; -516.000; -554.000
361.129;  -47.050; -389.000; -598.000
361.261;  -11.675;  110.000; -113.000
361.393;  -57.275; -252.000; -214.000
361.525;   -4.650;   94.000;  244.000
361.657; -111.025; -821.000; -703.000
361.789;  -33.375; -139.000; -155.000
361.921;  -52.000; -642.000; -593.000
362.053;   85.675;  524.000;  541.000
362.185;   -9.275;  288.000;   72.000
362.318; -106.925; -709.000; -705.000
362.450;   37.100;  294.000;  444.000
362.582;  -91.475; -913.000; -870.000
362.714;  -70.925; -353.000; -332.000
362.846; -109.900; -606.000; -490.000
362.978; -146.025; -941.000; -811.000
363.109;  -38.400; -161.000; -260.000
363.241;  140.500; -739.000; -749.000
363.373;  627.200; -649.000; -564.000
363.505; 1045.475; -186.000;  -91.000
363.637;  232.825; -787.000; -601.000
363.769; -129.500;-1067.000;-1080.000
363.901;  -81.050; -596.000; -654.000
364.033; -156.825;-1103.000;-1062.000
364.165;  -43.000; -283.000; -283.000
364.296;   82.950; -316.000; -177.000
364.428;  194.900;-1344.000;-1220.000
364.560;  -71.450; -679.000; -661.000
364.692;  -88.100; -738.000; -835.000
364.824;  -11.450; -588.000; -456.000
364.955;  497.000; -402.000; -564.000
365.087; 1735.600;-1097.000; -852.000
365.219;  105.675; -686.000; -816.000
365.351;  -64.125; -526.000; -572.000
365.482;   17.650;  300.000;  240.000
365.614;  -58.400; -402.000; -314.000
365.746; -109.400; -729.000; -752.000
365.877;  -86.300; -706.000; -672.000
366.009;  415.375;  -35.000;  -62.000
366.141;  -23.850;-1249.000;-1134.000
366.272; -108.425; -803.000; -719.000
366.404; -125.525;-1005.000; -874.000
366.535;  -44.725; -139.000;  -12.000
366.667; -117.550; -644.000; -649.000
366.799;    8.475;  353.000;  203.000
366.930; -138.600; -862.000; -996.000
367.062;  179.600; -639.000; -613.000
367.193;  326.300; -872.000; -842.000
367.325;  -38.575; -580.000; -684.000
367.456;  -13.150; -246.000;   31.000
367.588;  258.650; -371.000; -318.000
367.719;   29.400;  -44.000;  -45.000
367.851;  -38.650; -222.000; -241.000
367.982; -118.900; -875.000; -732.000
368.113;   -6.775; -475.000; -358.000
368.245; -138.675; -960.000; -841.000
368.376;  -37.450; -254.000; -302.000
368.508;  -65.675; -188.000; -263.000
368.639; -164.175;-1166.000;-1034.000
368.770;  -89.050; -670.000; -589.000
368.902; -111.675; -836.000; -926.000
369.033; -126.650; -906.000; -855.000
369.164;  -40.825; -720.000; -653.000
369.296; -109.100; -452.000; -601.000
369.427;  -49.025; -209.000; -144.000
369.558;  -82.725; -593.000; -377.000
369.689;  -90.600; -721.000; -569.000
369.821; -134.525; -951.000; -845.000
369.952;  -24.050;   42.000; -108.000
370.083;  -63.125; -229.000; -108.000
370.214; -111.975; -735.000; -650.000
370.345;  -30.500;   65.000;   81.000
370.477; -124.000; -810.000; -790.000
370.608;   30.025; -328.000; -264.000
370.739; -132.400;-1233.000;-1292.000
370.870; -121.800;-1102.000; -923.000
371.001;  -23.475; -378.000; -467.000
371.132; -111.025; -754.000; -735.000
371.263;  -27.450;  -42.000; -148.000
371.394; -128.300; -841.000; -748.000
371.525;    0.050;  345.000;  225.000
371.657; -125.950; -808.000; -670.000
371.788;   19.600;  103.000;  199.000
371.919;   19.225; -384.000; -304.000
372.050; 1312.975;  -91.000; -156.000
372.181;  396.675; -188.000; -294.000
372.311;   97.875;   42.000; -127.000
372.442;  -50.900; -457.000; -451.000
372.573;  -49.500; -444.000; -340.000
372.704; -151.000;-1008.000; -980.000
372.835;  -27.025; -228.000; -289.000
372.966; -101.625; -646.000; -554.000
373.097;  -99.400; -575.000; -711.000
373.228;  -99.250; -717.000; -542.000
373.359;  -40.525; -824.000; -536.000
373.490;  175.150; -881.000; -727.000
373.620;  241.650;-1001.000; -803.000
373.751;  543.000; -332.000; -396.000
373.882;  222.700; -663.000; -733.000
374.013;  -24.875; -449.000; -262.000
374.143;  -88.350; -581.000; -659.000
374.274; -136.725; -987.000; -908.000
374.405;   60.875; -388.000; -276.000
374.536;  114.800; -526.000; -387.000
374.666;  271.900; -759.000; -807.000
374.797;  -13.825; -817.000; -868.000
374.928;  172.225; -710.000; -560.000
375.058;  202.325; -535.000; -500.000
375.189;   -2.350;  -59.000;  -93.000
375.320; -127.125; -928.000;-1034.000
375.450;  -51.625; -625.000; -616.000
375.581;  -40.975; -526.000; -436.000
375.712;  -50.375; -574.000; -250.000
375.842;    5.025; -438.000; -415.000
375.973;  -30.900; -554.000; -513.000
376.103; -110.625; -665.000; -648.000
376.234; -103.850; -531.000; -552.000
376.364; -124.750; -944.000; -867.000
376.495;  139.250;  925.000;  529.000
376.625;  -73.075; -472.000; -485.000
376.756;  -68.800; -709.000; -678.000
376.886; -141.925;-1178.000;-1026.000
377.017;  136.550;-1048.000;-1061.000
377.147;  652.475; -786.000; -782.000
377.278;   69.150;  174.000;  228.000
377.408; -114.600; -801.000; -815.000
377.538; -105.225; -707.000; -693.000
377.669;  -89.450; -537.000; -613.000
377.799;  -98.525; -645.000; -635.000
377.929;  -79.075; -610.000; -428.000
378.060; -131.425; -781.000; -847.000
378.190;  -45.550; -726.000; -531.000
378.320;  -57.500; -401.000; -406.000
378.451;  -30.925; -131.000;  -22.000
378.581;  -34.900;  -67.000; -110.000
378.711;   89.100; 1035.000;  866.000
378.841;  -79.325; -533.000; -675.000
378.972; -120.150; -871.000; -751.000
379.102;  -70.775; -652.000; -579.000
379.232;  -42.050; -126.000;  -73.000
379.362; -125.825;-1001.000; -885.000
379.492;  -71.775; -373.000; -424.000
379.623;   29.100;    0.000;  111.000
379.753; -116.425;-1107.000; -974.000
379.883;   56.175;   59.000;  156.000
380.013;  -86.075;-1081.000;-1017.000
380.143; -122.225;-1097.000;-1056.000
380.273; -110.750; -985.000; -861.000
380.403;   13.650; -344.000; -257.000
380.533;  -58.200; -651.000; -664.000
380.663;   19.525;  173.000;  128.000
380.793; -153.750;-1027.000;-1074.000
380.923;  -39.075; -103.000;  -34.000
381.053; -118.425; -613.000; -623.000
381.183;  -41.025; -106.000; -248.000
381.313;  -61.550; -656.000; -470.000
381.443;  -43.550; -692.000; -473.000
381.573;  -35.250; -402.000; -409.000
381.703;  -93.550;-1249.000;-1095.000
381.833; -186.900;-1454.000;-1336.000
381.963;   17.375; -134.000;  -87.000
382.093;  406.325; -925.000; -909.000
382.223;   83.625; -713.000; -602.000
382.353;  -90.300; -801.000; -608.000
382.482;   -5.350;-1091.000; -964.000
382.612;  197.350; -872.000; -644.000
382.742;   66.400; -695.000; -622.000
382.872;  -18.725; -565.000; -551.000
383.002;    3.850;  347.000; -132.000
383.131;  -20.825; -226.000; -160.000
383.261;  -44.325; -706.000; -768.000
383.391;  327.325; -552.000; -377.000
383.521; 5071.375;  451.000;  263.000
383.650; 1507.900; -947.000; -904.000
383.780;   34.975; -783.000; -656.000
383.910;  102.100;  880.000;  802.000
384.039;  -93.875; -794.000; -656.000
384.169;  -80.375;-1205.000;-1017.000
384.299; -101.725; -650.000; -662.000
384.428; -113.875; -764.000; -680.000
384.558;  -65.850; -308.000; -275.000
384.687;  -79.850; -414.000; -334.000
384.817;  -24.625;   75.000;   -2.000
384.947;  -56.675; -234.000; -141.000
385.076;  141.425;  982.000;  912.000
385.206;   45.875;  369.000;  480.000
385.335;  -79.325; -549.000; -417.000
385.465; -113.925; -655.000; -663.000
385.594;   13.700;  -53.000;  -44.000
385.724;   29.175; -868.000; -838.000
385.853;   -9.600; -296.000; -270.000
385.982;  350.925; -743.000; -787.000
386.112;  679.450;-1052.000; -871.000
386.241;    8.425; -307.000; -312.000
386.371;  -32.450; -174.000;  -87.000
386.500;  -40.925; -825.000; -789.000
386.629;  -24.850; -874.000; -817.000
386.759;   76.175;  -43.000;   68.000
386.888;  -35.775; -170.000; -250.000
387.017; -103.750; -648.000; -620.000
387.147; -117.175; -771.000; -798.000
387.276;  -67.450; -410.000; -397.000
387.405;  -54.075; -398.000; -342.000
387.535;  -88.225; -452.000; -361.000
387.664;  -76.950; -692.000; -620.000
387.793;  -25.475; -198.000; -113.000
387.922;  159.525;  255.000;  200.000
388.052;  -72.050; -576.000; -423.000
388.181;  -78.700; -342.000; -472.000
388.310; -110.150; -889.000; -710.000
388.439; -117.875; -749.000; -742.000
388.568;   44.700;  365.000;  244.000
388.697;  253.625; -756.000; -653.000
388.826;   -5.875; -768.000; -666.000
388.956;  -42.025; -285.000; -307.000
389.085;  -54.325; -347.000; -287.000
389.214; -128.475; -842.000; -872.000
389.343;  -87.275; -645.000; -413.000
389.472;  563.175;  126.000;  149.000
389.601;  628.475;   91.000;    0.000
389.730;  -32.800; -568.000; -687.000
389.859;    9.400;  226.000;   46.000
389.988;   22.950; -423.000; -408.000
390.117;   26.075; -168.000; -146.000
390.246;  -54.525; -331.000; -320.000
390.375;  -54.300; -673.000; -626.000
390.504; -101.900; -703.000; -621.000
390.633; -133.550; -672.000; -726.000
390.761;  -95.650; -732.000; -645.000
390.890;  -36.250;   -4.000; -130.000
391.019;  -70.675; -421.000; -441.000
391.148; -144.325; -826.000; -855.000
391.277;  -92.825; -576.000; -493.000
391.406; -125.200; -821.000; -805.000
391.534;   -1.875;  574.000; -301.000
391.663; -108.250; -583.000; -645.000
391.792; -121.575; -673.000; -701.000
391.921;  -11.700;   -3.000;   15.000
392.050;  -11.500; -287.000; -228.000
392.178; -130.550;-1206.000;-1061.000
392.307;  -34.250; -758.000; -712.000
392.436;  -50.150; -427.000; -641.000
392.564;  -18.725;  166.000;   -6.000
392.693; -117.825; -860.000; -682.000
392.822;    1.225; -529.000; -534.000
392.950;  -48.125; -880.000; -714.000
393.079;   62.975; -188.000; -328.000
393.208;  -59.500; -488.000; -511.000
393.336;  -33.725; -170.000; -145.000
393.465;  -57.925; -317.000; -199.000
393.593;   -7.000;   62.000;   79.000
393.722; -163.750;-1121.000; -916.000
393.850;  -33.825; -188.000;  -61.000
393.979; -153.775; -926.000; -805.000
394.107;  -77.475; -517.000; -537.000
394.236;  -46.725; -570.000; -507.000
394.364;   90.850;  383.000;  206.000
394.493;   66.125; -911.000; -767.000
394.621;   -9.425; -955.000; -916.000
394.750; 1126.025; -873.000; -923.000
394.878; 4420.750; -247.000; -149.000
395.007; 6433.575; -721.000; -807.000
395.135;  562.000; -790.000; -721.000
395.263;  -57.900;-1038.000;-1040.000
395.392;    0.025;  -25.000; -107.000
395.520; -123.375; -818.000; -679.000
395.648; -128.225; -865.000; -915.000
395.777;  -80.200; -366.000; -405.000
395.905;  -89.050; -449.000; -564.000
396.033;  -12.375;  217.000;  172.000
396.162;  111.950; -399.000; -453.000
396.290;  137.150;  -17.000;   -2.000
396.418;  -40.700; -555.000; -514.000
396.546; -109.225; -571.000; -466.000
396.674; -134.300; -850.000; -878.000
396.803;  -38.175;  -72.000;  -23.000
396.931;  -26.875; -179.000; -199.000
397.059; -127.900;-1026.000; -989.000
397.187; -138.425;-1026.000; -975.000
397.315; -147.400; -884.000; -649.000
397.443; -101.100; -592.000; -443.000
397.572; -108.675; -578.000; -424.000
397.700; -103.575; -607.000; -614.000
397.828;  -30.550;  120.000;  -90.000
397.956;  -44.975; -508.000; -478.000
398.084;  -27.900; -767.000; -626.000
398.212;   -4.950;  137.000;  124.000
398.340;  -25.925;  -56.000;  159.000
398.468;  -57.225; -390.000; -169.000
398.596; -150.425; -993.000; -953.000
398.724; -123.625; -762.000; -767.000
398.852; -162.700;-1024.000; -976.000
398.980;  -77.600; -560.000; -560.000
399.108; -116.400; -982.000; -735.000
399.236;  -11.625;   13.000;    8.000
399.363;   -4.125;  222.000;  196.000
399.491;  -61.500; -404.000; -398.000
399.619; -125.475; -829.000; -800.000
399.747; -118.750; -859.000; -771.000
399.875;   33.350;  220.000;  234.000
400.003;  -81.300; -359.000; -284.000
400.130; -103.875; -421.000; -341.000
400.258;  -31.400;  -83.000;   38.000
400.386;  -76.000; -352.000; -168.000
400.514; -115.175; -526.000; -587.000
400.641; -144.600; -928.000; -802.000
400.769; -157.900; -979.000; -888.000
400.897; -125.375; -838.000; -793.000
401.025;  -47.250; -166.000; -152.000
401.152;  -31.400;  220.000;   38.000
401.280;  -94.725; -430.000; -429.000
401.408; -131.275; -712.000; -576.000
401.535; -120.000; -735.000; -758.000
401.663; -189.775;-1134.000;-1054.000
401.790;  -98.475; -514.000; -525.000
401.918;   13.225;  436.000;  405.000
402.046;  -32.375;  134.000;  122.000
402.173;  -42.625;  -18.000;    7.000
402.301;  -83.650; -519.000; -397.000
402.428;   15.550;  528.000;  383.000
402.556; -165.525;-1188.000; -913.000
402.683;  -57.450;  -20.000;   -1.000
402.811;  -39.375;  -37.000; -206.000
402.938;  -41.575;   20.000;   27.000
403.066;   -3.450; -574.000; -558.000
403.193;   77.150;  299.000;  239.000
403.321;   51.900; -396.000; -574.000
403.448;  108.700;   83.000;   27.000
403.575;   34.000;  -90.000;  -46.000
403.703;  -96.750; -732.000; -557.000
403.830;  -64.100; -531.000; -496.000
403.957; -129.800;-1117.000;-1023.000
404.085;    6.550;  -61.000; -172.000
404.212;  109.175;  -50.000;   63.000
404.339;  431.700; -566.000; -306.000
404.467; 8970.550; -612.000; -524.000
404.594; 5475.200; -287.000; -227.000
404.721;  944.175; -869.000; -764.000
404.848;   92.700; -113.000; -202.000
404.976;  -97.700; -856.000; -783.000
405.103;   -3.125;  -14.000;  -82.000
405.230;  -10.425;  190.000;  226.000
405.357;   41.750;  117.000;   44.000
405.484;  418.850;  -49.000;    5.000
405.612;  104.525; -548.000; -563.000
405.739;  -68.000; -488.000; -243.000
405.866;   65.150;  669.000;  385.000
405.993;  -63.775; -398.000; -102.000
406.120; -144.825; -801.000; -887.000
406.247;  -87.600; -323.000; -342.000
406.374;   94.700;  540.000;  629.000
406.501;  -82.450; -632.000; -702.000
406.628;  -94.600; -621.000; -589.000
406.755; -137.100; -803.000; -620.000
406.882;  -46.850; -228.000; -277.000
407.009; -119.925; -719.000; -628.000
407.136;  -60.600; -480.000; -401.000
407.263;  -70.400; -939.000; -829.000
407.390; -109.625; -692.000; -614.000
407.517; -184.675;-1139.000;-1187.000
407.644;  -84.100; -332.000; -256.000
407.771;  -86.500; -249.000; -287.000
407.898;  -20.000;  168.000;  328.000
408.025;  -98.125; -421.000; -313.000
408.151;  -29.100;   82.000;  153.000
408.278;  -68.925; -267.000; -216.000
408.405; -146.100; -931.000; -899.000
408.532;  -98.350; -549.000; -542.000
408.659; -131.900; -677.000; -648.000
408.785; -194.300;-1298.000;-1170.000
408.912;  -68.325; -412.000; -296.000
409.039; -109.100; -610.000; -686.000
409.166; -116.375; -591.000; -555.000
409.292; -116.975; -571.000; -534.000
409.419; -131.950; -665.000; -649.000
409.546;  -80.950; -431.000; -192.000
409.672; -112.450; -713.000; -545.000
409.799;  -46.725;  -36.000;   34.000
409.926;  -58.700; -180.000; -179.000
410.052; -189.550;-1127.000;-1091.000
410.179;  -82.100; -368.000; -392.000
410.305;  -94.175; -375.000; -493.000
410.432;  -51.650; -220.000; -333.000
410.558;  -95.525; -305.000; -380.000
410.685; -113.725; -688.000; -431.000
410.812; -111.975; -409.000; -588.000
410.938; -138.650; -964.000; -808.000
411.065; -115.175; -671.000; -645.000
411.191;  -57.675; -189.000; -174.000
411.317; -136.750; -823.000; -742.000
411.444;  -69.275; -317.000; -246.000
411.570;  -83.400; -339.000; -294.000
411.697; -132.775; -758.000; -752.000
411.823; -178.550; -989.000; -999.000
411.949;  -63.375;  -56.000;   17.000
412.076; -128.200; -539.000; -519.000
412.202; -125.900; -758.000; -757.000
412.329; -139.825; -798.000; -752.000
412.455; -126.475; -821.000; -657.000
412.581;  -34.325;  -15.000;  172.000
412.707; -109.200; -540.000; -457.000
412.834;   -5.100;  156.000;  219.000
412.960; -109.125; -785.000; -784.000
413.086; -113.925; -743.000; -701.000
413.212;   89.100;  604.000;  578.000
413.339; -108.675; -685.000; -701.000
413.465;  -62.850; -364.000; -310.000
413.591; -112.325; -757.000; -474.000
413.717;  -59.675; -358.000; -366.000
413.843; -140.950; -839.000; -861.000
413.969;  -76.450;  -47.000; -292.000
414.096; -101.850; -679.000; -679.000
414.222;  -18.150;  -33.000;   85.000
414.348;  -95.075; -652.000; -385.000
414.474;   11.725;   38.000;  -52.000
414.600;  -29.575; -126.000; -144.000
414.726;  -16.275;  -96.000;  -55.000
414.852;  -73.175; -365.000; -342.000
414.978;   39.700;  104.000;  -18.000
415.104;   47.250;   38.000;   80.000
415.230;   43.475; -329.000; -330.000
415.356;   66.025; -409.000; -514.000
415.482;  206.125;   13.000;  -35.000
415.608;  399.425; -247.000; -323.000
415.734; 1309.650;   67.000;   38.000
415.860;27224.275; -875.000; -767.000
415.986;22398.150; -685.000; -607.000
416.111; 2072.750; -798.000; -652.000
416.237;  437.875; -424.000; -571.000
416.363; 1682.325; -765.000; -733.000
416.489; 6712.550; -324.000; -251.000
416.615;  944.500; -707.000; -742.000
416.741;   46.775; -677.000; -784.000
416.866;  -67.525; -673.000; -736.000
416.992; -105.400; -801.000; -818.000
417.118;  -23.225;  -41.000;  -80.000
417.244;  -86.475; -798.000; -531.000
417.369;  -80.225; -801.000; -612.000
417.495;  -23.050; -325.000; -254.000
417.621;  -88.900;-1015.000; -803.000
417.746;   -4.075; -579.000; -572.000
417.872;   62.175; -254.000; -144.000
417.998;  109.600; -515.000; -530.000
418.123; 1549.925;-1073.000; -845.000
418.249; 8542.325; -512.000; -601.000
418.374; 1464.150; -916.000; -824.000
418.500;  218.625; -383.000; -482.000
418.626;  186.350;   70.000;  -59.000
418.751;  154.475; -549.000; -448.000
418.877;  311.300; -637.000; -643.000
419.002; 2555.000; -688.000; -560.000
419.128;19323.025; -930.000; -721.000
419.253; 5445.650; -967.000; -837.000
419.379;  743.225; -391.000; -338.000
419.504;  572.400;  325.000;  415.000
419.629;  828.925; -393.000; -212.000
419.755; 5314.750; -317.000; -254.000
419.880;34602.950;  -98.000;   67.000
420.006;17388.900; -280.000; -221.000
420.131;43179.025; -662.000; -775.000
420.256; 6958.675; -315.000; -316.000
420.382;  954.525; -665.000; -687.000
420.507;  164.450; -649.000; -778.000
420.632;   53.325; -337.000; -339.000
420.758;   28.800; -251.000; -425.000
420.883; -110.150; -876.000; -672.000
421.008; -117.650; -775.000; -619.000
421.133;  -97.750; -509.000; -467.000
421.259;  -55.300; -325.000; -259.000
421.384; -147.125; -834.000; -693.000
421.509; -123.875;-1052.000; -862.000
421.634;  170.625; -936.000; -820.000
421.759;   74.050; -359.000; -327.000
421.885;  -94.850; -717.000; -656.000
422.010; -102.150; -673.000; -542.000
422.135; -147.375; -695.000; -727.000
422.260;   14.125;  340.000;  280.000
422.385;  -56.975;   12.000;  -98.000
422.510;  -16.325;  151.000;  -26.000
422.635;  -35.200;  -87.000;  -43.000
422.760;  -18.975; -766.000; -791.000
422.885;    8.975;  -57.000;  -80.000
423.010;  -39.375; -112.000; -169.000
423.135;  -94.875; -481.000; -561.000
423.260;  -43.575; -150.000; -245.000
423.385;   18.300;  476.000;  222.000
423.510;    1.925;   71.000;  -22.000
423.635;    2.200;  133.000;   45.000
423.760;   31.925;  383.000;  328.000
423.885;   21.850;  336.000;  391.000
424.010;    5.200;  -68.000;  -13.000
424.135;  -15.475;    5.000;  -33.000
424.259;  -89.925; -654.000; -457.000
424.384;  -55.775; -279.000; -272.000
424.509;  -16.475; -260.000; -186.000
424.634;  -90.425; -761.000; -623.000
424.759;  -37.675; -688.000; -544.000
424.883;    4.125; -506.000; -527.000
425.008;  192.625; -502.000; -410.000
425.133; 2868.375; -679.000; -653.000
425.258; 1543.950; -517.000; -381.000
425.382;  502.625; -867.000; -774.000
425.507; 1177.950; -487.000; -543.000
425.632;  387.000; -802.000; -663.000
425.756;  689.875; -256.000; -146.000
425.881;10116.500; -831.000; -857.000
426.006;31055.700; -604.000; -355.000
426.130; 5077.375; -696.000; -508.000
426.255;  695.850; -611.000; -491.000
426.379;  269.225; -189.000; -577.000
426.504;  485.325;  660.000;  544.000
426.629; 5655.775; -519.000; -466.000
426.753; 4392.300;   64.000;  -46.000
426.878;  537.600; -252.000; -288.000
427.002;  302.725; -651.000; -668.000
427.127; 2066.825;  -35.000; -158.000
427.251;17198.000;  372.000;  401.000
427.375; 5562.300; -191.000; -173.000
427.500; 1335.850; -616.000; -610.000
427.624;  420.850; -234.000; -400.000
427.749;   69.050; -216.000; -225.000
427.873;  -37.800; -499.000; -412.000
427.997;  -51.425; -222.000; -230.000
428.122;   57.650;  795.000;  703.000
428.246;   23.325;  433.000;  434.000
428.371; -152.700; -869.000; -773.000
428.495; -118.350; -624.000; -646.000
428.619;  -41.500; -186.000; -117.000
428.743;   -1.950;   65.000;  132.000
428.868;  -77.550; -732.000; -643.000
428.992;  502.500; -219.000; -326.000
429.116;  188.275; -329.000; -357.000
429.240;  100.500;  419.000;  426.000
429.365;  -61.525; -454.000; -574.000
429.489;  -74.275; -638.000; -647.000
429.613;   22.925; -236.000; -177.000
429.737;   69.850; -563.000; -432.000
429.861;  357.925; -247.000; -133.000
429.985; 7888.350; -425.000; -305.000
430.109; 9918.375; -770.000; -908.000
430.234; 1201.675;   76.000;  -50.000
430.358;  144.150; -250.000; -160.000
430.482;  -54.700; -672.000; -564.000
430.606;  -91.650; -655.000; -375.000
430.730;  -63.425; -437.000; -388.000
430.854;  -88.200; -909.000; -835.000
430.978; -100.425; -795.000; -764.000
431.102; -100.725; -499.000; -422.000
431.226; -118.300; -874.000; -815.000
431.350;    9.775;  345.000;  422.000
431.474;  -98.450; -661.000; -373.000
431.597; -179.450;-1060.000; -848.000
431.721;  -77.700; -276.000; -267.000
431.845; -113.675; -704.000; -472.000
431.969;  -78.450; -304.000; -349.000
432.093;  -98.525; -395.000; -317.000
432.217;  -28.900;   32.000;   82.000
432.341;  -85.775; -523.000; -518.000
432.464;   -9.025;   96.000;   40.000
432.588;  -25.800; -401.000; -329.000
432.712;    6.775;  -52.000;  -52.000
432.836;   48.075;  213.000;  263.000
432.959;   24.950; -372.000; -311.000
433.083;  156.950;   11.000;    2.000
433.207;  557.175;  285.000;  930.000
433.330; 7627.825; -391.000; -200.000
433.454;10549.975; -654.000; -638.000
433.578; 5777.250;  583.000;  278.000
433.701; 1238.675; -623.000; -675.000
433.825;  145.450; -292.000; -299.000
433.949;   44.400;   28.000;  -72.000
434.072;  -26.800; -410.000; -323.000
434.196;  -20.525; -309.000; -117.000
434.319; 3505.250;25482.000;25124.000
434.443;  859.975; -656.000; -603.000
434.566; 4062.625;  281.000;   62.000
434.690;  869.800; -637.000; -383.000
434.813;  130.825; -251.000; -173.000
434.937;  -51.875; -569.000; -696.000
435.060;  -75.775; -423.000; -332.000
435.184;  -17.900; -492.000; -217.000
435.307;    7.050;  159.000;  102.000
435.431;  -46.600;  -40.000;   24.000
435.554;  -83.850; -399.000; -240.000
435.677;  -92.150; -350.000; -258.000
435.801;  -54.175;  -25.000;   49.000
435.924;  -45.300;    1.000;  -67.000
436.048; -157.225;-1019.000; -732.000
436.171;  -75.275; -240.000;  -66.000
436.294;  -12.325; -248.000; -229.000
436.417;  214.700; -963.000; -849.000
436.541;  -44.625; -814.000; -840.000
436.664;  -50.350; -242.000; -316.000
436.787;  -38.225;   13.000;  113.000
436.910; -129.275; -792.000; -422.000
437.034;  -25.050;  142.000;  143.000
437.157;   -3.125;  -11.000;    0.000
437.280;  -75.450; -392.000; -292.000
437.403; -142.100; -982.000; -869.000
437.526;    7.400; -903.000; -865.000
437.649;  459.850; -505.000; -332.000
437.772;   -8.825; -692.000; -540.000
437.896;   39.625;  700.000;  544.000
438.019; -123.375; -758.000; -503.000
438.142; -101.425; -596.000; -506.000
438.265; -123.750; -639.000; -670.000
438.388;   15.200; -520.000; -410.000
438.511;  -72.675; -597.000; -394.000
438.634;  -66.900; -247.000; -125.000
438.757; -147.075; -693.000; -619.000
438.880;  -48.300;  -34.000;  -57.000
439.003; -110.925; -417.000; -437.000
439.126;  -70.975; -287.000; -167.000
439.248;  -64.950;  -98.000; -139.000
439.371;  -37.625;    9.000;  -53.000
439.494;   16.675;  510.000;  439.000
439.617;  -52.400;   65.000;  -88.000
439.740; -186.850; -968.000; -816.000
439.863; -144.900; -755.000; -595.000
439.986; -110.175; -476.000; -431.000
440.108;  -60.400; -161.000; -112.000
440.231; -174.575; -950.000; -836.000
440.354;  -66.750;  -64.000; -150.000
440.477; -109.775; -566.000; -542.000
440.599;  -98.425; -200.000; -225.000
440.722; -128.675; -709.000; -586.000
440.845;   44.800;  751.000;  928.000
440.968; -120.475; -415.000; -311.000
441.090;  -78.925; -199.000;  -33.000
441.213; -177.100;-1021.000; -825.000
441.336;  -49.650; -159.000;   -5.000
441.458; -109.375; -549.000; -396.000
441.581; -132.675; -628.000; -629.000
441.703;  -88.525; -152.000;   13.000
441.826; -111.650; -557.000; -400.000
441.948;  -64.900;   56.000;   51.000
442.071;   18.100;  555.000;  424.000
442.193; -116.950; -531.000; -485.000
442.316;    8.300;  152.000;   97.000
442.438;   73.625; -233.000;  -10.000
442.561;   66.225;  272.000;  262.000
442.683;   37.025; -809.000; -522.000
442.806;  229.250;   -8.000;   74.000
442.928; -106.825; -859.000; -604.000
443.051;  -87.075; -577.000; -373.000
443.173; -100.275; -341.000; -339.000
443.295;  -95.150; -263.000; -371.000
443.418;  -81.225; -321.000;  -29.000
443.540;  -39.925; -106.000;   -4.000
443.662; -144.800; -563.000; -465.000
443.785;  -29.750;  335.000;  199.000
443.907;  -89.450; -362.000; -208.000
444.029; -123.375; -767.000; -494.000
444.152; -152.550; -644.000; -554.000
444.274;  -42.525;  -18.000;  -24.000
444.396; -115.775; -461.000; -221.000
444.518; -141.125; -691.000; -454.000
444.640; -106.625; -268.000; -111.000
444.763;  -32.175;  388.000;  249.000
444.885; -120.850; -432.000; -392.000
445.007;  -36.250;   35.000;   86.000
445.129; -132.275; -610.000; -515.000
445.251; -113.625; -372.000; -439.000
445.373; -143.575; -537.000; -386.000
445.495;  -18.025;  242.000;  350.000
445.617;   28.850;  853.000;  753.000
445.739;  -78.700; -215.000;  -97.000
445.861;  -75.325; -245.000; -112.000
445.984;  -63.025; -267.000; -101.000
446.105;  -22.950; -418.000; -251.000
446.227;  101.650; -176.000;  -19.000
446.349;  -81.350; -358.000; -249.000
446.471; -126.725; -615.000; -448.000
446.593;  -97.675; -316.000;   19.000
446.715;  -50.425;  -67.000;   41.000
446.837;   24.650;  697.000;  832.000
446.959; -110.125; -457.000; -478.000
447.081; -140.150; -628.000; -518.000
447.203;   42.375;  862.000;  834.000
447.325;  -94.100; -270.000;   42.000
447.446;  -11.600;  286.000;  530.000
447.568; -160.025; -921.000; -803.000
447.690;  -86.475; -236.000; -245.000
447.812; -142.950; -798.000; -519.000
447.933;  -34.025;  155.000;  127.000
448.055;  -85.725; -306.000; -261.000
448.177;   13.850;   31.000;   79.000
448.299; -111.725; -935.000; -727.000
448.420;  -23.575;  -25.000;  159.000
448.542;  -59.650;   -3.000;   33.000
448.664;  -29.325;  109.000;  322.000
448.785;  -35.950;  265.000;   83.000
448.907; -116.425; -614.000; -353.000
449.028; -107.225; -771.000; -471.000
449.150;   28.925;  492.000;  589.000
449.272; -172.525;-1044.000; -913.000
449.393;   12.025;  612.000;  694.000
449.515; -155.925; -634.000; -581.000
449.636;  -72.100; -264.000; -155.000
449.758;   41.475;  763.000;  622.000
449.879; -114.925; -498.000; -396.000
450.001;  -83.225; -149.000;  -49.000
450.122;  -34.550;  -95.000;  162.000
450.244;  -28.900;   37.000;  364.000
450.365;  -74.275; -495.000; -301.000
450.486;  -14.500;   80.000;  268.000
450.608;   45.400;  393.000;  326.000
450.729;  109.400;  578.000;  645.000
450.850;   99.100; -574.000; -466.000
450.972; 1211.700; -552.000; -389.000
451.093; 7940.650;  190.000;  588.000
451.214; 4054.950; -516.000; -337.000
451.336;  701.250;  773.000;  579.000
451.457;  107.975;  264.000;  393.000
451.578;  -34.075; -118.000;  -74.000
451.699; -106.650; -546.000; -540.000
451.821;  -62.325; -284.000;  -50.000
451.942;   -0.550;  278.000;  285.000
452.063;   59.350;  228.000;  419.000
452.184;  795.000;  -54.000;  -49.000
452.305; 1748.225;  103.000;  170.000
452.427;  324.250; -549.000; -301.000
452.548;    5.550;   23.000;   79.000
452.669;  -67.175; -257.000;  -89.000
452.790;  -58.675;    3.000;  -18.000
452.911;  -13.075;  195.000;  259.000
453.032;  -80.300; -289.000;  -60.000
453.153;  -73.300;  -29.000;   81.000
453.274;   41.550;  737.000;  868.000
453.395;  -77.175;  -51.000;  175.000
453.516;   87.850; 1317.000; 1388.000
453.637;  -91.450; -205.000; -150.000
453.758;  -56.050;   15.000;   69.000
453.879; -101.500; -462.000; -250.000
454.000;   57.050; 1086.000;  948.000
454.121; -120.225; -554.000; -326.000
454.242; -113.225; -599.000; -383.000
454.362;  -55.550;  -99.000;  114.000
454.483;  -17.950; -309.000; -229.000
454.604;   55.575;  512.000;  580.000
454.725; -129.750; -627.000; -555.000
454.846; -122.825; -474.000; -406.000
454.967;  -40.775;  230.000;  539.000
455.087;  -48.800;  179.000;  153.000
455.208;   -0.150;  554.000;  856.000
455.329;  -62.100;  -22.000;   82.000
455.450;   58.675;  473.000;  633.000
455.570;  -63.575; -234.000; -211.000
455.691;  -48.025;  201.000;  407.000
455.812; -106.675; -270.000;  -92.000
455.932;  -63.475;  107.000;  -97.000
456.053;  -70.275;   36.000;   24.000
456.173; -106.150; -433.000; -355.000
456.294; -144.350; -476.000; -303.000
456.415;  -77.325;  -73.000;   70.000
456.535;  -33.500;  297.000;  273.000
456.656;  -42.000;  132.000;  240.000
456.776;  -66.525;    3.000;  298.000
456.897;   -4.025;  308.000;  513.000
457.017;  -74.650; -153.000;   -3.000
457.138; -118.225; -402.000; -249.000
457.258;  -34.150;  263.000;  224.000
457.379;  -12.700;  509.000;  521.000
457.499;  -39.525;  443.000;  432.000
457.620; -104.750; -407.000; -231.000
457.740;  -97.350; -132.000;  -11.000
457.860;  -51.125;   87.000;   44.000
457.981;  -44.625;  132.000;  124.000
458.101;  -78.675;  -89.000;   40.000
458.221;  -22.275;  336.000;  402.000
458.342;  -51.525;   -4.000;  -37.000
458.462;   33.850;  617.000;  352.000
458.582;   23.300; -302.000; -294.000
458.703;   54.600;  303.000;  154.000
458.823;    4.575;   22.000;  163.000
458.943;   54.275;  341.000;  467.000
459.063;  -12.300; 1124.000;  192.000
459.183;  -16.150;  328.000;  313.000
459.304;   -1.750;  315.000;  517.000
459.424;  -51.700; -246.000;  -89.000
459.544;  457.225;  388.000;  764.000
459.664; 1264.850;  499.000;  506.000
459.784;  509.750; 1004.000; 1175.000
459.904;   71.725;  867.000;  744.000
460.024;   67.850;  867.000;  684.000
460.144;  -19.600;  449.000;  554.000
460.264;  -32.750;  515.000;  327.000
460.385; -102.700; -145.000; -119.000
460.505;   31.200;  905.000;  858.000
460.625;  -86.425;  -17.000;  -68.000
460.745;  -22.775;  396.000;  541.000
460.864;  -46.400;  153.000;  469.000
460.984;   35.250;  499.000;  573.000
461.104;  148.625; 1656.000; 1775.000
461.224;    5.875;  657.000;  650.000
461.344;  -48.975;  431.000;  360.000
461.464;  -55.175;  258.000;  513.000
461.584;  -44.475;  283.000;  466.000
461.704;  -72.250;   58.000;  108.000
461.824;  -50.325;  238.000;  259.000
461.943;  -42.825;  191.000;  130.000
462.063;  -68.900;    2.000;  324.000
462.183;    2.625;  639.000;  717.000
462.303;   87.750; 1678.000; 1230.000
462.422;   26.250;  781.000;  840.000
462.542;  -32.500;  271.000;  391.000
462.662;   39.550;  353.000;  380.000
462.782;  332.150;  833.000;  572.000
462.901;  726.825;  545.000;  717.000
463.021;  380.350; 1702.000; 1638.000
463.141;   13.200;  337.000;  770.000
463.260;  -17.725;  614.000;  474.000
463.380;    7.675;  902.000;  884.000
463.499;  -60.600;  342.000;  332.000
463.619;  -39.525;  581.000;  559.000
463.738;  101.350; 1644.000;  903.000
463.858;   15.775;  657.000;  811.000
463.978;  -35.725;  542.000;  396.000
464.097;   59.200;  921.000; 1114.000
464.217;  152.100; 1196.000; 1143.000
464.336;  152.275; 1068.000; 1130.000
464.455;  -31.150;  328.000;  659.000
464.575;    6.850;  597.000;  602.000
464.694;  118.000; 1204.000; 1179.000
464.814;  157.600; 1190.000; 1138.000
464.933;   79.725; 1095.000; 1027.000
465.052;   82.150; 1412.000; 1054.000
465.172;   54.775;  922.000;  799.000
465.291;  114.650; 1376.000; 1320.000
465.410;   11.650;  462.000;  735.000
465.530;   71.575; 1355.000; 1310.000
465.649;   42.050; 1209.000; 1273.000
465.768;  140.350; 1673.000; 1508.000
465.888;   61.200;  941.000; 1174.000
466.007;   87.625; 1335.000; 1440.000
466.126;   -9.600;  721.000;  641.000
466.245;   43.900; 1176.000; 1187.000
466.364;   16.725;  950.000; 1060.000
466.484;   23.925; 1024.000; 1213.000
466.603;   28.050; 1101.000; 1222.000
466.722;   98.400; 1490.000; 1769.000
466.841;   68.325; 1151.000; 1401.000
466.960;   35.650; 1069.000;  972.000
467.079;  126.700; 1971.000; 1786.000
467.198;   51.550; 1238.000; 1181.000
467.317;   76.025; 1768.000; 1162.000
467.436;   80.700; 1709.000; 1261.000
467.555;  100.125; 1796.000; 1746.000
467.674;   73.800; 1227.000; 1329.000
467.793;   48.225; 1376.000; 1374.000
467.912;   81.225; 1658.000; 1539.000
468.031;  110.800; 2038.000; 1930.000
468.150;  140.550; 1842.000; 1837.000
468.269;  177.600; 2313.000; 2090.000
468.388;  180.600; 2168.000; 2339.000
468.507;  243.725; 2884.000; 2903.000
468.626;  255.125; 2555.000; 2541.000
468.744;  144.750; 2018.000; 2174.000
468.863;  199.000; 2312.000; 2523.000
468.982;   85.350; 1503.000; 1555.000
469.101;  211.875; 2788.000; 2692.000
469.220;  154.900; 2333.000; 2176.000
469.338;  245.175; 2935.000; 3051.000
469.457;  198.950; 2719.000; 2545.000
469.576;  341.550; 3953.000; 3784.000
469.695;  234.400; 2877.000; 3066.000
469.813;  413.275; 4148.000; 4192.000
469.932;  394.425; 4255.000; 4485.000
470.051;  419.550; 4075.000; 4161.000
470.169; 1028.725; 4470.000; 4338.000
470.288; 1999.925; 4700.000; 4809.000
470.406; 1181.825; 5059.000; 5194.000
470.525;  666.750; 6101.000; 5787.000
470.644;  643.600; 6847.000; 6794.000
470.762;  799.975; 8397.000; 7873.000
470.881;  924.875; 8651.000; 8464.000
470.999; 1088.200; 9685.000; 9151.000
471.118; 1108.075;11174.000;10711.000

