
Integration time [ms]: 100.000
Averaging Nr. [scans]: 40
Smoothing Nr. [pixels]: 0
Data measured with spectrometer [name]: 2101012U2
Wave   ;Sample   ;Dark     ;Reference
[nm]   ;[counts] ;[counts] ;[counts] 

197.733;   56.275;  516.000;  404.000
197.879;  -88.325; -610.000; -634.000
198.025;  -48.275; -475.000; -420.000
198.171;  -76.275; -602.000; -612.000
198.317;  -34.500; -401.000; -316.000
198.463;  -54.850; -655.000; -404.000
198.609;   31.750;  181.000; -137.000
198.755;  -85.350; -644.000; -410.000
198.901;  -69.600; -505.000; -424.000
199.047;  -48.900; -615.000; -488.000
199.193;  -39.650; -230.000; -468.000
199.339;  -47.225; -222.000; -369.000
199.485;   39.650;  330.000;  271.000
199.631;   25.400;  227.000;  310.000
199.777;  -52.700; -466.000; -398.000
199.923;  -51.975; -610.000; -424.000
200.069;   -4.300; -141.000;  -58.000
200.215;   58.900;  128.000;  453.000
200.361;   55.950;  243.000;  477.000
200.507;  -60.225; -600.000; -373.000
200.653;  -27.650; -371.000; -194.000
200.798;  -31.175; -215.000; -125.000
200.944;   -4.450; -146.000;  -41.000
201.090;   46.025;   61.000;  222.000
201.236;   -1.150; -116.000; -158.000
201.382;  121.875;  874.000;  903.000
201.528;    9.875;  -58.000;  -48.000
201.674;  -37.900; -386.000; -293.000
201.819;  -68.575; -540.000; -439.000
201.965;  -73.775; -699.000; -447.000
202.111;  -26.050; -273.000; -226.000
202.257;  -34.875; -250.000; -238.000
202.402;   -3.150;   13.000;  -36.000
202.548;  -31.900; -169.000; -116.000
202.694;   78.950;  410.000; -183.000
202.840;  -59.025; -603.000; -531.000
202.985;  -71.575; -681.000; -639.000
203.131; -104.500; -832.000; -666.000
203.277;  -11.350; -199.000; -262.000
203.423;  -51.775; -434.000; -520.000
203.568;  -42.125; -462.000; -237.000
203.714;  -62.350; -535.000; -542.000
203.860;  -85.400; -682.000; -641.000
204.005;    4.350;  112.000;  167.000
204.151;   64.125;  561.000;  556.000
204.296;  -48.650; -354.000; -221.000
204.442;  -62.575; -600.000; -547.000
204.588;  -66.700; -592.000; -579.000
204.733;   18.200;  178.000;  168.000
204.879; -114.825;-1018.000; -822.000
205.025;    2.400;  -99.000;  126.000
205.170;   11.825;  -17.000;   94.000
205.316;   93.550;  438.000;  661.000
205.461;  -85.825; -698.000; -554.000
205.607;   82.025;  609.000;  665.000
205.752;  -77.175; -626.000; -551.000
205.898;  -51.875; -501.000; -391.000
206.043;  -63.650; -578.000; -506.000
206.189;  -32.825; -243.000; -285.000
206.334;   85.225;  554.000;  606.000
206.480;   74.875;  409.000;  239.000
206.625;  -91.425; -529.000; -552.000
206.771;  -46.625; -451.000; -373.000
206.916;  -34.475; -210.000; -537.000
207.062;  -68.225; -545.000; -591.000
207.207;  -51.450; -546.000; -443.000
207.353;   43.775;  185.000;  460.000
207.498;   18.275;  196.000;   85.000
207.643;  -56.675; -501.000; -370.000
207.789; -128.150;-1069.000; -910.000
207.934;  -98.500; -665.000; -713.000
208.080;  -22.775; -154.000;   66.000
208.225;    3.100;  -22.000;  -57.000
208.370;  -87.850; -727.000; -619.000
208.516;  -78.775; -741.000; -487.000
208.661;  -22.500; -127.000;  -69.000
208.806;  -26.650; -165.000; -171.000
208.952; -119.800;-1044.000; -731.000
209.097;   63.150;  378.000;  349.000
209.242;  -38.800; -307.000; -382.000
209.387;   66.650;  392.000;  350.000
209.533;  -59.675; -321.000; -350.000
209.678;   73.525;  472.000;  543.000
209.823;  -45.175; -408.000; -310.000
209.969; -109.850; -860.000; -757.000
210.114; -117.475; -907.000; -719.000
210.259; -110.400; -939.000; -889.000
210.404;    2.500; -171.000;  103.000
210.549;    5.350;  108.000;    3.000
210.695;  -21.075;   -3.000;  -95.000
210.840;   25.525;   94.000;   67.000
210.985;  -64.750; -484.000; -303.000
211.130;   61.075;  268.000;  406.000
211.275;   11.325;  207.000;  199.000
211.420;  -66.750; -300.000; -289.000
211.566;  -77.625; -536.000; -489.000
211.711;   16.850;  218.000;  157.000
211.856;  -46.175; -545.000; -519.000
212.001;   12.200;  151.000;   44.000
212.146;   35.150;  153.000;   49.000
212.291;   -7.050; -210.000; -186.000
212.436;  -19.575; -280.000;   -6.000
212.581;  -78.950; -685.000; -653.000
212.726;  -75.500; -487.000; -538.000
212.871;  -51.625; -552.000; -217.000
213.016; -148.750;-1172.000;-1029.000
213.161;   65.825;  406.000;  291.000
213.306;  -65.875; -435.000; -577.000
213.451;  -89.225; -778.000; -689.000
213.596;  -53.275; -455.000; -347.000
213.741;  -51.275; -448.000; -538.000
213.886;  -74.950; -498.000; -517.000
214.031;  -14.625; -294.000; -124.000
214.176;  -36.975; -408.000; -341.000
214.321;  -20.050; -296.000; -157.000
214.466;  -19.825; -163.000;  -43.000
214.611;    3.900;  -61.000;  -10.000
214.756; -100.225; -948.000; -858.000
214.901;  -32.625; -388.000; -226.000
215.046; -123.800; -797.000; -825.000
215.191;   16.425;  128.000;   35.000
215.336;  -13.225; -157.000;  -19.000
215.480;  -72.975; -684.000; -505.000
215.625;    3.050; -175.000;  -19.000
215.770;  -89.000; -757.000; -662.000
215.915;    7.675;   -5.000;  -97.000
216.060;  -10.400; -113.000;  -21.000
216.205; -109.975; -731.000; -779.000
216.349;  -69.775; -470.000; -533.000
216.494; -131.375; -939.000; -867.000
216.639; -105.825; -823.000; -888.000
216.784;  -87.875; -577.000; -525.000
216.929;   51.350;  392.000;  281.000
217.073;  -14.600; -244.000;  -31.000
217.218;    0.300;   78.000;  -47.000
217.363;  -78.975; -656.000; -618.000
217.507;  -84.000; -623.000; -588.000
217.652; -127.525; -845.000; -874.000
217.797;  -93.325; -708.000; -659.000
217.942; -116.700; -856.000; -720.000
218.086;   69.450;  608.000;  539.000
218.231;   -5.825; -174.000;  -26.000
218.376;  -34.850; -337.000; -229.000
218.520;   12.025;  -41.000;   96.000
218.665;  -38.275; -338.000; -204.000
218.810;  -32.400; -275.000; -233.000
218.954;   21.525;  201.000;   35.000
219.099; -116.025; -713.000; -963.000
219.243;  -66.550; -589.000; -554.000
219.388;  -21.250; -264.000; -136.000
219.532;  -14.200; -116.000; -116.000
219.677;  -67.650; -564.000; -521.000
219.822;   -0.400;   33.000;   89.000
219.966;    4.825;   17.000;  -99.000
220.111;  -23.425; -328.000;  -40.000
220.255;  -94.350; -797.000; -750.000
220.400;  -22.975; -180.000; -146.000
220.544;  -54.350; -516.000; -450.000
220.689;  -57.450; -422.000; -451.000
220.833;   -9.200; -123.000;  -58.000
220.978;  -45.750; -393.000; -563.000
221.122;   31.425;  319.000;  307.000
221.267; -114.575; -906.000; -837.000
221.411;  -73.225; -478.000; -394.000
221.555;   -3.350; -104.000;  -23.000
221.700;  -50.000; -329.000; -222.000
221.844;   34.550;  255.000;  272.000
221.989;  -47.475; -328.000; -311.000
222.133;  -34.000; -289.000; -307.000
222.277;    1.725;    5.000;   78.000
222.422;   14.050;  227.000;  113.000
222.566;  -45.750; -381.000; -214.000
222.711;  -51.525; -414.000; -479.000
222.855;  -76.475; -643.000; -586.000
222.999;  -81.100; -642.000; -717.000
223.144;  -33.000; -195.000; -194.000
223.288;   33.625;  423.000;  251.000
223.432;   27.825;  184.000;  230.000
223.576;   11.600;  152.000;  -21.000
223.721;   47.350;  364.000;  273.000
223.865;  -63.900; -472.000; -475.000
224.009;  246.300; 1673.000; 1631.000
224.153;  -79.500; -660.000; -671.000
224.298;  -59.300; -531.000; -489.000
224.442;  -27.075;  -74.000;  -33.000
224.586;   -4.250; -169.000; -106.000
224.730; -103.925; -858.000; -670.000
224.875; -111.350; -739.000; -688.000
225.019;   11.625;  102.000;  188.000
225.163;   56.200;  208.000;  341.000
225.307;   15.550;   97.000;  -91.000
225.451;   56.100;  360.000;  481.000
225.595;   41.075;  264.000;  176.000
225.739;   -9.875; -170.000;  -94.000
225.884;    6.750;   86.000;    5.000
226.028;  -99.650; -760.000; -626.000
226.172;  -45.500; -260.000; -273.000
226.316; -127.750; -941.000; -902.000
226.460;  -71.400; -645.000; -493.000
226.604;  -53.900; -406.000; -400.000
226.748; -110.400; -836.000; -733.000
226.892;  -38.850; -227.000; -181.000
227.036;  -44.325; -537.000; -447.000
227.180;  -55.225; -551.000; -375.000
227.324;  -76.150; -561.000; -580.000
227.468; -109.275; -819.000; -717.000
227.612;   11.525;  242.000;  -28.000
227.756;  -87.875; -845.000; -698.000
227.900;   36.925;  342.000;  441.000
228.044;  -58.150; -509.000; -290.000
228.188;   52.275;  448.000;  568.000
228.332;  -82.850; -546.000; -472.000
228.476;  -21.700; -223.000; -149.000
228.620;  -35.050; -210.000; -150.000
228.764;   70.525;  431.000;  349.000
228.908;  -12.400; -155.000;   30.000
229.052;  -71.250; -615.000; -528.000
229.195;  -17.850; -172.000;   13.000
229.339;  -33.175; -235.000; -305.000
229.483;  -20.925;    5.000; -162.000
229.627;    2.800; -156.000;  139.000
229.771;  -42.825; -218.000; -294.000
229.915;   16.550;  230.000;   79.000
230.059;  -88.725; -648.000; -663.000
230.202;  -46.125; -370.000; -317.000
230.346;  -18.350; -107.000;  107.000
230.490;  -62.200; -489.000; -521.000
230.634;  -96.625; -736.000; -553.000
230.777;   66.400;  478.000;  509.000
230.921;  -54.950; -450.000; -359.000
231.065;  -62.300; -246.000; -286.000
231.209;   27.700;  261.000;  265.000
231.352;   17.700;   54.000;   40.000
231.496;   33.200;  568.000;  188.000
231.640;  -89.150; -693.000; -621.000
231.783;   47.300;  546.000;  525.000
231.927;  -51.525; -294.000; -365.000
232.071; -119.975; -962.000; -736.000
232.214; -118.150; -980.000; -764.000
232.358;  -86.850; -683.000; -599.000
232.502;   -9.775;  -19.000;    7.000
232.645; -127.600;-1090.000; -927.000
232.789;  -19.050; -257.000; -218.000
232.933;  -31.825; -407.000; -224.000
233.076; -119.375;-1038.000; -897.000
233.220;  -97.900; -752.000; -777.000
233.363;  -67.550; -669.000; -477.000
233.507;   58.825;  371.000;  129.000
233.650;  -87.625; -764.000; -834.000
233.794;   50.175;  438.000;  461.000
233.938;  -58.250; -530.000; -362.000
234.081;  -16.925;  -93.000;   31.000
234.225;  -76.075; -631.000; -539.000
234.368; -117.425; -773.000; -723.000
234.512;  -40.300; -385.000; -299.000
234.655;  -86.875; -582.000; -555.000
234.798;  -73.100; -493.000; -466.000
234.942; -118.325; -884.000;-1002.000
235.085;  -75.925; -651.000; -443.000
235.229;  -74.450; -405.000; -410.000
235.372;  -59.150; -247.000; -191.000
235.516;  -47.600; -397.000; -321.000
235.659;   18.550;   92.000;  121.000
235.802;   -6.525;  -38.000;  -22.000
235.946;   44.800;  335.000;  215.000
236.089;   37.075;  126.000;  250.000
236.233;   45.675;  275.000;  298.000
236.376;  -31.875; -235.000; -378.000
236.519;  -58.075; -297.000; -319.000
236.663;  -16.325; -215.000; -117.000
236.806; -138.175;-1029.000; -999.000
236.949;   59.950;  543.000;  431.000
237.092;   56.075;  412.000;  391.000
237.236;  -77.325; -589.000; -502.000
237.379;   55.800;  352.000;  428.000
237.522; -110.550; -879.000; -768.000
237.666;  -13.625; -271.000;   18.000
237.809; -123.375; -851.000; -823.000
237.952;   38.625;  469.000;  271.000
238.095;  -71.400; -447.000; -442.000
238.238;   83.000;  688.000;  700.000
238.382;    8.675;  166.000;  103.000
238.525;  -72.475; -598.000; -511.000
238.668; -135.500;-1060.000; -985.000
238.811;  -91.000; -638.000; -643.000
238.954;  -47.850; -483.000; -334.000
239.097;   85.400;  617.000;  664.000
239.241;   12.500;  394.000;  326.000
239.384;  -39.650; -254.000; -214.000
239.527;  -56.450; -424.000; -224.000
239.670; -139.150; -994.000;-1091.000
239.813; -105.175; -696.000; -658.000
239.956;   75.850;  579.000;  473.000
240.099; -100.150; -778.000; -725.000
240.242;   58.350;  428.000;  432.000
240.385;   49.375;  466.000;  450.000
240.528;  -84.250; -706.000; -473.000
240.671;   28.800;  189.000;  134.000
240.814;  -46.700; -441.000; -158.000
240.957;  -90.050; -767.000; -578.000
241.100;  -93.575; -779.000; -755.000
241.243; -150.500;-1234.000; -893.000
241.386;  -53.025; -508.000; -379.000
241.529;  -82.675; -735.000; -547.000
241.672;  -67.675; -566.000; -495.000
241.815; -122.775; -832.000; -808.000
241.958;  -31.425; -125.000; -182.000
242.101;  -83.000; -545.000; -390.000
242.244;  -25.800; -270.000; -325.000
242.387;  -38.875; -304.000; -246.000
242.530;   63.350;  470.000;  134.000
242.673;  -44.375; -381.000; -309.000
242.815; -124.350; -925.000; -899.000
242.958;  -67.900; -482.000; -381.000
243.101;   16.450;  132.000;  187.000
243.244;  -79.925; -564.000; -521.000
243.387;  -46.375; -313.000; -316.000
243.530;  -94.450; -657.000; -674.000
243.672;  -12.650;   43.000;  -92.000
243.815;  -53.225; -355.000; -283.000
243.958;   -9.275;   98.000;  -26.000
244.101;    7.575;   59.000;  -16.000
244.243;  -22.925;  -47.000;  101.000
244.386; -107.225; -761.000; -630.000
244.529;  -18.025; -132.000; -139.000
244.672; -151.975;-1154.000; -951.000
244.814;  -94.125; -621.000; -794.000
244.957;  -66.175; -380.000; -304.000
245.100;  -76.300; -489.000; -489.000
245.242;  -56.700; -387.000; -374.000
245.385;  -12.825;  -59.000;  -39.000
245.528; -115.225; -871.000; -705.000
245.670;   83.000;  612.000;  634.000
245.813;  -80.600; -599.000; -547.000
245.956;  -36.025; -324.000; -275.000
246.098;  -83.675; -508.000; -650.000
246.241;    6.275;  194.000;   48.000
246.383;   -6.950; -119.000;  -73.000
246.526;  -80.175; -454.000; -525.000
246.669; -117.625; -889.000; -780.000
246.811;   23.475;  172.000;   -1.000
246.954;  -60.225; -512.000; -426.000
247.096;  -19.525;  -84.000;   -6.000
247.239;  -80.800; -482.000; -445.000
247.381;  -82.900; -647.000; -488.000
247.524;  104.775;  645.000;  679.000
247.666;  -17.000;   58.000;   11.000
247.809; -122.425; -887.000; -691.000
247.951;  -17.000;  -75.000;  138.000
248.094;   24.425;  432.000;  308.000
248.236; -156.325;-1262.000;-1238.000
248.378;    7.800; -356.000;  -81.000
248.521;  -21.500; -334.000; -337.000
248.663;  -34.200; -236.000; -267.000
248.806;  -16.700; -300.000; -266.000
248.948;  -98.500; -886.000; -763.000
249.090;  -48.350; -428.000; -398.000
249.233;  -41.550; -344.000; -381.000
249.375;  -67.525; -474.000; -451.000
249.518;  -23.150;  -83.000; -133.000
249.660;   -2.150; -103.000;    3.000
249.802; -173.225;-1303.000;-1189.000
249.945;  -87.975; -612.000; -540.000
250.087; -109.625; -834.000; -768.000
250.229;  -48.300; -362.000; -480.000
250.371;  -63.650; -494.000; -439.000
250.514;  -44.975; -310.000; -244.000
250.656;  -68.425;   69.000;  102.000
250.798; -119.450; -849.000; -800.000
250.940;  -47.500; -322.000; -322.000
251.083;  -32.375; -335.000; -111.000
251.225;   50.900;  338.000;  310.000
251.367;  -53.300; -274.000; -373.000
251.509;  -32.075; -265.000; -210.000
251.651; -101.025; -731.000; -671.000
251.794;   42.000;  538.000;  632.000
251.936;  -94.850; -821.000; -747.000
252.078;  -69.025; -540.000; -461.000
252.220;  -68.900; -645.000; -477.000
252.362;   94.875;  344.000;  462.000
252.504;  -70.475; -677.000; -584.000
252.646; -103.375; -875.000; -722.000
252.788;    1.700;   14.000; -128.000
252.931;  -25.025; -257.000; -253.000
253.073;  -41.175; -376.000; -317.000
253.215;    5.800;  141.000;  122.000
253.357;  -11.475;   82.000; -153.000
253.499;  -49.350; -374.000; -234.000
253.641;  -88.250; -749.000; -594.000
253.783;  -87.250; -609.000; -527.000
253.925;  -98.450; -586.000; -591.000
254.067; -102.050; -744.000; -667.000
254.209;  -31.650; -391.000; -259.000
254.351; -139.325; -865.000; -883.000
254.493;  -73.300; -441.000; -417.000
254.635; -121.325; -936.000; -818.000
254.777;  -93.225; -752.000; -687.000
254.918;  -56.625; -512.000; -430.000
255.060;  -61.425; -551.000; -395.000
255.202;  -50.175; -473.000; -261.000
255.344;  -71.050; -658.000; -455.000
255.486;  -62.900; -471.000; -406.000
255.628; -113.800; -780.000; -781.000
255.770;  -77.400; -676.000; -536.000
255.912;  -61.425; -559.000; -468.000
256.053;  -81.825; -730.000; -508.000
256.195;  139.650; 1008.000;  903.000
256.337; -111.475; -861.000; -595.000
256.479;   59.150;  532.000;  416.000
256.621;  -45.200; -394.000; -212.000
256.762; -103.150; -789.000; -742.000
256.904;   48.450;  485.000;  487.000
257.046;  -49.650; -381.000; -271.000
257.188;  -44.725; -351.000; -264.000
257.329;  -62.400; -525.000; -464.000
257.471; -118.650; -939.000; -807.000
257.613;  -69.200; -584.000; -498.000
257.755; -148.450;-1073.000; -982.000
257.896;   25.200;  286.000;  392.000
258.038;  -79.250; -403.000; -352.000
258.180;  -35.200; -354.000; -279.000
258.321;  -86.725; -581.000; -457.000
258.463;   -9.525;  -71.000;  133.000
258.605;  -83.750; -562.000; -570.000
258.746;  -99.775; -886.000; -772.000
258.888; -154.675;-1026.000;-1020.000
259.029;   16.525;  121.000;   -8.000
259.171;  -89.450; -614.000; -550.000
259.313;   -4.650;  -49.000;  -47.000
259.454;  -65.275; -536.000; -414.000
259.596;  -65.775; -483.000; -390.000
259.737;  -68.375; -590.000; -474.000
259.879;   17.775;  217.000;  311.000
260.020;   88.375;  901.000;  636.000
260.162;  -27.600; -146.000; -253.000
260.303; -110.400; -768.000; -687.000
260.445;  -99.400; -609.000; -613.000
260.586;   28.625;  392.000;  157.000
260.728;  -48.525; -360.000; -248.000
260.869; -117.975; -350.000; -343.000
261.011;   77.500;  706.000;  537.000
261.152;  -60.625; -479.000; -319.000
261.293;  -87.600; -576.000; -595.000
261.435;  -43.000; -219.000; -184.000
261.576;  -60.825; -455.000; -325.000
261.718;   57.575;  420.000;  470.000
261.859; -131.250; -940.000; -949.000
262.000; -119.325; -951.000;-1016.000
262.142;  -32.475;  -52.000;  -60.000
262.283; -112.350; -808.000; -691.000
262.424;  -93.525; -666.000; -625.000
262.566; -144.225;-1161.000; -983.000
262.707; -101.875; -840.000; -830.000
262.848; -124.000; -769.000; -726.000
262.990;  -54.550; -362.000; -345.000
263.131;   83.075;  650.000;  681.000
263.272;    2.625;  -61.000;  -41.000
263.413;  -87.500; -589.000; -561.000
263.555;  -68.925; -669.000; -143.000
263.696;  -92.650; -550.000; -641.000
263.837;  -64.525; -449.000; -551.000
263.978;   -7.450;   -5.000;  -77.000
264.119;  -57.475; -283.000; -264.000
264.261; -113.175; -847.000; -630.000
264.402;   -3.125;   33.000;   40.000
264.543;  -87.225; -509.000; -524.000
264.684;    7.050;   61.000;  -50.000
264.825;  -75.350; -816.000; -538.000
264.966;  -11.500;  -84.000;  -67.000
265.107; -110.375; -646.000; -670.000
265.248; -132.650; -825.000; -812.000
265.390;   -0.075;  152.000;   -9.000
265.531;  -27.350; -238.000; -107.000
265.672;  -91.775; -557.000; -630.000
265.813;   63.425;  563.000;  439.000
265.954; -136.150; -959.000; -940.000
266.095;   -9.875; -372.000; -322.000
266.236;  -89.725; -686.000; -548.000
266.377;  -45.125; -243.000; -297.000
266.518;  -69.775; -619.000; -547.000
266.659;   13.650;  170.000;  268.000
266.800;   13.050;   83.000;   85.000
266.941;  -86.125; -487.000; -478.000
267.082;   18.900;  354.000;   99.000
267.223;  -58.275; -344.000; -273.000
267.364; -118.425; -892.000; -686.000
267.504;  -18.425;    3.000;  135.000
267.645;    0.025;  160.000;   67.000
267.786;  -36.825; -147.000;  -86.000
267.927;  -82.150; -473.000; -379.000
268.068;  -26.275; -186.000;  -61.000
268.209;  -36.650; -175.000; -413.000
268.350;  -62.450; -388.000; -532.000
268.490;  -88.500; -648.000; -521.000
268.631;   35.325;  127.000;  225.000
268.772; -116.550; -874.000; -647.000
268.913;  -43.150; -328.000; -476.000
269.054;  -12.625; -117.000;   12.000
269.194;  -36.250; -418.000; -402.000
269.335; -163.075;-1137.000;-1074.000
269.476;  -11.075;   33.000;  -35.000
269.617;  -55.775; -347.000; -392.000
269.757;  -96.275; -713.000; -646.000
269.898;  -95.250; -856.000; -613.000
270.039;  -57.800; -415.000; -405.000
270.180; -139.525; -952.000; -816.000
270.320;  -14.075; -190.000; -250.000
270.461;  -36.475; -277.000; -249.000
270.602;  -16.325; -186.000; -156.000
270.742; -109.625; -868.000; -943.000
270.883;  -59.500; -442.000; -390.000
271.023;  -62.350; -358.000; -357.000
271.164;  -79.050; -607.000; -528.000
271.305;  -86.050; -666.000; -654.000
271.445; -102.000; -722.000; -683.000
271.586;  -62.800; -462.000; -283.000
271.726;  -49.375; -397.000; -322.000
271.867;  -59.475; -594.000; -534.000
272.008;  180.100; -473.000; -285.000
272.148;  140.125;  462.000;  468.000
272.289;   -0.650; -113.000; -181.000
272.429;   23.750;   19.000;  185.000
272.570;  -80.000; -633.000; -737.000
272.710; -101.950; -825.000; -775.000
272.851;  -22.650;  113.000; -130.000
272.991; -155.150;-1173.000;-1077.000
273.131;  -76.975; -419.000; -459.000
273.272;  -87.925; -683.000; -723.000
273.412;    6.425; -143.000;  -31.000
273.553;  -48.100; -488.000; -507.000
273.693;  142.750;  913.000;  858.000
273.834;  -84.175; -894.000; -692.000
273.974;  -79.425; -664.000; -615.000
274.114;  -93.050; -772.000; -560.000
274.255;   73.775;  414.000;  373.000
274.395;   -6.325; -180.000; -125.000
274.535;   41.800;  199.000;  350.000
274.676;   17.475;  225.000;   94.000
274.816;    1.075;  110.000;   34.000
274.956;  -82.600; -624.000; -690.000
275.097;  -59.400;-1014.000; -922.000
275.237;  -99.825; -913.000; -803.000
275.377; -101.325; -778.000; -689.000
275.517; -148.875; -878.000; -937.000
275.658;  -52.375; -590.000; -555.000
275.798;  -62.225; -606.000; -413.000
275.938;   21.800;  215.000;  323.000
276.078;  -91.475; -626.000; -395.000
276.218;    5.725;   99.000;  104.000
276.359; -140.250;-1026.000;-1024.000
276.499;  -72.875; -605.000; -446.000
276.639;  -40.050; -305.000; -151.000
276.779;  -52.425; -475.000; -357.000
276.919;  -98.275; -783.000; -624.000
277.059;  -23.075; -261.000; -212.000
277.199;  -44.075; -357.000; -259.000
277.340;   44.350;  287.000;  175.000
277.480;  -96.225; -840.000; -693.000
277.620;   13.450;  192.000;   16.000
277.760; -193.175;-1533.000;-1294.000
277.900;   16.200;  113.000;   33.000
278.040;   27.775;  137.000;  159.000
278.180;   35.975;  270.000;  170.000
278.320;    6.675;   21.000;   56.000
278.460;  -75.075; -443.000; -469.000
278.600;  -78.700; -708.000; -598.000
278.740;   54.200;  448.000;  224.000
278.880;  -47.325; -768.000; -791.000
279.020;   -4.975; -194.000; -144.000
279.160;  -92.975; -672.000; -595.000
279.300; -118.100; -926.000; -873.000
279.440;  -79.075; -709.000; -622.000
279.579;  -18.050;-1014.000; -929.000
279.719;  -62.450; -410.000; -394.000
279.859;   69.175;   -4.000;   41.000
279.999;   24.875; -208.000;  101.000
280.139;   -8.875; -435.000; -387.000
280.279;  -73.825; -708.000; -745.000
280.419;  -11.675; -229.000; -147.000
280.559;  -27.275; -259.000; -180.000
280.698;  -75.575; -790.000; -639.000
280.838;  -89.400; -778.000; -800.000
280.978;  -94.475; -846.000; -790.000
281.118; -112.650; -811.000; -704.000
281.257;    8.250;   24.000;    6.000
281.397; -114.050;-1094.000; -960.000
281.537;  -90.150; -599.000; -712.000
281.677;  -16.750; -150.000; -101.000
281.816;  -94.075; -700.000; -630.000
281.956;  -25.975; -193.000; -257.000
282.096;  -72.225; -539.000; -396.000
282.235; -105.150; -672.000; -638.000
282.375;  -22.375; -243.000;  -98.000
282.515;  -90.975; -715.000; -707.000
282.654;   24.275;   29.000;  106.000
282.794;   29.825;  388.000;  244.000
282.934;  -60.800; -530.000; -491.000
283.073; -128.950;-1030.000; -857.000
283.213;  -59.825; -460.000; -467.000
283.353;  -42.875; -408.000; -349.000
283.492;  -28.050; -264.000; -296.000
283.632;  -41.225; -254.000; -168.000
283.771; -101.400; -859.000; -730.000
283.911;  -50.250; -369.000; -260.000
284.050; -123.950; -794.000; -748.000
284.190; -163.150;-1229.000;-1096.000
284.329; -151.500;-1055.000; -964.000
284.469;  -62.800; -516.000; -591.000
284.608;  -67.050; -559.000; -598.000
284.748;  -82.125; -614.000; -570.000
284.887;   -9.575;  -87.000;  -20.000
285.027; -117.500; -844.000; -892.000
285.166;  -40.825; -192.000; -249.000
285.306;   11.450; -116.000;  -33.000
285.445;  -37.650; -229.000; -343.000
285.584;  -82.225; -630.000; -494.000
285.724;  -37.325; -282.000; -322.000
285.863; -113.025; -857.000; -507.000
286.002;  -49.475; -366.000; -276.000
286.142; -110.500; -715.000; -622.000
286.281;  -73.400; -525.000; -493.000
286.420;  -71.250; -554.000; -417.000
286.560;   86.800;  653.000;  623.000
286.699; -126.025; -958.000; -912.000
286.838;  -89.625; -590.000; -591.000
286.978;  -89.525; -533.000; -537.000
287.117; -138.175;-1085.000; -950.000
287.256;  -27.225; -228.000; -211.000
287.395;  -43.150; -197.000; -378.000
287.535;  -47.575; -370.000; -298.000
287.674;  -90.600; -509.000; -484.000
287.813;   65.900;  661.000;  533.000
287.952; -137.975;-1010.000; -871.000
288.091; -136.625;-1049.000; -915.000
288.231;    2.000;   13.000;   15.000
288.370; -165.650;-1217.000;-1200.000
288.509; -106.550; -728.000; -645.000
288.648;  -94.325; -770.000; -548.000
288.787;  -26.975; -243.000;  -87.000
288.926;  -69.050; -454.000; -475.000
289.065;   99.750;  859.000;  672.000
289.204;  -52.000; -377.000; -217.000
289.344;  -95.475; -791.000; -690.000
289.483;    6.300;  416.000;  304.000
289.622;  -15.450; -291.000; -149.000
289.761;   -1.150; -309.000; -166.000
289.900; -118.775; -785.000; -626.000
290.039;  -17.650;  -12.000;  -95.000
290.178;  -44.300; -274.000; -180.000
290.317;  -73.825; -618.000; -479.000
290.456;  -66.475; -463.000; -451.000
290.595; -135.325; -961.000; -833.000
290.734; -142.725; -904.000; -891.000
290.873;  -78.375; -456.000; -420.000
291.011; -111.650; -833.000; -843.000
291.150;  -97.500; -770.000; -682.000
291.289;  -25.600; -343.000; -110.000
291.428;  -91.300; -599.000; -480.000
291.567;  -62.325; -370.000; -442.000
291.706;    3.600;  109.000;  154.000
291.845;  -84.375; -597.000; -505.000
291.984; -159.475;-1234.000;-1061.000
292.122;   72.325;  602.000;  582.000
292.261;   50.800;  620.000;  463.000
292.400;   -2.925; -144.000;  211.000
292.539; -122.025; -959.000; -813.000
292.678;  -46.100; -325.000; -300.000
292.816; -156.900;-1136.000; -965.000
292.955;  -91.975; -844.000; -684.000
293.094;  -16.825; -173.000; -337.000
293.233;  -68.800; -556.000; -400.000
293.371;  -36.725; -225.000;  -84.000
293.510; -107.325; -866.000; -780.000
293.649; -117.150; -959.000; -924.000
293.787;  -65.250;-1083.000;-1012.000
293.926;    8.075; -113.000;  -32.000
294.065;  -39.875; -379.000; -290.000
294.203;   50.550;  298.000;  406.000
294.342;   24.075;   74.000;  156.000
294.481; 5443.375;51180.000; -836.000
294.619;  -28.275; -425.000; -582.000
294.758; -134.325;-1230.000;-1137.000
294.896;   73.325; -125.000;    5.000
295.035; -122.525;-1040.000;-1006.000
295.174; -109.475;-1082.000; -954.000
295.312;  -36.750; -323.000; -203.000
295.451;   -6.600; -307.000; -428.000
295.589;  -54.125; -389.000; -518.000
295.728;   23.100; -292.000; -165.000
295.866;   -2.800;  -36.000;  -51.000
296.005;  -62.650; -584.000; -341.000
296.143;  -59.800; -558.000; -596.000
296.282; -112.100; -957.000; -881.000
296.420;  -89.175; -657.000; -557.000
296.559;  -92.700; -892.000; -633.000
296.697;   33.425; -847.000; -665.000
296.835;   66.625;-1141.000;-1002.000
296.974;   53.375;  -23.000;   39.000
297.112;    8.025; -443.000; -504.000
297.251;  -67.725; -815.000; -755.000
297.389;  100.850; -576.000; -438.000
297.527;   30.825; -145.000;  -83.000
297.666;  -49.075; -486.000; -438.000
297.804;  -48.925; -404.000; -264.000
297.942;   -2.350; -136.000; -161.000
298.081;  -12.925; -183.000;   63.000
298.219;   61.250;  -17.000;  -19.000
298.357;   54.400; -144.000;  -71.000
298.495;   43.375; -810.000; -812.000
298.634;   81.325;  245.000;  219.000
298.772;   63.400; -220.000; -338.000
298.910;  -20.575; -309.000; -182.000
299.048;  -14.925; -130.000; -153.000
299.187;  -31.375; -350.000; -250.000
299.325;    9.700;   52.000;  122.000
299.463;   67.100; -389.000; -299.000
299.601;  124.350; -327.000; -271.000
299.739;  -97.750; -908.000; -883.000
299.877;  -88.250; -791.000; -703.000
300.016;  -38.650;-1095.000; -935.000
300.154;  149.350;  -19.000; -161.000
300.292;   68.775; -428.000; -348.000
300.430;   34.325; -408.000; -291.000
300.568; -104.825; -940.000; -874.000
300.706;  -38.600; -366.000; -469.000
300.844;  -77.050;-1108.000; -979.000
300.982;  121.775;  246.000;  282.000
301.120;  -99.275; -965.000; -866.000
301.258;  -76.525; -812.000; -705.000
301.396;   35.925;  104.000;  -41.000
301.534;   70.000; -218.000; -293.000
301.672;   -6.550; -664.000; -521.000
301.810;   48.500; -613.000; -545.000
301.948;  140.225;   53.000;  149.000
302.086;  643.550; -250.000;  -32.000
302.224;  971.750; -610.000; -585.000
302.362;   40.475; -558.000; -622.000
302.500;  -26.250; -923.000; -893.000
302.638;  112.825;  128.000;  245.000
302.776;    3.625; -352.000; -408.000
302.913;   37.550;  447.000;  236.000
303.051;   -3.375;  -86.000;  -23.000
303.189;   49.600;   90.000;  118.000
303.327;  -38.450; -341.000; -256.000
303.465;  -85.225; -832.000; -588.000
303.603;  -84.800; -805.000; -604.000
303.740;   96.525;  417.000;  241.000
303.878;   22.400; -800.000; -759.000
304.016;  -85.150; -915.000; -790.000
304.154; -118.400;-1123.000;-1152.000
304.291;  -46.975; -505.000; -554.000
304.429;   23.225;  102.000;   74.000
304.567; -120.675; -908.000; -893.000
304.705;  -57.400; -408.000; -515.000
304.842;  106.525; -616.000; -540.000
304.980;   75.700;  215.000;   35.000
305.118;   30.350; -367.000; -365.000
305.255;  -72.175; -945.000; -927.000
305.393;   57.650;  178.000;  239.000
305.531;  -96.075;-1173.000; -956.000
305.668;  -77.975; -663.000; -582.000
305.806;  112.175; -358.000; -439.000
305.943;  103.100; -629.000; -637.000
306.081;   66.075; -378.000; -267.000
306.219; -103.775; -863.000; -748.000
306.356;    9.325;  158.000;   27.000
306.494;  108.450;  981.000;  761.000
306.631;    2.725;  -11.000;  -55.000
306.769;    2.925; -613.000; -485.000
306.906;  -13.300; -284.000; -258.000
307.044;  -72.850; -473.000; -488.000
307.181;  -57.250; -410.000; -332.000
307.319;    1.975;  112.000;   87.000
307.456; -166.200;-1191.000;-1153.000
307.594;  -95.875; -980.000; -727.000
307.731;  -20.950; -371.000; -164.000
307.868;   -8.400;  -15.000;   20.000
308.006; -135.600; -961.000; -847.000
308.143;  -59.200; -618.000; -330.000
308.281;  162.925;  -37.000; -254.000
308.418;  -12.300; -748.000; -640.000
308.555;  -76.300; -400.000; -250.000
308.693;  -66.700; -577.000; -573.000
308.830; -103.800; -712.000; -657.000
308.967;  -21.825; -215.000;  -95.000
309.105;  -45.875; -507.000; -396.000
309.242;   28.850; -468.000; -367.000
309.379;  295.700; -577.000; -655.000
309.517;  -70.875; -936.000; -948.000
309.654; -107.475; -910.000; -734.000
309.791;  -69.800; -662.000; -580.000
309.928; -123.025; -977.000; -914.000
310.065;  178.225;  819.000;  697.000
310.203;    7.350; -825.000; -850.000
310.340;   -6.325; -465.000; -321.000
310.477;  -71.425; -412.000; -516.000
310.614;  -65.075; -383.000; -473.000
310.751;  -59.650; -427.000; -518.000
310.889;  -23.050;    1.000;   11.000
311.026; -156.850;-1161.000; -939.000
311.163;  -55.650; -386.000; -380.000
311.300;  -81.500; -512.000; -479.000
311.437;  -83.000; -658.000; -619.000
311.574; -153.775;-1226.000; -985.000
311.711;  -68.275; -595.000; -433.000
311.848;  -36.475; -380.000; -388.000
311.985;    3.925;  270.000;   93.000
312.122; -119.000; -932.000; -762.000
312.259; -127.050; -941.000; -994.000
312.396;  -88.100; -508.000; -551.000
312.533;  -82.050; -812.000; -790.000
312.670; -125.050;-1070.000; -898.000
312.807;  -34.750; -352.000; -367.000
312.944;  -78.975; -513.000; -611.000
313.081;  -28.450; -150.000; -415.000
313.218; -102.975;-1111.000; -867.000
313.355;    3.350; -531.000; -449.000
313.492;    4.325; -455.000; -292.000
313.629;  124.425;  815.000;  735.000
313.766; -145.900;-1176.000;-1008.000
313.902;  -14.575; -186.000;   21.000
314.039;  -58.650; -372.000; -289.000
314.176;   32.500;  286.000;  192.000
314.313;  -83.175; -569.000; -473.000
314.450;  -80.850; -788.000; -684.000
314.587;  -48.050; -468.000; -480.000
314.723;   10.375;  -78.000;  130.000
314.860;   17.750;  318.000;  332.000
314.997;   22.050;  223.000;  142.000
315.134;  -37.750; -385.000; -368.000
315.270;  -42.525; -480.000; -496.000
315.407; -114.650;-1094.000; -967.000
315.544;  -61.250; -657.000; -538.000
315.681;  -59.425; -681.000; -565.000
315.817;   35.150; -133.000; -176.000
315.954;   25.050; -613.000; -392.000
316.091; -126.900;-1045.000;-1023.000
316.227;  -31.150;  -71.000; -179.000
316.364;  -12.875;   23.000;    6.000
316.500;  -34.700; -113.000; -300.000
316.637;  -53.700; -181.000; -302.000
316.774;  -84.275; -625.000; -358.000
316.910;  -97.750; -598.000; -629.000
317.047;  -70.000; -487.000; -351.000
317.183;  -49.000; -435.000; -566.000
317.320;   -5.225; -367.000; -321.000
317.456;  -78.900; -733.000; -805.000
317.593;  -85.375; -598.000; -641.000
317.729;   -6.900;  168.000;  -67.000
317.866; -193.875;-1434.000;-1285.000
318.002;  -87.200; -708.000; -948.000
318.139;  -89.500; -883.000; -867.000
318.275;  -95.825;-1003.000; -738.000
318.412;  -75.125; -517.000; -336.000
318.548;  -31.100; -751.000; -720.000
318.685;  -95.425; -985.000; -888.000
318.821; -104.550; -762.000; -735.000
318.957;  -13.925;   34.000;  -23.000
319.094;   31.925;  297.000;  154.000
319.230;  -62.125; -756.000; -742.000
319.367;  127.325; -471.000; -520.000
319.503;   49.275; -538.000; -436.000
319.639; -101.950; -877.000; -793.000
319.775;  -62.625; -750.000; -685.000
319.912;  -65.450; -424.000; -519.000
320.048;  -90.625;-1184.000;-1184.000
320.184;   62.525;   59.000;   70.000
320.321;  -56.650; -497.000; -467.000
320.457;   51.750;  475.000;  662.000
320.593;  -61.300; -375.000; -382.000
320.729; -105.375; -732.000; -734.000
320.866;  -82.250; -577.000; -635.000
321.002;  -85.575; -759.000; -809.000
321.138;  -12.725; -135.000; -211.000
321.274;   75.700; -148.000; -115.000
321.410;  -27.750; -585.000; -353.000
321.546;  -33.200;-1011.000; -911.000
321.683;   52.275;  400.000;  185.000
321.819;   -6.475;  -48.000; -117.000
321.955; -113.600; -743.000; -722.000
322.091;  -40.450; -585.000; -540.000
322.227;   -8.050; -382.000; -202.000
322.363;   -9.500; -320.000; -215.000
322.499;  -42.925; -343.000; -331.000
322.635;  146.775;  636.000;  443.000
322.771;   30.575; -139.000;   12.000
322.907;   94.925;  129.000;  327.000
323.043;  -24.750; -115.000; -206.000
323.179;  -25.850; -394.000; -363.000
323.315;   36.475; -401.000; -371.000
323.451;   86.675; -328.000; -236.000
323.587;   75.150;  -60.000;  -77.000
323.723;   13.975; -682.000; -601.000
323.859;   -2.025; -258.000;  -76.000
323.995;  -18.275; -467.000; -409.000
324.131; -126.875; -967.000; -892.000
324.267;  -47.050; -254.000; -276.000
324.402; -128.100; -960.000; -983.000
324.538;  -22.375; -279.000; -104.000
324.674;   22.400;  164.000;   77.000
324.810;  125.325;  226.000;  308.000
324.946;    6.325; -810.000; -658.000
325.082;  -75.625; -568.000; -475.000
325.217;   -8.000;  -62.000;   16.000
325.353;  -93.150; -764.000; -659.000
325.489;  -87.400; -540.000; -506.000
325.625;  -84.625; -579.000; -525.000
325.760;   57.100;  517.000;  376.000
325.896;  -27.500; -515.000; -702.000
326.032;  -56.300; -403.000; -352.000
326.168;  -72.475; -462.000; -369.000
326.303;  -71.075; -352.000; -461.000
326.439;  -22.575; -336.000; -276.000
326.575;    2.325; -190.000;  -29.000
326.710;   -6.100; -156.000;  -30.000
326.846;  -18.075;  146.000;  103.000
326.982;  -90.325; -530.000; -548.000
327.117;  -79.425; -481.000; -442.000
327.253;  -96.425; -745.000; -742.000
327.388; -117.550;-1137.000;-1153.000
327.524;  -57.100; -811.000; -578.000
327.659;  -25.075;  -58.000;  -22.000
327.795;  -13.675;   69.000;   45.000
327.931;  -81.475; -723.000; -499.000
328.066;  -43.125; -417.000; -276.000
328.202;  -22.200;   12.000; -129.000
328.337;  102.675;  957.000;  713.000
328.473;   37.650;  -12.000;  -74.000
328.608;  -20.525; -256.000; -267.000
328.743;  -65.625; -799.000; -664.000
328.879;   13.700;  214.000;  114.000
329.014;  -21.400; -102.000; -122.000
329.150;  -89.225; -358.000; -483.000
329.285;  -83.200; -465.000; -466.000
329.421;  -50.775; -548.000; -246.000
329.556;  -15.375;  -36.000;   85.000
329.691;  -97.975; -633.000; -615.000
329.827;  -77.225; -626.000; -480.000
329.962;  -45.100;  131.000; -301.000
330.097;  -93.400; -673.000; -585.000
330.233;  -49.400; -410.000; -223.000
330.368; -113.600; -839.000; -628.000
330.503;  -13.225;    3.000;   98.000
330.638;   11.325;  -93.000; -125.000
330.774;  -60.125; -609.000; -530.000
330.909;  -32.400; -434.000; -244.000
331.044; -100.300; -714.000; -708.000
331.179; -185.300;-1217.000;-1109.000
331.315;    2.300;   77.000;   20.000
331.450;   13.050;  157.000;  285.000
331.585;  -92.875; -805.000; -706.000
331.720;  -86.225; -510.000; -460.000
331.855;  -11.000;  -35.000; -102.000
331.990;  238.550;   62.000;  138.000
332.126;  126.050; -110.000;   71.000
332.261;  -22.725; -379.000; -265.000
332.396;   -2.675; -135.000; -242.000
332.531;  -87.775;-1074.000;-1031.000
332.666;   19.525; -519.000; -363.000
332.801; -105.475; -726.000; -807.000
332.936;  -18.425; -192.000; -122.000
333.071; -141.000; -870.000; -817.000
333.206;   24.275;  307.000;  379.000
333.341;   25.525;  344.000;  418.000
333.476;  -89.225; -627.000; -623.000
333.611;  -37.050; -251.000; -173.000
333.746;  -50.125; -381.000; -464.000
333.881; -122.550; -973.000; -935.000
334.016; -127.425; -936.000; -917.000
334.151; -111.750; -746.000; -702.000
334.286;   23.150;  152.000;  186.000
334.421;  -17.925; -125.000; -178.000
334.556;  -87.225; -611.000; -567.000
334.690;  -91.850; -631.000; -577.000
334.825;   45.450;  381.000;   83.000
334.960;  -51.300; -285.000; -413.000
335.095;    8.625;  135.000;  -91.000
335.230; -103.300; -722.000; -738.000
335.365; -120.725;-1084.000; -990.000
335.499; -129.150;-1108.000;-1037.000
335.634;   22.550;    9.000;  534.000
335.769;  -84.925; -755.000; -720.000
335.904;  -48.900; -603.000; -561.000
336.038;  -44.850; -735.000; -657.000
336.173; -118.850;-1206.000;-1194.000
336.308;   -2.525; -116.000; -189.000
336.443;    9.075; -544.000; -634.000
336.577;  -67.950; -936.000; -787.000
336.712;   75.800;   -4.000;  -12.000
336.847;  -19.600; -724.000; -607.000
336.981;   71.425; -272.000; -208.000
337.116;  301.350;  615.000;  501.000
337.250;  155.600; -434.000; -421.000
337.385;  244.925; -297.000; -208.000
337.520;   72.325; -632.000; -603.000
337.654;  -42.375; -215.000; -126.000
337.789; -139.775; -989.000; -933.000
337.923;  -29.250; -104.000; -205.000
338.058;  -85.475; -673.000; -738.000
338.192;  -26.175; -611.000; -488.000
338.327;  -23.975;  -18.000; -155.000
338.461;  -48.700; -299.000; -469.000
338.596;  -95.150; -780.000; -638.000
338.730; -101.125; -767.000; -803.000
338.865;   75.450;  -46.000; -140.000
338.999;  -52.125; -846.000; -702.000
339.134;  -22.625; -634.000; -536.000
339.268;   11.600; -741.000; -603.000
339.403;  349.475; -740.000; -775.000
339.537;  117.675; -894.000; -820.000
339.671; -122.675; -829.000; -813.000
339.806;  -52.500; -556.000; -512.000
339.940;    8.025; -261.000; -235.000
340.074;  -93.225; -685.000; -510.000
340.209;  -58.200; -351.000; -230.000
340.343;  -85.475; -517.000; -573.000
340.477;  154.325;  998.000; 1036.000
340.612;  -47.600;-1033.000; -900.000
340.746;  120.950; -199.000; -243.000
340.880;  -61.850; -924.000; -785.000
341.014;  -16.100;  -45.000; -154.000
341.149; -108.125; -756.000; -718.000
341.283; -112.575; -839.000; -754.000
341.417;  -88.300;-1124.000; -938.000
341.551;  140.325; -768.000; -708.000
341.685;  -39.025; -633.000; -611.000
341.820;  -56.450; -562.000; -493.000
341.954;  -60.650; -218.000; -349.000
342.088; -149.750;-1102.000;-1019.000
342.222;   60.375;  565.000;  618.000
342.356;  -55.100; -395.000; -335.000
342.490; -101.175; -880.000; -841.000
342.624;  -42.025; -339.000; -242.000
342.758;   -1.300; -364.000; -312.000
342.892;  -63.600; -710.000; -585.000
343.026;  -40.725;  -58.000; -116.000
343.160;  -53.250; -426.000; -376.000
343.294;  -81.875; -474.000; -337.000
343.428;  -21.300; -488.000; -448.000
343.562;  -17.175; -172.000;  -23.000
343.696;  -36.625; -385.000; -314.000
343.830;  -21.250; -362.000; -356.000
343.964;   16.450; -231.000; -168.000
344.098;  951.850;  199.000;   70.000
344.232;  779.425; -266.000; -127.000
344.366;   89.675; -567.000; -453.000
344.500;   53.400; -665.000; -744.000
344.634;   45.425; -324.000; -164.000
344.768;  -21.050; -531.000; -341.000
344.902;   27.700;  278.000;  256.000
345.035;  -78.375; -556.000; -496.000
345.169; -138.350; -933.000; -656.000
345.303;  -28.050; -308.000; -482.000
345.437;  -59.250; -826.000; -717.000
345.571;  -89.850; -675.000; -594.000
345.704;  -62.475; -309.000; -532.000
345.838;  -14.025; -331.000; -284.000
345.972;  -33.275; -543.000; -495.000
346.106;  159.000; -179.000; -190.000
346.239;  424.700; -312.000; -243.000
346.373;   -3.025; -343.000; -302.000
346.507; -132.250; -950.000; -962.000
346.640;  138.100;  -30.000;   13.000
346.774;  -44.775; -650.000; -797.000
346.908;  -22.075; -138.000;  -11.000
347.041;  -85.150; -646.000; -593.000
347.175;   -5.225;  259.000;   27.000
347.309;  -69.300; -698.000; -628.000
347.442; -108.650; -883.000; -732.000
347.576;  288.825;  670.000;  668.000
347.709;  200.925; -123.000;  -52.000
347.843;  -90.175; -933.000; -825.000
347.976;   20.550;  235.000;  294.000
348.110; -173.925;-1268.000;-1186.000
348.243; -102.350; -679.000; -772.000
348.377;   -0.900;  -26.000;   60.000
348.510;   47.650;  403.000;  540.000
348.644;  -50.550;  -37.000; -159.000
348.777;  -18.225;  180.000;  191.000
348.911;  -55.200; -142.000; -112.000
349.044;  170.325;  471.000;  448.000
349.178;  176.650;-1069.000;-1006.000
349.311;  111.950;  141.000;  255.000
349.444;  -10.575; -927.000; -813.000
349.578;  -23.050; -347.000; -200.000
349.711;  -99.175; -959.000; -862.000
349.845;   -6.225; -661.000; -591.000
349.978; -147.025;-1224.000;-1137.000
350.111;  -80.550; -546.000; -612.000
350.244;  -74.950; -596.000; -700.000
350.378;    7.350; -392.000; -393.000
350.511;  -53.375; -393.000; -426.000
350.644; -105.075; -808.000; -806.000
350.778;   10.200;  168.000;  104.000
350.911;   -1.425;  134.000;  140.000
351.044;  -82.525; -685.000; -615.000
351.177;  -35.875; -321.000; -281.000
351.310;  -23.675;    3.000; -131.000
351.444;  -80.225; -888.000; -788.000
351.577;  122.875;  140.000;   90.000
351.710;   85.475;  593.000;  417.000
351.843;  -37.625; -165.000;  -77.000
351.976;   -6.325;  149.000;  -79.000
352.109;  -95.350; -621.000; -612.000
352.242;  -29.650; -464.000; -419.000
352.376;  -53.375; -580.000; -636.000
352.509;  180.250; -437.000; -356.000
352.642;   17.700; -654.000; -604.000
352.775;   58.300; -141.000;  -98.000
352.908; -118.950; -933.000; -904.000
353.041; -103.275; -814.000; -824.000
353.174;  -74.050; -551.000; -424.000
353.307;  -89.375; -753.000; -764.000
353.440;   71.800;  541.000;  453.000
353.573; -109.425; -957.000;-1008.000
353.706;  -48.675; -384.000; -558.000
353.839;  -18.150; -264.000; -220.000
353.971;  -89.175; -657.000; -512.000
354.104;  -83.125; -896.000; -835.000
354.237;  -30.925; -627.000; -662.000
354.370;  -90.150; -846.000; -879.000
354.503; -183.875;-1231.000;-1308.000
354.636;  -42.950; -529.000; -348.000
354.769; -123.075; -937.000; -860.000
354.902;   -8.000; -230.000; -139.000
355.034;  -21.250; -164.000; -220.000
355.167;  -18.725; -262.000; -162.000
355.300;  -89.025;-1061.000; -880.000
355.433;  948.900;  -71.000;  -14.000
355.565; 1478.025; -402.000; -384.000
355.698;  377.375; -356.000; -296.000
355.831;    2.575; -882.000; -801.000
355.964;  105.575; -285.000; -170.000
356.096;  -80.325; -856.000; -843.000
356.229;    2.375; -523.000; -530.000
356.362;  305.150; -373.000; -266.000
356.494;  585.975; -229.000; -162.000
356.627;  489.725;  269.000;  377.000
356.760;  648.650;  120.000;   53.000
356.892;  924.575; -286.000; -601.000
357.025;  675.450;  403.000;  389.000
357.157;  618.200; -167.000; -179.000
357.290;  658.575; -856.000; -713.000
357.423;  201.275; -667.000; -556.000
357.555;  120.225; -217.000; -228.000
357.688;  127.750; -483.000; -364.000
357.820;  467.725; -870.000; -877.000
357.953; 3818.625; -563.000; -589.000
358.085;  834.150; -632.000; -612.000
358.218; 1214.450;-1131.000; -932.000
358.350;  211.300;  -58.000;  312.000
358.483; -119.925;-1300.000;-1187.000
358.615;  -16.550;-1182.000;-1078.000
358.747;  -34.700;-1187.000;-1058.000
358.880;   24.500; -810.000; -744.000
359.012;   -3.825; -376.000; -202.000
359.145;  -30.750; -480.000; -511.000
359.277;   67.650; -962.000; -913.000
359.409; 3151.350;  536.000;  231.000
359.542;  836.975; -738.000; -688.000
359.674;   62.000;   46.000;   13.000
359.806;  -54.925; -565.000; -438.000
359.939;  -43.825; -617.000; -516.000
360.071;  -20.475; -583.000; -579.000
360.203;  -41.350; -411.000; -364.000
360.335;   54.600;  164.000;  -16.000
360.468;  203.525; -249.000; -307.000
360.600; 2507.250; -547.000; -454.000
360.732; 2803.300; -546.000; -423.000
360.864;  378.925;-1216.000;-1044.000
360.996;  302.200; -516.000; -554.000
361.129;   49.750; -389.000; -598.000
361.261;   19.375;  110.000; -113.000
361.393;  -40.500; -252.000; -214.000
361.525;   28.500;   94.000;  244.000
361.657;  -42.025; -821.000; -703.000
361.789;   -3.375; -139.000; -155.000
361.921;  235.400; -642.000; -593.000
362.053;  269.000;  524.000;  541.000
362.185;   53.425;  288.000;   72.000
362.318;  -92.975; -709.000; -705.000
362.450;  116.200;  294.000;  444.000
362.582;  112.150; -913.000; -870.000
362.714;  -36.200; -353.000; -332.000
362.846;  -95.700; -606.000; -490.000
362.978; -137.650; -941.000; -811.000
363.109;   51.325; -161.000; -260.000
363.241;  459.050; -739.000; -749.000
363.373;  426.300; -649.000; -564.000
363.505;  642.075; -186.000;  -91.000
363.637;  142.200; -787.000; -601.000
363.769; -118.975;-1067.000;-1080.000
363.901;  -83.750; -596.000; -654.000
364.033; -117.625;-1103.000;-1062.000
364.165;    8.550; -283.000; -283.000
364.296;   76.475; -316.000; -177.000
364.428;   51.600;-1344.000;-1220.000
364.560;  -70.275; -679.000; -661.000
364.692;  -77.975; -738.000; -835.000
364.824;  254.425; -588.000; -456.000
364.955;  424.225; -402.000; -564.000
365.087;  899.325;-1097.000; -852.000
365.219;   21.625; -686.000; -816.000
365.351;  -60.125; -526.000; -572.000
365.482;   45.775;  300.000;  240.000
365.614;  -34.200; -402.000; -314.000
365.746; -101.350; -729.000; -752.000
365.877; -102.575; -706.000; -672.000
366.009;  238.075;  -35.000;  -62.000
366.141;  -90.175;-1249.000;-1134.000
366.272; -102.900; -803.000; -719.000
366.404; -131.125;-1005.000; -874.000
366.535;  -13.450; -139.000;  -12.000
366.667; -106.800; -644.000; -649.000
366.799;   52.925;  353.000;  203.000
366.930; -106.400; -862.000; -996.000
367.062;  108.375; -639.000; -613.000
367.193;  146.850; -872.000; -842.000
367.325;  -69.975; -580.000; -684.000
367.456;   66.450; -246.000;   31.000
367.588;  151.250; -371.000; -318.000
367.719;   29.750;  -44.000;  -45.000
367.851;  -15.850; -222.000; -241.000
367.982;  -46.425; -875.000; -732.000
368.113;   90.950; -475.000; -358.000
368.245; -118.225; -960.000; -841.000
368.376;  -18.900; -254.000; -302.000
368.508;  -21.050; -188.000; -263.000
368.639; -132.475;-1166.000;-1034.000
368.770;  -24.675; -670.000; -589.000
368.902;  -61.725; -836.000; -926.000
369.033; -106.050; -906.000; -855.000
369.164;  -51.875; -720.000; -653.000
369.296; -103.175; -452.000; -601.000
369.427;  -12.975; -209.000; -144.000
369.558;  -61.825; -593.000; -377.000
369.689;  -92.300; -721.000; -569.000
369.821; -127.375; -951.000; -845.000
369.952;  -28.275;   42.000; -108.000
370.083;  -34.100; -229.000; -108.000
370.214;  -88.475; -735.000; -650.000
370.345;   -0.700;   65.000;   81.000
370.477; -105.800; -810.000; -790.000
370.608;  243.950; -328.000; -264.000
370.739;  -46.900;-1233.000;-1292.000
370.870;  -41.550;-1102.000; -923.000
371.001;   94.150; -378.000; -467.000
371.132;  -72.850; -754.000; -735.000
371.263;  -11.775;  -42.000; -148.000
371.394; -122.875; -841.000; -748.000
371.525;   30.700;  345.000;  225.000
371.657;  -89.150; -808.000; -670.000
371.788;   60.375;  103.000;  199.000
371.919;  168.650; -384.000; -304.000
372.050; 3741.700;  -91.000; -156.000
372.181; 1114.775; -188.000; -294.000
372.311;  366.075;   42.000; -127.000
372.442;   40.425; -457.000; -451.000
372.573;  -21.375; -444.000; -340.000
372.704; -129.075;-1008.000; -980.000
372.835;   79.250; -228.000; -289.000
372.966;  -58.825; -646.000; -554.000
373.097;  -74.150; -575.000; -711.000
373.228;  -34.400; -717.000; -542.000
373.359;  142.400; -824.000; -536.000
373.490;  974.550; -881.000; -727.000
373.620; 1210.000;-1001.000; -803.000
373.751; 1859.375; -332.000; -396.000
373.882;  838.600; -663.000; -733.000
374.013;   71.975; -449.000; -262.000
374.143;  -39.175; -581.000; -659.000
374.274; -100.000; -987.000; -908.000
374.405;  190.350; -388.000; -276.000
374.536;  464.450; -526.000; -387.000
374.666; 1167.900; -759.000; -807.000
374.797;  232.775; -817.000; -868.000
374.928;  899.000; -710.000; -560.000
375.058;  940.275; -535.000; -500.000
375.189;   82.375;  -59.000;  -93.000
375.320;  -93.150; -928.000;-1034.000
375.450;  -41.700; -625.000; -616.000
375.581;  -38.925; -526.000; -436.000
375.712;  -30.375; -574.000; -250.000
375.842;  308.925; -438.000; -415.000
375.973;  214.975; -554.000; -513.000
376.103;  -35.625; -665.000; -648.000
376.234;  -80.675; -531.000; -552.000
376.364;  -19.725; -944.000; -867.000
376.495;  325.850;  925.000;  529.000
376.625;    1.950; -472.000; -485.000
376.756;   59.850; -709.000; -678.000
376.886;  -62.650;-1178.000;-1026.000
377.017;   40.800;-1048.000;-1061.000
377.147;  343.725; -786.000; -782.000
377.278;   51.625;  174.000;  228.000
377.408; -118.850; -801.000; -815.000
377.538; -108.600; -707.000; -693.000
377.669;  -86.250; -537.000; -613.000
377.799;  -97.450; -645.000; -635.000
377.929;  -51.050; -610.000; -428.000
378.060; -134.700; -781.000; -847.000
378.190;  -46.125; -726.000; -531.000
378.320;  -62.325; -401.000; -406.000
378.451;    9.675; -131.000;  -22.000
378.581;   -8.325;  -67.000; -110.000
378.711;  143.000; 1035.000;  866.000
378.841;  -31.100; -533.000; -675.000
378.972;  -70.175; -871.000; -751.000
379.102;  -14.100; -652.000; -579.000
379.232;  -24.875; -126.000;  -73.000
379.362; -112.225;-1001.000; -885.000
379.492;   13.850; -373.000; -424.000
379.623;  105.425;    0.000;  111.000
379.753; -102.625;-1107.000; -974.000
379.883;  201.300;   59.000;  156.000
380.013;   12.200;-1081.000;-1017.000
380.143; -102.525;-1097.000;-1056.000
380.273;  -95.125; -985.000; -861.000
380.403;   -6.375; -344.000; -257.000
380.533;  -30.950; -651.000; -664.000
380.663;   66.250;  173.000;  128.000
380.793;  -99.775;-1027.000;-1074.000
380.923;  -30.950; -103.000;  -34.000
381.053; -100.950; -613.000; -623.000
381.183;  -36.325; -106.000; -248.000
381.313;   41.400; -656.000; -470.000
381.443;   38.700; -692.000; -473.000
381.573;  220.450; -402.000; -409.000
381.703;  280.775;-1249.000;-1095.000
381.833; -126.625;-1454.000;-1336.000
381.963;   92.350; -134.000;  -87.000
382.093; 1457.100; -925.000; -909.000
382.223;  448.600; -713.000; -602.000
382.353;  -22.325; -801.000; -608.000
382.482;  386.150;-1091.000; -964.000
382.612;  814.825; -872.000; -644.000
382.742;  444.050; -695.000; -622.000
382.872;  288.750; -565.000; -551.000
383.002;   52.450;  347.000; -132.000
383.131;  -31.400; -226.000; -160.000
383.261;  -37.875; -706.000; -768.000
383.391;  285.300; -552.000; -377.000
383.521; 3105.025;  451.000;  263.000
383.650;  748.875; -947.000; -904.000
383.780;  -23.750; -783.000; -656.000
383.910;  110.525;  880.000;  802.000
384.039;   20.800; -794.000; -656.000
384.169;  221.475;-1205.000;-1017.000
384.299;  -31.350; -650.000; -662.000
384.428;  -98.350; -764.000; -680.000
384.558;  -47.175; -308.000; -275.000
384.687;  -53.000; -414.000; -334.000
384.817;   -1.900;   75.000;   -2.000
384.947;   10.400; -234.000; -141.000
385.076;  285.825;  982.000;  912.000
385.206;  105.250;  369.000;  480.000
385.335;  -47.400; -549.000; -417.000
385.465;  -75.300; -655.000; -663.000
385.594;  137.425;  -53.000;  -44.000
385.724;  429.175; -868.000; -838.000
385.853;  119.975; -296.000; -270.000
385.982; 1420.525; -743.000; -787.000
386.112; 2224.375;-1052.000; -871.000
386.241;  149.075; -307.000; -312.000
386.371;   18.625; -174.000;  -87.000
386.500;   -1.625; -825.000; -789.000
386.629;   23.100; -874.000; -817.000
386.759;   60.175;  -43.000;   68.000
386.888;  -21.475; -170.000; -250.000
387.017;  -87.700; -648.000; -620.000
387.147;  -89.675; -771.000; -798.000
387.276;    5.825; -410.000; -397.000
387.405;    1.300; -398.000; -342.000
387.535;  -43.675; -452.000; -361.000
387.664;  -73.850; -692.000; -620.000
387.793;   60.550; -198.000; -113.000
387.922;  524.325;  255.000;  200.000
388.052;   32.175; -576.000; -423.000
388.181;    6.550; -342.000; -472.000
388.310;   14.850; -889.000; -710.000
388.439;  -47.025; -749.000; -742.000
388.568;  187.950;  365.000;  244.000
388.697; 1092.175; -756.000; -653.000
388.826;  232.225; -768.000; -666.000
388.956;   39.750; -285.000; -307.000
389.085;  -36.225; -347.000; -287.000
389.214; -115.950; -842.000; -872.000
389.343;  -65.425; -645.000; -413.000
389.472;  373.575;  126.000;  149.000
389.601;  524.175;   91.000;    0.000
389.730;    3.650; -568.000; -687.000
389.859;   59.925;  226.000;   46.000
389.988;  182.700; -423.000; -408.000
390.117;  139.525; -168.000; -146.000
390.246;   -5.650; -331.000; -320.000
390.375;  104.925; -673.000; -626.000
390.504;  -56.975; -703.000; -621.000
390.633; -111.275; -672.000; -726.000
390.761;  -71.450; -732.000; -645.000
390.890;   24.000;   -4.000; -130.000
391.019;  -38.700; -421.000; -441.000
391.148; -123.600; -826.000; -855.000
391.277;  -81.250; -576.000; -493.000
391.406;  -81.275; -821.000; -805.000
391.534;   28.925;  574.000; -301.000
391.663;  -56.525; -583.000; -645.000
391.792;  -80.600; -673.000; -701.000
391.921;   96.075;   -3.000;   15.000
392.050;  184.825; -287.000; -228.000
392.178;  -42.800;-1206.000;-1061.000
392.307;  166.050; -758.000; -712.000
392.436;   80.250; -427.000; -641.000
392.564;   13.675;  166.000;   -6.000
392.693;  -91.325; -860.000; -682.000
392.822;  208.025; -529.000; -534.000
392.950;   93.150; -880.000; -714.000
393.079;  337.325; -188.000; -328.000
393.208;   33.350; -488.000; -511.000
393.336;  -14.850; -170.000; -145.000
393.465;  -49.100; -317.000; -199.000
393.593;   -1.475;   62.000;   79.000
393.722; -156.300;-1121.000; -916.000
393.850;  -32.875; -188.000;  -61.000
393.979; -155.925; -926.000; -805.000
394.107;  -64.950; -517.000; -537.000
394.236;  -27.150; -570.000; -507.000
394.364;  192.725;  383.000;  206.000
394.493;  322.600; -911.000; -767.000
394.621;  -19.875; -955.000; -916.000
394.750;  696.575; -873.000; -923.000
394.878; 2874.700; -247.000; -149.000
395.007; 3955.675; -721.000; -807.000
395.135;  292.475; -790.000; -721.000
395.263;  -91.150;-1038.000;-1040.000
395.392;   -5.425;  -25.000; -107.000
395.520; -134.800; -818.000; -679.000
395.648;  -99.475; -865.000; -915.000
395.777;  -23.350; -366.000; -405.000
395.905;  -54.700; -449.000; -564.000
396.033;   16.850;  217.000;  172.000
396.162;  527.300; -399.000; -453.000
396.290;  467.450;  -17.000;   -2.000
396.418;  104.475; -555.000; -514.000
396.546;  -77.825; -571.000; -466.000
396.674; -113.125; -850.000; -878.000
396.803;   11.025;  -72.000;  -23.000
396.931;   89.150; -179.000; -199.000
397.059;   47.600;-1026.000; -989.000
397.187; -124.900;-1026.000; -975.000
397.315; -127.825; -884.000; -649.000
397.443; -108.775; -592.000; -443.000
397.572; -105.225; -578.000; -424.000
397.700;  -10.700; -607.000; -614.000
397.828;    9.125;  120.000;  -90.000
397.956;  -67.450; -508.000; -478.000
398.084;  -78.225; -767.000; -626.000
398.212;   15.500;  137.000;  124.000
398.340;   18.400;  -56.000;  159.000
398.468;   14.175; -390.000; -169.000
398.596; -127.850; -993.000; -953.000
398.724; -135.700; -762.000; -767.000
398.852; -173.500;-1024.000; -976.000
398.980;  -57.300; -560.000; -560.000
399.108;  -48.375; -982.000; -735.000
399.236;   38.225;   13.000;    8.000
399.363;   21.300;  222.000;  196.000
399.491;  -75.475; -404.000; -398.000
399.619; -124.475; -829.000; -800.000
399.747; -109.975; -859.000; -771.000
399.875;   75.800;  220.000;  234.000
400.003;  -49.825; -359.000; -284.000
400.130; -101.200; -421.000; -341.000
400.258;  -48.175;  -83.000;   38.000
400.386;  -74.200; -352.000; -168.000
400.514;  -58.525; -526.000; -587.000
400.641;  -85.175; -928.000; -802.000
400.769; -147.125; -979.000; -888.000
400.897; -115.600; -838.000; -793.000
401.025;  -32.575; -166.000; -152.000
401.152;   -2.625;  220.000;   38.000
401.280;  -80.200; -430.000; -429.000
401.408; -122.275; -712.000; -576.000
401.535; -109.600; -735.000; -758.000
401.663; -198.500;-1134.000;-1054.000
401.790;  -87.200; -514.000; -525.000
401.918;   42.850;  436.000;  405.000
402.046;   -7.775;  134.000;  122.000
402.173;  -45.325;  -18.000;    7.000
402.301;  -66.550; -519.000; -397.000
402.428;   42.375;  528.000;  383.000
402.556; -138.125;-1188.000; -913.000
402.683;  -37.750;  -20.000;   -1.000
402.811;  -49.850;  -37.000; -206.000
402.938;  -23.800;   20.000;   27.000
403.066;  206.675; -574.000; -558.000
403.193;  354.450;  299.000;  239.000
403.321;  258.475; -396.000; -574.000
403.448;  338.125;   83.000;   27.000
403.575;  155.225;  -90.000;  -46.000
403.703; -102.550; -732.000; -557.000
403.830;  -75.200; -531.000; -496.000
403.957; -137.725;-1117.000;-1023.000
404.085;   10.250;  -61.000; -172.000
404.212;  105.125;  -50.000;   63.000
404.339;  247.725; -566.000; -306.000
404.467; 5697.525; -612.000; -524.000
404.594; 3798.325; -287.000; -227.000
404.721;  920.075; -869.000; -764.000
404.848;   60.875; -113.000; -202.000
404.976; -109.200; -856.000; -783.000
405.103;  -29.400;  -14.000;  -82.000
405.230;   -3.175;  190.000;  226.000
405.357;   14.950;  117.000;   44.000
405.484;  252.475;  -49.000;    5.000
405.612;   45.625; -548.000; -563.000
405.739;  -60.700; -488.000; -243.000
405.866;   73.525;  669.000;  385.000
405.993;  -45.625; -398.000; -102.000
406.120; -143.975; -801.000; -887.000
406.247;  -65.625; -323.000; -342.000
406.374;  450.025;  540.000;  629.000
406.501;  105.100; -632.000; -702.000
406.628;  -84.425; -621.000; -589.000
406.755; -100.375; -803.000; -620.000
406.882;  -61.650; -228.000; -277.000
407.009; -110.650; -719.000; -628.000
407.136;   45.600; -480.000; -401.000
407.263;  155.000; -939.000; -829.000
407.390;  -78.350; -692.000; -614.000
407.517; -159.825;-1139.000;-1187.000
407.644;  -57.100; -332.000; -256.000
407.771;  -61.100; -249.000; -287.000
407.898;    3.875;  168.000;  328.000
408.025;  -65.725; -421.000; -313.000
408.151;  -30.000;   82.000;  153.000
408.278;  -77.150; -267.000; -216.000
408.405; -119.450; -931.000; -899.000
408.532;  -72.825; -549.000; -542.000
408.659; -118.050; -677.000; -648.000
408.785; -197.725;-1298.000;-1170.000
408.912;  -69.875; -412.000; -296.000
409.039; -104.225; -610.000; -686.000
409.166; -120.200; -591.000; -555.000
409.292; -106.350; -571.000; -534.000
409.419; -129.450; -665.000; -649.000
409.546;  -86.575; -431.000; -192.000
409.672; -116.200; -713.000; -545.000
409.799;  -23.450;  -36.000;   34.000
409.926;  -47.425; -180.000; -179.000
410.052; -176.725;-1127.000;-1091.000
410.179;  -59.300; -368.000; -392.000
410.305;  -93.250; -375.000; -493.000
410.432;  -51.450; -220.000; -333.000
410.558;  -93.775; -305.000; -380.000
410.685; -105.050; -688.000; -431.000
410.812;  -92.950; -409.000; -588.000
410.938; -151.500; -964.000; -808.000
411.065; -106.900; -671.000; -645.000
411.191;  -34.625; -189.000; -174.000
411.317; -116.700; -823.000; -742.000
411.444;  -66.900; -317.000; -246.000
411.570;  -77.350; -339.000; -294.000
411.697; -125.050; -758.000; -752.000
411.823; -177.950; -989.000; -999.000
411.949;  -33.275;  -56.000;   17.000
412.076; -117.350; -539.000; -519.000
412.202; -120.175; -758.000; -757.000
412.329; -122.150; -798.000; -752.000
412.455; -119.900; -821.000; -657.000
412.581;  -33.725;  -15.000;  172.000
412.707;  -68.850; -540.000; -457.000
412.834;   19.300;  156.000;  219.000
412.960;  -79.100; -785.000; -784.000
413.086;  -97.850; -743.000; -701.000
413.212;  152.725;  604.000;  578.000
413.339;  -65.600; -685.000; -701.000
413.465;   -9.400; -364.000; -310.000
413.591;  -84.375; -757.000; -474.000
413.717;  -60.225; -358.000; -366.000
413.843; -135.425; -839.000; -861.000
413.969;  -72.425;  -47.000; -292.000
414.096;  -97.825; -679.000; -679.000
414.222;  -23.850;  -33.000;   85.000
414.348;   -6.350; -652.000; -385.000
414.474;  102.600;   38.000;  -52.000
414.600;  -12.875; -126.000; -144.000
414.726;  -33.075;  -96.000;  -55.000
414.852;  -63.875; -365.000; -342.000
414.978;   29.725;  104.000;  -18.000
415.104;   35.750;   38.000;   80.000
415.230;    7.900; -329.000; -330.000
415.356;   32.175; -409.000; -514.000
415.482;  197.050;   13.000;  -35.000
415.608;  268.275; -247.000; -323.000
415.734;  949.825;   67.000;   38.000
415.860;19767.125; -875.000; -767.000
415.986;14492.775; -685.000; -607.000
416.111; 1247.025; -798.000; -652.000
416.237;  245.650; -424.000; -571.000
416.363; 1093.375; -765.000; -733.000
416.489; 4084.925; -324.000; -251.000
416.615;  451.200; -707.000; -742.000
416.741;  -34.750; -677.000; -784.000
416.866;  -84.625; -673.000; -736.000
416.992; -118.675; -801.000; -818.000
417.118;  -32.450;  -41.000;  -80.000
417.244;  -71.325; -798.000; -531.000
417.369;  -80.050; -801.000; -612.000
417.495;  -23.275; -325.000; -254.000
417.621;  -89.700;-1015.000; -803.000
417.746;  -16.600; -579.000; -572.000
417.872;   43.500; -254.000; -144.000
417.998;   39.325; -515.000; -530.000
418.123; 1007.125;-1073.000; -845.000
418.249; 5331.150; -512.000; -601.000
418.374;  736.700; -916.000; -824.000
418.500;   92.800; -383.000; -482.000
418.626;  113.750;   70.000;  -59.000
418.751;  128.400; -549.000; -448.000
418.877;  186.925; -637.000; -643.000
419.002; 1728.375; -688.000; -560.000
419.128;12374.325; -930.000; -721.000
419.253; 3052.850; -967.000; -837.000
419.379;  401.025; -391.000; -338.000
419.504;  383.625;  325.000;  415.000
419.629;  505.025; -393.000; -212.000
419.755; 3490.525; -317.000; -254.000
419.880;20769.175;  -98.000;   67.000
420.006;11260.000; -280.000; -221.000
420.131;29107.950; -662.000; -775.000
420.256; 4254.175; -315.000; -316.000
420.382;  543.600; -665.000; -687.000
420.507;   56.850; -649.000; -778.000
420.632;  129.000; -337.000; -339.000
420.758;  246.375; -251.000; -425.000
420.883;  -87.000; -876.000; -672.000
421.008; -111.850; -775.000; -619.000
421.133;  -82.150; -509.000; -467.000
421.259;  -65.575; -325.000; -259.000
421.384; -125.075; -834.000; -693.000
421.509;  -52.800;-1052.000; -862.000
421.634; 1186.550; -936.000; -820.000
421.759;  535.125; -359.000; -327.000
421.885;  -44.650; -717.000; -656.000
422.010;  -77.375; -673.000; -542.000
422.135; -156.575; -695.000; -727.000
422.260;   14.750;  340.000;  280.000
422.385;  -39.200;   12.000;  -98.000
422.510;  -18.900;  151.000;  -26.000
422.635;   13.875;  -87.000;  -43.000
422.760;   94.175; -766.000; -791.000
422.885;   59.700;  -57.000;  -80.000
423.010;  -50.150; -112.000; -169.000
423.135;  -87.225; -481.000; -561.000
423.260;  -19.200; -150.000; -245.000
423.385;   84.750;  476.000;  222.000
423.510;   16.175;   71.000;  -22.000
423.635;   60.925;  133.000;   45.000
423.760;   55.500;  383.000;  328.000
423.885;   52.150;  336.000;  391.000
424.010;    7.275;  -68.000;  -13.000
424.135;  -15.350;    5.000;  -33.000
424.259;  -94.050; -654.000; -457.000
424.384;  -59.400; -279.000; -272.000
424.509;  -34.500; -260.000; -186.000
424.634;  -96.675; -761.000; -623.000
424.759;  -38.675; -688.000; -544.000
424.883;  -11.475; -506.000; -527.000
425.008;  176.150; -502.000; -410.000
425.133; 1955.950; -679.000; -653.000
425.258;  913.825; -517.000; -381.000
425.382; 1068.250; -867.000; -774.000
425.507; 2703.675; -487.000; -543.000
425.632;  440.175; -802.000; -663.000
425.756;  444.725; -256.000; -146.000
425.881; 6380.825; -831.000; -857.000
426.006;17481.050; -604.000; -355.000
426.130; 2741.175; -696.000; -508.000
426.255;  343.700; -611.000; -491.000
426.379;  154.800; -189.000; -577.000
426.504;  345.600;  660.000;  544.000
426.629; 3989.400; -519.000; -466.000
426.753; 2773.600;   64.000;  -46.000
426.878;  331.825; -252.000; -288.000
427.002;  136.050; -651.000; -668.000
427.127; 1573.050;  -35.000; -158.000
427.251;11204.300;  372.000;  401.000
427.375; 3246.850; -191.000; -173.000
427.500; 2372.275; -616.000; -610.000
427.624;  826.650; -234.000; -400.000
427.749;   93.375; -216.000; -225.000
427.873;  -47.750; -499.000; -412.000
427.997;  -44.550; -222.000; -230.000
428.122;   69.475;  795.000;  703.000
428.246;   65.625;  433.000;  434.000
428.371; -116.625; -869.000; -773.000
428.495; -111.825; -624.000; -646.000
428.619;  -50.325; -186.000; -117.000
428.743;   32.125;   65.000;  132.000
428.868;   20.025; -732.000; -643.000
428.992; 1437.725; -219.000; -326.000
429.116;  606.275; -329.000; -357.000
429.240;  272.675;  419.000;  426.000
429.365;  -23.725; -454.000; -574.000
429.489;  -39.800; -638.000; -647.000
429.613;   24.000; -236.000; -177.000
429.737;   34.150; -563.000; -432.000
429.861;  255.925; -247.000; -133.000
429.985; 5476.325; -425.000; -305.000
430.109; 6067.675; -770.000; -908.000
430.234;  704.875;   76.000;  -50.000
430.358;   75.225; -250.000; -160.000
430.482;  -75.725; -672.000; -564.000
430.606;  -68.850; -655.000; -375.000
430.730;  -11.450; -437.000; -388.000
430.854;  131.825; -909.000; -835.000
430.978;  -79.575; -795.000; -764.000
431.102;  -87.150; -499.000; -422.000
431.226; -122.000; -874.000; -815.000
431.350;   23.025;  345.000;  422.000
431.474;  -91.000; -661.000; -373.000
431.597; -149.075;-1060.000; -848.000
431.721;  -80.950; -276.000; -267.000
431.845; -121.375; -704.000; -472.000
431.969;  -91.700; -304.000; -349.000
432.093;  -76.425; -395.000; -317.000
432.217;  -24.375;   32.000;   82.000
432.341;  -94.750; -523.000; -518.000
432.464;   -7.975;   96.000;   40.000
432.588;  202.200; -401.000; -329.000
432.712;   95.025;  -52.000;  -52.000
432.836;   48.800;  213.000;  263.000
432.959;  -33.150; -372.000; -311.000
433.083;   84.275;   11.000;    2.000
433.207;  361.400;  285.000;  930.000
433.330; 4981.500; -391.000; -200.000
433.454; 6140.125; -654.000; -638.000
433.578; 3545.475;  583.000;  278.000
433.701;  648.125; -623.000; -675.000
433.825;  130.625; -292.000; -299.000
433.949;  169.775;   28.000;  -72.000
434.072;   61.225; -410.000; -323.000
434.196;  -17.450; -309.000; -117.000
434.319; 3753.950;25482.000;25124.000
434.443;  690.075; -656.000; -603.000
434.566; 2626.150;  281.000;   62.000
434.690;  416.825; -637.000; -383.000
434.813;   35.650; -251.000; -173.000
434.937;  -80.150; -569.000; -696.000
435.060;  -50.225; -423.000; -332.000
435.184;  326.950; -492.000; -217.000
435.307;  165.750;  159.000;  102.000
435.431;  -24.125;  -40.000;   24.000
435.554;  -78.450; -399.000; -240.000
435.677;  -92.300; -350.000; -258.000
435.801;  -38.475;  -25.000;   49.000
435.924;  -24.550;    1.000;  -67.000
436.048; -123.625;-1019.000; -732.000
436.171;  -72.350; -240.000;  -66.000
436.294;  -37.500; -248.000; -229.000
436.417;   84.575; -963.000; -849.000
436.541;  -81.075; -814.000; -840.000
436.664;  -47.750; -242.000; -316.000
436.787;  -34.575;   13.000;  113.000
436.910; -122.575; -792.000; -422.000
437.034;    4.000;  142.000;  143.000
437.157;   48.750;  -11.000;    0.000
437.280;  -48.025; -392.000; -292.000
437.403;  -94.025; -982.000; -869.000
437.526;  635.300; -903.000; -865.000
437.649; 2375.250; -505.000; -332.000
437.772;  355.925; -692.000; -540.000
437.896;  106.900;  700.000;  544.000
438.019; -100.325; -758.000; -503.000
438.142; -110.900; -596.000; -506.000
438.265;  -24.525; -639.000; -670.000
438.388;  579.050; -520.000; -410.000
438.511;  105.225; -597.000; -394.000
438.634;  -63.150; -247.000; -125.000
438.757; -131.500; -693.000; -619.000
438.880;  -38.925;  -34.000;  -57.000
439.003;  -81.425; -417.000; -437.000
439.126;  -76.000; -287.000; -167.000
439.248;  -77.250;  -98.000; -139.000
439.371;  -51.250;    9.000;  -53.000
439.494;   38.075;  510.000;  439.000
439.617;  -53.600;   65.000;  -88.000
439.740; -172.725; -968.000; -816.000
439.863; -154.025; -755.000; -595.000
439.986; -122.725; -476.000; -431.000
440.108;  -53.075; -161.000; -112.000
440.231; -156.925; -950.000; -836.000
440.354;  -35.725;  -64.000; -150.000
440.477;   15.625; -566.000; -542.000
440.599;    0.300; -200.000; -225.000
440.722; -117.800; -709.000; -586.000
440.845;   49.275;  751.000;  928.000
440.968; -104.400; -415.000; -311.000
441.090;  -88.475; -199.000;  -33.000
441.213; -172.000;-1021.000; -825.000
441.336;  -62.975; -159.000;   -5.000
441.458;  -82.825; -549.000; -396.000
441.581;  -87.600; -628.000; -629.000
441.703;  -65.400; -152.000;   13.000
441.826; -118.600; -557.000; -400.000
441.948;  -58.800;   56.000;   51.000
442.071;   18.575;  555.000;  424.000
442.193; -114.450; -531.000; -485.000
442.316;   14.350;  152.000;   97.000
442.438;   49.550; -233.000;  -10.000
442.561;   63.500;  272.000;  262.000
442.683;  536.100; -809.000; -522.000
442.806; 1189.950;   -8.000;   74.000
442.928;   31.925; -859.000; -604.000
443.051;  -78.100; -577.000; -373.000
443.173;  -82.125; -341.000; -339.000
443.295;  -94.875; -263.000; -371.000
443.418;  -63.700; -321.000;  -29.000
443.540;  -23.150; -106.000;   -4.000
443.662; -116.825; -563.000; -465.000
443.785;  -19.625;  335.000;  199.000
443.907;  -97.200; -362.000; -208.000
444.029; -136.375; -767.000; -494.000
444.152; -145.125; -644.000; -554.000
444.274;  -36.050;  -18.000;  -24.000
444.396; -110.900; -461.000; -221.000
444.518; -142.475; -691.000; -454.000
444.640; -114.875; -268.000; -111.000
444.763;  -27.675;  388.000;  249.000
444.885; -128.425; -432.000; -392.000
445.007;  -38.550;   35.000;   86.000
445.129; -124.500; -610.000; -515.000
445.251; -103.850; -372.000; -439.000
445.373; -132.175; -537.000; -386.000
445.495;  -17.150;  242.000;  350.000
445.617;   51.250;  853.000;  753.000
445.739;  -58.600; -215.000;  -97.000
445.861;  -36.500; -245.000; -112.000
445.984;  -46.750; -267.000; -101.000
446.105;  207.775; -418.000; -251.000
446.227;  644.925; -176.000;  -19.000
446.349;   14.425; -358.000; -249.000
446.471; -104.675; -615.000; -448.000
446.593;  -69.225; -316.000;   19.000
446.715;   -1.500;  -67.000;   41.000
446.837;   54.425;  697.000;  832.000
446.959; -103.200; -457.000; -478.000
447.081; -132.200; -628.000; -518.000
447.203;   55.000;  862.000;  834.000
447.325; -104.350; -270.000;   42.000
447.446;  -10.075;  286.000;  530.000
447.568; -156.825; -921.000; -803.000
447.690;  -91.425; -236.000; -245.000
447.812; -143.800; -798.000; -519.000
447.933;  -24.875;  155.000;  127.000
448.055;  -63.300; -306.000; -261.000
448.177;  130.750;   31.000;   79.000
448.299;   95.975; -935.000; -727.000
448.420;   11.425;  -25.000;  159.000
448.542;  -52.825;   -3.000;   33.000
448.664;  -37.100;  109.000;  322.000
448.785;  -46.150;  265.000;   83.000
448.907;  -84.275; -614.000; -353.000
449.028;  -30.700; -771.000; -471.000
449.150;   60.900;  492.000;  589.000
449.272; -172.075;-1044.000; -913.000
449.393;   29.225;  612.000;  694.000
449.515; -146.425; -634.000; -581.000
449.636;  -70.725; -264.000; -155.000
449.758;   85.275;  763.000;  622.000
449.879;  -90.475; -498.000; -396.000
450.001;  -79.125; -149.000;  -49.000
450.122;  -31.875;  -95.000;  162.000
450.244;  -21.000;   37.000;  364.000
450.365; -106.325; -495.000; -301.000
450.486;  -25.900;   80.000;  268.000
450.608;   13.500;  393.000;  326.000
450.729;   68.600;  578.000;  645.000
450.850;   -3.250; -574.000; -466.000
450.972;  707.175; -552.000; -389.000
451.093; 4815.275;  190.000;  588.000
451.214; 2120.400; -516.000; -337.000
451.336;  387.425;  773.000;  579.000
451.457;   55.100;  264.000;  393.000
451.578;  -42.850; -118.000;  -74.000
451.699; -135.075; -546.000; -540.000
451.821;  -64.800; -284.000;  -50.000
451.942;  -25.275;  278.000;  285.000
452.063;   29.125;  228.000;  419.000
452.184;  535.050;  -54.000;  -49.000
452.305; 1056.850;  103.000;  170.000
452.427;  123.675; -549.000; -301.000
452.548;  -19.300;   23.000;   79.000
452.669;  -40.175; -257.000;  -89.000
452.790;  -46.850;    3.000;  -18.000
452.911;    4.500;  195.000;  259.000
453.032;  -70.700; -289.000;  -60.000
453.153;  -40.250;  -29.000;   81.000
453.274;   52.400;  737.000;  868.000
453.395;  -65.400;  -51.000;  175.000
453.516;    6.750; 1317.000; 1388.000
453.637;  -62.600; -205.000; -150.000
453.758;  -46.625;   15.000;   69.000
453.879; -123.025; -462.000; -250.000
454.000;   68.750; 1086.000;  948.000
454.121; -113.050; -554.000; -326.000
454.242; -123.400; -599.000; -383.000
454.362;  -56.375;  -99.000;  114.000
454.483;  -49.950; -309.000; -229.000
454.604;   50.200;  512.000;  580.000
454.725; -137.800; -627.000; -555.000
454.846; -144.325; -474.000; -406.000
454.967;  -33.425;  230.000;  539.000
455.087;  -40.875;  179.000;  153.000
455.208;   15.200;  554.000;  856.000
455.329;  -66.150;  -22.000;   82.000
455.450;   32.125;  473.000;  633.000
455.570;  -80.275; -234.000; -211.000
455.691;  -46.725;  201.000;  407.000
455.812; -110.525; -270.000;  -92.000
455.932;  -74.550;  107.000;  -97.000
456.053;  -89.775;   36.000;   24.000
456.173; -120.800; -433.000; -355.000
456.294; -150.775; -476.000; -303.000
456.415;  -70.025;  -73.000;   70.000
456.535;  -39.000;  297.000;  273.000
456.656;  -42.150;  132.000;  240.000
456.776;  -57.000;    3.000;  298.000
456.897;   -3.775;  308.000;  513.000
457.017;  -77.550; -153.000;   -3.000
457.138; -115.800; -402.000; -249.000
457.258;  -25.175;  263.000;  224.000
457.379;  -14.675;  509.000;  521.000
457.499;  -29.700;  443.000;  432.000
457.620; -130.175; -407.000; -231.000
457.740;  -97.600; -132.000;  -11.000
457.860;  -60.125;   87.000;   44.000
457.981;  -39.650;  132.000;  124.000
458.101;  -90.350;  -89.000;   40.000
458.221;  -17.100;  336.000;  402.000
458.342;  -68.175;   -4.000;  -37.000
458.462;    8.775;  617.000;  352.000
458.582;  -51.725; -302.000; -294.000
458.703;   11.375;  303.000;  154.000
458.823;  -35.275;   22.000;  163.000
458.943;   22.750;  341.000;  467.000
459.063;  -30.900; 1124.000;  192.000
459.183;  -22.025;  328.000;  313.000
459.304;  -17.325;  315.000;  517.000
459.424;  -75.050; -246.000;  -89.000
459.544;  316.225;  388.000;  764.000
459.664;  809.175;  499.000;  506.000
459.784;  310.450; 1004.000; 1175.000
459.904;   57.375;  867.000;  744.000
460.024;   52.675;  867.000;  684.000
460.144;   17.575;  449.000;  554.000
460.264;  -15.350;  515.000;  327.000
460.385;  -92.100; -145.000; -119.000
460.505;   35.175;  905.000;  858.000
460.625;  -85.900;  -17.000;  -68.000
460.745;  -35.700;  396.000;  541.000
460.864;  -37.250;  153.000;  469.000
460.984;   -1.875;  499.000;  573.000
461.104;  122.850; 1656.000; 1775.000
461.224;   10.625;  657.000;  650.000
461.344;  -40.625;  431.000;  360.000
461.464;  -44.850;  258.000;  513.000
461.584;  -22.600;  283.000;  466.000
461.704;  -62.125;   58.000;  108.000
461.824;  -59.825;  238.000;  259.000
461.943;  -49.875;  191.000;  130.000
462.063;  -80.375;    2.000;  324.000
462.183;   13.950;  639.000;  717.000
462.303;  113.125; 1678.000; 1230.000
462.422;   25.650;  781.000;  840.000
462.542;  -57.375;  271.000;  391.000
462.662;   21.600;  353.000;  380.000
462.782;  240.450;  833.000;  572.000
462.901;  477.625;  545.000;  717.000
463.021;  264.350; 1702.000; 1638.000
463.141;  -13.400;  337.000;  770.000
463.260;  -21.525;  614.000;  474.000
463.380;    6.550;  902.000;  884.000
463.499;  -41.850;  342.000;  332.000
463.619;  -46.825;  581.000;  559.000
463.738;  110.575; 1644.000;  903.000
463.858;    2.875;  657.000;  811.000
463.978;  -28.075;  542.000;  396.000
464.097;   41.550;  921.000; 1114.000
464.217;  109.700; 1196.000; 1143.000
464.336;   97.050; 1068.000; 1130.000
464.455;  -36.600;  328.000;  659.000
464.575;   31.375;  597.000;  602.000
464.694;  171.175; 1204.000; 1179.000
464.814;  123.075; 1190.000; 1138.000
464.933;   59.525; 1095.000; 1027.000
465.052;   97.275; 1412.000; 1054.000
465.172;   88.850;  922.000;  799.000
465.291;  131.025; 1376.000; 1320.000
465.410;   28.625;  462.000;  735.000
465.530;   82.050; 1355.000; 1310.000
465.649;   79.675; 1209.000; 1273.000
465.768;  123.950; 1673.000; 1508.000
465.888;   36.675;  941.000; 1174.000
466.007;   88.350; 1335.000; 1440.000
466.126;    0.675;  721.000;  641.000
466.245;   47.150; 1176.000; 1187.000
466.364;   19.650;  950.000; 1060.000
466.484;   48.725; 1024.000; 1213.000
466.603;   40.675; 1101.000; 1222.000
466.722;  118.825; 1490.000; 1769.000
466.841;   83.200; 1151.000; 1401.000
466.960;   27.025; 1069.000;  972.000
467.079;  136.625; 1971.000; 1786.000
467.198;   49.575; 1238.000; 1181.000
467.317;   88.300; 1768.000; 1162.000
467.436;   60.075; 1709.000; 1261.000
467.555;  100.525; 1796.000; 1746.000
467.674;   61.450; 1227.000; 1329.000
467.793;   57.550; 1376.000; 1374.000
467.912;   71.350; 1658.000; 1539.000
468.031;  143.425; 2038.000; 1930.000
468.150;  141.900; 1842.000; 1837.000
468.269;  200.975; 2313.000; 2090.000
468.388;  186.125; 2168.000; 2339.000
468.507;  256.600; 2884.000; 2903.000
468.626;  240.325; 2555.000; 2541.000
468.744;  154.750; 2018.000; 2174.000
468.863;  199.675; 2312.000; 2523.000
468.982;   83.325; 1503.000; 1555.000
469.101;  220.550; 2788.000; 2692.000
469.220;  127.100; 2333.000; 2176.000
469.338;  254.525; 2935.000; 3051.000
469.457;  193.250; 2719.000; 2545.000
469.576;  344.750; 3953.000; 3784.000
469.695;  245.975; 2877.000; 3066.000
469.813;  427.075; 4148.000; 4192.000
469.932;  405.300; 4255.000; 4485.000
470.051;  405.550; 4075.000; 4161.000
470.169;  834.625; 4470.000; 4338.000
470.288; 1445.000; 4700.000; 4809.000
470.406;  875.300; 5059.000; 5194.000
470.525;  647.825; 6101.000; 5787.000
470.644;  659.700; 6847.000; 6794.000
470.762;  802.500; 8397.000; 7873.000
470.881;  920.550; 8651.000; 8464.000
470.999; 1031.950; 9685.000; 9151.000
471.118; 1105.675;11174.000;10711.000

