
Integration time [ms]: 100.000
Averaging Nr. [scans]: 40
Smoothing Nr. [pixels]: 0
Data measured with spectrometer [name]: 2101012U2
Wave   ;Sample   ;Dark     ;Reference
[nm]   ;[counts] ;[counts] ;[counts] 

197.733;   64.950;  516.000;  404.000
197.879;  -68.350; -610.000; -634.000
198.025;  -50.575; -475.000; -420.000
198.171;  -56.925; -602.000; -612.000
198.317;  -41.450; -401.000; -316.000
198.463;  -56.650; -655.000; -404.000
198.609;   19.800;  181.000; -137.000
198.755;  -77.150; -644.000; -410.000
198.901;  -63.500; -505.000; -424.000
199.047;  -62.525; -615.000; -488.000
199.193;  -46.575; -230.000; -468.000
199.339;  -41.075; -222.000; -369.000
199.485;   30.100;  330.000;  271.000
199.631;   15.300;  227.000;  310.000
199.777;  -42.500; -466.000; -398.000
199.923;  -61.075; -610.000; -424.000
200.069;   -8.625; -141.000;  -58.000
200.215;   41.700;  128.000;  453.000
200.361;   42.850;  243.000;  477.000
200.507;  -49.575; -600.000; -373.000
200.653;  -19.400; -371.000; -194.000
200.798;  -35.975; -215.000; -125.000
200.944;   -3.875; -146.000;  -41.000
201.090;   35.700;   61.000;  222.000
201.236;   -6.325; -116.000; -158.000
201.382;  139.425;  874.000;  903.000
201.528;    5.250;  -58.000;  -48.000
201.674;  -33.625; -386.000; -293.000
201.819;  -72.725; -540.000; -439.000
201.965;  -75.450; -699.000; -447.000
202.111;  -20.000; -273.000; -226.000
202.257;  -32.275; -250.000; -238.000
202.402;   10.775;   13.000;  -36.000
202.548;  -21.075; -169.000; -116.000
202.694;   79.725;  410.000; -183.000
202.840;  -65.825; -603.000; -531.000
202.985;  -63.775; -681.000; -639.000
203.131;  -99.725; -832.000; -666.000
203.277;  -22.625; -199.000; -262.000
203.423;  -55.100; -434.000; -520.000
203.568;  -42.175; -462.000; -237.000
203.714;  -51.500; -535.000; -542.000
203.860;  -62.550; -682.000; -641.000
204.005;   13.525;  112.000;  167.000
204.151;   62.500;  561.000;  556.000
204.296;  -34.350; -354.000; -221.000
204.442;  -76.850; -600.000; -547.000
204.588;  -75.250; -592.000; -579.000
204.733;   16.150;  178.000;  168.000
204.879; -111.600;-1018.000; -822.000
205.025;   17.150;  -99.000;  126.000
205.170;   -3.950;  -17.000;   94.000
205.316;   61.225;  438.000;  661.000
205.461;  -70.650; -698.000; -554.000
205.607;   81.325;  609.000;  665.000
205.752;  -53.175; -626.000; -551.000
205.898;  -51.800; -501.000; -391.000
206.043;  -64.500; -578.000; -506.000
206.189;  -49.250; -243.000; -285.000
206.334;   52.000;  554.000;  606.000
206.480;   71.950;  409.000;  239.000
206.625;  -65.775; -529.000; -552.000
206.771;  -52.450; -451.000; -373.000
206.916;  -24.375; -210.000; -537.000
207.062;  -63.350; -545.000; -591.000
207.207;  -47.150; -546.000; -443.000
207.353;   48.500;  185.000;  460.000
207.498;   14.700;  196.000;   85.000
207.643;  -57.125; -501.000; -370.000
207.789; -122.700;-1069.000; -910.000
207.934;  -90.600; -665.000; -713.000
208.080;  -20.700; -154.000;   66.000
208.225;    1.050;  -22.000;  -57.000
208.370;  -77.000; -727.000; -619.000
208.516;  -77.575; -741.000; -487.000
208.661;  -26.950; -127.000;  -69.000
208.806;  -13.825; -165.000; -171.000
208.952; -116.650;-1044.000; -731.000
209.097;   63.000;  378.000;  349.000
209.242;  -31.325; -307.000; -382.000
209.387;   55.575;  392.000;  350.000
209.533;  -57.400; -321.000; -350.000
209.678;   61.250;  472.000;  543.000
209.823;  -46.075; -408.000; -310.000
209.969; -100.900; -860.000; -757.000
210.114; -104.275; -907.000; -719.000
210.259; -123.925; -939.000; -889.000
210.404;  -10.450; -171.000;  103.000
210.549;    7.525;  108.000;    3.000
210.695;   -5.400;   -3.000;  -95.000
210.840;   31.675;   94.000;   67.000
210.985;  -46.400; -484.000; -303.000
211.130;   65.050;  268.000;  406.000
211.275;    7.075;  207.000;  199.000
211.420;  -46.500; -300.000; -289.000
211.566;  -60.100; -536.000; -489.000
211.711;   23.925;  218.000;  157.000
211.856;  -71.250; -545.000; -519.000
212.001;    7.075;  151.000;   44.000
212.146;   18.975;  153.000;   49.000
212.291;  -25.050; -210.000; -186.000
212.436;  -22.750; -280.000;   -6.000
212.581;  -87.525; -685.000; -653.000
212.726;  -74.450; -487.000; -538.000
212.871;  -46.625; -552.000; -217.000
213.016; -145.950;-1172.000;-1029.000
213.161;   62.350;  406.000;  291.000
213.306;  -67.725; -435.000; -577.000
213.451; -106.750; -778.000; -689.000
213.596;  -35.300; -455.000; -347.000
213.741;  -50.800; -448.000; -538.000
213.886;  -76.775; -498.000; -517.000
214.031;  -34.575; -294.000; -124.000
214.176;  -42.525; -408.000; -341.000
214.321;  -22.750; -296.000; -157.000
214.466;   -9.000; -163.000;  -43.000
214.611;  -22.300;  -61.000;  -10.000
214.756; -127.950; -948.000; -858.000
214.901;  -31.400; -388.000; -226.000
215.046; -103.900; -797.000; -825.000
215.191;   18.375;  128.000;   35.000
215.336;    3.650; -157.000;  -19.000
215.480;  -66.650; -684.000; -505.000
215.625;   -4.125; -175.000;  -19.000
215.770;  -74.250; -757.000; -662.000
215.915;  -13.900;   -5.000;  -97.000
216.060;  -19.175; -113.000;  -21.000
216.205; -109.475; -731.000; -779.000
216.349;  -81.700; -470.000; -533.000
216.494; -121.450; -939.000; -867.000
216.639; -111.200; -823.000; -888.000
216.784;  -90.350; -577.000; -525.000
216.929;   43.575;  392.000;  281.000
217.073;   -7.725; -244.000;  -31.000
217.218;    3.475;   78.000;  -47.000
217.363;  -83.075; -656.000; -618.000
217.507;  -79.475; -623.000; -588.000
217.652; -111.375; -845.000; -874.000
217.797;  -95.275; -708.000; -659.000
217.942;  -99.750; -856.000; -720.000
218.086;   67.850;  608.000;  539.000
218.231;  -22.950; -174.000;  -26.000
218.376;  -44.975; -337.000; -229.000
218.520;   -4.500;  -41.000;   96.000
218.665;  -27.900; -338.000; -204.000
218.810;  -47.300; -275.000; -233.000
218.954;    0.600;  201.000;   35.000
219.099; -112.700; -713.000; -963.000
219.243;  -80.700; -589.000; -554.000
219.388;  -33.825; -264.000; -136.000
219.532;    1.650; -116.000; -116.000
219.677;  -73.625; -564.000; -521.000
219.822;   -9.675;   33.000;   89.000
219.966;   14.200;   17.000;  -99.000
220.111;  -29.975; -328.000;  -40.000
220.255;  -75.175; -797.000; -750.000
220.400;  -20.975; -180.000; -146.000
220.544;  -62.050; -516.000; -450.000
220.689;  -63.500; -422.000; -451.000
220.833;  -10.650; -123.000;  -58.000
220.978;  -45.500; -393.000; -563.000
221.122;   25.825;  319.000;  307.000
221.267; -115.375; -906.000; -837.000
221.411;  -65.725; -478.000; -394.000
221.555;   -3.675; -104.000;  -23.000
221.700;  -42.350; -329.000; -222.000
221.844;   21.100;  255.000;  272.000
221.989;  -23.675; -328.000; -311.000
222.133;  -42.050; -289.000; -307.000
222.277;  -11.450;    5.000;   78.000
222.422;   21.700;  227.000;  113.000
222.566;  -23.375; -381.000; -214.000
222.711;  -56.300; -414.000; -479.000
222.855;  -72.575; -643.000; -586.000
222.999;  -73.200; -642.000; -717.000
223.144;  -35.700; -195.000; -194.000
223.288;   57.900;  423.000;  251.000
223.432;   25.650;  184.000;  230.000
223.576;    8.325;  152.000;  -21.000
223.721;   39.225;  364.000;  273.000
223.865;  -54.775; -472.000; -475.000
224.009;  245.475; 1673.000; 1631.000
224.153;  -86.550; -660.000; -671.000
224.298;  -62.425; -531.000; -489.000
224.442;  -26.725;  -74.000;  -33.000
224.586;   -8.125; -169.000; -106.000
224.730;  -95.800; -858.000; -670.000
224.875; -101.975; -739.000; -688.000
225.019;   10.775;  102.000;  188.000
225.163;   66.100;  208.000;  341.000
225.307;   18.400;   97.000;  -91.000
225.451;   44.900;  360.000;  481.000
225.595;   31.275;  264.000;  176.000
225.739;  -12.075; -170.000;  -94.000
225.884;    6.850;   86.000;    5.000
226.028;  -88.475; -760.000; -626.000
226.172;  -40.275; -260.000; -273.000
226.316; -111.350; -941.000; -902.000
226.460;  -71.125; -645.000; -493.000
226.604;  -50.900; -406.000; -400.000
226.748; -101.625; -836.000; -733.000
226.892;  -33.025; -227.000; -181.000
227.036;  -49.375; -537.000; -447.000
227.180;  -55.700; -551.000; -375.000
227.324;  -55.825; -561.000; -580.000
227.468; -114.200; -819.000; -717.000
227.612;   10.050;  242.000;  -28.000
227.756;  -89.725; -845.000; -698.000
227.900;   49.925;  342.000;  441.000
228.044;  -55.350; -509.000; -290.000
228.188;   56.900;  448.000;  568.000
228.332;  -72.950; -546.000; -472.000
228.476;  -23.025; -223.000; -149.000
228.620;  -27.475; -210.000; -150.000
228.764;   71.725;  431.000;  349.000
228.908;  -16.325; -155.000;   30.000
229.052;  -61.150; -615.000; -528.000
229.195;  -21.550; -172.000;   13.000
229.339;  -23.250; -235.000; -305.000
229.483;  -13.600;    5.000; -162.000
229.627;   -3.350; -156.000;  139.000
229.771;  -51.975; -218.000; -294.000
229.915;   -4.275;  230.000;   79.000
230.059;  -99.900; -648.000; -663.000
230.202;  -48.625; -370.000; -317.000
230.346;  -14.475; -107.000;  107.000
230.490;  -72.200; -489.000; -521.000
230.634;  -94.475; -736.000; -553.000
230.777;   59.200;  478.000;  509.000
230.921;  -54.050; -450.000; -359.000
231.065;  -38.125; -246.000; -286.000
231.209;   31.400;  261.000;  265.000
231.352;   22.575;   54.000;   40.000
231.496;   31.225;  568.000;  188.000
231.640;  -74.325; -693.000; -621.000
231.783;   55.475;  546.000;  525.000
231.927;  -49.825; -294.000; -365.000
232.071; -110.700; -962.000; -736.000
232.214; -110.175; -980.000; -764.000
232.358; -101.075; -683.000; -599.000
232.502;    3.175;  -19.000;    7.000
232.645; -124.250;-1090.000; -927.000
232.789;  -16.300; -257.000; -218.000
232.933;  -33.875; -407.000; -224.000
233.076; -131.675;-1038.000; -897.000
233.220;  -92.050; -752.000; -777.000
233.363;  -74.200; -669.000; -477.000
233.507;   65.100;  371.000;  129.000
233.650;  -94.100; -764.000; -834.000
233.794;   45.700;  438.000;  461.000
233.938;  -66.175; -530.000; -362.000
234.081;  -12.850;  -93.000;   31.000
234.225;  -78.000; -631.000; -539.000
234.368; -114.600; -773.000; -723.000
234.512;  -35.575; -385.000; -299.000
234.655;  -89.500; -582.000; -555.000
234.798;  -60.575; -493.000; -466.000
234.942; -123.250; -884.000;-1002.000
235.085;  -72.150; -651.000; -443.000
235.229;  -67.775; -405.000; -410.000
235.372;  -61.300; -247.000; -191.000
235.516;  -56.200; -397.000; -321.000
235.659;   20.275;   92.000;  121.000
235.802;  -22.725;  -38.000;  -22.000
235.946;   15.375;  335.000;  215.000
236.089;   33.150;  126.000;  250.000
236.233;   48.925;  275.000;  298.000
236.376;  -36.550; -235.000; -378.000
236.519;  -35.675; -297.000; -319.000
236.663;  -27.375; -215.000; -117.000
236.806; -135.900;-1029.000; -999.000
236.949;   53.550;  543.000;  431.000
237.092;   44.875;  412.000;  391.000
237.236;  -88.900; -589.000; -502.000
237.379;   61.950;  352.000;  428.000
237.522; -107.375; -879.000; -768.000
237.666;  -22.675; -271.000;   18.000
237.809; -107.400; -851.000; -823.000
237.952;   23.175;  469.000;  271.000
238.095;  -55.325; -447.000; -442.000
238.238;   75.200;  688.000;  700.000
238.382;   -1.800;  166.000;  103.000
238.525;  -81.950; -598.000; -511.000
238.668; -125.800;-1060.000; -985.000
238.811;  -80.850; -638.000; -643.000
238.954;  -56.675; -483.000; -334.000
239.097;   82.775;  617.000;  664.000
239.241;   12.725;  394.000;  326.000
239.384;  -39.250; -254.000; -214.000
239.527;  -51.475; -424.000; -224.000
239.670; -148.025; -994.000;-1091.000
239.813; -119.350; -696.000; -658.000
239.956;   65.200;  579.000;  473.000
240.099; -103.875; -778.000; -725.000
240.242;   55.700;  428.000;  432.000
240.385;   37.350;  466.000;  450.000
240.528;  -64.200; -706.000; -473.000
240.671;   14.250;  189.000;  134.000
240.814;  -43.275; -441.000; -158.000
240.957;  -93.700; -767.000; -578.000
241.100;  -97.450; -779.000; -755.000
241.243; -150.200;-1234.000; -893.000
241.386;  -65.700; -508.000; -379.000
241.529;  -79.325; -735.000; -547.000
241.672;  -65.825; -566.000; -495.000
241.815; -114.650; -832.000; -808.000
241.958;  -30.200; -125.000; -182.000
242.101;  -71.175; -545.000; -390.000
242.244;  -34.825; -270.000; -325.000
242.387;  -30.925; -304.000; -246.000
242.530;   50.175;  470.000;  134.000
242.673;  -36.800; -381.000; -309.000
242.815; -121.150; -925.000; -899.000
242.958;  -60.900; -482.000; -381.000
243.101;    7.425;  132.000;  187.000
243.244;  -88.550; -564.000; -521.000
243.387;  -57.200; -313.000; -316.000
243.530; -103.650; -657.000; -674.000
243.672;  -10.675;   43.000;  -92.000
243.815;  -56.150; -355.000; -283.000
243.958;   -8.125;   98.000;  -26.000
244.101;   11.500;   59.000;  -16.000
244.243;   -8.800;  -47.000;  101.000
244.386; -111.775; -761.000; -630.000
244.529;  -36.100; -132.000; -139.000
244.672; -153.975;-1154.000; -951.000
244.814; -105.925; -621.000; -794.000
244.957;  -43.550; -380.000; -304.000
245.100;  -79.625; -489.000; -489.000
245.242;  -53.100; -387.000; -374.000
245.385;  -20.075;  -59.000;  -39.000
245.528; -124.075; -871.000; -705.000
245.670;   90.600;  612.000;  634.000
245.813;  -75.325; -599.000; -547.000
245.956;  -37.675; -324.000; -275.000
246.098;  -65.525; -508.000; -650.000
246.241;   -3.075;  194.000;   48.000
246.383;  -24.350; -119.000;  -73.000
246.526;  -77.150; -454.000; -525.000
246.669; -119.625; -889.000; -780.000
246.811;   16.225;  172.000;   -1.000
246.954;  -55.900; -512.000; -426.000
247.096;  -21.975;  -84.000;   -6.000
247.239;  -64.225; -482.000; -445.000
247.381;  -72.950; -647.000; -488.000
247.524;   88.150;  645.000;  679.000
247.666;   -2.800;   58.000;   11.000
247.809; -113.675; -887.000; -691.000
247.951;  -19.550;  -75.000;  138.000
248.094;   45.250;  432.000;  308.000
248.236; -160.700;-1262.000;-1238.000
248.378;   11.375; -356.000;  -81.000
248.521;  -23.925; -334.000; -337.000
248.663;  -28.900; -236.000; -267.000
248.806;  -30.700; -300.000; -266.000
248.948;  -82.000; -886.000; -763.000
249.090;  -50.850; -428.000; -398.000
249.233;  -46.775; -344.000; -381.000
249.375;  -71.850; -474.000; -451.000
249.518;  -18.275;  -83.000; -133.000
249.660;  -12.175; -103.000;    3.000
249.802; -153.850;-1303.000;-1189.000
249.945;  -79.425; -612.000; -540.000
250.087; -107.300; -834.000; -768.000
250.229;  -47.850; -362.000; -480.000
250.371;  -63.750; -494.000; -439.000
250.514;  -44.650; -310.000; -244.000
250.656;  -54.525;   69.000;  102.000
250.798; -118.175; -849.000; -800.000
250.940;  -62.025; -322.000; -322.000
251.083;  -24.650; -335.000; -111.000
251.225;   55.000;  338.000;  310.000
251.367;  -47.425; -274.000; -373.000
251.509;  -25.275; -265.000; -210.000
251.651; -105.775; -731.000; -671.000
251.794;   46.250;  538.000;  632.000
251.936; -109.225; -821.000; -747.000
252.078;  -78.425; -540.000; -461.000
252.220;  -79.100; -645.000; -477.000
252.362;   82.725;  344.000;  462.000
252.504;  -67.550; -677.000; -584.000
252.646; -110.625; -875.000; -722.000
252.788;    3.700;   14.000; -128.000
252.931;  -33.950; -257.000; -253.000
253.073;  -39.950; -376.000; -317.000
253.215;    0.225;  141.000;  122.000
253.357;  -14.200;   82.000; -153.000
253.499;  -48.575; -374.000; -234.000
253.641; -107.100; -749.000; -594.000
253.783;  -85.325; -609.000; -527.000
253.925;  -86.225; -586.000; -591.000
254.067;  -97.775; -744.000; -667.000
254.209;  -29.975; -391.000; -259.000
254.351; -117.625; -865.000; -883.000
254.493;  -58.450; -441.000; -417.000
254.635; -119.175; -936.000; -818.000
254.777;  -93.525; -752.000; -687.000
254.918;  -59.725; -512.000; -430.000
255.060;  -47.700; -551.000; -395.000
255.202;  -64.250; -473.000; -261.000
255.344;  -70.150; -658.000; -455.000
255.486;  -72.000; -471.000; -406.000
255.628; -110.875; -780.000; -781.000
255.770;  -77.225; -676.000; -536.000
255.912;  -56.375; -559.000; -468.000
256.053;  -89.650; -730.000; -508.000
256.195;  142.175; 1008.000;  903.000
256.337; -101.575; -861.000; -595.000
256.479;   53.750;  532.000;  416.000
256.621;  -45.425; -394.000; -212.000
256.762;  -89.525; -789.000; -742.000
256.904;   43.075;  485.000;  487.000
257.046;  -32.200; -381.000; -271.000
257.188;  -39.075; -351.000; -264.000
257.329;  -83.000; -525.000; -464.000
257.471; -117.850; -939.000; -807.000
257.613;  -64.425; -584.000; -498.000
257.755; -154.200;-1073.000; -982.000
257.896;   25.500;  286.000;  392.000
258.038;  -60.475; -403.000; -352.000
258.180;  -47.875; -354.000; -279.000
258.321;  -74.575; -581.000; -457.000
258.463;  -17.175;  -71.000;  133.000
258.605;  -81.550; -562.000; -570.000
258.746; -109.425; -886.000; -772.000
258.888; -139.475;-1026.000;-1020.000
259.029;   13.725;  121.000;   -8.000
259.171;  -82.975; -614.000; -550.000
259.313;    1.450;  -49.000;  -47.000
259.454;  -68.900; -536.000; -414.000
259.596;  -52.850; -483.000; -390.000
259.737;  -71.450; -590.000; -474.000
259.879;   26.100;  217.000;  311.000
260.020;   98.625;  901.000;  636.000
260.162;  -27.125; -146.000; -253.000
260.303; -114.200; -768.000; -687.000
260.445;  -91.625; -609.000; -613.000
260.586;   24.400;  392.000;  157.000
260.728;  -44.700; -360.000; -248.000
260.869; -114.850; -350.000; -343.000
261.011;   53.900;  706.000;  537.000
261.152;  -54.200; -479.000; -319.000
261.293;  -74.325; -576.000; -595.000
261.435;  -29.575; -219.000; -184.000
261.576;  -43.550; -455.000; -325.000
261.718;   57.525;  420.000;  470.000
261.859; -125.800; -940.000; -949.000
262.000; -118.450; -951.000;-1016.000
262.142;  -31.975;  -52.000;  -60.000
262.283; -114.450; -808.000; -691.000
262.424;  -82.575; -666.000; -625.000
262.566; -148.925;-1161.000; -983.000
262.707; -105.425; -840.000; -830.000
262.848; -105.750; -769.000; -726.000
262.990;  -50.650; -362.000; -345.000
263.131;   72.525;  650.000;  681.000
263.272;  -22.775;  -61.000;  -41.000
263.413;  -77.050; -589.000; -561.000
263.555;  -63.900; -669.000; -143.000
263.696;  -74.425; -550.000; -641.000
263.837;  -58.600; -449.000; -551.000
263.978;   -5.325;   -5.000;  -77.000
264.119;  -54.600; -283.000; -264.000
264.261; -114.300; -847.000; -630.000
264.402;   -6.675;   33.000;   40.000
264.543;  -81.375; -509.000; -524.000
264.684;  -22.750;   61.000;  -50.000
264.825;  -62.550; -816.000; -538.000
264.966;  -12.475;  -84.000;  -67.000
265.107; -101.800; -646.000; -670.000
265.248; -117.350; -825.000; -812.000
265.390;    4.850;  152.000;   -9.000
265.531;  -25.975; -238.000; -107.000
265.672;  -82.900; -557.000; -630.000
265.813;   47.875;  563.000;  439.000
265.954; -145.375; -959.000; -940.000
266.095;  -26.825; -372.000; -322.000
266.236;  -93.750; -686.000; -548.000
266.377;  -44.825; -243.000; -297.000
266.518;  -76.700; -619.000; -547.000
266.659;   28.725;  170.000;  268.000
266.800;   13.000;   83.000;   85.000
266.941;  -83.650; -487.000; -478.000
267.082;   13.925;  354.000;   99.000
267.223;  -52.425; -344.000; -273.000
267.364; -113.100; -892.000; -686.000
267.504;  -17.350;    3.000;  135.000
267.645;   -7.025;  160.000;   67.000
267.786;  -40.150; -147.000;  -86.000
267.927;  -70.275; -473.000; -379.000
268.068;  -14.150; -186.000;  -61.000
268.209;  -26.750; -175.000; -413.000
268.350;  -69.450; -388.000; -532.000
268.490;  -87.525; -648.000; -521.000
268.631;   22.325;  127.000;  225.000
268.772; -109.850; -874.000; -647.000
268.913;  -47.825; -328.000; -476.000
269.054;   -3.450; -117.000;   12.000
269.194;  -52.975; -418.000; -402.000
269.335; -149.975;-1137.000;-1074.000
269.476;  -17.200;   33.000;  -35.000
269.617;  -36.625; -347.000; -392.000
269.757;  -91.125; -713.000; -646.000
269.898;  -90.225; -856.000; -613.000
270.039;  -75.850; -415.000; -405.000
270.180; -132.300; -952.000; -816.000
270.320;  -33.325; -190.000; -250.000
270.461;  -39.900; -277.000; -249.000
270.602;  -20.325; -186.000; -156.000
270.742; -128.850; -868.000; -943.000
270.883;  -49.650; -442.000; -390.000
271.023;  -44.875; -358.000; -357.000
271.164;  -80.725; -607.000; -528.000
271.305;  -94.950; -666.000; -654.000
271.445;  -95.925; -722.000; -683.000
271.586;  -71.425; -462.000; -283.000
271.726;  -47.775; -397.000; -322.000
271.867;  -60.000; -594.000; -534.000
272.008;  202.000; -473.000; -285.000
272.148;  136.675;  462.000;  468.000
272.289;   -8.875; -113.000; -181.000
272.429;   12.450;   19.000;  185.000
272.570;  -94.750; -633.000; -737.000
272.710; -111.650; -825.000; -775.000
272.851;  -16.650;  113.000; -130.000
272.991; -148.475;-1173.000;-1077.000
273.131;  -63.825; -419.000; -459.000
273.272;  -91.875; -683.000; -723.000
273.412;    9.800; -143.000;  -31.000
273.553;  -64.450; -488.000; -507.000
273.693;  122.175;  913.000;  858.000
273.834;  -84.925; -894.000; -692.000
273.974;  -80.800; -664.000; -615.000
274.114;  -92.600; -772.000; -560.000
274.255;   82.325;  414.000;  373.000
274.395;   10.400; -180.000; -125.000
274.535;   27.800;  199.000;  350.000
274.676;   29.700;  225.000;   94.000
274.816;   -3.675;  110.000;   34.000
274.956;  -75.125; -624.000; -690.000
275.097;  -51.025;-1014.000; -922.000
275.237; -111.700; -913.000; -803.000
275.377;  -92.425; -778.000; -689.000
275.517; -147.550; -878.000; -937.000
275.658;  -53.725; -590.000; -555.000
275.798;  -51.375; -606.000; -413.000
275.938;   13.450;  215.000;  323.000
276.078;  -86.025; -626.000; -395.000
276.218;   13.225;   99.000;  104.000
276.359; -126.775;-1026.000;-1024.000
276.499;  -77.425; -605.000; -446.000
276.639;  -32.125; -305.000; -151.000
276.779;  -57.150; -475.000; -357.000
276.919; -101.475; -783.000; -624.000
277.059;  -21.300; -261.000; -212.000
277.199;  -41.575; -357.000; -259.000
277.340;   47.200;  287.000;  175.000
277.480;  -84.550; -840.000; -693.000
277.620;   29.350;  192.000;   16.000
277.760; -189.575;-1533.000;-1294.000
277.900;   15.125;  113.000;   33.000
278.040;   13.475;  137.000;  159.000
278.180;   25.675;  270.000;  170.000
278.320;   -3.875;   21.000;   56.000
278.460;  -69.850; -443.000; -469.000
278.600;  -95.725; -708.000; -598.000
278.740;   40.675;  448.000;  224.000
278.880;  -29.250; -768.000; -791.000
279.020;  -16.600; -194.000; -144.000
279.160;  -83.350; -672.000; -595.000
279.300; -122.350; -926.000; -873.000
279.440;  -88.025; -709.000; -622.000
279.579;  -11.300;-1014.000; -929.000
279.719;  -48.050; -410.000; -394.000
279.859;   63.775;   -4.000;   41.000
279.999;   25.700; -208.000;  101.000
280.139;  -23.575; -435.000; -387.000
280.279;  -62.575; -708.000; -745.000
280.419;  -13.425; -229.000; -147.000
280.559;  -39.300; -259.000; -180.000
280.698;  -82.225; -790.000; -639.000
280.838;  -95.275; -778.000; -800.000
280.978; -107.925; -846.000; -790.000
281.118; -113.425; -811.000; -704.000
281.257;    2.750;   24.000;    6.000
281.397; -100.250;-1094.000; -960.000
281.537;  -97.425; -599.000; -712.000
281.677;  -10.000; -150.000; -101.000
281.816;  -89.750; -700.000; -630.000
281.956;  -33.200; -193.000; -257.000
282.096;  -64.925; -539.000; -396.000
282.235;  -96.375; -672.000; -638.000
282.375;  -24.350; -243.000;  -98.000
282.515; -105.075; -715.000; -707.000
282.654;    8.200;   29.000;  106.000
282.794;   37.350;  388.000;  244.000
282.934;  -69.050; -530.000; -491.000
283.073; -126.350;-1030.000; -857.000
283.213;  -47.525; -460.000; -467.000
283.353;  -23.700; -408.000; -349.000
283.492;  -31.525; -264.000; -296.000
283.632;  -44.475; -254.000; -168.000
283.771;  -93.800; -859.000; -730.000
283.911;  -54.450; -369.000; -260.000
284.050; -108.675; -794.000; -748.000
284.190; -147.600;-1229.000;-1096.000
284.329; -144.275;-1055.000; -964.000
284.469;  -63.575; -516.000; -591.000
284.608;  -53.700; -559.000; -598.000
284.748;  -82.450; -614.000; -570.000
284.887;  -13.750;  -87.000;  -20.000
285.027; -126.925; -844.000; -892.000
285.166;  -31.275; -192.000; -249.000
285.306;   24.675; -116.000;  -33.000
285.445;  -49.200; -229.000; -343.000
285.584;  -92.400; -630.000; -494.000
285.724;  -42.875; -282.000; -322.000
285.863;  -98.200; -857.000; -507.000
286.002;  -56.975; -366.000; -276.000
286.142; -112.300; -715.000; -622.000
286.281;  -77.625; -525.000; -493.000
286.420;  -71.400; -554.000; -417.000
286.560;   81.425;  653.000;  623.000
286.699; -134.850; -958.000; -912.000
286.838;  -80.600; -590.000; -591.000
286.978;  -69.175; -533.000; -537.000
287.117; -141.300;-1085.000; -950.000
287.256;  -43.450; -228.000; -211.000
287.395;  -53.275; -197.000; -378.000
287.535;  -49.800; -370.000; -298.000
287.674;  -83.600; -509.000; -484.000
287.813;   54.025;  661.000;  533.000
287.952; -123.625;-1010.000; -871.000
288.091; -142.875;-1049.000; -915.000
288.231;    7.875;   13.000;   15.000
288.370; -151.075;-1217.000;-1200.000
288.509;  -85.375; -728.000; -645.000
288.648;  -89.225; -770.000; -548.000
288.787;  -38.050; -243.000;  -87.000
288.926;  -57.350; -454.000; -475.000
289.065;  110.475;  859.000;  672.000
289.204;  -40.025; -377.000; -217.000
289.344;  -96.125; -791.000; -690.000
289.483;   26.275;  416.000;  304.000
289.622;  -20.775; -291.000; -149.000
289.761;  -12.225; -309.000; -166.000
289.900; -106.150; -785.000; -626.000
290.039;   -2.600;  -12.000;  -95.000
290.178;  -43.600; -274.000; -180.000
290.317;  -64.950; -618.000; -479.000
290.456;  -63.650; -463.000; -451.000
290.595; -123.800; -961.000; -833.000
290.734; -138.700; -904.000; -891.000
290.873;  -55.550; -456.000; -420.000
291.011; -111.025; -833.000; -843.000
291.150;  -83.875; -770.000; -682.000
291.289;  -21.450; -343.000; -110.000
291.428;  -96.000; -599.000; -480.000
291.567;  -70.450; -370.000; -442.000
291.706;   14.300;  109.000;  154.000
291.845;  -90.975; -597.000; -505.000
291.984; -154.175;-1234.000;-1061.000
292.122;   75.150;  602.000;  582.000
292.261;   51.225;  620.000;  463.000
292.400;    7.175; -144.000;  211.000
292.539; -123.350; -959.000; -813.000
292.678;  -39.150; -325.000; -300.000
292.816; -147.050;-1136.000; -965.000
292.955;  -87.175; -844.000; -684.000
293.094;  -18.125; -173.000; -337.000
293.233;  -72.625; -556.000; -400.000
293.371;  -35.150; -225.000;  -84.000
293.510; -120.250; -866.000; -780.000
293.649; -110.300; -959.000; -924.000
293.787;  -47.350;-1083.000;-1012.000
293.926;  -11.150; -113.000;  -32.000
294.065;  -42.825; -379.000; -290.000
294.203;   50.225;  298.000;  406.000
294.342;   22.950;   74.000;  156.000
294.481; 5810.525;51180.000; -836.000
294.619;  -29.475; -425.000; -582.000
294.758; -135.850;-1230.000;-1137.000
294.896;   67.225; -125.000;    5.000
295.035; -104.925;-1040.000;-1006.000
295.174; -113.550;-1082.000; -954.000
295.312;  -32.100; -323.000; -203.000
295.451;   -9.850; -307.000; -428.000
295.589;  -36.150; -389.000; -518.000
295.728;   15.025; -292.000; -165.000
295.866;    8.625;  -36.000;  -51.000
296.005;  -59.975; -584.000; -341.000
296.143;  -71.825; -558.000; -596.000
296.282;  -99.325; -957.000; -881.000
296.420;  -81.925; -657.000; -557.000
296.559;  -85.725; -892.000; -633.000
296.697;   45.425; -847.000; -665.000
296.835;   74.350;-1141.000;-1002.000
296.974;   50.100;  -23.000;   39.000
297.112;   12.625; -443.000; -504.000
297.251;  -68.675; -815.000; -755.000
297.389;  101.950; -576.000; -438.000
297.527;   49.450; -145.000;  -83.000
297.666;  -48.700; -486.000; -438.000
297.804;  -51.900; -404.000; -264.000
297.942;  -12.000; -136.000; -161.000
298.081;    4.350; -183.000;   63.000
298.219;   83.650;  -17.000;  -19.000
298.357;   56.525; -144.000;  -71.000
298.495;   52.375; -810.000; -812.000
298.634;   81.200;  245.000;  219.000
298.772;   63.525; -220.000; -338.000
298.910;  -33.175; -309.000; -182.000
299.048;  -20.825; -130.000; -153.000
299.187;  -24.650; -350.000; -250.000
299.325;   12.950;   52.000;  122.000
299.463;   67.550; -389.000; -299.000
299.601;  117.350; -327.000; -271.000
299.739;  -99.200; -908.000; -883.000
299.877;  -75.325; -791.000; -703.000
300.016;  -33.275;-1095.000; -935.000
300.154;  171.050;  -19.000; -161.000
300.292;   55.725; -428.000; -348.000
300.430;   35.050; -408.000; -291.000
300.568; -104.075; -940.000; -874.000
300.706;  -47.075; -366.000; -469.000
300.844;  -62.350;-1108.000; -979.000
300.982;   96.550;  246.000;  282.000
301.120;  -95.300; -965.000; -866.000
301.258;  -69.350; -812.000; -705.000
301.396;   52.875;  104.000;  -41.000
301.534;   88.275; -218.000; -293.000
301.672;   -0.050; -664.000; -521.000
301.810;   47.550; -613.000; -545.000
301.948;  116.350;   53.000;  149.000
302.086;  676.325; -250.000;  -32.000
302.224; 1008.775; -610.000; -585.000
302.362;   33.825; -558.000; -622.000
302.500;  -12.725; -923.000; -893.000
302.638;  105.350;  128.000;  245.000
302.776;   -6.950; -352.000; -408.000
302.913;   38.425;  447.000;  236.000
303.051;    9.725;  -86.000;  -23.000
303.189;   45.950;   90.000;  118.000
303.327;  -38.750; -341.000; -256.000
303.465;  -81.375; -832.000; -588.000
303.603;  -94.675; -805.000; -604.000
303.740;   93.700;  417.000;  241.000
303.878;   36.050; -800.000; -759.000
304.016; -101.425; -915.000; -790.000
304.154; -115.025;-1123.000;-1152.000
304.291;  -43.700; -505.000; -554.000
304.429;   11.725;  102.000;   74.000
304.567; -124.775; -908.000; -893.000
304.705;  -50.250; -408.000; -515.000
304.842;  108.475; -616.000; -540.000
304.980;   52.425;  215.000;   35.000
305.118;   37.175; -367.000; -365.000
305.255;  -58.025; -945.000; -927.000
305.393;   52.275;  178.000;  239.000
305.531;  -90.000;-1173.000; -956.000
305.668;  -55.925; -663.000; -582.000
305.806;  117.925; -358.000; -439.000
305.943;  109.950; -629.000; -637.000
306.081;   62.375; -378.000; -267.000
306.219; -111.850; -863.000; -748.000
306.356;   15.275;  158.000;   27.000
306.494;  103.250;  981.000;  761.000
306.631;   -4.725;  -11.000;  -55.000
306.769;   -4.700; -613.000; -485.000
306.906;   -4.425; -284.000; -258.000
307.044;  -60.400; -473.000; -488.000
307.181;  -57.875; -410.000; -332.000
307.319;   21.850;  112.000;   87.000
307.456; -165.650;-1191.000;-1153.000
307.594;  -90.950; -980.000; -727.000
307.731;   -8.200; -371.000; -164.000
307.868;   -1.100;  -15.000;   20.000
308.006; -122.500; -961.000; -847.000
308.143;  -60.125; -618.000; -330.000
308.281;  196.900;  -37.000; -254.000
308.418;  -15.150; -748.000; -640.000
308.555;  -62.975; -400.000; -250.000
308.693;  -66.350; -577.000; -573.000
308.830;  -93.450; -712.000; -657.000
308.967;  -14.700; -215.000;  -95.000
309.105;  -52.300; -507.000; -396.000
309.242;   54.025; -468.000; -367.000
309.379;  393.675; -577.000; -655.000
309.517;  -57.425; -936.000; -948.000
309.654; -112.675; -910.000; -734.000
309.791;  -80.325; -662.000; -580.000
309.928; -112.275; -977.000; -914.000
310.065;  192.725;  819.000;  697.000
310.203;   13.725; -825.000; -850.000
310.340;    3.325; -465.000; -321.000
310.477;  -64.700; -412.000; -516.000
310.614;  -67.575; -383.000; -473.000
310.751;  -65.200; -427.000; -518.000
310.889;  -22.250;    1.000;   11.000
311.026; -150.300;-1161.000; -939.000
311.163;  -45.125; -386.000; -380.000
311.300;  -80.850; -512.000; -479.000
311.437;  -85.850; -658.000; -619.000
311.574; -145.450;-1226.000; -985.000
311.711;  -56.600; -595.000; -433.000
311.848;  -44.200; -380.000; -388.000
311.985;   -7.425;  270.000;   93.000
312.122; -110.100; -932.000; -762.000
312.259; -122.375; -941.000; -994.000
312.396;  -80.725; -508.000; -551.000
312.533;  -81.775; -812.000; -790.000
312.670; -120.650;-1070.000; -898.000
312.807;  -28.600; -352.000; -367.000
312.944;  -70.300; -513.000; -611.000
313.081;  -42.400; -150.000; -415.000
313.218;  -97.750;-1111.000; -867.000
313.355;   21.350; -531.000; -449.000
313.492;   10.075; -455.000; -292.000
313.629;  129.200;  815.000;  735.000
313.766; -158.125;-1176.000;-1008.000
313.902;  -10.850; -186.000;   21.000
314.039;  -32.175; -372.000; -289.000
314.176;   32.725;  286.000;  192.000
314.313;  -74.500; -569.000; -473.000
314.450;  -65.500; -788.000; -684.000
314.587;  -52.625; -468.000; -480.000
314.723;    6.300;  -78.000;  130.000
314.860;   39.400;  318.000;  332.000
314.997;   21.275;  223.000;  142.000
315.134;  -34.050; -385.000; -368.000
315.270;  -27.575; -480.000; -496.000
315.407; -103.350;-1094.000; -967.000
315.544;  -36.875; -657.000; -538.000
315.681;  -63.225; -681.000; -565.000
315.817;   25.775; -133.000; -176.000
315.954;   20.325; -613.000; -392.000
316.091; -120.500;-1045.000;-1023.000
316.227;  -29.900;  -71.000; -179.000
316.364;    2.950;   23.000;    6.000
316.500;  -39.675; -113.000; -300.000
316.637;  -42.000; -181.000; -302.000
316.774;  -83.575; -625.000; -358.000
316.910;  -97.625; -598.000; -629.000
317.047;  -65.825; -487.000; -351.000
317.183;  -50.600; -435.000; -566.000
317.320;   -9.650; -367.000; -321.000
317.456;  -49.625; -733.000; -805.000
317.593;  -77.150; -598.000; -641.000
317.729;   -7.700;  168.000;  -67.000
317.866; -194.850;-1434.000;-1285.000
318.002;  -90.200; -708.000; -948.000
318.139;  -98.050; -883.000; -867.000
318.275; -106.875;-1003.000; -738.000
318.412;  -63.675; -517.000; -336.000
318.548;  -27.325; -751.000; -720.000
318.685;  -80.100; -985.000; -888.000
318.821;  -94.275; -762.000; -735.000
318.957;   -7.150;   34.000;  -23.000
319.094;   38.825;  297.000;  154.000
319.230;  -48.275; -756.000; -742.000
319.367;  154.225; -471.000; -520.000
319.503;   77.375; -538.000; -436.000
319.639;  -85.800; -877.000; -793.000
319.775;  -60.775; -750.000; -685.000
319.912;  -62.500; -424.000; -519.000
320.048;  -76.025;-1184.000;-1184.000
320.184;   75.525;   59.000;   70.000
320.321;  -48.275; -497.000; -467.000
320.457;   58.650;  475.000;  662.000
320.593;  -69.900; -375.000; -382.000
320.729; -105.650; -732.000; -734.000
320.866;  -64.275; -577.000; -635.000
321.002;  -78.350; -759.000; -809.000
321.138;   -9.250; -135.000; -211.000
321.274;   56.475; -148.000; -115.000
321.410;  -17.375; -585.000; -353.000
321.546;  -14.125;-1011.000; -911.000
321.683;   58.325;  400.000;  185.000
321.819;   -2.350;  -48.000; -117.000
321.955;  -95.975; -743.000; -722.000
322.091;  -40.225; -585.000; -540.000
322.227;   -2.300; -382.000; -202.000
322.363;   -3.975; -320.000; -215.000
322.499;  -50.400; -343.000; -331.000
322.635;  170.325;  636.000;  443.000
322.771;   31.400; -139.000;   12.000
322.907;   88.925;  129.000;  327.000
323.043;  -18.825; -115.000; -206.000
323.179;  -29.250; -394.000; -363.000
323.315;   37.625; -401.000; -371.000
323.451;  113.875; -328.000; -236.000
323.587;   76.875;  -60.000;  -77.000
323.723;   26.225; -682.000; -601.000
323.859;   -3.075; -258.000;  -76.000
323.995;  -31.100; -467.000; -409.000
324.131; -114.650; -967.000; -892.000
324.267;  -39.850; -254.000; -276.000
324.402; -118.975; -960.000; -983.000
324.538;  -18.625; -279.000; -104.000
324.674;   19.100;  164.000;   77.000
324.810;  151.625;  226.000;  308.000
324.946;   13.000; -810.000; -658.000
325.082;  -79.950; -568.000; -475.000
325.217;    2.500;  -62.000;   16.000
325.353; -103.050; -764.000; -659.000
325.489;  -96.675; -540.000; -506.000
325.625;  -75.275; -579.000; -525.000
325.760;   68.725;  517.000;  376.000
325.896;  -19.475; -515.000; -702.000
326.032;  -52.200; -403.000; -352.000
326.168;  -66.100; -462.000; -369.000
326.303;  -51.400; -352.000; -461.000
326.439;   -8.500; -336.000; -276.000
326.575;   -5.775; -190.000;  -29.000
326.710;  -16.650; -156.000;  -30.000
326.846;  -15.250;  146.000;  103.000
326.982;  -92.925; -530.000; -548.000
327.117;  -59.525; -481.000; -442.000
327.253;  -93.075; -745.000; -742.000
327.388; -123.975;-1137.000;-1153.000
327.524;  -39.725; -811.000; -578.000
327.659;  -35.650;  -58.000;  -22.000
327.795;  -32.200;   69.000;   45.000
327.931;  -90.375; -723.000; -499.000
328.066;  -25.900; -417.000; -276.000
328.202;  -32.075;   12.000; -129.000
328.337;   82.300;  957.000;  713.000
328.473;   39.625;  -12.000;  -74.000
328.608;  -29.575; -256.000; -267.000
328.743;  -77.075; -799.000; -664.000
328.879;    7.850;  214.000;  114.000
329.014;  -31.225; -102.000; -122.000
329.150;  -79.675; -358.000; -483.000
329.285;  -69.425; -465.000; -466.000
329.421;  -47.100; -548.000; -246.000
329.556;  -30.325;  -36.000;   85.000
329.691;  -99.400; -633.000; -615.000
329.827;  -78.900; -626.000; -480.000
329.962;  -49.200;  131.000; -301.000
330.097;  -81.175; -673.000; -585.000
330.233;  -57.275; -410.000; -223.000
330.368; -129.250; -839.000; -628.000
330.503;  -14.050;    3.000;   98.000
330.638;   16.025;  -93.000; -125.000
330.774;  -57.225; -609.000; -530.000
330.909;  -42.700; -434.000; -244.000
331.044; -101.750; -714.000; -708.000
331.179; -168.975;-1217.000;-1109.000
331.315;   -2.525;   77.000;   20.000
331.450;   12.325;  157.000;  285.000
331.585;  -93.150; -805.000; -706.000
331.720;  -71.875; -510.000; -460.000
331.855;   -8.625;  -35.000; -102.000
331.990;  233.100;   62.000;  138.000
332.126;  121.100; -110.000;   71.000
332.261;  -11.525; -379.000; -265.000
332.396;   -2.375; -135.000; -242.000
332.531;  -89.300;-1074.000;-1031.000
332.666;   21.075; -519.000; -363.000
332.801; -105.650; -726.000; -807.000
332.936;  -25.025; -192.000; -122.000
333.071; -144.075; -870.000; -817.000
333.206;   21.025;  307.000;  379.000
333.341;   32.550;  344.000;  418.000
333.476;  -87.475; -627.000; -623.000
333.611;  -32.300; -251.000; -173.000
333.746;  -55.875; -381.000; -464.000
333.881; -105.900; -973.000; -935.000
334.016; -119.525; -936.000; -917.000
334.151; -122.200; -746.000; -702.000
334.286;   14.175;  152.000;  186.000
334.421;  -22.825; -125.000; -178.000
334.556;  -80.425; -611.000; -567.000
334.690;  -85.500; -631.000; -577.000
334.825;   45.400;  381.000;   83.000
334.960;  -56.900; -285.000; -413.000
335.095;   -6.325;  135.000;  -91.000
335.230;  -93.550; -722.000; -738.000
335.365; -130.775;-1084.000; -990.000
335.499; -125.850;-1108.000;-1037.000
335.634;   17.900;    9.000;  534.000
335.769;  -88.725; -755.000; -720.000
335.904;  -59.525; -603.000; -561.000
336.038;  -50.300; -735.000; -657.000
336.173; -106.575;-1206.000;-1194.000
336.308;   16.175; -116.000; -189.000
336.443;  -25.950; -544.000; -634.000
336.577;  -57.675; -936.000; -787.000
336.712;   53.975;   -4.000;  -12.000
336.847;  -28.825; -724.000; -607.000
336.981;   70.075; -272.000; -208.000
337.116;  302.475;  615.000;  501.000
337.250;  154.725; -434.000; -421.000
337.385;  239.800; -297.000; -208.000
337.520;   71.575; -632.000; -603.000
337.654;  -24.775; -215.000; -126.000
337.789; -122.875; -989.000; -933.000
337.923;  -10.275; -104.000; -205.000
338.058;  -88.875; -673.000; -738.000
338.192;  -24.900; -611.000; -488.000
338.327;  -13.975;  -18.000; -155.000
338.461;  -56.625; -299.000; -469.000
338.596;  -86.150; -780.000; -638.000
338.730;  -98.000; -767.000; -803.000
338.865;   88.575;  -46.000; -140.000
338.999;  -37.800; -846.000; -702.000
339.134;  -31.900; -634.000; -536.000
339.268;   21.950; -741.000; -603.000
339.403;  364.100; -740.000; -775.000
339.537;  118.100; -894.000; -820.000
339.671; -101.350; -829.000; -813.000
339.806;  -56.625; -556.000; -512.000
339.940;   16.150; -261.000; -235.000
340.074;  -92.200; -685.000; -510.000
340.209;  -47.100; -351.000; -230.000
340.343;  -74.525; -517.000; -573.000
340.477;  133.100;  998.000; 1036.000
340.612;  -53.750;-1033.000; -900.000
340.746;  136.275; -199.000; -243.000
340.880;  -64.750; -924.000; -785.000
341.014;   -9.350;  -45.000; -154.000
341.149; -116.275; -756.000; -718.000
341.283; -111.950; -839.000; -754.000
341.417;  -72.600;-1124.000; -938.000
341.551;  158.200; -768.000; -708.000
341.685;  -24.225; -633.000; -611.000
341.820;  -58.100; -562.000; -493.000
341.954;  -44.400; -218.000; -349.000
342.088; -152.350;-1102.000;-1019.000
342.222;   53.475;  565.000;  618.000
342.356;  -53.950; -395.000; -335.000
342.490;  -95.250; -880.000; -841.000
342.624;  -27.650; -339.000; -242.000
342.758;   10.425; -364.000; -312.000
342.892;  -62.900; -710.000; -585.000
343.026;  -39.400;  -58.000; -116.000
343.160;  -58.425; -426.000; -376.000
343.294;  -64.975; -474.000; -337.000
343.428;  -20.400; -488.000; -448.000
343.562;  -21.550; -172.000;  -23.000
343.696;  -26.250; -385.000; -314.000
343.830;  -13.400; -362.000; -356.000
343.964;   28.100; -231.000; -168.000
344.098;  965.750;  199.000;   70.000
344.232;  804.350; -266.000; -127.000
344.366;  108.450; -567.000; -453.000
344.500;   75.825; -665.000; -744.000
344.634;   42.325; -324.000; -164.000
344.768;  -19.650; -531.000; -341.000
344.902;   33.850;  278.000;  256.000
345.035;  -77.625; -556.000; -496.000
345.169; -132.025; -933.000; -656.000
345.303;  -30.250; -308.000; -482.000
345.437;  -66.850; -826.000; -717.000
345.571;  -72.775; -675.000; -594.000
345.704;  -66.425; -309.000; -532.000
345.838;  -12.950; -331.000; -284.000
345.972;  -32.200; -543.000; -495.000
346.106;  158.000; -179.000; -190.000
346.239;  432.425; -312.000; -243.000
346.373;   14.750; -343.000; -302.000
346.507; -131.925; -950.000; -962.000
346.640;  151.275;  -30.000;   13.000
346.774;  -29.650; -650.000; -797.000
346.908;  -24.050; -138.000;  -11.000
347.041;  -80.250; -646.000; -593.000
347.175;    7.300;  259.000;   27.000
347.309;  -59.250; -698.000; -628.000
347.442; -100.825; -883.000; -732.000
347.576;  279.375;  670.000;  668.000
347.709;  204.300; -123.000;  -52.000
347.843;  -83.275; -933.000; -825.000
347.976;   32.600;  235.000;  294.000
348.110; -169.225;-1268.000;-1186.000
348.243;  -98.300; -679.000; -772.000
348.377;   -3.475;  -26.000;   60.000
348.510;   48.450;  403.000;  540.000
348.644;  -47.675;  -37.000; -159.000
348.777;   -4.300;  180.000;  191.000
348.911;  -56.775; -142.000; -112.000
349.044;  175.275;  471.000;  448.000
349.178;  185.675;-1069.000;-1006.000
349.311;  107.350;  141.000;  255.000
349.444;   -7.675; -927.000; -813.000
349.578;  -22.000; -347.000; -200.000
349.711;  -92.000; -959.000; -862.000
349.845;    0.775; -661.000; -591.000
349.978; -137.675;-1224.000;-1137.000
350.111;  -92.000; -546.000; -612.000
350.244;  -76.300; -596.000; -700.000
350.378;   12.625; -392.000; -393.000
350.511;  -63.875; -393.000; -426.000
350.644; -110.600; -808.000; -806.000
350.778;   14.950;  168.000;  104.000
350.911;    5.375;  134.000;  140.000
351.044;  -83.425; -685.000; -615.000
351.177;  -24.425; -321.000; -281.000
351.310;  -11.075;    3.000; -131.000
351.444;  -69.175; -888.000; -788.000
351.577;  115.825;  140.000;   90.000
351.710;  101.625;  593.000;  417.000
351.843;  -41.575; -165.000;  -77.000
351.976;    2.550;  149.000;  -79.000
352.109;  -88.575; -621.000; -612.000
352.242;  -22.925; -464.000; -419.000
352.376;  -59.600; -580.000; -636.000
352.509;  176.225; -437.000; -356.000
352.642;   26.450; -654.000; -604.000
352.775;   84.300; -141.000;  -98.000
352.908; -100.925; -933.000; -904.000
353.041;  -99.500; -814.000; -824.000
353.174;  -56.575; -551.000; -424.000
353.307;  -75.850; -753.000; -764.000
353.440;   69.175;  541.000;  453.000
353.573;  -98.200; -957.000;-1008.000
353.706;  -23.875; -384.000; -558.000
353.839;  -22.350; -264.000; -220.000
353.971; -100.875; -657.000; -512.000
354.104;  -85.325; -896.000; -835.000
354.237;  -27.950; -627.000; -662.000
354.370;  -74.850; -846.000; -879.000
354.503; -164.100;-1231.000;-1308.000
354.636;  -39.900; -529.000; -348.000
354.769; -123.250; -937.000; -860.000
354.902;  -18.225; -230.000; -139.000
355.034;  -18.500; -164.000; -220.000
355.167;  -17.200; -262.000; -162.000
355.300;  -76.750;-1061.000; -880.000
355.433;  969.650;  -71.000;  -14.000
355.565; 1529.125; -402.000; -384.000
355.698;  381.350; -356.000; -296.000
355.831;    2.400; -882.000; -801.000
355.964;   92.950; -285.000; -170.000
356.096;  -82.325; -856.000; -843.000
356.229;    3.475; -523.000; -530.000
356.362;  325.525; -373.000; -266.000
356.494;  584.925; -229.000; -162.000
356.627;  503.975;  269.000;  377.000
356.760;  675.725;  120.000;   53.000
356.892;  956.925; -286.000; -601.000
357.025;  692.400;  403.000;  389.000
357.157;  681.900; -167.000; -179.000
357.290;  639.075; -856.000; -713.000
357.423;  201.475; -667.000; -556.000
357.555;  127.550; -217.000; -228.000
357.688;  139.100; -483.000; -364.000
357.820;  477.475; -870.000; -877.000
357.953; 3878.200; -563.000; -589.000
358.085;  870.100; -632.000; -612.000
358.218; 1274.925;-1131.000; -932.000
358.350;  231.100;  -58.000;  312.000
358.483;  -94.625;-1300.000;-1187.000
358.615;    4.300;-1182.000;-1078.000
358.747;  -47.900;-1187.000;-1058.000
358.880;   45.625; -810.000; -744.000
359.012;    6.325; -376.000; -202.000
359.145;  -40.025; -480.000; -511.000
359.277;   77.775; -962.000; -913.000
359.409; 3178.700;  536.000;  231.000
359.542;  880.200; -738.000; -688.000
359.674;   73.350;   46.000;   13.000
359.806;  -56.300; -565.000; -438.000
359.939;  -29.175; -617.000; -516.000
360.071;  -14.825; -583.000; -579.000
360.203;  -30.500; -411.000; -364.000
360.335;   68.425;  164.000;  -16.000
360.468;  199.950; -249.000; -307.000
360.600; 2561.725; -547.000; -454.000
360.732; 2816.300; -546.000; -423.000
360.864;  415.400;-1216.000;-1044.000
360.996;  313.850; -516.000; -554.000
361.129;   66.550; -389.000; -598.000
361.261;   12.450;  110.000; -113.000
361.393;  -24.575; -252.000; -214.000
361.525;   23.075;   94.000;  244.000
361.657;  -38.250; -821.000; -703.000
361.789;    4.800; -139.000; -155.000
361.921;  276.275; -642.000; -593.000
362.053;  276.925;  524.000;  541.000
362.185;   68.900;  288.000;   72.000
362.318;  -79.575; -709.000; -705.000
362.450;  125.925;  294.000;  444.000
362.582;  123.225; -913.000; -870.000
362.714;  -37.650; -353.000; -332.000
362.846;  -93.125; -606.000; -490.000
362.978; -126.975; -941.000; -811.000
363.109;   51.300; -161.000; -260.000
363.241;  478.350; -739.000; -749.000
363.373;  437.925; -649.000; -564.000
363.505;  663.225; -186.000;  -91.000
363.637;  164.375; -787.000; -601.000
363.769; -110.450;-1067.000;-1080.000
363.901;  -76.675; -596.000; -654.000
364.033;  -97.100;-1103.000;-1062.000
364.165;   -0.150; -283.000; -283.000
364.296;   88.625; -316.000; -177.000
364.428;   88.525;-1344.000;-1220.000
364.560;  -61.300; -679.000; -661.000
364.692;  -61.875; -738.000; -835.000
364.824;  301.100; -588.000; -456.000
364.955;  448.925; -402.000; -564.000
365.087;  895.250;-1097.000; -852.000
365.219;   43.550; -686.000; -816.000
365.351;  -67.000; -526.000; -572.000
365.482;   44.975;  300.000;  240.000
365.614;  -36.775; -402.000; -314.000
365.746; -109.100; -729.000; -752.000
365.877; -102.700; -706.000; -672.000
366.009;  256.000;  -35.000;  -62.000
366.141;  -81.325;-1249.000;-1134.000
366.272; -115.950; -803.000; -719.000
366.404; -101.125;-1005.000; -874.000
366.535;  -23.175; -139.000;  -12.000
366.667; -105.125; -644.000; -649.000
366.799;   19.350;  353.000;  203.000
366.930; -112.525; -862.000; -996.000
367.062;  118.550; -639.000; -613.000
367.193;  160.600; -872.000; -842.000
367.325;  -67.125; -580.000; -684.000
367.456;   59.250; -246.000;   31.000
367.588;  162.900; -371.000; -318.000
367.719;   22.975;  -44.000;  -45.000
367.851;  -21.975; -222.000; -241.000
367.982;  -22.225; -875.000; -732.000
368.113;   97.000; -475.000; -358.000
368.245; -100.425; -960.000; -841.000
368.376;  -23.175; -254.000; -302.000
368.508;  -37.825; -188.000; -263.000
368.639; -133.500;-1166.000;-1034.000
368.770;   -5.475; -670.000; -589.000
368.902;  -56.825; -836.000; -926.000
369.033;  -96.975; -906.000; -855.000
369.164;  -50.800; -720.000; -653.000
369.296;  -91.075; -452.000; -601.000
369.427;   -0.950; -209.000; -144.000
369.558;  -61.125; -593.000; -377.000
369.689;  -85.575; -721.000; -569.000
369.821; -108.850; -951.000; -845.000
369.952;  -12.675;   42.000; -108.000
370.083;  -41.400; -229.000; -108.000
370.214;  -76.400; -735.000; -650.000
370.345;   -2.300;   65.000;   81.000
370.477;  -79.750; -810.000; -790.000
370.608;  244.100; -328.000; -264.000
370.739;  -40.175;-1233.000;-1292.000
370.870;  -25.875;-1102.000; -923.000
371.001;   97.825; -378.000; -467.000
371.132;  -66.400; -754.000; -735.000
371.263;  -35.800;  -42.000; -148.000
371.394; -125.925; -841.000; -748.000
371.525;   21.925;  345.000;  225.000
371.657;  -75.850; -808.000; -670.000
371.788;   85.150;  103.000;  199.000
371.919;  177.025; -384.000; -304.000
372.050; 3821.625;  -91.000; -156.000
372.181; 1185.750; -188.000; -294.000
372.311;  390.775;   42.000; -127.000
372.442;   63.725; -457.000; -451.000
372.573;  -10.400; -444.000; -340.000
372.704; -107.300;-1008.000; -980.000
372.835;   85.900; -228.000; -289.000
372.966;  -44.775; -646.000; -554.000
373.097;  -56.350; -575.000; -711.000
373.228;  -18.375; -717.000; -542.000
373.359;  155.850; -824.000; -536.000
373.490; 1002.250; -881.000; -727.000
373.620; 1270.225;-1001.000; -803.000
373.751; 1888.675; -332.000; -396.000
373.882;  875.475; -663.000; -733.000
374.013;   95.125; -449.000; -262.000
374.143;  -28.975; -581.000; -659.000
374.274;  -89.500; -987.000; -908.000
374.405;  187.225; -388.000; -276.000
374.536;  474.850; -526.000; -387.000
374.666; 1201.775; -759.000; -807.000
374.797;  256.800; -817.000; -868.000
374.928;  920.625; -710.000; -560.000
375.058;  975.950; -535.000; -500.000
375.189;   82.750;  -59.000;  -93.000
375.320;  -94.150; -928.000;-1034.000
375.450;  -32.550; -625.000; -616.000
375.581;  -38.725; -526.000; -436.000
375.712;  -30.825; -574.000; -250.000
375.842;  351.725; -438.000; -415.000
375.973;  243.250; -554.000; -513.000
376.103;  -27.825; -665.000; -648.000
376.234;  -73.475; -531.000; -552.000
376.364;  -14.500; -944.000; -867.000
376.495;  333.200;  925.000;  529.000
376.625;   -0.025; -472.000; -485.000
376.756;   78.475; -709.000; -678.000
376.886;  -45.800;-1178.000;-1026.000
377.017;   50.300;-1048.000;-1061.000
377.147;  353.725; -786.000; -782.000
377.278;   61.700;  174.000;  228.000
377.408; -116.725; -801.000; -815.000
377.538; -102.975; -707.000; -693.000
377.669;  -69.075; -537.000; -613.000
377.799;  -76.475; -645.000; -635.000
377.929;  -51.975; -610.000; -428.000
378.060; -146.850; -781.000; -847.000
378.190;  -54.775; -726.000; -531.000
378.320;  -48.150; -401.000; -406.000
378.451;  -16.875; -131.000;  -22.000
378.581;  -13.025;  -67.000; -110.000
378.711;  161.425; 1035.000;  866.000
378.841;  -11.875; -533.000; -675.000
378.972;  -67.750; -871.000; -751.000
379.102;  -10.700; -652.000; -579.000
379.232;  -22.450; -126.000;  -73.000
379.362;  -98.125;-1001.000; -885.000
379.492;   19.400; -373.000; -424.000
379.623;  114.775;    0.000;  111.000
379.753;  -95.600;-1107.000; -974.000
379.883;  223.375;   59.000;  156.000
380.013;   29.750;-1081.000;-1017.000
380.143;  -94.000;-1097.000;-1056.000
380.273; -100.725; -985.000; -861.000
380.403;   -8.950; -344.000; -257.000
380.533;  -14.975; -651.000; -664.000
380.663;   74.600;  173.000;  128.000
380.793;  -83.250;-1027.000;-1074.000
380.923;  -16.175; -103.000;  -34.000
381.053;  -93.050; -613.000; -623.000
381.183;  -31.925; -106.000; -248.000
381.313;   43.825; -656.000; -470.000
381.443;   54.900; -692.000; -473.000
381.573;  229.975; -402.000; -409.000
381.703;  333.550;-1249.000;-1095.000
381.833; -110.175;-1454.000;-1336.000
381.963;  115.025; -134.000;  -87.000
382.093; 1508.525; -925.000; -909.000
382.223;  503.075; -713.000; -602.000
382.353;  -14.200; -801.000; -608.000
382.482;  411.325;-1091.000; -964.000
382.612;  846.425; -872.000; -644.000
382.742;  468.675; -695.000; -622.000
382.872;  308.525; -565.000; -551.000
383.002;   83.600;  347.000; -132.000
383.131;  -11.850; -226.000; -160.000
383.261;  -55.050; -706.000; -768.000
383.391;  283.025; -552.000; -377.000
383.521; 3113.275;  451.000;  263.000
383.650;  789.250; -947.000; -904.000
383.780;   -6.800; -783.000; -656.000
383.910;  126.200;  880.000;  802.000
384.039;   40.825; -794.000; -656.000
384.169;  259.100;-1205.000;-1017.000
384.299;  -11.300; -650.000; -662.000
384.428;  -90.950; -764.000; -680.000
384.558;  -46.475; -308.000; -275.000
384.687;  -32.725; -414.000; -334.000
384.817;   16.050;   75.000;   -2.000
384.947;   34.575; -234.000; -141.000
385.076;  298.400;  982.000;  912.000
385.206;  106.625;  369.000;  480.000
385.335;  -24.100; -549.000; -417.000
385.465;  -61.250; -655.000; -663.000
385.594;  130.925;  -53.000;  -44.000
385.724;  470.800; -868.000; -838.000
385.853;  138.825; -296.000; -270.000
385.982; 1390.975; -743.000; -787.000
386.112; 2321.825;-1052.000; -871.000
386.241;  182.525; -307.000; -312.000
386.371;   23.825; -174.000;  -87.000
386.500;   14.650; -825.000; -789.000
386.629;   26.025; -874.000; -817.000
386.759;   78.825;  -43.000;   68.000
386.888;   -9.025; -170.000; -250.000
387.017;  -69.800; -648.000; -620.000
387.147;  -80.300; -771.000; -798.000
387.276;    5.275; -410.000; -397.000
387.405;    7.725; -398.000; -342.000
387.535;  -36.875; -452.000; -361.000
387.664;  -49.650; -692.000; -620.000
387.793;   72.600; -198.000; -113.000
387.922;  538.925;  255.000;  200.000
388.052;   33.325; -576.000; -423.000
388.181;   17.025; -342.000; -472.000
388.310;   15.850; -889.000; -710.000
388.439;  -43.400; -749.000; -742.000
388.568;  192.550;  365.000;  244.000
388.697; 1119.975; -756.000; -653.000
388.826;  263.550; -768.000; -666.000
388.956;   73.025; -285.000; -307.000
389.085;  -18.550; -347.000; -287.000
389.214; -107.500; -842.000; -872.000
389.343;  -62.425; -645.000; -413.000
389.472;  382.050;  126.000;  149.000
389.601;  526.600;   91.000;    0.000
389.730;   28.625; -568.000; -687.000
389.859;   57.975;  226.000;   46.000
389.988;  188.925; -423.000; -408.000
390.117;  167.550; -168.000; -146.000
390.246;    3.625; -331.000; -320.000
390.375;  121.725; -673.000; -626.000
390.504;  -51.075; -703.000; -621.000
390.633;  -98.175; -672.000; -726.000
390.761;  -56.550; -732.000; -645.000
390.890;   29.375;   -4.000; -130.000
391.019;  -28.075; -421.000; -441.000
391.148; -116.875; -826.000; -855.000
391.277;  -67.925; -576.000; -493.000
391.406;  -73.025; -821.000; -805.000
391.534;   13.875;  574.000; -301.000
391.663;  -68.800; -583.000; -645.000
391.792;  -86.575; -673.000; -701.000
391.921;  101.575;   -3.000;   15.000
392.050;  199.900; -287.000; -228.000
392.178;  -11.350;-1206.000;-1061.000
392.307;  146.450; -758.000; -712.000
392.436;  100.100; -427.000; -641.000
392.564;   24.450;  166.000;   -6.000
392.693;  -63.775; -860.000; -682.000
392.822;  204.825; -529.000; -534.000
392.950;  118.125; -880.000; -714.000
393.079;  348.150; -188.000; -328.000
393.208;   41.900; -488.000; -511.000
393.336;   -0.075; -170.000; -145.000
393.465;  -52.950; -317.000; -199.000
393.593;   -2.975;   62.000;   79.000
393.722; -150.350;-1121.000; -916.000
393.850;  -29.350; -188.000;  -61.000
393.979; -150.575; -926.000; -805.000
394.107;  -57.900; -517.000; -537.000
394.236;  -15.800; -570.000; -507.000
394.364;  221.600;  383.000;  206.000
394.493;  420.175; -911.000; -767.000
394.621;    3.250; -955.000; -916.000
394.750;  685.100; -873.000; -923.000
394.878; 2893.700; -247.000; -149.000
395.007; 4115.075; -721.000; -807.000
395.135;  334.425; -790.000; -721.000
395.263;  -74.450;-1038.000;-1040.000
395.392;   -0.900;  -25.000; -107.000
395.520; -117.625; -818.000; -679.000
395.648;  -84.075; -865.000; -915.000
395.777;    1.675; -366.000; -405.000
395.905;  -43.725; -449.000; -564.000
396.033;   23.975;  217.000;  172.000
396.162;  656.500; -399.000; -453.000
396.290;  622.350;  -17.000;   -2.000
396.418;  127.825; -555.000; -514.000
396.546;  -50.375; -571.000; -466.000
396.674;  -97.000; -850.000; -878.000
396.803;   10.000;  -72.000;  -23.000
396.931;   94.700; -179.000; -199.000
397.059;   79.400;-1026.000; -989.000
397.187; -103.275;-1026.000; -975.000
397.315; -127.625; -884.000; -649.000
397.443; -110.350; -592.000; -443.000
397.572;  -80.000; -578.000; -424.000
397.700;   -0.725; -607.000; -614.000
397.828;   17.775;  120.000;  -90.000
397.956;  -46.925; -508.000; -478.000
398.084;  -59.150; -767.000; -626.000
398.212;   29.475;  137.000;  124.000
398.340;   23.050;  -56.000;  159.000
398.468;   34.625; -390.000; -169.000
398.596; -123.925; -993.000; -953.000
398.724; -113.800; -762.000; -767.000
398.852; -147.100;-1024.000; -976.000
398.980;  -57.325; -560.000; -560.000
399.108;  -46.125; -982.000; -735.000
399.236;   36.750;   13.000;    8.000
399.363;   -0.275;  222.000;  196.000
399.491;  -66.300; -404.000; -398.000
399.619; -126.925; -829.000; -800.000
399.747; -108.625; -859.000; -771.000
399.875;   86.650;  220.000;  234.000
400.003;  -48.075; -359.000; -284.000
400.130;  -87.225; -421.000; -341.000
400.258;  -40.450;  -83.000;   38.000
400.386;  -65.775; -352.000; -168.000
400.514;  -43.350; -526.000; -587.000
400.641;  -70.725; -928.000; -802.000
400.769; -141.625; -979.000; -888.000
400.897;  -98.275; -838.000; -793.000
401.025;  -27.350; -166.000; -152.000
401.152;  -17.475;  220.000;   38.000
401.280;  -90.525; -430.000; -429.000
401.408; -111.450; -712.000; -576.000
401.535; -108.200; -735.000; -758.000
401.663; -191.625;-1134.000;-1054.000
401.790;  -96.150; -514.000; -525.000
401.918;   43.375;  436.000;  405.000
402.046;  -20.750;  134.000;  122.000
402.173;  -30.400;  -18.000;    7.000
402.301;  -75.625; -519.000; -397.000
402.428;   36.475;  528.000;  383.000
402.556; -134.100;-1188.000; -913.000
402.683;  -34.250;  -20.000;   -1.000
402.811;  -29.650;  -37.000; -206.000
402.938;  -10.750;   20.000;   27.000
403.066;  202.000; -574.000; -558.000
403.193;  353.650;  299.000;  239.000
403.321;  272.925; -396.000; -574.000
403.448;  352.075;   83.000;   27.000
403.575;  146.250;  -90.000;  -46.000
403.703;  -86.075; -732.000; -557.000
403.830;  -72.475; -531.000; -496.000
403.957; -139.700;-1117.000;-1023.000
404.085;   10.000;  -61.000; -172.000
404.212;  108.950;  -50.000;   63.000
404.339;  254.925; -566.000; -306.000
404.467; 5652.900; -612.000; -524.000
404.594; 4015.550; -287.000; -227.000
404.721; 1005.025; -869.000; -764.000
404.848;   84.125; -113.000; -202.000
404.976;  -82.000; -856.000; -783.000
405.103;  -13.850;  -14.000;  -82.000
405.230;    2.275;  190.000;  226.000
405.357;   21.200;  117.000;   44.000
405.484;  242.425;  -49.000;    5.000
405.612;   48.075; -548.000; -563.000
405.739;  -65.300; -488.000; -243.000
405.866;   67.750;  669.000;  385.000
405.993;  -40.350; -398.000; -102.000
406.120; -137.075; -801.000; -887.000
406.247;  -60.025; -323.000; -342.000
406.374;  451.800;  540.000;  629.000
406.501;  141.750; -632.000; -702.000
406.628;  -85.800; -621.000; -589.000
406.755;  -89.050; -803.000; -620.000
406.882;  -32.325; -228.000; -277.000
407.009;  -97.125; -719.000; -628.000
407.136;   55.125; -480.000; -401.000
407.263;  167.450; -939.000; -829.000
407.390;  -74.100; -692.000; -614.000
407.517; -163.750;-1139.000;-1187.000
407.644;  -69.875; -332.000; -256.000
407.771;  -50.750; -249.000; -287.000
407.898;   -5.225;  168.000;  328.000
408.025;  -55.800; -421.000; -313.000
408.151;   -5.500;   82.000;  153.000
408.278;  -68.125; -267.000; -216.000
408.405; -112.600; -931.000; -899.000
408.532;  -61.950; -549.000; -542.000
408.659; -115.575; -677.000; -648.000
408.785; -192.775;-1298.000;-1170.000
408.912;  -72.025; -412.000; -296.000
409.039; -114.175; -610.000; -686.000
409.166;  -99.400; -591.000; -555.000
409.292; -121.175; -571.000; -534.000
409.419; -105.875; -665.000; -649.000
409.546;  -69.500; -431.000; -192.000
409.672; -107.575; -713.000; -545.000
409.799;  -22.175;  -36.000;   34.000
409.926;  -47.375; -180.000; -179.000
410.052; -168.025;-1127.000;-1091.000
410.179;  -77.625; -368.000; -392.000
410.305;  -94.375; -375.000; -493.000
410.432;  -40.975; -220.000; -333.000
410.558;  -92.600; -305.000; -380.000
410.685; -113.275; -688.000; -431.000
410.812;  -95.875; -409.000; -588.000
410.938; -137.500; -964.000; -808.000
411.065;  -83.950; -671.000; -645.000
411.191;  -13.500; -189.000; -174.000
411.317; -100.100; -823.000; -742.000
411.444;  -70.700; -317.000; -246.000
411.570;  -67.075; -339.000; -294.000
411.697; -144.125; -758.000; -752.000
411.823; -163.250; -989.000; -999.000
411.949;  -42.475;  -56.000;   17.000
412.076;  -96.900; -539.000; -519.000
412.202; -115.500; -758.000; -757.000
412.329; -123.950; -798.000; -752.000
412.455; -112.050; -821.000; -657.000
412.581;  -20.150;  -15.000;  172.000
412.707;  -61.375; -540.000; -457.000
412.834;    8.600;  156.000;  219.000
412.960;  -82.350; -785.000; -784.000
413.086;  -94.350; -743.000; -701.000
413.212;  138.900;  604.000;  578.000
413.339;  -57.975; -685.000; -701.000
413.465;    5.350; -364.000; -310.000
413.591;  -83.450; -757.000; -474.000
413.717;  -59.700; -358.000; -366.000
413.843; -125.875; -839.000; -861.000
413.969;  -64.975;  -47.000; -292.000
414.096;  -82.850; -679.000; -679.000
414.222;  -16.250;  -33.000;   85.000
414.348;  -32.275; -652.000; -385.000
414.474;  116.775;   38.000;  -52.000
414.600;   -5.500; -126.000; -144.000
414.726;   -7.650;  -96.000;  -55.000
414.852;  -45.775; -365.000; -342.000
414.978;   36.000;  104.000;  -18.000
415.104;   40.125;   38.000;   80.000
415.230;   24.050; -329.000; -330.000
415.356;   49.300; -409.000; -514.000
415.482;  204.925;   13.000;  -35.000
415.608;  274.900; -247.000; -323.000
415.734;  953.550;   67.000;   38.000
415.860;19595.575; -875.000; -767.000
415.986;15608.500; -685.000; -607.000
416.111; 1405.525; -798.000; -652.000
416.237;  269.050; -424.000; -571.000
416.363; 1050.200; -765.000; -733.000
416.489; 4269.325; -324.000; -251.000
416.615;  536.875; -707.000; -742.000
416.741;  -11.675; -677.000; -784.000
416.866;  -75.150; -673.000; -736.000
416.992; -109.175; -801.000; -818.000
417.118;  -13.800;  -41.000;  -80.000
417.244;  -75.175; -798.000; -531.000
417.369;  -80.350; -801.000; -612.000
417.495;   -6.825; -325.000; -254.000
417.621;  -82.850;-1015.000; -803.000
417.746;   13.200; -579.000; -572.000
417.872;   47.825; -254.000; -144.000
417.998;   56.875; -515.000; -530.000
418.123;  967.000;-1073.000; -845.000
418.249; 5450.850; -512.000; -601.000
418.374;  875.400; -916.000; -824.000
418.500;  116.800; -383.000; -482.000
418.626;  109.950;   70.000;  -59.000
418.751;  125.950; -549.000; -448.000
418.877;  199.975; -637.000; -643.000
419.002; 1672.825; -688.000; -560.000
419.128;12646.550; -930.000; -721.000
419.253; 3408.750; -967.000; -837.000
419.379;  453.475; -391.000; -338.000
419.504;  378.725;  325.000;  415.000
419.629;  529.625; -393.000; -212.000
419.755; 3275.400; -317.000; -254.000
419.880;21036.425;  -98.000;   67.000
420.006;11417.825; -280.000; -221.000
420.131;30315.125; -662.000; -775.000
420.256; 4788.675; -315.000; -316.000
420.382;  621.425; -665.000; -687.000
420.507;   84.950; -649.000; -778.000
420.632;  135.350; -337.000; -339.000
420.758;  254.225; -251.000; -425.000
420.883;  -49.700; -876.000; -672.000
421.008;  -97.125; -775.000; -619.000
421.133;  -69.325; -509.000; -467.000
421.259;  -47.650; -325.000; -259.000
421.384; -118.200; -834.000; -693.000
421.509;  -44.450;-1052.000; -862.000
421.634; 1184.225; -936.000; -820.000
421.759;  578.125; -359.000; -327.000
421.885;  -35.850; -717.000; -656.000
422.010;  -80.425; -673.000; -542.000
422.135; -135.950; -695.000; -727.000
422.260;   37.175;  340.000;  280.000
422.385;  -36.025;   12.000;  -98.000
422.510;   14.225;  151.000;  -26.000
422.635;   13.250;  -87.000;  -43.000
422.760;  120.200; -766.000; -791.000
422.885;   71.425;  -57.000;  -80.000
423.010;  -25.050; -112.000; -169.000
423.135;  -89.200; -481.000; -561.000
423.260;  -15.025; -150.000; -245.000
423.385;   79.775;  476.000;  222.000
423.510;   34.200;   71.000;  -22.000
423.635;  102.150;  133.000;   45.000
423.760;   61.275;  383.000;  328.000
423.885;   61.500;  336.000;  391.000
424.010;   -2.200;  -68.000;  -13.000
424.135;  -17.025;    5.000;  -33.000
424.259;  -82.325; -654.000; -457.000
424.384;  -55.975; -279.000; -272.000
424.509;  -21.775; -260.000; -186.000
424.634;  -62.400; -761.000; -623.000
424.759;  -27.400; -688.000; -544.000
424.883;    6.025; -506.000; -527.000
425.008;  154.475; -502.000; -410.000
425.133; 1971.650; -679.000; -653.000
425.258; 1015.225; -517.000; -381.000
425.382; 1018.775; -867.000; -774.000
425.507; 2797.375; -487.000; -543.000
425.632;  499.100; -802.000; -663.000
425.756;  448.300; -256.000; -146.000
425.881; 6025.850; -831.000; -857.000
426.006;17852.700; -604.000; -355.000
426.130; 3097.325; -696.000; -508.000
426.255;  403.000; -611.000; -491.000
426.379;  156.275; -189.000; -577.000
426.504;  372.600;  660.000;  544.000
426.629; 3970.000; -519.000; -466.000
426.753; 3009.600;   64.000;  -46.000
426.878;  345.150; -252.000; -288.000
427.002;  182.925; -651.000; -668.000
427.127; 1502.725;  -35.000; -158.000
427.251;11375.500;  372.000;  401.000
427.375; 3642.475; -191.000; -173.000
427.500; 2404.975; -616.000; -610.000
427.624;  887.700; -234.000; -400.000
427.749;   87.575; -216.000; -225.000
427.873;  -17.850; -499.000; -412.000
427.997;  -39.500; -222.000; -230.000
428.122;   59.700;  795.000;  703.000
428.246;   71.975;  433.000;  434.000
428.371; -117.325; -869.000; -773.000
428.495;  -99.725; -624.000; -646.000
428.619;  -21.225; -186.000; -117.000
428.743;    8.850;   65.000;  132.000
428.868;   17.625; -732.000; -643.000
428.992; 1442.750; -219.000; -326.000
429.116;  652.825; -329.000; -357.000
429.240;  277.075;  419.000;  426.000
429.365;  -13.050; -454.000; -574.000
429.489;  -36.825; -638.000; -647.000
429.613;   23.000; -236.000; -177.000
429.737;   34.125; -563.000; -432.000
429.861;  274.725; -247.000; -133.000
429.985; 5384.750; -425.000; -305.000
430.109; 6503.400; -770.000; -908.000
430.234;  787.000;   76.000;  -50.000
430.358;   84.400; -250.000; -160.000
430.482;  -71.100; -672.000; -564.000
430.606;  -55.625; -655.000; -375.000
430.730;   19.600; -437.000; -388.000
430.854;  159.325; -909.000; -835.000
430.978;  -65.025; -795.000; -764.000
431.102;  -69.675; -499.000; -422.000
431.226; -125.975; -874.000; -815.000
431.350;   28.050;  345.000;  422.000
431.474;  -64.225; -661.000; -373.000
431.597; -151.200;-1060.000; -848.000
431.721;  -88.975; -276.000; -267.000
431.845; -118.375; -704.000; -472.000
431.969;  -89.050; -304.000; -349.000
432.093;  -85.350; -395.000; -317.000
432.217;   -1.800;   32.000;   82.000
432.341;  -85.125; -523.000; -518.000
432.464;    0.725;   96.000;   40.000
432.588;  230.450; -401.000; -329.000
432.712;  117.700;  -52.000;  -52.000
432.836;   50.525;  213.000;  263.000
432.959;  -22.425; -372.000; -311.000
433.083;   89.050;   11.000;    2.000
433.207;  362.750;  285.000;  930.000
433.330; 4827.675; -391.000; -200.000
433.454; 6449.400; -654.000; -638.000
433.578; 3677.575;  583.000;  278.000
433.701;  740.400; -623.000; -675.000
433.825;  168.075; -292.000; -299.000
433.949;  168.700;   28.000;  -72.000
434.072;   78.325; -410.000; -323.000
434.196;   -5.350; -309.000; -117.000
434.319; 3581.675;25482.000;25124.000
434.443;  671.225; -656.000; -603.000
434.566; 2655.550;  281.000;   62.000
434.690;  511.900; -637.000; -383.000
434.813;   71.825; -251.000; -173.000
434.937;  -69.775; -569.000; -696.000
435.060;  -44.925; -423.000; -332.000
435.184;  316.175; -492.000; -217.000
435.307;  192.150;  159.000;  102.000
435.431;  -11.075;  -40.000;   24.000
435.554;  -73.150; -399.000; -240.000
435.677;  -91.175; -350.000; -258.000
435.801;  -34.100;  -25.000;   49.000
435.924;  -14.875;    1.000;  -67.000
436.048; -109.200;-1019.000; -732.000
436.171;  -71.850; -240.000;  -66.000
436.294;  -29.325; -248.000; -229.000
436.417;   86.525; -963.000; -849.000
436.541;  -64.425; -814.000; -840.000
436.664;  -49.325; -242.000; -316.000
436.787;  -22.575;   13.000;  113.000
436.910; -118.225; -792.000; -422.000
437.034;    9.025;  142.000;  143.000
437.157;   46.700;  -11.000;    0.000
437.280;  -50.150; -392.000; -292.000
437.403;  -82.675; -982.000; -869.000
437.526;  593.100; -903.000; -865.000
437.649; 2353.075; -505.000; -332.000
437.772;  420.725; -692.000; -540.000
437.896;  132.200;  700.000;  544.000
438.019;  -93.675; -758.000; -503.000
438.142;  -91.950; -596.000; -506.000
438.265;   -9.125; -639.000; -670.000
438.388;  604.075; -520.000; -410.000
438.511;  135.575; -597.000; -394.000
438.634;  -42.175; -247.000; -125.000
438.757; -136.725; -693.000; -619.000
438.880;  -29.700;  -34.000;  -57.000
439.003;  -64.900; -417.000; -437.000
439.126;  -67.475; -287.000; -167.000
439.248;  -71.425;  -98.000; -139.000
439.371;  -62.700;    9.000;  -53.000
439.494;   30.450;  510.000;  439.000
439.617;  -63.950;   65.000;  -88.000
439.740; -173.000; -968.000; -816.000
439.863; -143.575; -755.000; -595.000
439.986; -115.225; -476.000; -431.000
440.108;  -57.350; -161.000; -112.000
440.231; -153.550; -950.000; -836.000
440.354;  -43.425;  -64.000; -150.000
440.477;   43.850; -566.000; -542.000
440.599;   15.200; -200.000; -225.000
440.722;  -92.350; -709.000; -586.000
440.845;   70.875;  751.000;  928.000
440.968; -106.775; -415.000; -311.000
441.090;  -77.000; -199.000;  -33.000
441.213; -155.525;-1021.000; -825.000
441.336;  -61.300; -159.000;   -5.000
441.458;  -83.900; -549.000; -396.000
441.581;  -86.775; -628.000; -629.000
441.703;  -70.325; -152.000;   13.000
441.826; -123.100; -557.000; -400.000
441.948;  -44.225;   56.000;   51.000
442.071;   20.900;  555.000;  424.000
442.193; -107.975; -531.000; -485.000
442.316;   18.425;  152.000;   97.000
442.438;   43.900; -233.000;  -10.000
442.561;   68.525;  272.000;  262.000
442.683;  508.275; -809.000; -522.000
442.806; 1233.850;   -8.000;   74.000
442.928;   64.375; -859.000; -604.000
443.051;  -61.950; -577.000; -373.000
443.173;  -89.800; -341.000; -339.000
443.295; -108.300; -263.000; -371.000
443.418;  -76.125; -321.000;  -29.000
443.540;  -22.175; -106.000;   -4.000
443.662; -110.675; -563.000; -465.000
443.785;  -19.050;  335.000;  199.000
443.907; -103.000; -362.000; -208.000
444.029; -136.675; -767.000; -494.000
444.152; -137.950; -644.000; -554.000
444.274;  -35.350;  -18.000;  -24.000
444.396; -113.175; -461.000; -221.000
444.518; -133.250; -691.000; -454.000
444.640; -100.300; -268.000; -111.000
444.763;  -32.225;  388.000;  249.000
444.885; -113.875; -432.000; -392.000
445.007;  -46.300;   35.000;   86.000
445.129; -115.150; -610.000; -515.000
445.251;  -94.050; -372.000; -439.000
445.373; -107.650; -537.000; -386.000
445.495;   -2.550;  242.000;  350.000
445.617;   40.750;  853.000;  753.000
445.739;  -62.175; -215.000;  -97.000
445.861;  -40.750; -245.000; -112.000
445.984;  -25.675; -267.000; -101.000
446.105;  186.875; -418.000; -251.000
446.227;  632.175; -176.000;  -19.000
446.349;   30.725; -358.000; -249.000
446.471; -106.975; -615.000; -448.000
446.593;  -59.225; -316.000;   19.000
446.715;   -0.550;  -67.000;   41.000
446.837;   59.550;  697.000;  832.000
446.959; -113.400; -457.000; -478.000
447.081; -134.000; -628.000; -518.000
447.203;   42.150;  862.000;  834.000
447.325;  -86.150; -270.000;   42.000
447.446;   -7.700;  286.000;  530.000
447.568; -150.275; -921.000; -803.000
447.690;  -83.000; -236.000; -245.000
447.812; -155.225; -798.000; -519.000
447.933;  -36.625;  155.000;  127.000
448.055;  -59.300; -306.000; -261.000
448.177;  144.950;   31.000;   79.000
448.299;  104.000; -935.000; -727.000
448.420;   19.625;  -25.000;  159.000
448.542;  -38.250;   -3.000;   33.000
448.664;  -30.475;  109.000;  322.000
448.785;  -42.700;  265.000;   83.000
448.907;  -83.125; -614.000; -353.000
449.028;  -25.800; -771.000; -471.000
449.150;   56.500;  492.000;  589.000
449.272; -171.950;-1044.000; -913.000
449.393;   38.775;  612.000;  694.000
449.515; -128.775; -634.000; -581.000
449.636;  -65.875; -264.000; -155.000
449.758;   76.900;  763.000;  622.000
449.879; -100.200; -498.000; -396.000
450.001;  -77.500; -149.000;  -49.000
450.122;  -41.850;  -95.000;  162.000
450.244;  -20.275;   37.000;  364.000
450.365;  -87.850; -495.000; -301.000
450.486;  -38.175;   80.000;  268.000
450.608;    5.750;  393.000;  326.000
450.729;   61.300;  578.000;  645.000
450.850;    6.575; -574.000; -466.000
450.972;  698.825; -552.000; -389.000
451.093; 4791.425;  190.000;  588.000
451.214; 2362.350; -516.000; -337.000
451.336;  439.375;  773.000;  579.000
451.457;   80.075;  264.000;  393.000
451.578;  -41.625; -118.000;  -74.000
451.699; -100.925; -546.000; -540.000
451.821;  -75.150; -284.000;  -50.000
451.942;  -11.025;  278.000;  285.000
452.063;   32.575;  228.000;  419.000
452.184;  518.275;  -54.000;  -49.000
452.305; 1120.325;  103.000;  170.000
452.427;  161.425; -549.000; -301.000
452.548;  -18.575;   23.000;   79.000
452.669;  -40.525; -257.000;  -89.000
452.790;  -51.550;    3.000;  -18.000
452.911;   -0.225;  195.000;  259.000
453.032;  -72.150; -289.000;  -60.000
453.153;  -51.875;  -29.000;   81.000
453.274;   52.725;  737.000;  868.000
453.395;  -37.100;  -51.000;  175.000
453.516;  114.900; 1317.000; 1388.000
453.637;  -59.925; -205.000; -150.000
453.758;  -49.625;   15.000;   69.000
453.879; -117.275; -462.000; -250.000
454.000;   65.100; 1086.000;  948.000
454.121; -106.000; -554.000; -326.000
454.242; -103.725; -599.000; -383.000
454.362;  -38.600;  -99.000;  114.000
454.483;  -48.425; -309.000; -229.000
454.604;   59.450;  512.000;  580.000
454.725; -121.600; -627.000; -555.000
454.846; -115.375; -474.000; -406.000
454.967;  -28.400;  230.000;  539.000
455.087;  -42.850;  179.000;  153.000
455.208;   13.600;  554.000;  856.000
455.329;  -62.300;  -22.000;   82.000
455.450;   37.275;  473.000;  633.000
455.570;  -81.950; -234.000; -211.000
455.691;  -44.575;  201.000;  407.000
455.812;  -99.025; -270.000;  -92.000
455.932;  -67.200;  107.000;  -97.000
456.053;  -79.750;   36.000;   24.000
456.173; -112.175; -433.000; -355.000
456.294; -136.850; -476.000; -303.000
456.415;  -70.275;  -73.000;   70.000
456.535;  -41.075;  297.000;  273.000
456.656;  -41.925;  132.000;  240.000
456.776;  -60.525;    3.000;  298.000
456.897;   -3.650;  308.000;  513.000
457.017;  -82.450; -153.000;   -3.000
457.138; -109.025; -402.000; -249.000
457.258;  -11.225;  263.000;  224.000
457.379;   -8.000;  509.000;  521.000
457.499;  -27.500;  443.000;  432.000
457.620; -125.450; -407.000; -231.000
457.740;  -87.550; -132.000;  -11.000
457.860;  -58.225;   87.000;   44.000
457.981;  -59.050;  132.000;  124.000
458.101;  -76.775;  -89.000;   40.000
458.221;   -8.350;  336.000;  402.000
458.342;  -53.975;   -4.000;  -37.000
458.462;   10.550;  617.000;  352.000
458.582;  -40.600; -302.000; -294.000
458.703;   14.725;  303.000;  154.000
458.823;  -22.750;   22.000;  163.000
458.943;   21.500;  341.000;  467.000
459.063;  -23.975; 1124.000;  192.000
459.183;  -24.450;  328.000;  313.000
459.304;   -4.875;  315.000;  517.000
459.424;  -73.200; -246.000;  -89.000
459.544;  304.275;  388.000;  764.000
459.664;  842.675;  499.000;  506.000
459.784;  345.500; 1004.000; 1175.000
459.904;   61.075;  867.000;  744.000
460.024;   60.850;  867.000;  684.000
460.144;   13.075;  449.000;  554.000
460.264;   -2.975;  515.000;  327.000
460.385;  -78.550; -145.000; -119.000
460.505;   23.275;  905.000;  858.000
460.625;  -82.150;  -17.000;  -68.000
460.745;  -14.225;  396.000;  541.000
460.864;  -53.525;  153.000;  469.000
460.984;    3.175;  499.000;  573.000
461.104;  140.925; 1656.000; 1775.000
461.224;    4.800;  657.000;  650.000
461.344;  -25.250;  431.000;  360.000
461.464;  -32.900;  258.000;  513.000
461.584;  -17.600;  283.000;  466.000
461.704;  -52.450;   58.000;  108.000
461.824;  -70.700;  238.000;  259.000
461.943;  -47.975;  191.000;  130.000
462.063;  -61.225;    2.000;  324.000
462.183;   27.225;  639.000;  717.000
462.303;   91.500; 1678.000; 1230.000
462.422;   30.800;  781.000;  840.000
462.542;  -40.200;  271.000;  391.000
462.662;   35.125;  353.000;  380.000
462.782;  237.675;  833.000;  572.000
462.901;  507.250;  545.000;  717.000
463.021;  296.400; 1702.000; 1638.000
463.141;   -3.900;  337.000;  770.000
463.260;  -14.475;  614.000;  474.000
463.380;   -2.525;  902.000;  884.000
463.499;  -23.500;  342.000;  332.000
463.619;  -29.875;  581.000;  559.000
463.738;  109.000; 1644.000;  903.000
463.858;   25.425;  657.000;  811.000
463.978;  -24.475;  542.000;  396.000
464.097;   39.725;  921.000; 1114.000
464.217;  117.300; 1196.000; 1143.000
464.336;  113.000; 1068.000; 1130.000
464.455;  -27.350;  328.000;  659.000
464.575;   39.975;  597.000;  602.000
464.694;  166.125; 1204.000; 1179.000
464.814;  133.325; 1190.000; 1138.000
464.933;   76.825; 1095.000; 1027.000
465.052;   74.875; 1412.000; 1054.000
465.172;   84.725;  922.000;  799.000
465.291;  132.575; 1376.000; 1320.000
465.410;   18.425;  462.000;  735.000
465.530;   85.000; 1355.000; 1310.000
465.649;   69.875; 1209.000; 1273.000
465.768;  139.725; 1673.000; 1508.000
465.888;   57.525;  941.000; 1174.000
466.007;   95.675; 1335.000; 1440.000
466.126;   -5.400;  721.000;  641.000
466.245;   40.600; 1176.000; 1187.000
466.364;   26.825;  950.000; 1060.000
466.484;   50.525; 1024.000; 1213.000
466.603;   36.000; 1101.000; 1222.000
466.722;  118.125; 1490.000; 1769.000
466.841;   93.825; 1151.000; 1401.000
466.960;   31.125; 1069.000;  972.000
467.079;  145.075; 1971.000; 1786.000
467.198;   38.825; 1238.000; 1181.000
467.317;   95.625; 1768.000; 1162.000
467.436;   79.925; 1709.000; 1261.000
467.555;  119.350; 1796.000; 1746.000
467.674;   67.500; 1227.000; 1329.000
467.793;   45.500; 1376.000; 1374.000
467.912;   91.600; 1658.000; 1539.000
468.031;  124.550; 2038.000; 1930.000
468.150;  146.725; 1842.000; 1837.000
468.269;  201.650; 2313.000; 2090.000
468.388;  185.300; 2168.000; 2339.000
468.507;  247.025; 2884.000; 2903.000
468.626;  262.200; 2555.000; 2541.000
468.744;  147.325; 2018.000; 2174.000
468.863;  200.675; 2312.000; 2523.000
468.982;   90.150; 1503.000; 1555.000
469.101;  218.275; 2788.000; 2692.000
469.220;  154.450; 2333.000; 2176.000
469.338;  259.500; 2935.000; 3051.000
469.457;  210.000; 2719.000; 2545.000
469.576;  322.075; 3953.000; 3784.000
469.695;  239.750; 2877.000; 3066.000
469.813;  417.750; 4148.000; 4192.000
469.932;  408.750; 4255.000; 4485.000
470.051;  410.650; 4075.000; 4161.000
470.169;  844.175; 4470.000; 4338.000
470.288; 1486.425; 4700.000; 4809.000
470.406;  930.925; 5059.000; 5194.000
470.525;  629.900; 6101.000; 5787.000
470.644;  635.100; 6847.000; 6794.000
470.762;  800.325; 8397.000; 7873.000
470.881;  890.800; 8651.000; 8464.000
470.999; 1019.150; 9685.000; 9151.000
471.118; 1099.050;11174.000;10711.000

