
Integration time [ms]: 100.000
Averaging Nr. [scans]: 40
Smoothing Nr. [pixels]: 0
Data measured with spectrometer [name]: 2101012U2
Wave   ;Sample   ;Dark     ;Reference
[nm]   ;[counts] ;[counts] ;[counts] 

197.733;   54.950;  516.000;  404.000
197.879;  -78.750; -610.000; -634.000
198.025;  -43.375; -475.000; -420.000
198.171;  -68.250; -602.000; -612.000
198.317;  -36.900; -401.000; -316.000
198.463;  -75.225; -655.000; -404.000
198.609;   22.750;  181.000; -137.000
198.755;  -86.725; -644.000; -410.000
198.901;  -70.325; -505.000; -424.000
199.047;  -67.425; -615.000; -488.000
199.193;  -42.550; -230.000; -468.000
199.339;  -39.900; -222.000; -369.000
199.485;   39.300;  330.000;  271.000
199.631;   12.950;  227.000;  310.000
199.777;  -54.575; -466.000; -398.000
199.923;  -72.625; -610.000; -424.000
200.069;   -2.425; -141.000;  -58.000
200.215;   48.800;  128.000;  453.000
200.361;   33.925;  243.000;  477.000
200.507;  -68.525; -600.000; -373.000
200.653;  -33.925; -371.000; -194.000
200.798;  -38.825; -215.000; -125.000
200.944;   -5.675; -146.000;  -41.000
201.090;   33.775;   61.000;  222.000
201.236;    1.550; -116.000; -158.000
201.382;  120.350;  874.000;  903.000
201.528;    6.800;  -58.000;  -48.000
201.674;  -40.550; -386.000; -293.000
201.819;  -59.050; -540.000; -439.000
201.965;  -86.075; -699.000; -447.000
202.111;  -29.650; -273.000; -226.000
202.257;  -38.075; -250.000; -238.000
202.402;    5.025;   13.000;  -36.000
202.548;  -32.425; -169.000; -116.000
202.694;   71.175;  410.000; -183.000
202.840;  -77.200; -603.000; -531.000
202.985;  -66.575; -681.000; -639.000
203.131; -103.375; -832.000; -666.000
203.277;  -18.975; -199.000; -262.000
203.423;  -52.025; -434.000; -520.000
203.568;  -35.850; -462.000; -237.000
203.714;  -61.900; -535.000; -542.000
203.860;  -78.825; -682.000; -641.000
204.005;    7.000;  112.000;  167.000
204.151;   70.400;  561.000;  556.000
204.296;  -55.250; -354.000; -221.000
204.442;  -64.425; -600.000; -547.000
204.588;  -69.625; -592.000; -579.000
204.733;   10.125;  178.000;  168.000
204.879; -131.200;-1018.000; -822.000
205.025;   -7.650;  -99.000;  126.000
205.170;   -4.075;  -17.000;   94.000
205.316;   65.750;  438.000;  661.000
205.461;  -83.525; -698.000; -554.000
205.607;   73.500;  609.000;  665.000
205.752;  -81.725; -626.000; -551.000
205.898;  -47.250; -501.000; -391.000
206.043;  -57.425; -578.000; -506.000
206.189;  -36.900; -243.000; -285.000
206.334;   71.400;  554.000;  606.000
206.480;   78.475;  409.000;  239.000
206.625;  -86.500; -529.000; -552.000
206.771;  -48.125; -451.000; -373.000
206.916;  -24.475; -210.000; -537.000
207.062;  -56.050; -545.000; -591.000
207.207;  -60.200; -546.000; -443.000
207.353;   45.400;  185.000;  460.000
207.498;   13.475;  196.000;   85.000
207.643;  -45.475; -501.000; -370.000
207.789; -128.475;-1069.000; -910.000
207.934;  -86.525; -665.000; -713.000
208.080;  -31.025; -154.000;   66.000
208.225;  -10.675;  -22.000;  -57.000
208.370;  -89.500; -727.000; -619.000
208.516;  -76.900; -741.000; -487.000
208.661;  -28.175; -127.000;  -69.000
208.806;  -27.525; -165.000; -171.000
208.952; -123.375;-1044.000; -731.000
209.097;   70.675;  378.000;  349.000
209.242;  -35.325; -307.000; -382.000
209.387;   60.975;  392.000;  350.000
209.533;  -55.000; -321.000; -350.000
209.678;   73.100;  472.000;  543.000
209.823;  -52.200; -408.000; -310.000
209.969; -102.425; -860.000; -757.000
210.114; -109.350; -907.000; -719.000
210.259; -125.000; -939.000; -889.000
210.404;  -23.925; -171.000;  103.000
210.549;    8.475;  108.000;    3.000
210.695;  -18.575;   -3.000;  -95.000
210.840;   11.925;   94.000;   67.000
210.985;  -68.575; -484.000; -303.000
211.130;   58.850;  268.000;  406.000
211.275;   18.900;  207.000;  199.000
211.420;  -38.150; -300.000; -289.000
211.566;  -69.925; -536.000; -489.000
211.711;   14.375;  218.000;  157.000
211.856;  -59.750; -545.000; -519.000
212.001;    5.725;  151.000;   44.000
212.146;   14.875;  153.000;   49.000
212.291;  -34.000; -210.000; -186.000
212.436;  -32.450; -280.000;   -6.000
212.581;  -84.950; -685.000; -653.000
212.726;  -74.675; -487.000; -538.000
212.871;  -53.375; -552.000; -217.000
213.016; -139.875;-1172.000;-1029.000
213.161;   57.625;  406.000;  291.000
213.306;  -68.050; -435.000; -577.000
213.451;  -87.400; -778.000; -689.000
213.596;  -44.050; -455.000; -347.000
213.741;  -50.525; -448.000; -538.000
213.886;  -80.675; -498.000; -517.000
214.031;  -29.750; -294.000; -124.000
214.176;  -58.350; -408.000; -341.000
214.321;   -9.375; -296.000; -157.000
214.466;  -31.825; -163.000;  -43.000
214.611;    3.225;  -61.000;  -10.000
214.756; -118.275; -948.000; -858.000
214.901;  -20.625; -388.000; -226.000
215.046; -118.950; -797.000; -825.000
215.191;   11.050;  128.000;   35.000
215.336;  -12.450; -157.000;  -19.000
215.480;  -66.700; -684.000; -505.000
215.625;   -6.525; -175.000;  -19.000
215.770;  -88.325; -757.000; -662.000
215.915;  -23.025;   -5.000;  -97.000
216.060;  -11.775; -113.000;  -21.000
216.205; -108.075; -731.000; -779.000
216.349;  -77.500; -470.000; -533.000
216.494; -131.975; -939.000; -867.000
216.639; -128.775; -823.000; -888.000
216.784; -100.075; -577.000; -525.000
216.929;   54.575;  392.000;  281.000
217.073;   -8.225; -244.000;  -31.000
217.218;    0.750;   78.000;  -47.000
217.363;  -87.925; -656.000; -618.000
217.507;  -74.000; -623.000; -588.000
217.652; -116.125; -845.000; -874.000
217.797;  -79.475; -708.000; -659.000
217.942;  -96.450; -856.000; -720.000
218.086;   73.700;  608.000;  539.000
218.231;  -25.425; -174.000;  -26.000
218.376;  -25.775; -337.000; -229.000
218.520;   -4.925;  -41.000;   96.000
218.665;  -28.400; -338.000; -204.000
218.810;  -38.925; -275.000; -233.000
218.954;   10.825;  201.000;   35.000
219.099; -110.675; -713.000; -963.000
219.243;  -64.850; -589.000; -554.000
219.388;  -40.150; -264.000; -136.000
219.532;  -10.775; -116.000; -116.000
219.677;  -66.550; -564.000; -521.000
219.822;    8.650;   33.000;   89.000
219.966;   10.375;   17.000;  -99.000
220.111;  -35.350; -328.000;  -40.000
220.255; -102.250; -797.000; -750.000
220.400;  -26.275; -180.000; -146.000
220.544;  -75.400; -516.000; -450.000
220.689;  -48.775; -422.000; -451.000
220.833;  -28.575; -123.000;  -58.000
220.978;  -52.500; -393.000; -563.000
221.122;   14.200;  319.000;  307.000
221.267; -109.075; -906.000; -837.000
221.411;  -56.800; -478.000; -394.000
221.555;   -8.125; -104.000;  -23.000
221.700;  -51.325; -329.000; -222.000
221.844;   25.525;  255.000;  272.000
221.989;  -41.750; -328.000; -311.000
222.133;  -29.150; -289.000; -307.000
222.277;  -11.975;    5.000;   78.000
222.422;   16.575;  227.000;  113.000
222.566;  -46.975; -381.000; -214.000
222.711;  -44.800; -414.000; -479.000
222.855;  -75.800; -643.000; -586.000
222.999;  -76.400; -642.000; -717.000
223.144;  -31.650; -195.000; -194.000
223.288;   50.550;  423.000;  251.000
223.432;   19.050;  184.000;  230.000
223.576;   24.450;  152.000;  -21.000
223.721;   39.800;  364.000;  273.000
223.865;  -65.375; -472.000; -475.000
224.009;  232.100; 1673.000; 1631.000
224.153;  -86.000; -660.000; -671.000
224.298;  -60.975; -531.000; -489.000
224.442;  -10.200;  -74.000;  -33.000
224.586;  -15.300; -169.000; -106.000
224.730;  -87.725; -858.000; -670.000
224.875; -115.850; -739.000; -688.000
225.019;   12.325;  102.000;  188.000
225.163;   46.325;  208.000;  341.000
225.307;   15.225;   97.000;  -91.000
225.451;   41.500;  360.000;  481.000
225.595;   23.475;  264.000;  176.000
225.739;  -24.725; -170.000;  -94.000
225.884;   11.325;   86.000;    5.000
226.028;  -92.875; -760.000; -626.000
226.172;  -44.575; -260.000; -273.000
226.316; -118.650; -941.000; -902.000
226.460;  -71.200; -645.000; -493.000
226.604;  -48.350; -406.000; -400.000
226.748; -101.200; -836.000; -733.000
226.892;  -31.700; -227.000; -181.000
227.036;  -49.175; -537.000; -447.000
227.180;  -68.850; -551.000; -375.000
227.324;  -61.200; -561.000; -580.000
227.468; -129.400; -819.000; -717.000
227.612;    2.350;  242.000;  -28.000
227.756; -100.650; -845.000; -698.000
227.900;   44.050;  342.000;  441.000
228.044;  -58.700; -509.000; -290.000
228.188;   52.225;  448.000;  568.000
228.332;  -83.400; -546.000; -472.000
228.476;  -34.225; -223.000; -149.000
228.620;  -29.225; -210.000; -150.000
228.764;   55.400;  431.000;  349.000
228.908;  -30.450; -155.000;   30.000
229.052;  -65.275; -615.000; -528.000
229.195;   -6.700; -172.000;   13.000
229.339;  -27.500; -235.000; -305.000
229.483;  -26.125;    5.000; -162.000
229.627;    0.625; -156.000;  139.000
229.771;  -53.225; -218.000; -294.000
229.915;    4.650;  230.000;   79.000
230.059;  -82.550; -648.000; -663.000
230.202;  -41.925; -370.000; -317.000
230.346;  -25.450; -107.000;  107.000
230.490;  -68.600; -489.000; -521.000
230.634;  -96.725; -736.000; -553.000
230.777;   71.500;  478.000;  509.000
230.921;  -60.100; -450.000; -359.000
231.065;  -55.600; -246.000; -286.000
231.209;   24.050;  261.000;  265.000
231.352;   22.475;   54.000;   40.000
231.496;   13.850;  568.000;  188.000
231.640;  -68.975; -693.000; -621.000
231.783;   60.350;  546.000;  525.000
231.927;  -45.550; -294.000; -365.000
232.071; -113.625; -962.000; -736.000
232.214; -108.800; -980.000; -764.000
232.358; -103.450; -683.000; -599.000
232.502;   -0.650;  -19.000;    7.000
232.645; -138.650;-1090.000; -927.000
232.789;  -21.625; -257.000; -218.000
232.933;  -43.225; -407.000; -224.000
233.076; -128.075;-1038.000; -897.000
233.220; -111.675; -752.000; -777.000
233.363;  -76.850; -669.000; -477.000
233.507;   44.750;  371.000;  129.000
233.650;  -98.200; -764.000; -834.000
233.794;   34.200;  438.000;  461.000
233.938;  -58.800; -530.000; -362.000
234.081;  -25.400;  -93.000;   31.000
234.225;  -61.125; -631.000; -539.000
234.368; -117.250; -773.000; -723.000
234.512;  -41.575; -385.000; -299.000
234.655;  -99.550; -582.000; -555.000
234.798;  -67.025; -493.000; -466.000
234.942; -132.625; -884.000;-1002.000
235.085;  -63.200; -651.000; -443.000
235.229;  -75.250; -405.000; -410.000
235.372;  -49.100; -247.000; -191.000
235.516;  -73.700; -397.000; -321.000
235.659;   13.725;   92.000;  121.000
235.802;  -23.800;  -38.000;  -22.000
235.946;   16.875;  335.000;  215.000
236.089;   30.675;  126.000;  250.000
236.233;   54.675;  275.000;  298.000
236.376;  -45.450; -235.000; -378.000
236.519;  -47.425; -297.000; -319.000
236.663;  -24.175; -215.000; -117.000
236.806; -132.975;-1029.000; -999.000
236.949;   44.950;  543.000;  431.000
237.092;   47.250;  412.000;  391.000
237.236;  -92.050; -589.000; -502.000
237.379;   74.325;  352.000;  428.000
237.522; -121.600; -879.000; -768.000
237.666;  -12.525; -271.000;   18.000
237.809; -123.425; -851.000; -823.000
237.952;   16.175;  469.000;  271.000
238.095;  -67.500; -447.000; -442.000
238.238;   75.700;  688.000;  700.000
238.382;   10.925;  166.000;  103.000
238.525;  -70.575; -598.000; -511.000
238.668; -142.600;-1060.000; -985.000
238.811;  -89.325; -638.000; -643.000
238.954;  -52.700; -483.000; -334.000
239.097;   87.975;  617.000;  664.000
239.241;   23.900;  394.000;  326.000
239.384;  -42.125; -254.000; -214.000
239.527;  -63.775; -424.000; -224.000
239.670; -139.400; -994.000;-1091.000
239.813;  -98.450; -696.000; -658.000
239.956;   75.725;  579.000;  473.000
240.099; -115.125; -778.000; -725.000
240.242;   53.875;  428.000;  432.000
240.385;   33.775;  466.000;  450.000
240.528;  -70.575; -706.000; -473.000
240.671;   17.100;  189.000;  134.000
240.814;  -43.325; -441.000; -158.000
240.957;  -90.750; -767.000; -578.000
241.100;  -98.025; -779.000; -755.000
241.243; -153.075;-1234.000; -893.000
241.386;  -70.825; -508.000; -379.000
241.529;  -91.200; -735.000; -547.000
241.672;  -67.225; -566.000; -495.000
241.815; -116.350; -832.000; -808.000
241.958;  -29.300; -125.000; -182.000
242.101;  -67.225; -545.000; -390.000
242.244;  -48.275; -270.000; -325.000
242.387;  -58.375; -304.000; -246.000
242.530;   42.325;  470.000;  134.000
242.673;  -40.750; -381.000; -309.000
242.815; -113.650; -925.000; -899.000
242.958;  -75.775; -482.000; -381.000
243.101;   20.900;  132.000;  187.000
243.244;  -83.025; -564.000; -521.000
243.387;  -46.175; -313.000; -316.000
243.530;  -85.950; -657.000; -674.000
243.672;   -4.300;   43.000;  -92.000
243.815;  -46.375; -355.000; -283.000
243.958;   -6.100;   98.000;  -26.000
244.101;   -3.875;   59.000;  -16.000
244.243;  -19.075;  -47.000;  101.000
244.386; -114.300; -761.000; -630.000
244.529;  -37.875; -132.000; -139.000
244.672; -152.225;-1154.000; -951.000
244.814; -104.200; -621.000; -794.000
244.957;  -65.775; -380.000; -304.000
245.100;  -72.650; -489.000; -489.000
245.242;  -69.950; -387.000; -374.000
245.385;   -8.525;  -59.000;  -39.000
245.528; -111.375; -871.000; -705.000
245.670;   85.700;  612.000;  634.000
245.813;  -91.125; -599.000; -547.000
245.956;  -26.225; -324.000; -275.000
246.098;  -85.050; -508.000; -650.000
246.241;   -6.250;  194.000;   48.000
246.383;  -17.275; -119.000;  -73.000
246.526;  -75.900; -454.000; -525.000
246.669; -104.650; -889.000; -780.000
246.811;    9.125;  172.000;   -1.000
246.954;  -53.050; -512.000; -426.000
247.096;  -31.500;  -84.000;   -6.000
247.239;  -76.325; -482.000; -445.000
247.381;  -69.200; -647.000; -488.000
247.524;   79.200;  645.000;  679.000
247.666;  -12.200;   58.000;   11.000
247.809; -118.150; -887.000; -691.000
247.951;   -2.000;  -75.000;  138.000
248.094;   26.500;  432.000;  308.000
248.236; -159.875;-1262.000;-1238.000
248.378;    8.800; -356.000;  -81.000
248.521;  -25.550; -334.000; -337.000
248.663;  -37.125; -236.000; -267.000
248.806;  -23.900; -300.000; -266.000
248.948;  -95.350; -886.000; -763.000
249.090;  -49.100; -428.000; -398.000
249.233;  -47.800; -344.000; -381.000
249.375;  -70.175; -474.000; -451.000
249.518;  -25.250;  -83.000; -133.000
249.660;   -2.700; -103.000;    3.000
249.802; -169.600;-1303.000;-1189.000
249.945;  -78.200; -612.000; -540.000
250.087; -108.800; -834.000; -768.000
250.229;  -43.000; -362.000; -480.000
250.371;  -76.750; -494.000; -439.000
250.514;  -43.300; -310.000; -244.000
250.656;  -70.200;   69.000;  102.000
250.798; -122.075; -849.000; -800.000
250.940;  -73.700; -322.000; -322.000
251.083;  -35.750; -335.000; -111.000
251.225;   54.900;  338.000;  310.000
251.367;  -46.175; -274.000; -373.000
251.509;  -49.700; -265.000; -210.000
251.651; -103.250; -731.000; -671.000
251.794;   64.550;  538.000;  632.000
251.936; -115.500; -821.000; -747.000
252.078;  -82.100; -540.000; -461.000
252.220;  -75.525; -645.000; -477.000
252.362;   78.900;  344.000;  462.000
252.504;  -78.675; -677.000; -584.000
252.646; -105.400; -875.000; -722.000
252.788;   -1.200;   14.000; -128.000
252.931;  -41.175; -257.000; -253.000
253.073;  -44.850; -376.000; -317.000
253.215;  -24.250;  141.000;  122.000
253.357;  -29.350;   82.000; -153.000
253.499;  -57.550; -374.000; -234.000
253.641;  -84.450; -749.000; -594.000
253.783;  -98.100; -609.000; -527.000
253.925;  -83.925; -586.000; -591.000
254.067;  -99.400; -744.000; -667.000
254.209;  -32.500; -391.000; -259.000
254.351; -120.725; -865.000; -883.000
254.493;  -63.125; -441.000; -417.000
254.635; -132.250; -936.000; -818.000
254.777;  -70.800; -752.000; -687.000
254.918;  -59.375; -512.000; -430.000
255.060;  -57.700; -551.000; -395.000
255.202;  -64.100; -473.000; -261.000
255.344;  -77.325; -658.000; -455.000
255.486;  -75.450; -471.000; -406.000
255.628; -105.025; -780.000; -781.000
255.770;  -81.725; -676.000; -536.000
255.912;  -67.700; -559.000; -468.000
256.053;  -86.950; -730.000; -508.000
256.195;  153.950; 1008.000;  903.000
256.337;  -93.800; -861.000; -595.000
256.479;   60.925;  532.000;  416.000
256.621;  -54.850; -394.000; -212.000
256.762; -101.200; -789.000; -742.000
256.904;   47.400;  485.000;  487.000
257.046;  -40.425; -381.000; -271.000
257.188;  -48.700; -351.000; -264.000
257.329;  -75.850; -525.000; -464.000
257.471; -116.700; -939.000; -807.000
257.613;  -70.275; -584.000; -498.000
257.755; -140.950;-1073.000; -982.000
257.896;   31.775;  286.000;  392.000
258.038;  -66.200; -403.000; -352.000
258.180;  -39.050; -354.000; -279.000
258.321;  -89.300; -581.000; -457.000
258.463;   -4.050;  -71.000;  133.000
258.605;  -98.750; -562.000; -570.000
258.746; -102.225; -886.000; -772.000
258.888; -151.800;-1026.000;-1020.000
259.029;    6.800;  121.000;   -8.000
259.171;  -93.725; -614.000; -550.000
259.313;   -5.525;  -49.000;  -47.000
259.454;  -77.450; -536.000; -414.000
259.596;  -57.825; -483.000; -390.000
259.737;  -84.650; -590.000; -474.000
259.879;   26.000;  217.000;  311.000
260.020;   82.725;  901.000;  636.000
260.162;  -31.125; -146.000; -253.000
260.303; -121.400; -768.000; -687.000
260.445;  -78.600; -609.000; -613.000
260.586;   14.975;  392.000;  157.000
260.728;  -49.775; -360.000; -248.000
260.869; -105.750; -350.000; -343.000
261.011;   63.425;  706.000;  537.000
261.152;  -66.575; -479.000; -319.000
261.293;  -85.150; -576.000; -595.000
261.435;  -39.425; -219.000; -184.000
261.576;  -54.950; -455.000; -325.000
261.718;   39.550;  420.000;  470.000
261.859; -133.775; -940.000; -949.000
262.000; -131.250; -951.000;-1016.000
262.142;  -10.800;  -52.000;  -60.000
262.283; -111.250; -808.000; -691.000
262.424;  -89.375; -666.000; -625.000
262.566; -153.350;-1161.000; -983.000
262.707; -106.400; -840.000; -830.000
262.848; -113.925; -769.000; -726.000
262.990;  -48.250; -362.000; -345.000
263.131;   59.950;  650.000;  681.000
263.272;   -9.925;  -61.000;  -41.000
263.413;  -90.100; -589.000; -561.000
263.555;  -64.225; -669.000; -143.000
263.696;  -92.200; -550.000; -641.000
263.837;  -54.775; -449.000; -551.000
263.978;   -9.400;   -5.000;  -77.000
264.119;  -55.250; -283.000; -264.000
264.261; -119.150; -847.000; -630.000
264.402;   -4.700;   33.000;   40.000
264.543;  -79.800; -509.000; -524.000
264.684;  -14.375;   61.000;  -50.000
264.825;  -75.700; -816.000; -538.000
264.966;  -14.050;  -84.000;  -67.000
265.107; -124.750; -646.000; -670.000
265.248; -115.300; -825.000; -812.000
265.390;   -0.725;  152.000;   -9.000
265.531;  -27.425; -238.000; -107.000
265.672;  -85.400; -557.000; -630.000
265.813;   56.250;  563.000;  439.000
265.954; -147.950; -959.000; -940.000
266.095;  -16.350; -372.000; -322.000
266.236; -102.450; -686.000; -548.000
266.377;  -43.900; -243.000; -297.000
266.518;  -59.250; -619.000; -547.000
266.659;   36.525;  170.000;  268.000
266.800;    1.775;   83.000;   85.000
266.941;  -80.225; -487.000; -478.000
267.082;    1.125;  354.000;   99.000
267.223;  -55.250; -344.000; -273.000
267.364; -124.125; -892.000; -686.000
267.504;  -25.400;    3.000;  135.000
267.645;   -9.950;  160.000;   67.000
267.786;  -27.725; -147.000;  -86.000
267.927;  -66.500; -473.000; -379.000
268.068;  -40.000; -186.000;  -61.000
268.209;  -51.725; -175.000; -413.000
268.350;  -50.050; -388.000; -532.000
268.490;  -90.475; -648.000; -521.000
268.631;   22.525;  127.000;  225.000
268.772; -114.050; -874.000; -647.000
268.913;  -48.525; -328.000; -476.000
269.054;  -20.825; -117.000;   12.000
269.194;  -40.900; -418.000; -402.000
269.335; -152.950;-1137.000;-1074.000
269.476;   -5.550;   33.000;  -35.000
269.617;  -41.150; -347.000; -392.000
269.757;  -98.025; -713.000; -646.000
269.898; -104.925; -856.000; -613.000
270.039;  -62.975; -415.000; -405.000
270.180; -129.700; -952.000; -816.000
270.320;  -25.475; -190.000; -250.000
270.461;  -43.700; -277.000; -249.000
270.602;  -19.025; -186.000; -156.000
270.742; -114.400; -868.000; -943.000
270.883;  -65.900; -442.000; -390.000
271.023;  -61.000; -358.000; -357.000
271.164;  -64.200; -607.000; -528.000
271.305; -109.700; -666.000; -654.000
271.445;  -94.150; -722.000; -683.000
271.586;  -70.675; -462.000; -283.000
271.726;  -49.600; -397.000; -322.000
271.867;  -60.800; -594.000; -534.000
272.008;  183.750; -473.000; -285.000
272.148;  130.800;  462.000;  468.000
272.289;   19.650; -113.000; -181.000
272.429;    8.325;   19.000;  185.000
272.570;  -89.125; -633.000; -737.000
272.710; -106.100; -825.000; -775.000
272.851;  -28.975;  113.000; -130.000
272.991; -165.875;-1173.000;-1077.000
273.131;  -80.475; -419.000; -459.000
273.272;  -99.775; -683.000; -723.000
273.412;    6.350; -143.000;  -31.000
273.553;  -52.175; -488.000; -507.000
273.693;  123.725;  913.000;  858.000
273.834;  -98.175; -894.000; -692.000
273.974;  -71.150; -664.000; -615.000
274.114;  -97.875; -772.000; -560.000
274.255;   76.100;  414.000;  373.000
274.395;    5.100; -180.000; -125.000
274.535;   41.600;  199.000;  350.000
274.676;   23.875;  225.000;   94.000
274.816;   -8.600;  110.000;   34.000
274.956;  -73.000; -624.000; -690.000
275.097;  -59.275;-1014.000; -922.000
275.237; -101.800; -913.000; -803.000
275.377;  -93.900; -778.000; -689.000
275.517; -143.575; -878.000; -937.000
275.658;  -60.175; -590.000; -555.000
275.798;  -62.400; -606.000; -413.000
275.938;   20.150;  215.000;  323.000
276.078; -119.000; -626.000; -395.000
276.218;    3.825;   99.000;  104.000
276.359; -133.000;-1026.000;-1024.000
276.499;  -79.775; -605.000; -446.000
276.639;  -36.700; -305.000; -151.000
276.779;  -48.850; -475.000; -357.000
276.919; -102.325; -783.000; -624.000
277.059;  -24.575; -261.000; -212.000
277.199;  -46.300; -357.000; -259.000
277.340;   30.075;  287.000;  175.000
277.480; -112.650; -840.000; -693.000
277.620;    3.875;  192.000;   16.000
277.760; -192.825;-1533.000;-1294.000
277.900;    1.050;  113.000;   33.000
278.040;    9.050;  137.000;  159.000
278.180;   26.450;  270.000;  170.000
278.320;  -16.250;   21.000;   56.000
278.460;  -59.900; -443.000; -469.000
278.600;  -96.450; -708.000; -598.000
278.740;   48.025;  448.000;  224.000
278.880;  -51.200; -768.000; -791.000
279.020;   -8.675; -194.000; -144.000
279.160;  -96.325; -672.000; -595.000
279.300; -127.275; -926.000; -873.000
279.440;  -93.350; -709.000; -622.000
279.579;  -13.525;-1014.000; -929.000
279.719;  -53.875; -410.000; -394.000
279.859;   80.200;   -4.000;   41.000
279.999;   29.800; -208.000;  101.000
280.139;  -14.875; -435.000; -387.000
280.279;  -73.250; -708.000; -745.000
280.419;  -28.400; -229.000; -147.000
280.559;  -40.375; -259.000; -180.000
280.698;  -72.475; -790.000; -639.000
280.838;  -93.400; -778.000; -800.000
280.978; -107.300; -846.000; -790.000
281.118; -113.875; -811.000; -704.000
281.257;   -2.175;   24.000;    6.000
281.397; -119.750;-1094.000; -960.000
281.537;  -98.600; -599.000; -712.000
281.677;  -19.100; -150.000; -101.000
281.816;  -84.725; -700.000; -630.000
281.956;  -24.300; -193.000; -257.000
282.096;  -70.725; -539.000; -396.000
282.235; -100.250; -672.000; -638.000
282.375;  -16.575; -243.000;  -98.000
282.515; -106.425; -715.000; -707.000
282.654;   35.400;   29.000;  106.000
282.794;   25.900;  388.000;  244.000
282.934;  -64.100; -530.000; -491.000
283.073; -128.175;-1030.000; -857.000
283.213;  -61.550; -460.000; -467.000
283.353;  -42.450; -408.000; -349.000
283.492;  -33.050; -264.000; -296.000
283.632;  -41.500; -254.000; -168.000
283.771; -107.875; -859.000; -730.000
283.911;  -49.300; -369.000; -260.000
284.050; -107.675; -794.000; -748.000
284.190; -158.250;-1229.000;-1096.000
284.329; -138.775;-1055.000; -964.000
284.469;  -62.100; -516.000; -591.000
284.608;  -53.925; -559.000; -598.000
284.748;  -86.875; -614.000; -570.000
284.887;   -8.125;  -87.000;  -20.000
285.027; -127.500; -844.000; -892.000
285.166;  -30.675; -192.000; -249.000
285.306;   12.675; -116.000;  -33.000
285.445;  -50.575; -229.000; -343.000
285.584;  -90.800; -630.000; -494.000
285.724;  -47.650; -282.000; -322.000
285.863; -111.575; -857.000; -507.000
286.002;  -57.175; -366.000; -276.000
286.142; -110.075; -715.000; -622.000
286.281;  -86.300; -525.000; -493.000
286.420;  -78.400; -554.000; -417.000
286.560;   78.925;  653.000;  623.000
286.699; -133.900; -958.000; -912.000
286.838;  -81.075; -590.000; -591.000
286.978;  -93.550; -533.000; -537.000
287.117; -137.475;-1085.000; -950.000
287.256;  -45.775; -228.000; -211.000
287.395;  -42.875; -197.000; -378.000
287.535;  -66.475; -370.000; -298.000
287.674;  -82.025; -509.000; -484.000
287.813;   50.400;  661.000;  533.000
287.952; -122.975;-1010.000; -871.000
288.091; -145.425;-1049.000; -915.000
288.231;    4.850;   13.000;   15.000
288.370; -166.600;-1217.000;-1200.000
288.509;  -95.525; -728.000; -645.000
288.648;  -95.525; -770.000; -548.000
288.787;  -46.425; -243.000;  -87.000
288.926;  -73.100; -454.000; -475.000
289.065;  108.525;  859.000;  672.000
289.204;  -56.375; -377.000; -217.000
289.344;  -93.475; -791.000; -690.000
289.483;    5.975;  416.000;  304.000
289.622;  -42.000; -291.000; -149.000
289.761;  -37.050; -309.000; -166.000
289.900; -115.075; -785.000; -626.000
290.039;  -18.025;  -12.000;  -95.000
290.178;  -47.425; -274.000; -180.000
290.317;  -72.800; -618.000; -479.000
290.456;  -84.925; -463.000; -451.000
290.595; -128.250; -961.000; -833.000
290.734; -139.350; -904.000; -891.000
290.873;  -68.375; -456.000; -420.000
291.011; -101.850; -833.000; -843.000
291.150; -107.150; -770.000; -682.000
291.289;  -33.600; -343.000; -110.000
291.428;  -92.475; -599.000; -480.000
291.567;  -64.150; -370.000; -442.000
291.706;  -23.675;  109.000;  154.000
291.845;  -86.275; -597.000; -505.000
291.984; -170.275;-1234.000;-1061.000
292.122;   43.400;  602.000;  582.000
292.261;   44.800;  620.000;  463.000
292.400;    0.925; -144.000;  211.000
292.539; -120.700; -959.000; -813.000
292.678;  -47.875; -325.000; -300.000
292.816; -149.275;-1136.000; -965.000
292.955;  -95.250; -844.000; -684.000
293.094;  -23.775; -173.000; -337.000
293.233;  -65.175; -556.000; -400.000
293.371;  -35.725; -225.000;  -84.000
293.510; -109.800; -866.000; -780.000
293.649; -126.775; -959.000; -924.000
293.787;  -54.250;-1083.000;-1012.000
293.926;   -6.400; -113.000;  -32.000
294.065;  -44.350; -379.000; -290.000
294.203;   36.500;  298.000;  406.000
294.342;    4.725;   74.000;  156.000
294.481; 6198.125;51180.000; -836.000
294.619;  -38.300; -425.000; -582.000
294.758; -136.525;-1230.000;-1137.000
294.896;   67.100; -125.000;    5.000
295.035; -124.375;-1040.000;-1006.000
295.174; -121.575;-1082.000; -954.000
295.312;  -49.775; -323.000; -203.000
295.451;  -10.550; -307.000; -428.000
295.589;  -52.350; -389.000; -518.000
295.728;   16.325; -292.000; -165.000
295.866;  -14.750;  -36.000;  -51.000
296.005;  -60.750; -584.000; -341.000
296.143;  -70.750; -558.000; -596.000
296.282; -114.550; -957.000; -881.000
296.420;  -88.525; -657.000; -557.000
296.559;  -86.875; -892.000; -633.000
296.697;   20.400; -847.000; -665.000
296.835;   67.975;-1141.000;-1002.000
296.974;   39.550;  -23.000;   39.000
297.112;    2.925; -443.000; -504.000
297.251;  -59.300; -815.000; -755.000
297.389;   87.425; -576.000; -438.000
297.527;   35.575; -145.000;  -83.000
297.666;  -55.650; -486.000; -438.000
297.804;  -66.850; -404.000; -264.000
297.942;  -13.325; -136.000; -161.000
298.081;  -23.875; -183.000;   63.000
298.219;   65.600;  -17.000;  -19.000
298.357;   40.775; -144.000;  -71.000
298.495;   29.175; -810.000; -812.000
298.634;   82.625;  245.000;  219.000
298.772;   51.850; -220.000; -338.000
298.910;  -37.900; -309.000; -182.000
299.048;  -12.150; -130.000; -153.000
299.187;  -30.975; -350.000; -250.000
299.325;    9.050;   52.000;  122.000
299.463;   62.525; -389.000; -299.000
299.601;  102.975; -327.000; -271.000
299.739; -112.250; -908.000; -883.000
299.877;  -77.200; -791.000; -703.000
300.016;  -41.225;-1095.000; -935.000
300.154;  167.475;  -19.000; -161.000
300.292;   64.025; -428.000; -348.000
300.430;   27.775; -408.000; -291.000
300.568; -120.500; -940.000; -874.000
300.706;  -60.000; -366.000; -469.000
300.844;  -82.225;-1108.000; -979.000
300.982;  111.400;  246.000;  282.000
301.120; -104.225; -965.000; -866.000
301.258;  -58.000; -812.000; -705.000
301.396;   24.150;  104.000;  -41.000
301.534;   85.150; -218.000; -293.000
301.672;   -1.625; -664.000; -521.000
301.810;   33.225; -613.000; -545.000
301.948;  110.225;   53.000;  149.000
302.086;  665.125; -250.000;  -32.000
302.224;  984.625; -610.000; -585.000
302.362;   26.250; -558.000; -622.000
302.500;   -9.175; -923.000; -893.000
302.638;  103.400;  128.000;  245.000
302.776;  -16.650; -352.000; -408.000
302.913;   31.175;  447.000;  236.000
303.051;  -14.700;  -86.000;  -23.000
303.189;   47.675;   90.000;  118.000
303.327;  -47.575; -341.000; -256.000
303.465;  -81.950; -832.000; -588.000
303.603; -101.375; -805.000; -604.000
303.740;  101.675;  417.000;  241.000
303.878;   22.300; -800.000; -759.000
304.016;  -96.550; -915.000; -790.000
304.154; -121.275;-1123.000;-1152.000
304.291;  -44.975; -505.000; -554.000
304.429;   16.350;  102.000;   74.000
304.567; -123.125; -908.000; -893.000
304.705;  -60.575; -408.000; -515.000
304.842;  106.025; -616.000; -540.000
304.980;   47.775;  215.000;   35.000
305.118;   44.600; -367.000; -365.000
305.255;  -73.600; -945.000; -927.000
305.393;   51.275;  178.000;  239.000
305.531;  -93.500;-1173.000; -956.000
305.668;  -62.225; -663.000; -582.000
305.806;  116.400; -358.000; -439.000
305.943;  101.900; -629.000; -637.000
306.081;   42.400; -378.000; -267.000
306.219; -104.125; -863.000; -748.000
306.356;   -1.900;  158.000;   27.000
306.494;   90.350;  981.000;  761.000
306.631;  -17.950;  -11.000;  -55.000
306.769;   11.150; -613.000; -485.000
306.906;  -18.250; -284.000; -258.000
307.044;  -61.425; -473.000; -488.000
307.181;  -54.850; -410.000; -332.000
307.319;   14.725;  112.000;   87.000
307.456; -162.450;-1191.000;-1153.000
307.594;  -99.350; -980.000; -727.000
307.731;  -14.350; -371.000; -164.000
307.868;   -7.125;  -15.000;   20.000
308.006; -127.200; -961.000; -847.000
308.143;  -60.875; -618.000; -330.000
308.281;  195.975;  -37.000; -254.000
308.418;   -0.800; -748.000; -640.000
308.555;  -60.850; -400.000; -250.000
308.693;  -76.575; -577.000; -573.000
308.830; -105.325; -712.000; -657.000
308.967;  -19.250; -215.000;  -95.000
309.105;  -45.375; -507.000; -396.000
309.242;   44.925; -468.000; -367.000
309.379;  377.750; -577.000; -655.000
309.517;  -62.600; -936.000; -948.000
309.654; -100.925; -910.000; -734.000
309.791;  -66.000; -662.000; -580.000
309.928; -119.950; -977.000; -914.000
310.065;  176.075;  819.000;  697.000
310.203;   -0.550; -825.000; -850.000
310.340;   -2.675; -465.000; -321.000
310.477;  -73.975; -412.000; -516.000
310.614;  -64.350; -383.000; -473.000
310.751;  -87.325; -427.000; -518.000
310.889;  -21.025;    1.000;   11.000
311.026; -131.100;-1161.000; -939.000
311.163;  -43.325; -386.000; -380.000
311.300;  -76.400; -512.000; -479.000
311.437;  -81.700; -658.000; -619.000
311.574; -158.675;-1226.000; -985.000
311.711;  -58.850; -595.000; -433.000
311.848;  -62.075; -380.000; -388.000
311.985;   -1.050;  270.000;   93.000
312.122; -107.450; -932.000; -762.000
312.259; -113.850; -941.000; -994.000
312.396;  -83.550; -508.000; -551.000
312.533;  -93.875; -812.000; -790.000
312.670; -124.450;-1070.000; -898.000
312.807;  -31.150; -352.000; -367.000
312.944;  -81.550; -513.000; -611.000
313.081;  -40.750; -150.000; -415.000
313.218;  -93.950;-1111.000; -867.000
313.355;   18.575; -531.000; -449.000
313.492;    2.150; -455.000; -292.000
313.629;  126.100;  815.000;  735.000
313.766; -155.600;-1176.000;-1008.000
313.902;  -19.650; -186.000;   21.000
314.039;  -60.750; -372.000; -289.000
314.176;   24.600;  286.000;  192.000
314.313;  -71.675; -569.000; -473.000
314.450;  -87.000; -788.000; -684.000
314.587;  -75.550; -468.000; -480.000
314.723;    0.200;  -78.000;  130.000
314.860;   26.975;  318.000;  332.000
314.997;    9.825;  223.000;  142.000
315.134;  -44.050; -385.000; -368.000
315.270;  -35.675; -480.000; -496.000
315.407; -118.950;-1094.000; -967.000
315.544;  -51.775; -657.000; -538.000
315.681;  -69.000; -681.000; -565.000
315.817;   31.850; -133.000; -176.000
315.954;   14.025; -613.000; -392.000
316.091; -108.800;-1045.000;-1023.000
316.227;  -20.300;  -71.000; -179.000
316.364;    1.475;   23.000;    6.000
316.500;  -49.050; -113.000; -300.000
316.637;  -46.100; -181.000; -302.000
316.774;  -93.525; -625.000; -358.000
316.910;  -85.100; -598.000; -629.000
317.047;  -69.450; -487.000; -351.000
317.183;  -49.900; -435.000; -566.000
317.320;  -11.625; -367.000; -321.000
317.456;  -75.000; -733.000; -805.000
317.593;  -85.950; -598.000; -641.000
317.729;   -5.725;  168.000;  -67.000
317.866; -197.025;-1434.000;-1285.000
318.002;  -73.775; -708.000; -948.000
318.139; -106.150; -883.000; -867.000
318.275; -102.950;-1003.000; -738.000
318.412;  -62.825; -517.000; -336.000
318.548;  -19.275; -751.000; -720.000
318.685;  -99.625; -985.000; -888.000
318.821;  -97.450; -762.000; -735.000
318.957;  -21.700;   34.000;  -23.000
319.094;   31.500;  297.000;  154.000
319.230;  -46.850; -756.000; -742.000
319.367;  131.500; -471.000; -520.000
319.503;   58.700; -538.000; -436.000
319.639;  -93.700; -877.000; -793.000
319.775;  -65.600; -750.000; -685.000
319.912;  -50.800; -424.000; -519.000
320.048;  -94.400;-1184.000;-1184.000
320.184;   72.375;   59.000;   70.000
320.321;  -79.675; -497.000; -467.000
320.457;   61.050;  475.000;  662.000
320.593;  -67.850; -375.000; -382.000
320.729;  -98.650; -732.000; -734.000
320.866;  -76.325; -577.000; -635.000
321.002;  -84.275; -759.000; -809.000
321.138;  -15.225; -135.000; -211.000
321.274;   67.825; -148.000; -115.000
321.410;   -5.850; -585.000; -353.000
321.546;  -29.125;-1011.000; -911.000
321.683;   58.475;  400.000;  185.000
321.819;   -5.925;  -48.000; -117.000
321.955; -108.275; -743.000; -722.000
322.091;  -25.975; -585.000; -540.000
322.227;  -17.450; -382.000; -202.000
322.363;  -13.300; -320.000; -215.000
322.499;  -45.150; -343.000; -331.000
322.635;  167.650;  636.000;  443.000
322.771;   29.750; -139.000;   12.000
322.907;   85.100;  129.000;  327.000
323.043;  -21.200; -115.000; -206.000
323.179;  -32.375; -394.000; -363.000
323.315;   16.725; -401.000; -371.000
323.451;   89.900; -328.000; -236.000
323.587;   49.575;  -60.000;  -77.000
323.723;   16.325; -682.000; -601.000
323.859;  -18.975; -258.000;  -76.000
323.995;  -42.125; -467.000; -409.000
324.131; -108.675; -967.000; -892.000
324.267;  -50.050; -254.000; -276.000
324.402; -128.425; -960.000; -983.000
324.538;  -22.900; -279.000; -104.000
324.674;   11.950;  164.000;   77.000
324.810;  116.125;  226.000;  308.000
324.946;    3.400; -810.000; -658.000
325.082;  -76.800; -568.000; -475.000
325.217;  -19.875;  -62.000;   16.000
325.353; -101.925; -764.000; -659.000
325.489;  -89.175; -540.000; -506.000
325.625;  -85.400; -579.000; -525.000
325.760;   50.400;  517.000;  376.000
325.896;  -26.200; -515.000; -702.000
326.032;  -55.650; -403.000; -352.000
326.168;  -58.275; -462.000; -369.000
326.303;  -59.575; -352.000; -461.000
326.439;  -24.900; -336.000; -276.000
326.575;   -1.800; -190.000;  -29.000
326.710;   -3.700; -156.000;  -30.000
326.846;  -11.725;  146.000;  103.000
326.982;  -95.700; -530.000; -548.000
327.117;  -81.650; -481.000; -442.000
327.253;  -81.525; -745.000; -742.000
327.388; -145.150;-1137.000;-1153.000
327.524;  -63.025; -811.000; -578.000
327.659;  -40.350;  -58.000;  -22.000
327.795;  -20.400;   69.000;   45.000
327.931;  -98.950; -723.000; -499.000
328.066;  -22.500; -417.000; -276.000
328.202;  -15.300;   12.000; -129.000
328.337;   86.675;  957.000;  713.000
328.473;   16.975;  -12.000;  -74.000
328.608;  -24.675; -256.000; -267.000
328.743;  -82.525; -799.000; -664.000
328.879;   19.025;  214.000;  114.000
329.014;  -37.900; -102.000; -122.000
329.150;  -89.775; -358.000; -483.000
329.285;  -77.975; -465.000; -466.000
329.421;  -53.950; -548.000; -246.000
329.556;  -33.325;  -36.000;   85.000
329.691;  -98.175; -633.000; -615.000
329.827;  -92.475; -626.000; -480.000
329.962;  -51.400;  131.000; -301.000
330.097;  -86.450; -673.000; -585.000
330.233;  -52.650; -410.000; -223.000
330.368; -129.000; -839.000; -628.000
330.503;  -18.025;    3.000;   98.000
330.638;    1.225;  -93.000; -125.000
330.774;  -56.150; -609.000; -530.000
330.909;  -49.975; -434.000; -244.000
331.044;  -97.600; -714.000; -708.000
331.179; -168.650;-1217.000;-1109.000
331.315;   -0.175;   77.000;   20.000
331.450;    3.225;  157.000;  285.000
331.585;  -93.425; -805.000; -706.000
331.720;  -97.050; -510.000; -460.000
331.855;  -20.900;  -35.000; -102.000
331.990;  247.825;   62.000;  138.000
332.126;  117.900; -110.000;   71.000
332.261;  -23.150; -379.000; -265.000
332.396;    0.200; -135.000; -242.000
332.531; -101.700;-1074.000;-1031.000
332.666;   29.000; -519.000; -363.000
332.801;  -99.275; -726.000; -807.000
332.936;  -28.925; -192.000; -122.000
333.071; -145.525; -870.000; -817.000
333.206;   -1.575;  307.000;  379.000
333.341;   14.600;  344.000;  418.000
333.476;  -89.125; -627.000; -623.000
333.611;  -43.875; -251.000; -173.000
333.746;  -47.650; -381.000; -464.000
333.881; -131.400; -973.000; -935.000
334.016; -128.075; -936.000; -917.000
334.151; -125.200; -746.000; -702.000
334.286;   11.200;  152.000;  186.000
334.421;  -13.925; -125.000; -178.000
334.556;  -86.325; -611.000; -567.000
334.690;  -93.575; -631.000; -577.000
334.825;   40.625;  381.000;   83.000
334.960;  -49.050; -285.000; -413.000
335.095;    4.700;  135.000;  -91.000
335.230; -102.600; -722.000; -738.000
335.365; -148.425;-1084.000; -990.000
335.499; -128.950;-1108.000;-1037.000
335.634;   -4.550;    9.000;  534.000
335.769;  -95.925; -755.000; -720.000
335.904;  -75.425; -603.000; -561.000
336.038;  -64.025; -735.000; -657.000
336.173; -114.350;-1206.000;-1194.000
336.308;    6.725; -116.000; -189.000
336.443;  -13.850; -544.000; -634.000
336.577;  -80.600; -936.000; -787.000
336.712;   57.150;   -4.000;  -12.000
336.847;  -35.575; -724.000; -607.000
336.981;   64.850; -272.000; -208.000
337.116;  277.100;  615.000;  501.000
337.250;  153.050; -434.000; -421.000
337.385;  229.500; -297.000; -208.000
337.520;   71.525; -632.000; -603.000
337.654;  -38.625; -215.000; -126.000
337.789; -142.700; -989.000; -933.000
337.923;  -43.925; -104.000; -205.000
338.058;  -81.475; -673.000; -738.000
338.192;  -36.225; -611.000; -488.000
338.327;   -6.225;  -18.000; -155.000
338.461;  -56.100; -299.000; -469.000
338.596;  -93.450; -780.000; -638.000
338.730;  -93.100; -767.000; -803.000
338.865;   87.625;  -46.000; -140.000
338.999;  -52.425; -846.000; -702.000
339.134;  -37.825; -634.000; -536.000
339.268;   15.850; -741.000; -603.000
339.403;  362.625; -740.000; -775.000
339.537;  126.150; -894.000; -820.000
339.671; -110.925; -829.000; -813.000
339.806;  -61.425; -556.000; -512.000
339.940;   19.300; -261.000; -235.000
340.074;  -95.850; -685.000; -510.000
340.209;  -47.975; -351.000; -230.000
340.343;  -85.100; -517.000; -573.000
340.477;  140.325;  998.000; 1036.000
340.612;  -41.125;-1033.000; -900.000
340.746;  122.250; -199.000; -243.000
340.880;  -60.800; -924.000; -785.000
341.014;  -19.750;  -45.000; -154.000
341.149; -117.875; -756.000; -718.000
341.283; -100.000; -839.000; -754.000
341.417;  -89.825;-1124.000; -938.000
341.551;  131.875; -768.000; -708.000
341.685;  -35.625; -633.000; -611.000
341.820;  -46.175; -562.000; -493.000
341.954;  -52.975; -218.000; -349.000
342.088; -145.425;-1102.000;-1019.000
342.222;   37.525;  565.000;  618.000
342.356;  -57.350; -395.000; -335.000
342.490;  -96.075; -880.000; -841.000
342.624;  -50.575; -339.000; -242.000
342.758;   -6.600; -364.000; -312.000
342.892;  -59.550; -710.000; -585.000
343.026;  -40.875;  -58.000; -116.000
343.160;  -61.250; -426.000; -376.000
343.294;  -74.150; -474.000; -337.000
343.428;  -19.775; -488.000; -448.000
343.562;  -11.400; -172.000;  -23.000
343.696;  -21.150; -385.000; -314.000
343.830;  -32.275; -362.000; -356.000
343.964;   16.825; -231.000; -168.000
344.098;  928.975;  199.000;   70.000
344.232;  778.050; -266.000; -127.000
344.366;   93.775; -567.000; -453.000
344.500;   62.050; -665.000; -744.000
344.634;   33.175; -324.000; -164.000
344.768;  -15.950; -531.000; -341.000
344.902;   28.550;  278.000;  256.000
345.035;  -73.350; -556.000; -496.000
345.169; -136.400; -933.000; -656.000
345.303;  -24.575; -308.000; -482.000
345.437;  -78.900; -826.000; -717.000
345.571;  -66.300; -675.000; -594.000
345.704;  -72.550; -309.000; -532.000
345.838;  -27.375; -331.000; -284.000
345.972;  -50.200; -543.000; -495.000
346.106;  148.550; -179.000; -190.000
346.239;  410.050; -312.000; -243.000
346.373;    4.300; -343.000; -302.000
346.507; -147.000; -950.000; -962.000
346.640;  135.450;  -30.000;   13.000
346.774;  -37.400; -650.000; -797.000
346.908;  -25.275; -138.000;  -11.000
347.041;  -98.875; -646.000; -593.000
347.175;   -4.075;  259.000;   27.000
347.309;  -77.650; -698.000; -628.000
347.442;  -96.025; -883.000; -732.000
347.576;  273.725;  670.000;  668.000
347.709;  199.725; -123.000;  -52.000
347.843;  -83.250; -933.000; -825.000
347.976;   29.675;  235.000;  294.000
348.110; -182.100;-1268.000;-1186.000
348.243;  -89.225; -679.000; -772.000
348.377;   -9.500;  -26.000;   60.000
348.510;   46.150;  403.000;  540.000
348.644;  -39.275;  -37.000; -159.000
348.777;  -13.575;  180.000;  191.000
348.911;  -59.100; -142.000; -112.000
349.044;  174.950;  471.000;  448.000
349.178;  147.575;-1069.000;-1006.000
349.311;  102.350;  141.000;  255.000
349.444;  -14.700; -927.000; -813.000
349.578;   -5.550; -347.000; -200.000
349.711; -100.500; -959.000; -862.000
349.845;   -9.925; -661.000; -591.000
349.978; -138.675;-1224.000;-1137.000
350.111;  -88.025; -546.000; -612.000
350.244;  -73.925; -596.000; -700.000
350.378;   -3.050; -392.000; -393.000
350.511;  -76.750; -393.000; -426.000
350.644; -105.725; -808.000; -806.000
350.778;    9.275;  168.000;  104.000
350.911;    1.500;  134.000;  140.000
351.044; -102.925; -685.000; -615.000
351.177;  -35.225; -321.000; -281.000
351.310;  -24.025;    3.000; -131.000
351.444;  -76.450; -888.000; -788.000
351.577;  108.350;  140.000;   90.000
351.710;   93.675;  593.000;  417.000
351.843;  -43.000; -165.000;  -77.000
351.976;   -5.625;  149.000;  -79.000
352.109;  -92.050; -621.000; -612.000
352.242;  -22.100; -464.000; -419.000
352.376;  -70.150; -580.000; -636.000
352.509;  181.725; -437.000; -356.000
352.642;   20.950; -654.000; -604.000
352.775;   66.075; -141.000;  -98.000
352.908; -101.175; -933.000; -904.000
353.041; -102.225; -814.000; -824.000
353.174;  -70.400; -551.000; -424.000
353.307;  -92.175; -753.000; -764.000
353.440;   61.425;  541.000;  453.000
353.573; -106.500; -957.000;-1008.000
353.706;  -29.175; -384.000; -558.000
353.839;  -12.800; -264.000; -220.000
353.971;  -96.700; -657.000; -512.000
354.104;  -88.550; -896.000; -835.000
354.237;  -41.175; -627.000; -662.000
354.370;  -75.925; -846.000; -879.000
354.503; -171.575;-1231.000;-1308.000
354.636;  -50.350; -529.000; -348.000
354.769; -128.300; -937.000; -860.000
354.902;   -2.875; -230.000; -139.000
355.034;  -26.675; -164.000; -220.000
355.167;  -22.750; -262.000; -162.000
355.300;  -98.275;-1061.000; -880.000
355.433;  961.125;  -71.000;  -14.000
355.565; 1528.350; -402.000; -384.000
355.698;  389.725; -356.000; -296.000
355.831;    7.300; -882.000; -801.000
355.964;   84.875; -285.000; -170.000
356.096;  -98.925; -856.000; -843.000
356.229;   -4.150; -523.000; -530.000
356.362;  323.100; -373.000; -266.000
356.494;  584.750; -229.000; -162.000
356.627;  494.350;  269.000;  377.000
356.760;  676.225;  120.000;   53.000
356.892;  974.100; -286.000; -601.000
357.025;  669.675;  403.000;  389.000
357.157;  622.625; -167.000; -179.000
357.290;  666.725; -856.000; -713.000
357.423;  198.475; -667.000; -556.000
357.555;  111.425; -217.000; -228.000
357.688;  124.525; -483.000; -364.000
357.820;  473.100; -870.000; -877.000
357.953; 3795.925; -563.000; -589.000
358.085;  854.600; -632.000; -612.000
358.218; 1183.500;-1131.000; -932.000
358.350;  235.950;  -58.000;  312.000
358.483; -126.350;-1300.000;-1187.000
358.615;   -2.850;-1182.000;-1078.000
358.747;  -49.825;-1187.000;-1058.000
358.880;   17.775; -810.000; -744.000
359.012;    1.050; -376.000; -202.000
359.145;  -33.250; -480.000; -511.000
359.277;   66.625; -962.000; -913.000
359.409; 3057.325;  536.000;  231.000
359.542;  832.200; -738.000; -688.000
359.674;   72.475;   46.000;   13.000
359.806;  -60.200; -565.000; -438.000
359.939;  -56.075; -617.000; -516.000
360.071;   -9.250; -583.000; -579.000
360.203;  -24.175; -411.000; -364.000
360.335;   54.300;  164.000;  -16.000
360.468;  185.650; -249.000; -307.000
360.600; 2456.950; -547.000; -454.000
360.732; 2873.225; -546.000; -423.000
360.864;  415.550;-1216.000;-1044.000
360.996;  298.475; -516.000; -554.000
361.129;   53.900; -389.000; -598.000
361.261;   26.025;  110.000; -113.000
361.393;  -27.900; -252.000; -214.000
361.525;   19.750;   94.000;  244.000
361.657;  -45.325; -821.000; -703.000
361.789;   -0.925; -139.000; -155.000
361.921;  234.600; -642.000; -593.000
362.053;  251.625;  524.000;  541.000
362.185;   51.750;  288.000;   72.000
362.318;  -86.775; -709.000; -705.000
362.450;  113.400;  294.000;  444.000
362.582;  112.300; -913.000; -870.000
362.714;  -39.225; -353.000; -332.000
362.846;  -85.925; -606.000; -490.000
362.978; -141.725; -941.000; -811.000
363.109;   34.125; -161.000; -260.000
363.241;  468.725; -739.000; -749.000
363.373;  432.050; -649.000; -564.000
363.505;  655.775; -186.000;  -91.000
363.637;  163.825; -787.000; -601.000
363.769; -120.000;-1067.000;-1080.000
363.901;  -65.575; -596.000; -654.000
364.033; -115.425;-1103.000;-1062.000
364.165;   -5.375; -283.000; -283.000
364.296;   84.525; -316.000; -177.000
364.428;   76.200;-1344.000;-1220.000
364.560;  -64.100; -679.000; -661.000
364.692;  -63.975; -738.000; -835.000
364.824;  271.250; -588.000; -456.000
364.955;  452.100; -402.000; -564.000
365.087;  952.275;-1097.000; -852.000
365.219;   31.625; -686.000; -816.000
365.351;  -74.075; -526.000; -572.000
365.482;   43.000;  300.000;  240.000
365.614;  -47.800; -402.000; -314.000
365.746; -101.825; -729.000; -752.000
365.877; -102.675; -706.000; -672.000
366.009;  258.500;  -35.000;  -62.000
366.141;  -85.400;-1249.000;-1134.000
366.272; -100.725; -803.000; -719.000
366.404; -123.400;-1005.000; -874.000
366.535;  -10.500; -139.000;  -12.000
366.667;  -97.100; -644.000; -649.000
366.799;   32.300;  353.000;  203.000
366.930; -122.600; -862.000; -996.000
367.062;  119.825; -639.000; -613.000
367.193;  152.800; -872.000; -842.000
367.325;  -57.925; -580.000; -684.000
367.456;   49.675; -246.000;   31.000
367.588;  156.900; -371.000; -318.000
367.719;   27.850;  -44.000;  -45.000
367.851;  -19.500; -222.000; -241.000
367.982;  -49.500; -875.000; -732.000
368.113;   98.925; -475.000; -358.000
368.245; -103.675; -960.000; -841.000
368.376;  -30.975; -254.000; -302.000
368.508;  -41.375; -188.000; -263.000
368.639; -121.700;-1166.000;-1034.000
368.770;  -13.175; -670.000; -589.000
368.902;  -64.750; -836.000; -926.000
369.033; -122.925; -906.000; -855.000
369.164;  -48.100; -720.000; -653.000
369.296; -105.450; -452.000; -601.000
369.427;    0.300; -209.000; -144.000
369.558;  -42.525; -593.000; -377.000
369.689;  -90.400; -721.000; -569.000
369.821; -132.850; -951.000; -845.000
369.952;  -44.125;   42.000; -108.000
370.083;  -42.800; -229.000; -108.000
370.214;  -72.225; -735.000; -650.000
370.345;    0.800;   65.000;   81.000
370.477;  -73.750; -810.000; -790.000
370.608;  224.625; -328.000; -264.000
370.739;  -35.975;-1233.000;-1292.000
370.870;  -36.000;-1102.000; -923.000
371.001;   97.225; -378.000; -467.000
371.132;  -84.925; -754.000; -735.000
371.263;  -38.175;  -42.000; -148.000
371.394; -130.000; -841.000; -748.000
371.525;   19.625;  345.000;  225.000
371.657;  -86.650; -808.000; -670.000
371.788;   83.875;  103.000;  199.000
371.919;  160.375; -384.000; -304.000
372.050; 3652.125;  -91.000; -156.000
372.181; 1142.150; -188.000; -294.000
372.311;  388.525;   42.000; -127.000
372.442;   38.275; -457.000; -451.000
372.573;  -35.250; -444.000; -340.000
372.704; -112.150;-1008.000; -980.000
372.835;   83.950; -228.000; -289.000
372.966;  -47.800; -646.000; -554.000
373.097;  -54.225; -575.000; -711.000
373.228;  -33.575; -717.000; -542.000
373.359;  121.550; -824.000; -536.000
373.490;  938.750; -881.000; -727.000
373.620; 1235.525;-1001.000; -803.000
373.751; 1817.600; -332.000; -396.000
373.882;  852.000; -663.000; -733.000
374.013;   56.250; -449.000; -262.000
374.143;  -48.225; -581.000; -659.000
374.274;  -98.475; -987.000; -908.000
374.405;  192.450; -388.000; -276.000
374.536;  427.375; -526.000; -387.000
374.666; 1149.175; -759.000; -807.000
374.797;  234.650; -817.000; -868.000
374.928;  882.875; -710.000; -560.000
375.058;  957.525; -535.000; -500.000
375.189;   79.950;  -59.000;  -93.000
375.320;  -92.250; -928.000;-1034.000
375.450;  -42.700; -625.000; -616.000
375.581;  -45.525; -526.000; -436.000
375.712;  -36.825; -574.000; -250.000
375.842;  296.600; -438.000; -415.000
375.973;  217.125; -554.000; -513.000
376.103;  -43.125; -665.000; -648.000
376.234;  -83.900; -531.000; -552.000
376.364;  -50.675; -944.000; -867.000
376.495;  321.200;  925.000;  529.000
376.625;   -5.050; -472.000; -485.000
376.756;   84.100; -709.000; -678.000
376.886;  -56.175;-1178.000;-1026.000
377.017;   56.875;-1048.000;-1061.000
377.147;  349.325; -786.000; -782.000
377.278;   56.200;  174.000;  228.000
377.408; -122.450; -801.000; -815.000
377.538; -114.450; -707.000; -693.000
377.669;  -74.450; -537.000; -613.000
377.799;  -92.050; -645.000; -635.000
377.929;  -65.050; -610.000; -428.000
378.060; -135.550; -781.000; -847.000
378.190;  -71.375; -726.000; -531.000
378.320;  -49.375; -401.000; -406.000
378.451;  -31.225; -131.000;  -22.000
378.581;  -19.175;  -67.000; -110.000
378.711;  137.000; 1035.000;  866.000
378.841;  -17.250; -533.000; -675.000
378.972;  -78.200; -871.000; -751.000
379.102;  -15.650; -652.000; -579.000
379.232;  -22.550; -126.000;  -73.000
379.362; -103.575;-1001.000; -885.000
379.492;   15.400; -373.000; -424.000
379.623;   95.975;    0.000;  111.000
379.753; -102.025;-1107.000; -974.000
379.883;  198.275;   59.000;  156.000
380.013;    4.375;-1081.000;-1017.000
380.143; -102.375;-1097.000;-1056.000
380.273; -100.825; -985.000; -861.000
380.403;    4.525; -344.000; -257.000
380.533;  -16.900; -651.000; -664.000
380.663;   73.550;  173.000;  128.000
380.793;  -81.850;-1027.000;-1074.000
380.923;  -16.000; -103.000;  -34.000
381.053;  -98.625; -613.000; -623.000
381.183;  -39.575; -106.000; -248.000
381.313;   26.225; -656.000; -470.000
381.443;   37.050; -692.000; -473.000
381.573;  193.425; -402.000; -409.000
381.703;  307.525;-1249.000;-1095.000
381.833; -115.825;-1454.000;-1336.000
381.963;  110.800; -134.000;  -87.000
382.093; 1447.800; -925.000; -909.000
382.223;  471.975; -713.000; -602.000
382.353;  -12.700; -801.000; -608.000
382.482;  363.475;-1091.000; -964.000
382.612;  794.900; -872.000; -644.000
382.742;  474.425; -695.000; -622.000
382.872;  277.650; -565.000; -551.000
383.002;   61.450;  347.000; -132.000
383.131;   -5.050; -226.000; -160.000
383.261;  -35.200; -706.000; -768.000
383.391;  278.425; -552.000; -377.000
383.521; 3224.725;  451.000;  263.000
383.650;  803.975; -947.000; -904.000
383.780;   -3.850; -783.000; -656.000
383.910;   91.675;  880.000;  802.000
384.039;   29.875; -794.000; -656.000
384.169;  206.225;-1205.000;-1017.000
384.299;  -15.975; -650.000; -662.000
384.428;  -86.250; -764.000; -680.000
384.558;  -47.750; -308.000; -275.000
384.687;  -45.875; -414.000; -334.000
384.817;   13.625;   75.000;   -2.000
384.947;   29.475; -234.000; -141.000
385.076;  274.500;  982.000;  912.000
385.206;   91.350;  369.000;  480.000
385.335;  -39.175; -549.000; -417.000
385.465;  -86.575; -655.000; -663.000
385.594;  140.025;  -53.000;  -44.000
385.724;  432.175; -868.000; -838.000
385.853;  134.750; -296.000; -270.000
385.982; 1326.525; -743.000; -787.000
386.112; 2283.550;-1052.000; -871.000
386.241;  157.725; -307.000; -312.000
386.371;   19.575; -174.000;  -87.000
386.500;    3.025; -825.000; -789.000
386.629;   19.975; -874.000; -817.000
386.759;   61.100;  -43.000;   68.000
386.888;  -14.300; -170.000; -250.000
387.017;  -80.125; -648.000; -620.000
387.147;  -73.150; -771.000; -798.000
387.276;    6.525; -410.000; -397.000
387.405;   24.775; -398.000; -342.000
387.535;  -35.900; -452.000; -361.000
387.664;  -49.425; -692.000; -620.000
387.793;   62.525; -198.000; -113.000
387.922;  523.675;  255.000;  200.000
388.052;   31.525; -576.000; -423.000
388.181;   23.200; -342.000; -472.000
388.310;   -4.075; -889.000; -710.000
388.439;  -48.975; -749.000; -742.000
388.568;  175.550;  365.000;  244.000
388.697; 1065.975; -756.000; -653.000
388.826;  221.100; -768.000; -666.000
388.956;   62.025; -285.000; -307.000
389.085;  -36.675; -347.000; -287.000
389.214; -100.350; -842.000; -872.000
389.343;  -63.675; -645.000; -413.000
389.472;  359.800;  126.000;  149.000
389.601;  539.975;   91.000;    0.000
389.730;    8.125; -568.000; -687.000
389.859;   54.600;  226.000;   46.000
389.988;  175.700; -423.000; -408.000
390.117;  149.175; -168.000; -146.000
390.246;  -15.550; -331.000; -320.000
390.375;  102.200; -673.000; -626.000
390.504;  -51.650; -703.000; -621.000
390.633; -106.500; -672.000; -726.000
390.761;  -64.425; -732.000; -645.000
390.890;   -2.700;   -4.000; -130.000
391.019;  -32.375; -421.000; -441.000
391.148; -128.700; -826.000; -855.000
391.277;  -62.650; -576.000; -493.000
391.406;  -89.500; -821.000; -805.000
391.534;   12.800;  574.000; -301.000
391.663;  -69.975; -583.000; -645.000
391.792;  -80.625; -673.000; -701.000
391.921;   87.200;   -3.000;   15.000
392.050;  181.900; -287.000; -228.000
392.178;  -35.850;-1206.000;-1061.000
392.307;  136.175; -758.000; -712.000
392.436;   77.975; -427.000; -641.000
392.564;   28.250;  166.000;   -6.000
392.693;  -90.100; -860.000; -682.000
392.822;  193.525; -529.000; -534.000
392.950;  104.200; -880.000; -714.000
393.079;  327.400; -188.000; -328.000
393.208;   23.300; -488.000; -511.000
393.336;  -25.025; -170.000; -145.000
393.465;  -38.500; -317.000; -199.000
393.593;  -19.375;   62.000;   79.000
393.722; -145.450;-1121.000; -916.000
393.850;  -37.975; -188.000;  -61.000
393.979; -160.725; -926.000; -805.000
394.107;  -67.050; -517.000; -537.000
394.236;  -26.975; -570.000; -507.000
394.364;  208.900;  383.000;  206.000
394.493;  405.875; -911.000; -767.000
394.621;   -7.975; -955.000; -916.000
394.750;  713.300; -873.000; -923.000
394.878; 2942.475; -247.000; -149.000
395.007; 4178.675; -721.000; -807.000
395.135;  335.325; -790.000; -721.000
395.263;  -89.775;-1038.000;-1040.000
395.392;  -15.200;  -25.000; -107.000
395.520; -129.075; -818.000; -679.000
395.648;  -83.000; -865.000; -915.000
395.777;  -20.400; -366.000; -405.000
395.905;  -46.150; -449.000; -564.000
396.033;   22.575;  217.000;  172.000
396.162;  632.975; -399.000; -453.000
396.290;  590.200;  -17.000;   -2.000
396.418;  107.575; -555.000; -514.000
396.546;  -66.875; -571.000; -466.000
396.674; -104.975; -850.000; -878.000
396.803;   13.150;  -72.000;  -23.000
396.931;   84.650; -179.000; -199.000
397.059;   43.600;-1026.000; -989.000
397.187; -108.225;-1026.000; -975.000
397.315; -149.275; -884.000; -649.000
397.443;  -87.600; -592.000; -443.000
397.572;  -99.150; -578.000; -424.000
397.700;  -13.450; -607.000; -614.000
397.828;   17.050;  120.000;  -90.000
397.956;  -45.475; -508.000; -478.000
398.084;  -68.050; -767.000; -626.000
398.212;   31.775;  137.000;  124.000
398.340;   10.550;  -56.000;  159.000
398.468;   21.925; -390.000; -169.000
398.596; -132.550; -993.000; -953.000
398.724; -120.825; -762.000; -767.000
398.852; -165.175;-1024.000; -976.000
398.980;  -57.175; -560.000; -560.000
399.108;  -55.500; -982.000; -735.000
399.236;   27.050;   13.000;    8.000
399.363;    5.600;  222.000;  196.000
399.491;  -75.925; -404.000; -398.000
399.619; -125.075; -829.000; -800.000
399.747; -106.775; -859.000; -771.000
399.875;   72.775;  220.000;  234.000
400.003;  -52.275; -359.000; -284.000
400.130;  -97.725; -421.000; -341.000
400.258;  -42.850;  -83.000;   38.000
400.386;  -76.675; -352.000; -168.000
400.514;  -51.725; -526.000; -587.000
400.641;  -89.150; -928.000; -802.000
400.769; -136.875; -979.000; -888.000
400.897; -118.450; -838.000; -793.000
401.025;  -37.125; -166.000; -152.000
401.152;   -8.075;  220.000;   38.000
401.280;  -84.325; -430.000; -429.000
401.408; -126.275; -712.000; -576.000
401.535; -112.825; -735.000; -758.000
401.663; -190.700;-1134.000;-1054.000
401.790;  -75.625; -514.000; -525.000
401.918;   29.675;  436.000;  405.000
402.046;  -22.675;  134.000;  122.000
402.173;  -51.775;  -18.000;    7.000
402.301;  -63.325; -519.000; -397.000
402.428;   21.525;  528.000;  383.000
402.556; -136.925;-1188.000; -913.000
402.683;  -46.000;  -20.000;   -1.000
402.811;  -23.000;  -37.000; -206.000
402.938;  -17.900;   20.000;   27.000
403.066;  192.225; -574.000; -558.000
403.193;  339.450;  299.000;  239.000
403.321;  261.750; -396.000; -574.000
403.448;  335.500;   83.000;   27.000
403.575;  143.500;  -90.000;  -46.000
403.703; -110.075; -732.000; -557.000
403.830;  -70.725; -531.000; -496.000
403.957; -144.200;-1117.000;-1023.000
404.085;   -2.875;  -61.000; -172.000
404.212;   96.650;  -50.000;   63.000
404.339;  264.950; -566.000; -306.000
404.467; 5763.925; -612.000; -524.000
404.594; 4102.300; -287.000; -227.000
404.721;  991.650; -869.000; -764.000
404.848;   89.525; -113.000; -202.000
404.976; -103.750; -856.000; -783.000
405.103;  -27.000;  -14.000;  -82.000
405.230;   -8.750;  190.000;  226.000
405.357;   27.000;  117.000;   44.000
405.484;  259.275;  -49.000;    5.000
405.612;   53.775; -548.000; -563.000
405.739;  -68.975; -488.000; -243.000
405.866;   70.625;  669.000;  385.000
405.993;  -49.150; -398.000; -102.000
406.120; -141.200; -801.000; -887.000
406.247;  -61.575; -323.000; -342.000
406.374;  426.800;  540.000;  629.000
406.501;  132.625; -632.000; -702.000
406.628;  -77.225; -621.000; -589.000
406.755; -107.650; -803.000; -620.000
406.882;  -45.700; -228.000; -277.000
407.009;  -97.525; -719.000; -628.000
407.136;   47.200; -480.000; -401.000
407.263;  135.850; -939.000; -829.000
407.390;  -75.400; -692.000; -614.000
407.517; -163.700;-1139.000;-1187.000
407.644;  -68.350; -332.000; -256.000
407.771;  -80.350; -249.000; -287.000
407.898;   -3.500;  168.000;  328.000
408.025;  -70.825; -421.000; -313.000
408.151;  -17.750;   82.000;  153.000
408.278;  -73.975; -267.000; -216.000
408.405; -105.475; -931.000; -899.000
408.532;  -78.575; -549.000; -542.000
408.659; -127.250; -677.000; -648.000
408.785; -198.575;-1298.000;-1170.000
408.912;  -68.975; -412.000; -296.000
409.039; -104.750; -610.000; -686.000
409.166; -110.650; -591.000; -555.000
409.292; -108.275; -571.000; -534.000
409.419; -114.000; -665.000; -649.000
409.546;  -90.000; -431.000; -192.000
409.672; -114.625; -713.000; -545.000
409.799;  -41.600;  -36.000;   34.000
409.926;  -41.050; -180.000; -179.000
410.052; -163.700;-1127.000;-1091.000
410.179;  -54.875; -368.000; -392.000
410.305;  -88.700; -375.000; -493.000
410.432;  -56.000; -220.000; -333.000
410.558; -105.850; -305.000; -380.000
410.685; -109.300; -688.000; -431.000
410.812; -108.875; -409.000; -588.000
410.938; -147.150; -964.000; -808.000
411.065;  -98.325; -671.000; -645.000
411.191;  -35.700; -189.000; -174.000
411.317; -125.125; -823.000; -742.000
411.444;  -66.175; -317.000; -246.000
411.570;  -71.250; -339.000; -294.000
411.697; -131.250; -758.000; -752.000
411.823; -170.250; -989.000; -999.000
411.949;  -36.325;  -56.000;   17.000
412.076; -125.450; -539.000; -519.000
412.202; -110.300; -758.000; -757.000
412.329; -119.100; -798.000; -752.000
412.455; -117.800; -821.000; -657.000
412.581;  -24.450;  -15.000;  172.000
412.707;  -67.650; -540.000; -457.000
412.834;   -0.375;  156.000;  219.000
412.960;  -85.375; -785.000; -784.000
413.086;  -99.650; -743.000; -701.000
413.212;  126.600;  604.000;  578.000
413.339;  -61.725; -685.000; -701.000
413.465;   -6.450; -364.000; -310.000
413.591;  -95.675; -757.000; -474.000
413.717;  -61.250; -358.000; -366.000
413.843; -137.975; -839.000; -861.000
413.969;  -62.225;  -47.000; -292.000
414.096; -102.875; -679.000; -679.000
414.222;  -26.050;  -33.000;   85.000
414.348;  -23.300; -652.000; -385.000
414.474;   94.325;   38.000;  -52.000
414.600;  -26.125; -126.000; -144.000
414.726;  -12.875;  -96.000;  -55.000
414.852;  -71.950; -365.000; -342.000
414.978;   31.900;  104.000;  -18.000
415.104;   37.975;   38.000;   80.000
415.230;   25.550; -329.000; -330.000
415.356;   34.450; -409.000; -514.000
415.482;  202.250;   13.000;  -35.000
415.608;  287.825; -247.000; -323.000
415.734;  945.875;   67.000;   38.000
415.860;19870.400; -875.000; -767.000
415.986;15772.225; -685.000; -607.000
416.111; 1392.600; -798.000; -652.000
416.237;  289.850; -424.000; -571.000
416.363; 1072.425; -765.000; -733.000
416.489; 4359.125; -324.000; -251.000
416.615;  521.075; -707.000; -742.000
416.741;  -18.650; -677.000; -784.000
416.866;  -91.325; -673.000; -736.000
416.992; -127.075; -801.000; -818.000
417.118;  -29.425;  -41.000;  -80.000
417.244;  -70.800; -798.000; -531.000
417.369;  -79.625; -801.000; -612.000
417.495;  -15.625; -325.000; -254.000
417.621;  -67.325;-1015.000; -803.000
417.746;    1.525; -579.000; -572.000
417.872;   32.750; -254.000; -144.000
417.998;   39.000; -515.000; -530.000
418.123;  971.900;-1073.000; -845.000
418.249; 5570.225; -512.000; -601.000
418.374;  855.425; -916.000; -824.000
418.500;  133.875; -383.000; -482.000
418.626;  108.450;   70.000;  -59.000
418.751;  133.650; -549.000; -448.000
418.877;  205.425; -637.000; -643.000
419.002; 1718.300; -688.000; -560.000
419.128;12783.300; -930.000; -721.000
419.253; 3453.575; -967.000; -837.000
419.379;  439.625; -391.000; -338.000
419.504;  393.925;  325.000;  415.000
419.629;  502.650; -393.000; -212.000
419.755; 3366.450; -317.000; -254.000
419.880;21460.625;  -98.000;   67.000
420.006;11620.575; -280.000; -221.000
420.131;30732.300; -662.000; -775.000
420.256; 4853.150; -315.000; -316.000
420.382;  626.925; -665.000; -687.000
420.507;   87.300; -649.000; -778.000
420.632;  117.575; -337.000; -339.000
420.758;  234.525; -251.000; -425.000
420.883;  -75.175; -876.000; -672.000
421.008; -100.725; -775.000; -619.000
421.133;  -85.225; -509.000; -467.000
421.259;  -58.075; -325.000; -259.000
421.384; -109.475; -834.000; -693.000
421.509;  -53.125;-1052.000; -862.000
421.634; 1099.950; -936.000; -820.000
421.759;  537.150; -359.000; -327.000
421.885;  -61.150; -717.000; -656.000
422.010;  -93.450; -673.000; -542.000
422.135; -160.075; -695.000; -727.000
422.260;   32.625;  340.000;  280.000
422.385;  -50.525;   12.000;  -98.000
422.510;    4.375;  151.000;  -26.000
422.635;   10.550;  -87.000;  -43.000
422.760;  108.175; -766.000; -791.000
422.885;   68.250;  -57.000;  -80.000
423.010;  -47.925; -112.000; -169.000
423.135; -104.800; -481.000; -561.000
423.260;  -16.600; -150.000; -245.000
423.385;   71.275;  476.000;  222.000
423.510;   12.550;   71.000;  -22.000
423.635;   73.125;  133.000;   45.000
423.760;   35.550;  383.000;  328.000
423.885;   41.850;  336.000;  391.000
424.010;   17.150;  -68.000;  -13.000
424.135;  -13.650;    5.000;  -33.000
424.259;  -84.350; -654.000; -457.000
424.384;  -69.025; -279.000; -272.000
424.509;  -29.775; -260.000; -186.000
424.634; -112.175; -761.000; -623.000
424.759;  -27.900; -688.000; -544.000
424.883;  -21.025; -506.000; -527.000
425.008;  162.075; -502.000; -410.000
425.133; 1998.575; -679.000; -653.000
425.258; 1042.900; -517.000; -381.000
425.382;  988.225; -867.000; -774.000
425.507; 2714.450; -487.000; -543.000
425.632;  478.625; -802.000; -663.000
425.756;  450.975; -256.000; -146.000
425.881; 6166.325; -831.000; -857.000
426.006;18435.100; -604.000; -355.000
426.130; 3162.650; -696.000; -508.000
426.255;  391.900; -611.000; -491.000
426.379;  178.875; -189.000; -577.000
426.504;  356.225;  660.000;  544.000
426.629; 4025.050; -519.000; -466.000
426.753; 3073.475;   64.000;  -46.000
426.878;  364.000; -252.000; -288.000
427.002;  188.350; -651.000; -668.000
427.127; 1517.575;  -35.000; -158.000
427.251;11530.475;  372.000;  401.000
427.375; 3629.975; -191.000; -173.000
427.500; 2339.375; -616.000; -610.000
427.624;  853.450; -234.000; -400.000
427.749;  113.550; -216.000; -225.000
427.873;  -38.325; -499.000; -412.000
427.997;  -34.175; -222.000; -230.000
428.122;   63.650;  795.000;  703.000
428.246;   70.225;  433.000;  434.000
428.371; -145.625; -869.000; -773.000
428.495; -106.000; -624.000; -646.000
428.619;  -28.525; -186.000; -117.000
428.743;   28.025;   65.000;  132.000
428.868;    5.325; -732.000; -643.000
428.992; 1356.325; -219.000; -326.000
429.116;  610.525; -329.000; -357.000
429.240;  278.475;  419.000;  426.000
429.365;  -25.400; -454.000; -574.000
429.489;  -30.450; -638.000; -647.000
429.613;   25.775; -236.000; -177.000
429.737;   46.100; -563.000; -432.000
429.861;  264.550; -247.000; -133.000
429.985; 5437.125; -425.000; -305.000
430.109; 6619.725; -770.000; -908.000
430.234;  811.550;   76.000;  -50.000
430.358;   84.825; -250.000; -160.000
430.482;  -70.775; -672.000; -564.000
430.606;  -67.700; -655.000; -375.000
430.730;   14.875; -437.000; -388.000
430.854;  130.850; -909.000; -835.000
430.978;  -86.700; -795.000; -764.000
431.102;  -95.500; -499.000; -422.000
431.226; -122.600; -874.000; -815.000
431.350;   14.650;  345.000;  422.000
431.474;  -67.800; -661.000; -373.000
431.597; -142.775;-1060.000; -848.000
431.721;  -96.100; -276.000; -267.000
431.845; -125.550; -704.000; -472.000
431.969;  -89.950; -304.000; -349.000
432.093; -105.925; -395.000; -317.000
432.217;  -27.325;   32.000;   82.000
432.341;  -95.800; -523.000; -518.000
432.464;  -16.800;   96.000;   40.000
432.588;  184.650; -401.000; -329.000
432.712;   99.050;  -52.000;  -52.000
432.836;   39.125;  213.000;  263.000
432.959;  -20.100; -372.000; -311.000
433.083;   71.700;   11.000;    2.000
433.207;  362.300;  285.000;  930.000
433.330; 4900.850; -391.000; -200.000
433.454; 6610.300; -654.000; -638.000
433.578; 3762.175;  583.000;  278.000
433.701;  757.950; -623.000; -675.000
433.825;  158.025; -292.000; -299.000
433.949;  164.000;   28.000;  -72.000
434.072;   64.150; -410.000; -323.000
434.196;  -26.650; -309.000; -117.000
434.319; 3475.575;25482.000;25124.000
434.443;  669.000; -656.000; -603.000
434.566; 2761.650;  281.000;   62.000
434.690;  528.525; -637.000; -383.000
434.813;   52.225; -251.000; -173.000
434.937;  -78.975; -569.000; -696.000
435.060;  -57.350; -423.000; -332.000
435.184;  290.225; -492.000; -217.000
435.307;  165.725;  159.000;  102.000
435.431;  -13.900;  -40.000;   24.000
435.554;  -73.925; -399.000; -240.000
435.677;  -90.600; -350.000; -258.000
435.801;  -57.500;  -25.000;   49.000
435.924;   -9.675;    1.000;  -67.000
436.048; -130.600;-1019.000; -732.000
436.171;  -73.200; -240.000;  -66.000
436.294;  -39.225; -248.000; -229.000
436.417;   98.450; -963.000; -849.000
436.541;  -69.675; -814.000; -840.000
436.664;  -64.125; -242.000; -316.000
436.787;  -34.150;   13.000;  113.000
436.910; -106.575; -792.000; -422.000
437.034;  -10.775;  142.000;  143.000
437.157;   37.300;  -11.000;    0.000
437.280;  -57.250; -392.000; -292.000
437.403; -106.250; -982.000; -869.000
437.526;  550.425; -903.000; -865.000
437.649; 2226.225; -505.000; -332.000
437.772;  379.175; -692.000; -540.000
437.896;  116.700;  700.000;  544.000
438.019; -100.150; -758.000; -503.000
438.142;  -96.400; -596.000; -506.000
438.265;  -31.050; -639.000; -670.000
438.388;  572.975; -520.000; -410.000
438.511;  125.600; -597.000; -394.000
438.634;  -40.250; -247.000; -125.000
438.757; -136.400; -693.000; -619.000
438.880;  -24.700;  -34.000;  -57.000
439.003;  -79.300; -417.000; -437.000
439.126;  -77.750; -287.000; -167.000
439.248;  -61.125;  -98.000; -139.000
439.371;  -50.000;    9.000;  -53.000
439.494;   13.250;  510.000;  439.000
439.617;  -67.250;   65.000;  -88.000
439.740; -176.150; -968.000; -816.000
439.863; -143.450; -755.000; -595.000
439.986; -125.875; -476.000; -431.000
440.108;  -52.125; -161.000; -112.000
440.231; -175.425; -950.000; -836.000
440.354;  -45.475;  -64.000; -150.000
440.477;   24.375; -566.000; -542.000
440.599;   11.725; -200.000; -225.000
440.722; -111.525; -709.000; -586.000
440.845;   42.475;  751.000;  928.000
440.968; -108.050; -415.000; -311.000
441.090;  -76.875; -199.000;  -33.000
441.213; -159.500;-1021.000; -825.000
441.336;  -58.300; -159.000;   -5.000
441.458;  -87.175; -549.000; -396.000
441.581;  -84.500; -628.000; -629.000
441.703;  -60.100; -152.000;   13.000
441.826; -111.950; -557.000; -400.000
441.948;  -47.675;   56.000;   51.000
442.071;   18.050;  555.000;  424.000
442.193; -123.000; -531.000; -485.000
442.316;   25.975;  152.000;   97.000
442.438;   46.100; -233.000;  -10.000
442.561;   50.800;  272.000;  262.000
442.683;  459.125; -809.000; -522.000
442.806; 1160.725;   -8.000;   74.000
442.928;   45.025; -859.000; -604.000
443.051;  -81.000; -577.000; -373.000
443.173;  -94.100; -341.000; -339.000
443.295;  -79.300; -263.000; -371.000
443.418;  -70.800; -321.000;  -29.000
443.540;  -13.450; -106.000;   -4.000
443.662; -120.075; -563.000; -465.000
443.785;  -27.800;  335.000;  199.000
443.907; -105.775; -362.000; -208.000
444.029; -134.650; -767.000; -494.000
444.152; -147.350; -644.000; -554.000
444.274;  -26.000;  -18.000;  -24.000
444.396; -109.200; -461.000; -221.000
444.518; -131.675; -691.000; -454.000
444.640;  -99.175; -268.000; -111.000
444.763;  -27.250;  388.000;  249.000
444.885; -115.650; -432.000; -392.000
445.007;  -42.200;   35.000;   86.000
445.129; -109.750; -610.000; -515.000
445.251; -110.050; -372.000; -439.000
445.373; -128.250; -537.000; -386.000
445.495;   -0.525;  242.000;  350.000
445.617;   47.525;  853.000;  753.000
445.739;  -70.675; -215.000;  -97.000
445.861;  -39.425; -245.000; -112.000
445.984;  -36.675; -267.000; -101.000
446.105;  175.850; -418.000; -251.000
446.227;  610.800; -176.000;  -19.000
446.349;   26.025; -358.000; -249.000
446.471; -100.550; -615.000; -448.000
446.593;  -72.625; -316.000;   19.000
446.715;  -16.975;  -67.000;   41.000
446.837;   37.900;  697.000;  832.000
446.959;  -94.425; -457.000; -478.000
447.081; -146.650; -628.000; -518.000
447.203;   37.225;  862.000;  834.000
447.325;  -99.675; -270.000;   42.000
447.446;  -16.700;  286.000;  530.000
447.568; -147.925; -921.000; -803.000
447.690;  -75.675; -236.000; -245.000
447.812; -144.150; -798.000; -519.000
447.933;  -37.550;  155.000;  127.000
448.055;  -74.500; -306.000; -261.000
448.177;  124.725;   31.000;   79.000
448.299;   89.725; -935.000; -727.000
448.420;   23.925;  -25.000;  159.000
448.542;  -61.050;   -3.000;   33.000
448.664;  -29.200;  109.000;  322.000
448.785;  -62.875;  265.000;   83.000
448.907;  -81.675; -614.000; -353.000
449.028;  -32.250; -771.000; -471.000
449.150;   46.100;  492.000;  589.000
449.272; -178.825;-1044.000; -913.000
449.393;   12.750;  612.000;  694.000
449.515; -145.850; -634.000; -581.000
449.636;  -64.150; -264.000; -155.000
449.758;   74.825;  763.000;  622.000
449.879;  -95.325; -498.000; -396.000
450.001;  -83.450; -149.000;  -49.000
450.122;  -23.600;  -95.000;  162.000
450.244;  -31.300;   37.000;  364.000
450.365;  -97.400; -495.000; -301.000
450.486;  -39.350;   80.000;  268.000
450.608;   20.525;  393.000;  326.000
450.729;   58.925;  578.000;  645.000
450.850;    9.675; -574.000; -466.000
450.972;  683.375; -552.000; -389.000
451.093; 4886.075;  190.000;  588.000
451.214; 2357.225; -516.000; -337.000
451.336;  426.025;  773.000;  579.000
451.457;   63.300;  264.000;  393.000
451.578;  -41.075; -118.000;  -74.000
451.699; -122.750; -546.000; -540.000
451.821;  -47.175; -284.000;  -50.000
451.942;   -7.100;  278.000;  285.000
452.063;   23.800;  228.000;  419.000
452.184;  525.900;  -54.000;  -49.000
452.305; 1145.775;  103.000;  170.000
452.427;  154.925; -549.000; -301.000
452.548;   -0.475;   23.000;   79.000
452.669;  -54.850; -257.000;  -89.000
452.790;  -48.325;    3.000;  -18.000
452.911;   -3.775;  195.000;  259.000
453.032;  -63.500; -289.000;  -60.000
453.153;  -40.900;  -29.000;   81.000
453.274;   56.725;  737.000;  868.000
453.395;  -53.025;  -51.000;  175.000
453.516;  118.825; 1317.000; 1388.000
453.637;  -84.950; -205.000; -150.000
453.758;  -63.950;   15.000;   69.000
453.879; -126.800; -462.000; -250.000
454.000;   55.650; 1086.000;  948.000
454.121; -102.525; -554.000; -326.000
454.242; -122.650; -599.000; -383.000
454.362;  -48.875;  -99.000;  114.000
454.483;  -45.775; -309.000; -229.000
454.604;   49.675;  512.000;  580.000
454.725; -123.700; -627.000; -555.000
454.846; -128.275; -474.000; -406.000
454.967;  -21.425;  230.000;  539.000
455.087;  -39.975;  179.000;  153.000
455.208;  -11.175;  554.000;  856.000
455.329;  -61.625;  -22.000;   82.000
455.450;   31.500;  473.000;  633.000
455.570;  -71.950; -234.000; -211.000
455.691;  -46.750;  201.000;  407.000
455.812; -108.775; -270.000;  -92.000
455.932;  -77.950;  107.000;  -97.000
456.053;  -92.125;   36.000;   24.000
456.173; -121.275; -433.000; -355.000
456.294; -131.475; -476.000; -303.000
456.415;  -63.825;  -73.000;   70.000
456.535;  -52.825;  297.000;  273.000
456.656;  -49.900;  132.000;  240.000
456.776;  -86.525;    3.000;  298.000
456.897;   -5.100;  308.000;  513.000
457.017;  -82.225; -153.000;   -3.000
457.138; -104.350; -402.000; -249.000
457.258;  -29.925;  263.000;  224.000
457.379;  -17.725;  509.000;  521.000
457.499;  -26.800;  443.000;  432.000
457.620; -128.950; -407.000; -231.000
457.740;  -96.775; -132.000;  -11.000
457.860;  -53.350;   87.000;   44.000
457.981;  -51.900;  132.000;  124.000
458.101;  -74.125;  -89.000;   40.000
458.221;  -31.425;  336.000;  402.000
458.342;  -73.775;   -4.000;  -37.000
458.462;    3.575;  617.000;  352.000
458.582;  -32.900; -302.000; -294.000
458.703;   12.525;  303.000;  154.000
458.823;  -34.800;   22.000;  163.000
458.943;   23.575;  341.000;  467.000
459.063;  -20.950; 1124.000;  192.000
459.183;  -25.200;  328.000;  313.000
459.304;    0.825;  315.000;  517.000
459.424;  -64.550; -246.000;  -89.000
459.544;  322.775;  388.000;  764.000
459.664;  849.725;  499.000;  506.000
459.784;  340.775; 1004.000; 1175.000
459.904;   65.375;  867.000;  744.000
460.024;   66.150;  867.000;  684.000
460.144;    8.300;  449.000;  554.000
460.264;  -17.525;  515.000;  327.000
460.385; -102.300; -145.000; -119.000
460.505;   30.450;  905.000;  858.000
460.625; -104.000;  -17.000;  -68.000
460.745;  -29.150;  396.000;  541.000
460.864;  -59.125;  153.000;  469.000
460.984;   12.575;  499.000;  573.000
461.104;  138.500; 1656.000; 1775.000
461.224;   19.275;  657.000;  650.000
461.344;  -41.450;  431.000;  360.000
461.464;  -33.525;  258.000;  513.000
461.584;  -23.225;  283.000;  466.000
461.704;  -52.925;   58.000;  108.000
461.824;  -56.200;  238.000;  259.000
461.943;  -48.150;  191.000;  130.000
462.063;  -88.700;    2.000;  324.000
462.183;   29.475;  639.000;  717.000
462.303;   92.200; 1678.000; 1230.000
462.422;   22.375;  781.000;  840.000
462.542;  -42.500;  271.000;  391.000
462.662;   27.475;  353.000;  380.000
462.782;  236.875;  833.000;  572.000
462.901;  474.950;  545.000;  717.000
463.021;  294.900; 1702.000; 1638.000
463.141;    8.550;  337.000;  770.000
463.260;  -19.775;  614.000;  474.000
463.380;   17.500;  902.000;  884.000
463.499;  -45.325;  342.000;  332.000
463.619;  -40.575;  581.000;  559.000
463.738;  110.150; 1644.000;  903.000
463.858;    3.250;  657.000;  811.000
463.978;  -30.225;  542.000;  396.000
464.097;   62.025;  921.000; 1114.000
464.217;   98.050; 1196.000; 1143.000
464.336;  119.125; 1068.000; 1130.000
464.455;  -22.225;  328.000;  659.000
464.575;   30.675;  597.000;  602.000
464.694;  170.375; 1204.000; 1179.000
464.814;  135.275; 1190.000; 1138.000
464.933;   73.300; 1095.000; 1027.000
465.052;   85.275; 1412.000; 1054.000
465.172;   74.875;  922.000;  799.000
465.291;  133.075; 1376.000; 1320.000
465.410;   14.650;  462.000;  735.000
465.530;   85.950; 1355.000; 1310.000
465.649;   44.725; 1209.000; 1273.000
465.768;  118.775; 1673.000; 1508.000
465.888;   54.525;  941.000; 1174.000
466.007;   78.750; 1335.000; 1440.000
466.126;   -0.575;  721.000;  641.000
466.245;   28.950; 1176.000; 1187.000
466.364;   25.250;  950.000; 1060.000
466.484;   45.375; 1024.000; 1213.000
466.603;   27.150; 1101.000; 1222.000
466.722;  119.425; 1490.000; 1769.000
466.841;   79.500; 1151.000; 1401.000
466.960;   30.950; 1069.000;  972.000
467.079;  135.200; 1971.000; 1786.000
467.198;   44.025; 1238.000; 1181.000
467.317;   88.900; 1768.000; 1162.000
467.436;   58.650; 1709.000; 1261.000
467.555;  118.875; 1796.000; 1746.000
467.674;   63.500; 1227.000; 1329.000
467.793;   37.200; 1376.000; 1374.000
467.912;   94.275; 1658.000; 1539.000
468.031;  146.925; 2038.000; 1930.000
468.150;  130.125; 1842.000; 1837.000
468.269;  203.200; 2313.000; 2090.000
468.388;  181.225; 2168.000; 2339.000
468.507;  229.825; 2884.000; 2903.000
468.626;  284.325; 2555.000; 2541.000
468.744;  123.300; 2018.000; 2174.000
468.863;  182.475; 2312.000; 2523.000
468.982;  103.200; 1503.000; 1555.000
469.101;  228.600; 2788.000; 2692.000
469.220;  150.100; 2333.000; 2176.000
469.338;  241.625; 2935.000; 3051.000
469.457;  192.525; 2719.000; 2545.000
469.576;  342.200; 3953.000; 3784.000
469.695;  226.175; 2877.000; 3066.000
469.813;  407.675; 4148.000; 4192.000
469.932;  395.550; 4255.000; 4485.000
470.051;  429.500; 4075.000; 4161.000
470.169;  845.900; 4470.000; 4338.000
470.288; 1499.000; 4700.000; 4809.000
470.406;  933.100; 5059.000; 5194.000
470.525;  637.050; 6101.000; 5787.000
470.644;  632.875; 6847.000; 6794.000
470.762;  810.375; 8397.000; 7873.000
470.881;  900.175; 8651.000; 8464.000
470.999; 1032.150; 9685.000; 9151.000
471.118; 1094.250;11174.000;10711.000

