
Integration time [ms]: 100.000
Averaging Nr. [scans]: 40
Smoothing Nr. [pixels]: 0
Data measured with spectrometer [name]: 2101012U2
Wave   ;Sample   ;Dark     ;Reference
[nm]   ;[counts] ;[counts] ;[counts] 

197.733;   50.375;  516.000;  404.000
197.879;  -81.700; -610.000; -634.000
198.025;  -53.225; -475.000; -420.000
198.171;  -63.425; -602.000; -612.000
198.317;  -34.700; -401.000; -316.000
198.463;  -67.825; -655.000; -404.000
198.609;   48.950;  181.000; -137.000
198.755;  -72.000; -644.000; -410.000
198.901;  -69.525; -505.000; -424.000
199.047;  -68.100; -615.000; -488.000
199.193;  -32.575; -230.000; -468.000
199.339;  -40.925; -222.000; -369.000
199.485;   43.650;  330.000;  271.000
199.631;    7.400;  227.000;  310.000
199.777;  -35.150; -466.000; -398.000
199.923;  -60.750; -610.000; -424.000
200.069;   -4.650; -141.000;  -58.000
200.215;   64.650;  128.000;  453.000
200.361;   39.100;  243.000;  477.000
200.507;  -61.675; -600.000; -373.000
200.653;  -17.475; -371.000; -194.000
200.798;  -21.375; -215.000; -125.000
200.944;    0.550; -146.000;  -41.000
201.090;   47.600;   61.000;  222.000
201.236;  -12.450; -116.000; -158.000
201.382;  135.300;  874.000;  903.000
201.528;   25.700;  -58.000;  -48.000
201.674;  -38.100; -386.000; -293.000
201.819;  -47.775; -540.000; -439.000
201.965;  -89.100; -699.000; -447.000
202.111;  -14.700; -273.000; -226.000
202.257;  -32.850; -250.000; -238.000
202.402;   10.775;   13.000;  -36.000
202.548;  -16.400; -169.000; -116.000
202.694;   86.450;  410.000; -183.000
202.840;  -77.725; -603.000; -531.000
202.985;  -66.675; -681.000; -639.000
203.131; -109.700; -832.000; -666.000
203.277;  -33.400; -199.000; -262.000
203.423;  -46.550; -434.000; -520.000
203.568;  -27.300; -462.000; -237.000
203.714;  -48.125; -535.000; -542.000
203.860;  -75.575; -682.000; -641.000
204.005;   20.575;  112.000;  167.000
204.151;   79.575;  561.000;  556.000
204.296;  -31.025; -354.000; -221.000
204.442;  -63.375; -600.000; -547.000
204.588;  -63.500; -592.000; -579.000
204.733;   12.700;  178.000;  168.000
204.879; -120.100;-1018.000; -822.000
205.025;   35.825;  -99.000;  126.000
205.170;   -8.150;  -17.000;   94.000
205.316;   78.000;  438.000;  661.000
205.461;  -73.325; -698.000; -554.000
205.607;   71.275;  609.000;  665.000
205.752;  -89.650; -626.000; -551.000
205.898;  -42.250; -501.000; -391.000
206.043;  -62.000; -578.000; -506.000
206.189;  -35.025; -243.000; -285.000
206.334;   64.800;  554.000;  606.000
206.480;   80.625;  409.000;  239.000
206.625;  -81.525; -529.000; -552.000
206.771;  -40.250; -451.000; -373.000
206.916;  -38.525; -210.000; -537.000
207.062;  -72.025; -545.000; -591.000
207.207;  -44.225; -546.000; -443.000
207.353;   60.100;  185.000;  460.000
207.498;   22.200;  196.000;   85.000
207.643;  -42.400; -501.000; -370.000
207.789; -113.025;-1069.000; -910.000
207.934;  -84.775; -665.000; -713.000
208.080;  -13.425; -154.000;   66.000
208.225;    1.075;  -22.000;  -57.000
208.370;  -80.250; -727.000; -619.000
208.516;  -77.700; -741.000; -487.000
208.661;  -30.700; -127.000;  -69.000
208.806;   -5.375; -165.000; -171.000
208.952; -122.950;-1044.000; -731.000
209.097;   76.825;  378.000;  349.000
209.242;  -46.975; -307.000; -382.000
209.387;   72.125;  392.000;  350.000
209.533;  -45.550; -321.000; -350.000
209.678;   87.175;  472.000;  543.000
209.823;  -50.550; -408.000; -310.000
209.969; -101.600; -860.000; -757.000
210.114; -106.250; -907.000; -719.000
210.259; -116.100; -939.000; -889.000
210.404;   -6.525; -171.000;  103.000
210.549;    7.375;  108.000;    3.000
210.695;  -19.125;   -3.000;  -95.000
210.840;   35.625;   94.000;   67.000
210.985;  -44.075; -484.000; -303.000
211.130;   70.725;  268.000;  406.000
211.275;   18.175;  207.000;  199.000
211.420;  -43.100; -300.000; -289.000
211.566;  -69.375; -536.000; -489.000
211.711;   18.825;  218.000;  157.000
211.856;  -62.625; -545.000; -519.000
212.001;   14.025;  151.000;   44.000
212.146;   26.700;  153.000;   49.000
212.291;  -21.025; -210.000; -186.000
212.436;  -21.050; -280.000;   -6.000
212.581;  -66.275; -685.000; -653.000
212.726;  -69.425; -487.000; -538.000
212.871;  -45.350; -552.000; -217.000
213.016; -147.825;-1172.000;-1029.000
213.161;   70.250;  406.000;  291.000
213.306;  -70.325; -435.000; -577.000
213.451; -101.400; -778.000; -689.000
213.596;  -38.825; -455.000; -347.000
213.741;  -54.025; -448.000; -538.000
213.886;  -73.425; -498.000; -517.000
214.031;  -27.050; -294.000; -124.000
214.176;  -52.100; -408.000; -341.000
214.321;  -24.150; -296.000; -157.000
214.466;  -12.450; -163.000;  -43.000
214.611;   -7.825;  -61.000;  -10.000
214.756; -112.000; -948.000; -858.000
214.901;   -7.650; -388.000; -226.000
215.046; -116.925; -797.000; -825.000
215.191;   38.400;  128.000;   35.000
215.336;  -17.575; -157.000;  -19.000
215.480;  -72.200; -684.000; -505.000
215.625;   -4.275; -175.000;  -19.000
215.770;  -69.725; -757.000; -662.000
215.915;   -3.050;   -5.000;  -97.000
216.060;   -4.800; -113.000;  -21.000
216.205; -111.850; -731.000; -779.000
216.349;  -67.275; -470.000; -533.000
216.494; -127.725; -939.000; -867.000
216.639; -112.525; -823.000; -888.000
216.784;  -84.675; -577.000; -525.000
216.929;   56.100;  392.000;  281.000
217.073;   -4.525; -244.000;  -31.000
217.218;   15.275;   78.000;  -47.000
217.363;  -77.525; -656.000; -618.000
217.507;  -58.375; -623.000; -588.000
217.652; -119.100; -845.000; -874.000
217.797;  -85.225; -708.000; -659.000
217.942; -111.100; -856.000; -720.000
218.086;   69.950;  608.000;  539.000
218.231;   -3.000; -174.000;  -26.000
218.376;  -38.600; -337.000; -229.000
218.520;   -0.925;  -41.000;   96.000
218.665;  -28.625; -338.000; -204.000
218.810;  -32.025; -275.000; -233.000
218.954;   15.850;  201.000;   35.000
219.099; -101.650; -713.000; -963.000
219.243;  -67.175; -589.000; -554.000
219.388;  -41.675; -264.000; -136.000
219.532;   -5.675; -116.000; -116.000
219.677;  -71.225; -564.000; -521.000
219.822;    5.025;   33.000;   89.000
219.966;    6.950;   17.000;  -99.000
220.111;  -30.375; -328.000;  -40.000
220.255;  -85.950; -797.000; -750.000
220.400;  -30.950; -180.000; -146.000
220.544;  -70.125; -516.000; -450.000
220.689;  -39.450; -422.000; -451.000
220.833;  -17.875; -123.000;  -58.000
220.978;  -45.800; -393.000; -563.000
221.122;   29.025;  319.000;  307.000
221.267; -105.200; -906.000; -837.000
221.411;  -59.575; -478.000; -394.000
221.555;   -9.900; -104.000;  -23.000
221.700;  -38.075; -329.000; -222.000
221.844;   31.525;  255.000;  272.000
221.989;  -42.575; -328.000; -311.000
222.133;  -39.225; -289.000; -307.000
222.277;    3.825;    5.000;   78.000
222.422;   30.500;  227.000;  113.000
222.566;  -44.125; -381.000; -214.000
222.711;  -49.375; -414.000; -479.000
222.855;  -67.400; -643.000; -586.000
222.999;  -74.250; -642.000; -717.000
223.144;  -27.525; -195.000; -194.000
223.288;   53.300;  423.000;  251.000
223.432;   33.725;  184.000;  230.000
223.576;   19.900;  152.000;  -21.000
223.721;   43.050;  364.000;  273.000
223.865;  -40.900; -472.000; -475.000
224.009;  225.775; 1673.000; 1631.000
224.153;  -79.325; -660.000; -671.000
224.298;  -68.125; -531.000; -489.000
224.442;   -5.825;  -74.000;  -33.000
224.586;   -9.125; -169.000; -106.000
224.730;  -96.875; -858.000; -670.000
224.875; -102.825; -739.000; -688.000
225.019;   17.450;  102.000;  188.000
225.163;   41.025;  208.000;  341.000
225.307;    8.350;   97.000;  -91.000
225.451;   44.550;  360.000;  481.000
225.595;   36.675;  264.000;  176.000
225.739;  -11.450; -170.000;  -94.000
225.884;   -5.200;   86.000;    5.000
226.028;  -88.550; -760.000; -626.000
226.172;  -28.575; -260.000; -273.000
226.316; -112.950; -941.000; -902.000
226.460;  -63.150; -645.000; -493.000
226.604;  -62.125; -406.000; -400.000
226.748;  -99.725; -836.000; -733.000
226.892;  -40.300; -227.000; -181.000
227.036;  -42.575; -537.000; -447.000
227.180;  -37.275; -551.000; -375.000
227.324;  -68.625; -561.000; -580.000
227.468; -111.725; -819.000; -717.000
227.612;   14.250;  242.000;  -28.000
227.756;  -95.600; -845.000; -698.000
227.900;   43.250;  342.000;  441.000
228.044;  -51.100; -509.000; -290.000
228.188;   51.825;  448.000;  568.000
228.332;  -78.650; -546.000; -472.000
228.476;  -25.725; -223.000; -149.000
228.620;  -17.100; -210.000; -150.000
228.764;   63.750;  431.000;  349.000
228.908;  -18.900; -155.000;   30.000
229.052;  -69.100; -615.000; -528.000
229.195;  -26.475; -172.000;   13.000
229.339;  -22.025; -235.000; -305.000
229.483;  -32.250;    5.000; -162.000
229.627;   -8.750; -156.000;  139.000
229.771;  -38.250; -218.000; -294.000
229.915;   -4.475;  230.000;   79.000
230.059;  -93.450; -648.000; -663.000
230.202;  -31.300; -370.000; -317.000
230.346;  -17.350; -107.000;  107.000
230.490;  -62.475; -489.000; -521.000
230.634;  -96.300; -736.000; -553.000
230.777;   81.025;  478.000;  509.000
230.921;  -52.975; -450.000; -359.000
231.065;  -36.775; -246.000; -286.000
231.209;   30.700;  261.000;  265.000
231.352;   25.425;   54.000;   40.000
231.496;   21.150;  568.000;  188.000
231.640;  -77.475; -693.000; -621.000
231.783;   53.675;  546.000;  525.000
231.927;  -39.850; -294.000; -365.000
232.071; -115.175; -962.000; -736.000
232.214; -104.350; -980.000; -764.000
232.358;  -99.225; -683.000; -599.000
232.502;   11.975;  -19.000;    7.000
232.645; -134.850;-1090.000; -927.000
232.789;  -18.525; -257.000; -218.000
232.933;  -40.175; -407.000; -224.000
233.076; -120.975;-1038.000; -897.000
233.220; -108.350; -752.000; -777.000
233.363;  -72.550; -669.000; -477.000
233.507;   55.875;  371.000;  129.000
233.650;  -87.975; -764.000; -834.000
233.794;   52.850;  438.000;  461.000
233.938;  -50.275; -530.000; -362.000
234.081;  -16.200;  -93.000;   31.000
234.225;  -57.375; -631.000; -539.000
234.368; -113.475; -773.000; -723.000
234.512;  -36.850; -385.000; -299.000
234.655;  -88.725; -582.000; -555.000
234.798;  -72.925; -493.000; -466.000
234.942; -127.900; -884.000;-1002.000
235.085;  -65.100; -651.000; -443.000
235.229;  -74.200; -405.000; -410.000
235.372;  -36.275; -247.000; -191.000
235.516;  -78.525; -397.000; -321.000
235.659;   21.350;   92.000;  121.000
235.802;   -5.500;  -38.000;  -22.000
235.946;   20.750;  335.000;  215.000
236.089;   33.200;  126.000;  250.000
236.233;   58.325;  275.000;  298.000
236.376;  -40.575; -235.000; -378.000
236.519;  -37.425; -297.000; -319.000
236.663;  -25.000; -215.000; -117.000
236.806; -133.025;-1029.000; -999.000
236.949;   80.950;  543.000;  431.000
237.092;   57.750;  412.000;  391.000
237.236;  -76.575; -589.000; -502.000
237.379;   68.275;  352.000;  428.000
237.522; -106.450; -879.000; -768.000
237.666;  -12.250; -271.000;   18.000
237.809; -130.850; -851.000; -823.000
237.952;   30.500;  469.000;  271.000
238.095;  -69.850; -447.000; -442.000
238.238;   85.025;  688.000;  700.000
238.382;   -1.075;  166.000;  103.000
238.525;  -59.175; -598.000; -511.000
238.668; -135.825;-1060.000; -985.000
238.811;  -87.350; -638.000; -643.000
238.954;  -72.375; -483.000; -334.000
239.097;  108.225;  617.000;  664.000
239.241;   25.600;  394.000;  326.000
239.384;  -31.525; -254.000; -214.000
239.527;  -56.125; -424.000; -224.000
239.670; -135.375; -994.000;-1091.000
239.813; -110.625; -696.000; -658.000
239.956;   85.450;  579.000;  473.000
240.099; -124.975; -778.000; -725.000
240.242;   64.000;  428.000;  432.000
240.385;   38.850;  466.000;  450.000
240.528;  -75.325; -706.000; -473.000
240.671;   13.550;  189.000;  134.000
240.814;  -41.275; -441.000; -158.000
240.957;  -98.325; -767.000; -578.000
241.100;  -88.450; -779.000; -755.000
241.243; -143.100;-1234.000; -893.000
241.386;  -64.675; -508.000; -379.000
241.529;  -80.425; -735.000; -547.000
241.672;  -63.325; -566.000; -495.000
241.815; -109.300; -832.000; -808.000
241.958;  -24.575; -125.000; -182.000
242.101;  -73.200; -545.000; -390.000
242.244;  -31.700; -270.000; -325.000
242.387;  -47.800; -304.000; -246.000
242.530;   55.900;  470.000;  134.000
242.673;  -39.600; -381.000; -309.000
242.815; -112.625; -925.000; -899.000
242.958;  -58.500; -482.000; -381.000
243.101;   32.775;  132.000;  187.000
243.244;  -64.600; -564.000; -521.000
243.387;  -35.225; -313.000; -316.000
243.530;  -96.650; -657.000; -674.000
243.672;    0.300;   43.000;  -92.000
243.815;  -47.950; -355.000; -283.000
243.958;   -5.175;   98.000;  -26.000
244.101;    1.050;   59.000;  -16.000
244.243;   -8.900;  -47.000;  101.000
244.386; -113.875; -761.000; -630.000
244.529;  -33.000; -132.000; -139.000
244.672; -140.775;-1154.000; -951.000
244.814;  -97.275; -621.000; -794.000
244.957;  -40.325; -380.000; -304.000
245.100;  -71.100; -489.000; -489.000
245.242;  -54.925; -387.000; -374.000
245.385;   -6.300;  -59.000;  -39.000
245.528; -118.525; -871.000; -705.000
245.670;   96.750;  612.000;  634.000
245.813;  -90.000; -599.000; -547.000
245.956;  -19.575; -324.000; -275.000
246.098;  -62.150; -508.000; -650.000
246.241;   19.375;  194.000;   48.000
246.383;   -9.925; -119.000;  -73.000
246.526;  -58.725; -454.000; -525.000
246.669; -118.525; -889.000; -780.000
246.811;   14.450;  172.000;   -1.000
246.954;  -74.825; -512.000; -426.000
247.096;    0.475;  -84.000;   -6.000
247.239;  -64.800; -482.000; -445.000
247.381;  -66.950; -647.000; -488.000
247.524;   88.800;  645.000;  679.000
247.666;  -12.700;   58.000;   11.000
247.809; -110.825; -887.000; -691.000
247.951;   -3.900;  -75.000;  138.000
248.094;   23.775;  432.000;  308.000
248.236; -154.075;-1262.000;-1238.000
248.378;    7.950; -356.000;  -81.000
248.521;  -25.725; -334.000; -337.000
248.663;  -34.325; -236.000; -267.000
248.806;  -21.875; -300.000; -266.000
248.948;  -87.750; -886.000; -763.000
249.090;  -47.800; -428.000; -398.000
249.233;  -46.350; -344.000; -381.000
249.375;  -56.925; -474.000; -451.000
249.518;  -19.450;  -83.000; -133.000
249.660;   -7.425; -103.000;    3.000
249.802; -160.050;-1303.000;-1189.000
249.945;  -75.325; -612.000; -540.000
250.087; -107.300; -834.000; -768.000
250.229;  -38.300; -362.000; -480.000
250.371;  -64.300; -494.000; -439.000
250.514;  -39.425; -310.000; -244.000
250.656;   -5.975;   69.000;  102.000
250.798; -111.300; -849.000; -800.000
250.940;  -60.525; -322.000; -322.000
251.083;  -25.150; -335.000; -111.000
251.225;   59.125;  338.000;  310.000
251.367;  -33.400; -274.000; -373.000
251.509;  -29.250; -265.000; -210.000
251.651;  -91.550; -731.000; -671.000
251.794;   54.800;  538.000;  632.000
251.936;  -96.025; -821.000; -747.000
252.078;  -79.475; -540.000; -461.000
252.220;  -65.275; -645.000; -477.000
252.362;   80.675;  344.000;  462.000
252.504;  -73.675; -677.000; -584.000
252.646; -118.300; -875.000; -722.000
252.788;    7.775;   14.000; -128.000
252.931;  -37.375; -257.000; -253.000
253.073;  -26.725; -376.000; -317.000
253.215;   -1.125;  141.000;  122.000
253.357;   -9.800;   82.000; -153.000
253.499;  -41.325; -374.000; -234.000
253.641;  -85.325; -749.000; -594.000
253.783;  -70.075; -609.000; -527.000
253.925;  -72.550; -586.000; -591.000
254.067; -110.350; -744.000; -667.000
254.209;  -33.875; -391.000; -259.000
254.351; -127.025; -865.000; -883.000
254.493;  -61.575; -441.000; -417.000
254.635; -123.100; -936.000; -818.000
254.777;  -83.075; -752.000; -687.000
254.918;  -66.400; -512.000; -430.000
255.060;  -59.875; -551.000; -395.000
255.202;  -68.525; -473.000; -261.000
255.344;  -78.525; -658.000; -455.000
255.486;  -52.100; -471.000; -406.000
255.628;  -99.300; -780.000; -781.000
255.770;  -88.925; -676.000; -536.000
255.912;  -64.650; -559.000; -468.000
256.053;  -82.800; -730.000; -508.000
256.195;  152.675; 1008.000;  903.000
256.337; -100.700; -861.000; -595.000
256.479;   66.875;  532.000;  416.000
256.621;  -62.550; -394.000; -212.000
256.762;  -91.900; -789.000; -742.000
256.904;   51.025;  485.000;  487.000
257.046;  -43.275; -381.000; -271.000
257.188;  -56.275; -351.000; -264.000
257.329;  -72.000; -525.000; -464.000
257.471; -106.225; -939.000; -807.000
257.613;  -54.025; -584.000; -498.000
257.755; -154.425;-1073.000; -982.000
257.896;   37.700;  286.000;  392.000
258.038;  -66.225; -403.000; -352.000
258.180;  -39.525; -354.000; -279.000
258.321;  -88.250; -581.000; -457.000
258.463;   -3.675;  -71.000;  133.000
258.605;  -85.375; -562.000; -570.000
258.746; -105.125; -886.000; -772.000
258.888; -147.450;-1026.000;-1020.000
259.029;   20.050;  121.000;   -8.000
259.171;  -97.100; -614.000; -550.000
259.313;   -4.600;  -49.000;  -47.000
259.454;  -72.450; -536.000; -414.000
259.596;  -45.575; -483.000; -390.000
259.737;  -63.075; -590.000; -474.000
259.879;   25.600;  217.000;  311.000
260.020;   82.700;  901.000;  636.000
260.162;   -6.925; -146.000; -253.000
260.303; -109.975; -768.000; -687.000
260.445;  -72.475; -609.000; -613.000
260.586;   24.600;  392.000;  157.000
260.728;  -47.650; -360.000; -248.000
260.869; -102.675; -350.000; -343.000
261.011;   67.325;  706.000;  537.000
261.152;  -63.500; -479.000; -319.000
261.293;  -80.850; -576.000; -595.000
261.435;  -23.850; -219.000; -184.000
261.576;  -59.150; -455.000; -325.000
261.718;   44.400;  420.000;  470.000
261.859; -134.075; -940.000; -949.000
262.000; -138.625; -951.000;-1016.000
262.142;  -14.225;  -52.000;  -60.000
262.283; -106.675; -808.000; -691.000
262.424;  -84.150; -666.000; -625.000
262.566; -143.700;-1161.000; -983.000
262.707; -105.725; -840.000; -830.000
262.848; -130.925; -769.000; -726.000
262.990;  -55.350; -362.000; -345.000
263.131;   80.575;  650.000;  681.000
263.272;   -3.650;  -61.000;  -41.000
263.413;  -96.775; -589.000; -561.000
263.555;  -58.575; -669.000; -143.000
263.696;  -99.225; -550.000; -641.000
263.837;  -52.575; -449.000; -551.000
263.978;  -10.500;   -5.000;  -77.000
264.119;  -43.325; -283.000; -264.000
264.261; -113.750; -847.000; -630.000
264.402;    7.475;   33.000;   40.000
264.543;  -77.175; -509.000; -524.000
264.684;   -5.700;   61.000;  -50.000
264.825;  -61.700; -816.000; -538.000
264.966;   14.625;  -84.000;  -67.000
265.107; -102.525; -646.000; -670.000
265.248; -119.025; -825.000; -812.000
265.390;  -15.650;  152.000;   -9.000
265.531;  -37.225; -238.000; -107.000
265.672;  -83.875; -557.000; -630.000
265.813;   59.850;  563.000;  439.000
265.954; -149.725; -959.000; -940.000
266.095;  -19.050; -372.000; -322.000
266.236;  -95.350; -686.000; -548.000
266.377;  -32.625; -243.000; -297.000
266.518;  -81.375; -619.000; -547.000
266.659;   34.750;  170.000;  268.000
266.800;    0.275;   83.000;   85.000
266.941;  -75.750; -487.000; -478.000
267.082;   16.225;  354.000;   99.000
267.223;  -48.350; -344.000; -273.000
267.364; -126.525; -892.000; -686.000
267.504;   -6.625;    3.000;  135.000
267.645;   -7.900;  160.000;   67.000
267.786;  -45.800; -147.000;  -86.000
267.927;  -64.075; -473.000; -379.000
268.068;  -14.750; -186.000;  -61.000
268.209;  -44.775; -175.000; -413.000
268.350;  -52.075; -388.000; -532.000
268.490;  -85.625; -648.000; -521.000
268.631;   15.700;  127.000;  225.000
268.772; -108.150; -874.000; -647.000
268.913;  -54.750; -328.000; -476.000
269.054;  -22.300; -117.000;   12.000
269.194;  -46.675; -418.000; -402.000
269.335; -160.300;-1137.000;-1074.000
269.476;  -35.000;   33.000;  -35.000
269.617;  -58.675; -347.000; -392.000
269.757;  -73.500; -713.000; -646.000
269.898; -113.750; -856.000; -613.000
270.039;  -66.025; -415.000; -405.000
270.180; -133.275; -952.000; -816.000
270.320;  -11.975; -190.000; -250.000
270.461;  -43.375; -277.000; -249.000
270.602;   -6.650; -186.000; -156.000
270.742; -125.400; -868.000; -943.000
270.883;  -62.175; -442.000; -390.000
271.023;  -55.450; -358.000; -357.000
271.164;  -83.550; -607.000; -528.000
271.305;  -97.525; -666.000; -654.000
271.445;  -81.900; -722.000; -683.000
271.586;  -69.225; -462.000; -283.000
271.726;  -35.325; -397.000; -322.000
271.867;  -60.375; -594.000; -534.000
272.008;  164.975; -473.000; -285.000
272.148;  125.850;  462.000;  468.000
272.289;    7.525; -113.000; -181.000
272.429;    2.150;   19.000;  185.000
272.570;  -94.900; -633.000; -737.000
272.710; -107.250; -825.000; -775.000
272.851;  -15.350;  113.000; -130.000
272.991; -166.400;-1173.000;-1077.000
273.131;  -72.000; -419.000; -459.000
273.272; -107.775; -683.000; -723.000
273.412;   16.175; -143.000;  -31.000
273.553;  -53.050; -488.000; -507.000
273.693;  131.725;  913.000;  858.000
273.834;  -95.075; -894.000; -692.000
273.974;  -59.800; -664.000; -615.000
274.114; -117.500; -772.000; -560.000
274.255;   80.150;  414.000;  373.000
274.395;   -9.650; -180.000; -125.000
274.535;   49.450;  199.000;  350.000
274.676;   21.275;  225.000;   94.000
274.816;    0.100;  110.000;   34.000
274.956;  -91.975; -624.000; -690.000
275.097;  -60.550;-1014.000; -922.000
275.237; -117.725; -913.000; -803.000
275.377; -103.500; -778.000; -689.000
275.517; -144.625; -878.000; -937.000
275.658;  -62.600; -590.000; -555.000
275.798;  -74.725; -606.000; -413.000
275.938;   19.150;  215.000;  323.000
276.078;  -97.800; -626.000; -395.000
276.218;   16.900;   99.000;  104.000
276.359; -133.525;-1026.000;-1024.000
276.499;  -71.475; -605.000; -446.000
276.639;  -35.850; -305.000; -151.000
276.779;  -37.050; -475.000; -357.000
276.919; -107.250; -783.000; -624.000
277.059;  -38.250; -261.000; -212.000
277.199;  -39.225; -357.000; -259.000
277.340;   47.175;  287.000;  175.000
277.480; -117.850; -840.000; -693.000
277.620;   10.500;  192.000;   16.000
277.760; -198.375;-1533.000;-1294.000
277.900;   23.150;  113.000;   33.000
278.040;   11.475;  137.000;  159.000
278.180;   32.425;  270.000;  170.000
278.320;   -2.275;   21.000;   56.000
278.460;  -68.225; -443.000; -469.000
278.600;  -87.375; -708.000; -598.000
278.740;   62.375;  448.000;  224.000
278.880;  -65.975; -768.000; -791.000
279.020;   -2.225; -194.000; -144.000
279.160;  -90.600; -672.000; -595.000
279.300; -120.725; -926.000; -873.000
279.440;  -86.825; -709.000; -622.000
279.579;  -22.875;-1014.000; -929.000
279.719;  -49.200; -410.000; -394.000
279.859;   71.725;   -4.000;   41.000
279.999;   27.125; -208.000;  101.000
280.139;  -17.500; -435.000; -387.000
280.279;  -76.125; -708.000; -745.000
280.419;  -33.775; -229.000; -147.000
280.559;  -34.600; -259.000; -180.000
280.698;  -75.475; -790.000; -639.000
280.838; -101.800; -778.000; -800.000
280.978;  -93.550; -846.000; -790.000
281.118; -106.475; -811.000; -704.000
281.257;    4.500;   24.000;    6.000
281.397; -122.375;-1094.000; -960.000
281.537;  -90.100; -599.000; -712.000
281.677;  -17.350; -150.000; -101.000
281.816;  -78.300; -700.000; -630.000
281.956;  -43.750; -193.000; -257.000
282.096;  -62.450; -539.000; -396.000
282.235; -106.925; -672.000; -638.000
282.375;  -16.800; -243.000;  -98.000
282.515; -106.350; -715.000; -707.000
282.654;   28.775;   29.000;  106.000
282.794;   26.125;  388.000;  244.000
282.934;  -48.900; -530.000; -491.000
283.073; -137.800;-1030.000; -857.000
283.213;  -52.350; -460.000; -467.000
283.353;  -26.300; -408.000; -349.000
283.492;  -25.100; -264.000; -296.000
283.632;  -53.050; -254.000; -168.000
283.771; -101.900; -859.000; -730.000
283.911;  -70.325; -369.000; -260.000
284.050;  -97.850; -794.000; -748.000
284.190; -168.800;-1229.000;-1096.000
284.329; -136.850;-1055.000; -964.000
284.469;  -64.925; -516.000; -591.000
284.608;  -52.525; -559.000; -598.000
284.748;  -93.350; -614.000; -570.000
284.887;   -1.425;  -87.000;  -20.000
285.027; -118.100; -844.000; -892.000
285.166;  -31.050; -192.000; -249.000
285.306;   13.425; -116.000;  -33.000
285.445;  -35.500; -229.000; -343.000
285.584;  -84.800; -630.000; -494.000
285.724;  -37.400; -282.000; -322.000
285.863; -123.875; -857.000; -507.000
286.002;  -55.300; -366.000; -276.000
286.142; -119.725; -715.000; -622.000
286.281;  -73.075; -525.000; -493.000
286.420;  -83.700; -554.000; -417.000
286.560;   95.900;  653.000;  623.000
286.699; -144.050; -958.000; -912.000
286.838;  -83.050; -590.000; -591.000
286.978;  -95.125; -533.000; -537.000
287.117; -129.350;-1085.000; -950.000
287.256;  -21.600; -228.000; -211.000
287.395;  -50.475; -197.000; -378.000
287.535;  -45.825; -370.000; -298.000
287.674;  -72.325; -509.000; -484.000
287.813;   57.150;  661.000;  533.000
287.952; -129.500;-1010.000; -871.000
288.091; -146.825;-1049.000; -915.000
288.231;   10.600;   13.000;   15.000
288.370; -177.700;-1217.000;-1200.000
288.509;  -76.050; -728.000; -645.000
288.648;  -93.650; -770.000; -548.000
288.787;  -37.875; -243.000;  -87.000
288.926;  -67.975; -454.000; -475.000
289.065;  119.800;  859.000;  672.000
289.204;  -58.825; -377.000; -217.000
289.344;  -84.700; -791.000; -690.000
289.483;   28.600;  416.000;  304.000
289.622;  -23.375; -291.000; -149.000
289.761;  -19.875; -309.000; -166.000
289.900; -100.700; -785.000; -626.000
290.039;  -10.975;  -12.000;  -95.000
290.178;  -35.100; -274.000; -180.000
290.317;  -92.650; -618.000; -479.000
290.456;  -59.850; -463.000; -451.000
290.595; -147.325; -961.000; -833.000
290.734; -140.675; -904.000; -891.000
290.873;  -71.325; -456.000; -420.000
291.011; -106.125; -833.000; -843.000
291.150; -104.400; -770.000; -682.000
291.289;  -31.800; -343.000; -110.000
291.428;  -94.550; -599.000; -480.000
291.567;  -47.175; -370.000; -442.000
291.706;   -4.200;  109.000;  154.000
291.845;  -82.375; -597.000; -505.000
291.984; -173.475;-1234.000;-1061.000
292.122;   73.350;  602.000;  582.000
292.261;   38.600;  620.000;  463.000
292.400;    1.175; -144.000;  211.000
292.539; -127.100; -959.000; -813.000
292.678;  -20.500; -325.000; -300.000
292.816; -168.925;-1136.000; -965.000
292.955;  -78.000; -844.000; -684.000
293.094;  -18.200; -173.000; -337.000
293.233;  -47.125; -556.000; -400.000
293.371;  -32.750; -225.000;  -84.000
293.510; -113.925; -866.000; -780.000
293.649; -122.675; -959.000; -924.000
293.787;  -70.675;-1083.000;-1012.000
293.926;   -6.075; -113.000;  -32.000
294.065;  -39.400; -379.000; -290.000
294.203;   45.575;  298.000;  406.000
294.342;   19.125;   74.000;  156.000
294.481; 5469.175;51180.000; -836.000
294.619;  -48.025; -425.000; -582.000
294.758; -149.750;-1230.000;-1137.000
294.896;   48.075; -125.000;    5.000
295.035; -138.950;-1040.000;-1006.000
295.174; -120.300;-1082.000; -954.000
295.312;  -26.375; -323.000; -203.000
295.451;  -18.650; -307.000; -428.000
295.589;  -58.100; -389.000; -518.000
295.728;   21.950; -292.000; -165.000
295.866;   -8.300;  -36.000;  -51.000
296.005;  -84.500; -584.000; -341.000
296.143;  -68.550; -558.000; -596.000
296.282; -102.900; -957.000; -881.000
296.420;  -89.250; -657.000; -557.000
296.559;  -94.925; -892.000; -633.000
296.697;   -2.850; -847.000; -665.000
296.835;   22.775;-1141.000;-1002.000
296.974;   40.800;  -23.000;   39.000
297.112;    5.125; -443.000; -504.000
297.251;  -83.050; -815.000; -755.000
297.389;   62.700; -576.000; -438.000
297.527;   21.275; -145.000;  -83.000
297.666;  -55.700; -486.000; -438.000
297.804;  -59.425; -404.000; -264.000
297.942;    0.500; -136.000; -161.000
298.081;  -23.475; -183.000;   63.000
298.219;   50.100;  -17.000;  -19.000
298.357;   34.000; -144.000;  -71.000
298.495;   24.600; -810.000; -812.000
298.634;   71.050;  245.000;  219.000
298.772;   37.925; -220.000; -338.000
298.910;  -39.500; -309.000; -182.000
299.048;   -8.800; -130.000; -153.000
299.187;  -37.150; -350.000; -250.000
299.325;   13.200;   52.000;  122.000
299.463;   35.350; -389.000; -299.000
299.601;   84.275; -327.000; -271.000
299.739; -116.650; -908.000; -883.000
299.877;  -74.125; -791.000; -703.000
300.016;  -43.775;-1095.000; -935.000
300.154;  149.675;  -19.000; -161.000
300.292;   27.925; -428.000; -348.000
300.430;   26.500; -408.000; -291.000
300.568; -101.700; -940.000; -874.000
300.706;  -57.850; -366.000; -469.000
300.844;  -80.825;-1108.000; -979.000
300.982;  114.425;  246.000;  282.000
301.120; -119.775; -965.000; -866.000
301.258;  -71.375; -812.000; -705.000
301.396;   18.500;  104.000;  -41.000
301.534;   56.725; -218.000; -293.000
301.672;  -29.350; -664.000; -521.000
301.810;   13.425; -613.000; -545.000
301.948;  109.500;   53.000;  149.000
302.086;  567.650; -250.000;  -32.000
302.224;  825.975; -610.000; -585.000
302.362;   16.700; -558.000; -622.000
302.500;  -37.400; -923.000; -893.000
302.638;   98.575;  128.000;  245.000
302.776;   -8.750; -352.000; -408.000
302.913;   52.125;  447.000;  236.000
303.051;    3.750;  -86.000;  -23.000
303.189;   40.075;   90.000;  118.000
303.327;  -39.650; -341.000; -256.000
303.465;  -89.025; -832.000; -588.000
303.603; -101.775; -805.000; -604.000
303.740;   96.575;  417.000;  241.000
303.878;    2.275; -800.000; -759.000
304.016; -102.375; -915.000; -790.000
304.154; -134.775;-1123.000;-1152.000
304.291;  -39.800; -505.000; -554.000
304.429;   -0.475;  102.000;   74.000
304.567; -122.350; -908.000; -893.000
304.705;  -49.225; -408.000; -515.000
304.842;   79.675; -616.000; -540.000
304.980;   51.875;  215.000;   35.000
305.118;   21.950; -367.000; -365.000
305.255;  -83.350; -945.000; -927.000
305.393;   44.650;  178.000;  239.000
305.531; -109.950;-1173.000; -956.000
305.668;  -74.450; -663.000; -582.000
305.806;   94.850; -358.000; -439.000
305.943;   80.375; -629.000; -637.000
306.081;   39.625; -378.000; -267.000
306.219; -103.775; -863.000; -748.000
306.356;   11.425;  158.000;   27.000
306.494;   99.675;  981.000;  761.000
306.631;  -14.800;  -11.000;  -55.000
306.769;  -14.375; -613.000; -485.000
306.906;  -13.550; -284.000; -258.000
307.044;  -71.350; -473.000; -488.000
307.181;  -71.450; -410.000; -332.000
307.319;    2.675;  112.000;   87.000
307.456; -173.300;-1191.000;-1153.000
307.594;  -99.625; -980.000; -727.000
307.731;  -14.525; -371.000; -164.000
307.868;    2.600;  -15.000;   20.000
308.006; -145.875; -961.000; -847.000
308.143;  -71.825; -618.000; -330.000
308.281;  136.475;  -37.000; -254.000
308.418;  -25.575; -748.000; -640.000
308.555;  -73.450; -400.000; -250.000
308.693;  -68.150; -577.000; -573.000
308.830; -102.700; -712.000; -657.000
308.967;  -12.575; -215.000;  -95.000
309.105;  -51.275; -507.000; -396.000
309.242;   30.475; -468.000; -367.000
309.379;  273.850; -577.000; -655.000
309.517;  -64.450; -936.000; -948.000
309.654; -114.875; -910.000; -734.000
309.791;  -68.200; -662.000; -580.000
309.928; -114.025; -977.000; -914.000
310.065;  160.700;  819.000;  697.000
310.203;  -21.225; -825.000; -850.000
310.340;  -12.775; -465.000; -321.000
310.477;  -90.600; -412.000; -516.000
310.614;  -58.875; -383.000; -473.000
310.751;  -82.750; -427.000; -518.000
310.889;  -32.200;    1.000;   11.000
311.026; -141.800;-1161.000; -939.000
311.163;  -42.100; -386.000; -380.000
311.300;  -82.725; -512.000; -479.000
311.437;  -74.450; -658.000; -619.000
311.574; -160.025;-1226.000; -985.000
311.711;  -63.625; -595.000; -433.000
311.848;  -49.875; -380.000; -388.000
311.985;    9.025;  270.000;   93.000
312.122; -110.775; -932.000; -762.000
312.259; -115.725; -941.000; -994.000
312.396;  -83.575; -508.000; -551.000
312.533;  -96.725; -812.000; -790.000
312.670; -135.500;-1070.000; -898.000
312.807;  -37.750; -352.000; -367.000
312.944;  -84.025; -513.000; -611.000
313.081;  -29.025; -150.000; -415.000
313.218; -110.725;-1111.000; -867.000
313.355;   -1.200; -531.000; -449.000
313.492;    6.950; -455.000; -292.000
313.629;  127.300;  815.000;  735.000
313.766; -162.025;-1176.000;-1008.000
313.902;  -14.250; -186.000;   21.000
314.039;  -54.875; -372.000; -289.000
314.176;   22.050;  286.000;  192.000
314.313;  -81.525; -569.000; -473.000
314.450;  -85.650; -788.000; -684.000
314.587;  -47.225; -468.000; -480.000
314.723;  -15.150;  -78.000;  130.000
314.860;   27.175;  318.000;  332.000
314.997;   29.700;  223.000;  142.000
315.134;  -44.150; -385.000; -368.000
315.270;  -34.050; -480.000; -496.000
315.407; -126.250;-1094.000; -967.000
315.544;  -60.100; -657.000; -538.000
315.681;  -67.175; -681.000; -565.000
315.817;   24.075; -133.000; -176.000
315.954;   -5.200; -613.000; -392.000
316.091; -130.075;-1045.000;-1023.000
316.227;  -25.725;  -71.000; -179.000
316.364;    4.575;   23.000;    6.000
316.500;  -51.775; -113.000; -300.000
316.637;  -26.725; -181.000; -302.000
316.774;  -92.525; -625.000; -358.000
316.910;  -89.950; -598.000; -629.000
317.047;  -71.825; -487.000; -351.000
317.183;  -44.075; -435.000; -566.000
317.320;   -4.225; -367.000; -321.000
317.456;  -64.075; -733.000; -805.000
317.593;  -93.075; -598.000; -641.000
317.729;   14.675;  168.000;  -67.000
317.866; -194.075;-1434.000;-1285.000
318.002;  -89.375; -708.000; -948.000
318.139; -100.250; -883.000; -867.000
318.275; -103.675;-1003.000; -738.000
318.412;  -65.400; -517.000; -336.000
318.548;  -44.200; -751.000; -720.000
318.685; -100.125; -985.000; -888.000
318.821;  -92.025; -762.000; -735.000
318.957;  -18.750;   34.000;  -23.000
319.094;   35.500;  297.000;  154.000
319.230;  -67.950; -756.000; -742.000
319.367;  114.175; -471.000; -520.000
319.503;   35.400; -538.000; -436.000
319.639;  -85.450; -877.000; -793.000
319.775;  -72.650; -750.000; -685.000
319.912;  -54.825; -424.000; -519.000
320.048;  -87.400;-1184.000;-1184.000
320.184;   86.400;   59.000;   70.000
320.321;  -61.675; -497.000; -467.000
320.457;   58.600;  475.000;  662.000
320.593;  -67.450; -375.000; -382.000
320.729; -108.900; -732.000; -734.000
320.866;  -74.350; -577.000; -635.000
321.002;  -70.250; -759.000; -809.000
321.138;  -18.575; -135.000; -211.000
321.274;   60.850; -148.000; -115.000
321.410;  -33.675; -585.000; -353.000
321.546;  -32.850;-1011.000; -911.000
321.683;   40.250;  400.000;  185.000
321.819;   -1.425;  -48.000; -117.000
321.955; -102.400; -743.000; -722.000
322.091;  -52.925; -585.000; -540.000
322.227;  -10.175; -382.000; -202.000
322.363;  -11.575; -320.000; -215.000
322.499;  -50.800; -343.000; -331.000
322.635;  144.700;  636.000;  443.000
322.771;   12.975; -139.000;   12.000
322.907;   88.325;  129.000;  327.000
323.043;  -22.150; -115.000; -206.000
323.179;  -45.500; -394.000; -363.000
323.315;    0.950; -401.000; -371.000
323.451;   71.550; -328.000; -236.000
323.587;   44.800;  -60.000;  -77.000
323.723;    9.425; -682.000; -601.000
323.859;  -21.150; -258.000;  -76.000
323.995;  -43.600; -467.000; -409.000
324.131; -118.725; -967.000; -892.000
324.267;  -40.050; -254.000; -276.000
324.402; -141.575; -960.000; -983.000
324.538;   -9.975; -279.000; -104.000
324.674;   20.100;  164.000;   77.000
324.810;  106.400;  226.000;  308.000
324.946;  -10.750; -810.000; -658.000
325.082;  -85.575; -568.000; -475.000
325.217;   -6.800;  -62.000;   16.000
325.353; -106.325; -764.000; -659.000
325.489;  -85.525; -540.000; -506.000
325.625;  -75.675; -579.000; -525.000
325.760;   50.400;  517.000;  376.000
325.896;  -22.375; -515.000; -702.000
326.032;  -48.700; -403.000; -352.000
326.168;  -65.925; -462.000; -369.000
326.303;  -63.675; -352.000; -461.000
326.439;  -28.300; -336.000; -276.000
326.575;   -9.100; -190.000;  -29.000
326.710;   -2.975; -156.000;  -30.000
326.846;  -17.350;  146.000;  103.000
326.982;  -86.250; -530.000; -548.000
327.117;  -68.050; -481.000; -442.000
327.253;  -90.550; -745.000; -742.000
327.388; -159.425;-1137.000;-1153.000
327.524;  -58.100; -811.000; -578.000
327.659;  -35.450;  -58.000;  -22.000
327.795;  -17.275;   69.000;   45.000
327.931;  -86.475; -723.000; -499.000
328.066;  -30.475; -417.000; -276.000
328.202;  -12.850;   12.000; -129.000
328.337;  101.125;  957.000;  713.000
328.473;   38.650;  -12.000;  -74.000
328.608;  -31.175; -256.000; -267.000
328.743;  -92.025; -799.000; -664.000
328.879;   15.800;  214.000;  114.000
329.014;  -29.925; -102.000; -122.000
329.150;  -83.075; -358.000; -483.000
329.285;  -79.850; -465.000; -466.000
329.421;  -55.300; -548.000; -246.000
329.556;  -43.575;  -36.000;   85.000
329.691;  -94.800; -633.000; -615.000
329.827;  -87.150; -626.000; -480.000
329.962;  -41.450;  131.000; -301.000
330.097;  -95.775; -673.000; -585.000
330.233;  -58.150; -410.000; -223.000
330.368; -134.725; -839.000; -628.000
330.503;  -21.850;    3.000;   98.000
330.638;    4.600;  -93.000; -125.000
330.774;  -70.150; -609.000; -530.000
330.909;  -35.675; -434.000; -244.000
331.044;  -95.225; -714.000; -708.000
331.179; -171.275;-1217.000;-1109.000
331.315;   -0.150;   77.000;   20.000
331.450;    6.875;  157.000;  285.000
331.585;  -79.325; -805.000; -706.000
331.720; -101.700; -510.000; -460.000
331.855;    5.250;  -35.000; -102.000
331.990;  256.600;   62.000;  138.000
332.126;  126.900; -110.000;   71.000
332.261;  -16.800; -379.000; -265.000
332.396;   -2.725; -135.000; -242.000
332.531; -107.700;-1074.000;-1031.000
332.666;   32.950; -519.000; -363.000
332.801;  -99.100; -726.000; -807.000
332.936;  -20.525; -192.000; -122.000
333.071; -153.425; -870.000; -817.000
333.206;   13.350;  307.000;  379.000
333.341;   23.325;  344.000;  418.000
333.476;  -89.925; -627.000; -623.000
333.611;  -55.800; -251.000; -173.000
333.746;  -55.875; -381.000; -464.000
333.881; -115.775; -973.000; -935.000
334.016; -132.075; -936.000; -917.000
334.151; -128.525; -746.000; -702.000
334.286;   16.575;  152.000;  186.000
334.421;  -13.200; -125.000; -178.000
334.556;  -81.050; -611.000; -567.000
334.690;  -98.350; -631.000; -577.000
334.825;   53.825;  381.000;   83.000
334.960;  -62.075; -285.000; -413.000
335.095;    2.900;  135.000;  -91.000
335.230; -109.250; -722.000; -738.000
335.365; -130.925;-1084.000; -990.000
335.499; -133.250;-1108.000;-1037.000
335.634;   16.750;    9.000;  534.000
335.769; -108.775; -755.000; -720.000
335.904;  -68.525; -603.000; -561.000
336.038;  -56.325; -735.000; -657.000
336.173; -129.200;-1206.000;-1194.000
336.308;  -10.200; -116.000; -189.000
336.443;   11.400; -544.000; -634.000
336.577;  -86.500; -936.000; -787.000
336.712;   53.050;   -4.000;  -12.000
336.847;  -58.000; -724.000; -607.000
336.981;   31.525; -272.000; -208.000
337.116;  249.050;  615.000;  501.000
337.250;  123.050; -434.000; -421.000
337.385;  278.075; -297.000; -208.000
337.520;  103.625; -632.000; -603.000
337.654;  -32.125; -215.000; -126.000
337.789; -122.875; -989.000; -933.000
337.923;  -50.325; -104.000; -205.000
338.058;  -87.700; -673.000; -738.000
338.192;  -52.375; -611.000; -488.000
338.327;  -27.450;  -18.000; -155.000
338.461;  -68.100; -299.000; -469.000
338.596;  -85.650; -780.000; -638.000
338.730;  -99.150; -767.000; -803.000
338.865;   94.625;  -46.000; -140.000
338.999;  -50.225; -846.000; -702.000
339.134;  -19.175; -634.000; -536.000
339.268;   19.425; -741.000; -603.000
339.403;  371.175; -740.000; -775.000
339.537;  139.750; -894.000; -820.000
339.671; -113.650; -829.000; -813.000
339.806;  -69.750; -556.000; -512.000
339.940;    7.225; -261.000; -235.000
340.074; -100.050; -685.000; -510.000
340.209;  -59.150; -351.000; -230.000
340.343;  -98.250; -517.000; -573.000
340.477;  150.925;  998.000; 1036.000
340.612;  -40.475;-1033.000; -900.000
340.746;  148.300; -199.000; -243.000
340.880;  -80.850; -924.000; -785.000
341.014;  -22.125;  -45.000; -154.000
341.149; -111.000; -756.000; -718.000
341.283; -114.125; -839.000; -754.000
341.417; -106.450;-1124.000; -938.000
341.551;   95.075; -768.000; -708.000
341.685;  -36.150; -633.000; -611.000
341.820;  -45.775; -562.000; -493.000
341.954;  -71.725; -218.000; -349.000
342.088; -156.625;-1102.000;-1019.000
342.222;   46.850;  565.000;  618.000
342.356;  -56.000; -395.000; -335.000
342.490;  -92.975; -880.000; -841.000
342.624;  -43.925; -339.000; -242.000
342.758;   -7.475; -364.000; -312.000
342.892;  -64.525; -710.000; -585.000
343.026;  -53.050;  -58.000; -116.000
343.160;  -55.850; -426.000; -376.000
343.294;  -85.625; -474.000; -337.000
343.428;  -23.975; -488.000; -448.000
343.562;  -13.525; -172.000;  -23.000
343.696;  -35.900; -385.000; -314.000
343.830;  -35.475; -362.000; -356.000
343.964;    8.250; -231.000; -168.000
344.098;  803.000;  199.000;   70.000
344.232;  666.325; -266.000; -127.000
344.366;   86.125; -567.000; -453.000
344.500;   34.575; -665.000; -744.000
344.634;   15.525; -324.000; -164.000
344.768;  -28.175; -531.000; -341.000
344.902;   13.050;  278.000;  256.000
345.035;  -70.225; -556.000; -496.000
345.169; -131.575; -933.000; -656.000
345.303;  -42.425; -308.000; -482.000
345.437;  -76.850; -826.000; -717.000
345.571;  -71.575; -675.000; -594.000
345.704;  -65.825; -309.000; -532.000
345.838;  -27.550; -331.000; -284.000
345.972;  -41.475; -543.000; -495.000
346.106;  159.775; -179.000; -190.000
346.239;  405.150; -312.000; -243.000
346.373;   -4.275; -343.000; -302.000
346.507; -146.975; -950.000; -962.000
346.640;  123.575;  -30.000;   13.000
346.774;  -55.150; -650.000; -797.000
346.908;  -10.275; -138.000;  -11.000
347.041; -109.000; -646.000; -593.000
347.175;    6.150;  259.000;   27.000
347.309;  -83.375; -698.000; -628.000
347.442;  -96.725; -883.000; -732.000
347.576;  253.650;  670.000;  668.000
347.709;  165.750; -123.000;  -52.000
347.843; -101.325; -933.000; -825.000
347.976;   27.300;  235.000;  294.000
348.110; -173.400;-1268.000;-1186.000
348.243;  -99.825; -679.000; -772.000
348.377;   10.375;  -26.000;   60.000
348.510;   56.850;  403.000;  540.000
348.644;  -45.350;  -37.000; -159.000
348.777;   -9.600;  180.000;  191.000
348.911;  -53.650; -142.000; -112.000
349.044;  158.900;  471.000;  448.000
349.178;  130.350;-1069.000;-1006.000
349.311;  108.500;  141.000;  255.000
349.444;   -3.650; -927.000; -813.000
349.578;  -15.375; -347.000; -200.000
349.711; -112.975; -959.000; -862.000
349.845;  -15.700; -661.000; -591.000
349.978; -143.275;-1224.000;-1137.000
350.111;  -85.200; -546.000; -612.000
350.244;  -80.050; -596.000; -700.000
350.378;  -19.125; -392.000; -393.000
350.511;  -83.200; -393.000; -426.000
350.644; -108.275; -808.000; -806.000
350.778;    7.450;  168.000;  104.000
350.911;    5.250;  134.000;  140.000
351.044;  -99.700; -685.000; -615.000
351.177;  -40.250; -321.000; -281.000
351.310;  -24.675;    3.000; -131.000
351.444;  -76.950; -888.000; -788.000
351.577;   88.625;  140.000;   90.000
351.710;   96.025;  593.000;  417.000
351.843;  -42.400; -165.000;  -77.000
351.976;   -5.450;  149.000;  -79.000
352.109;  -97.750; -621.000; -612.000
352.242;  -24.200; -464.000; -419.000
352.376;  -73.700; -580.000; -636.000
352.509;  135.775; -437.000; -356.000
352.642;   -9.775; -654.000; -604.000
352.775;   39.900; -141.000;  -98.000
352.908; -114.550; -933.000; -904.000
353.041; -115.275; -814.000; -824.000
353.174;  -62.400; -551.000; -424.000
353.307;  -87.650; -753.000; -764.000
353.440;   61.850;  541.000;  453.000
353.573; -106.975; -957.000;-1008.000
353.706;  -70.375; -384.000; -558.000
353.839;  -29.350; -264.000; -220.000
353.971;  -93.425; -657.000; -512.000
354.104;  -84.800; -896.000; -835.000
354.237;  -46.675; -627.000; -662.000
354.370;  -97.900; -846.000; -879.000
354.503; -174.125;-1231.000;-1308.000
354.636;  -44.100; -529.000; -348.000
354.769; -133.650; -937.000; -860.000
354.902;  -12.875; -230.000; -139.000
355.034;  -21.125; -164.000; -220.000
355.167;  -13.500; -262.000; -162.000
355.300;  -82.550;-1061.000; -880.000
355.433;  991.325;  -71.000;  -14.000
355.565; 1539.375; -402.000; -384.000
355.698;  394.450; -356.000; -296.000
355.831;  -20.325; -882.000; -801.000
355.964;   59.100; -285.000; -170.000
356.096;  -88.600; -856.000; -843.000
356.229;   -8.700; -523.000; -530.000
356.362;  337.975; -373.000; -266.000
356.494;  611.025; -229.000; -162.000
356.627;  444.975;  269.000;  377.000
356.760;  661.350;  120.000;   53.000
356.892;  980.400; -286.000; -601.000
357.025;  600.325;  403.000;  389.000
357.157;  532.575; -167.000; -179.000
357.290;  735.575; -856.000; -713.000
357.423;  198.625; -667.000; -556.000
357.555;   99.975; -217.000; -228.000
357.688;  128.600; -483.000; -364.000
357.820;  436.050; -870.000; -877.000
357.953; 3421.775; -563.000; -589.000
358.085;  748.400; -632.000; -612.000
358.218;  937.225;-1131.000; -932.000
358.350;  168.100;  -58.000;  312.000
358.483; -130.675;-1300.000;-1187.000
358.615;  -43.800;-1182.000;-1078.000
358.747;  -79.250;-1187.000;-1058.000
358.880;   22.175; -810.000; -744.000
359.012;  -14.600; -376.000; -202.000
359.145;  -52.175; -480.000; -511.000
359.277;   40.525; -962.000; -913.000
359.409; 2848.875;  536.000;  231.000
359.542;  754.625; -738.000; -688.000
359.674;   74.275;   46.000;   13.000
359.806;  -61.525; -565.000; -438.000
359.939;  -26.150; -617.000; -516.000
360.071;  -23.875; -583.000; -579.000
360.203;  -34.475; -411.000; -364.000
360.335;   51.250;  164.000;  -16.000
360.468;  183.050; -249.000; -307.000
360.600; 2324.275; -547.000; -454.000
360.732; 2979.225; -546.000; -423.000
360.864;  410.250;-1216.000;-1044.000
360.996;  220.800; -516.000; -554.000
361.129;   25.075; -389.000; -598.000
361.261;   27.925;  110.000; -113.000
361.393;  -45.125; -252.000; -214.000
361.525;   23.175;   94.000;  244.000
361.657;  -55.600; -821.000; -703.000
361.789;   14.400; -139.000; -155.000
361.921;  164.950; -642.000; -593.000
362.053;  232.075;  524.000;  541.000
362.185;   43.750;  288.000;   72.000
362.318;  -85.975; -709.000; -705.000
362.450;   86.350;  294.000;  444.000
362.582;   39.500; -913.000; -870.000
362.714;  -54.000; -353.000; -332.000
362.846;  -80.675; -606.000; -490.000
362.978; -148.550; -941.000; -811.000
363.109;   36.850; -161.000; -260.000
363.241;  360.200; -739.000; -749.000
363.373;  438.425; -649.000; -564.000
363.505;  703.700; -186.000;  -91.000
363.637;  147.475; -787.000; -601.000
363.769; -127.150;-1067.000;-1080.000
363.901;  -68.625; -596.000; -654.000
364.033; -131.900;-1103.000;-1062.000
364.165;  -12.325; -283.000; -283.000
364.296;   63.925; -316.000; -177.000
364.428;   77.950;-1344.000;-1220.000
364.560;  -74.525; -679.000; -661.000
364.692;  -75.075; -738.000; -835.000
364.824;  196.525; -588.000; -456.000
364.955;  421.675; -402.000; -564.000
365.087;  994.400;-1097.000; -852.000
365.219;   38.675; -686.000; -816.000
365.351;  -67.575; -526.000; -572.000
365.482;   55.700;  300.000;  240.000
365.614;  -61.925; -402.000; -314.000
365.746; -106.125; -729.000; -752.000
365.877;  -96.500; -706.000; -672.000
366.009;  272.150;  -35.000;  -62.000
366.141;  -89.925;-1249.000;-1134.000
366.272; -103.075; -803.000; -719.000
366.404; -117.800;-1005.000; -874.000
366.535;  -17.175; -139.000;  -12.000
366.667; -108.525; -644.000; -649.000
366.799;   30.875;  353.000;  203.000
366.930; -137.025; -862.000; -996.000
367.062;  129.275; -639.000; -613.000
367.193;  157.450; -872.000; -842.000
367.325;  -62.950; -580.000; -684.000
367.456;   30.550; -246.000;   31.000
367.588;  160.450; -371.000; -318.000
367.719;   16.825;  -44.000;  -45.000
367.851;  -35.250; -222.000; -241.000
367.982;  -59.125; -875.000; -732.000
368.113;   60.950; -475.000; -358.000
368.245; -137.500; -960.000; -841.000
368.376;  -26.900; -254.000; -302.000
368.508;  -31.600; -188.000; -263.000
368.639; -137.250;-1166.000;-1034.000
368.770;  -32.200; -670.000; -589.000
368.902;  -71.425; -836.000; -926.000
369.033; -118.200; -906.000; -855.000
369.164;  -45.075; -720.000; -653.000
369.296; -108.250; -452.000; -601.000
369.427;  -26.350; -209.000; -144.000
369.558;  -59.500; -593.000; -377.000
369.689;  -80.575; -721.000; -569.000
369.821; -130.600; -951.000; -845.000
369.952;  -25.750;   42.000; -108.000
370.083;  -59.925; -229.000; -108.000
370.214;  -94.275; -735.000; -650.000
370.345;  -14.225;   65.000;   81.000
370.477;  -97.200; -810.000; -790.000
370.608;  171.675; -328.000; -264.000
370.739;  -62.650;-1233.000;-1292.000
370.870;  -53.375;-1102.000; -923.000
371.001;   63.925; -378.000; -467.000
371.132;  -82.150; -754.000; -735.000
371.263;  -12.225;  -42.000; -148.000
371.394; -141.900; -841.000; -748.000
371.525;   25.850;  345.000;  225.000
371.657; -100.200; -808.000; -670.000
371.788;   61.625;  103.000;  199.000
371.919;  135.400; -384.000; -304.000
372.050; 3290.525;  -91.000; -156.000
372.181;  992.125; -188.000; -294.000
372.311;  326.050;   42.000; -127.000
372.442;   29.575; -457.000; -451.000
372.573;  -24.075; -444.000; -340.000
372.704; -128.400;-1008.000; -980.000
372.835;   54.250; -228.000; -289.000
372.966;  -63.000; -646.000; -554.000
373.097;  -78.575; -575.000; -711.000
373.228;  -50.125; -717.000; -542.000
373.359;   91.525; -824.000; -536.000
373.490;  771.600; -881.000; -727.000
373.620; 1025.425;-1001.000; -803.000
373.751; 1582.425; -332.000; -396.000
373.882;  666.850; -663.000; -733.000
374.013;   54.400; -449.000; -262.000
374.143;  -37.750; -581.000; -659.000
374.274; -108.925; -987.000; -908.000
374.405;  145.550; -388.000; -276.000
374.536;  364.975; -526.000; -387.000
374.666;  963.225; -759.000; -807.000
374.797;  170.300; -817.000; -868.000
374.928;  724.975; -710.000; -560.000
375.058;  775.300; -535.000; -500.000
375.189;   70.600;  -59.000;  -93.000
375.320; -117.900; -928.000;-1034.000
375.450;  -41.000; -625.000; -616.000
375.581;  -47.250; -526.000; -436.000
375.712;  -34.175; -574.000; -250.000
375.842;  245.925; -438.000; -415.000
375.973;  166.225; -554.000; -513.000
376.103;  -69.925; -665.000; -648.000
376.234;  -89.525; -531.000; -552.000
376.364;  -64.925; -944.000; -867.000
376.495;  297.200;  925.000;  529.000
376.625;  -18.350; -472.000; -485.000
376.756;   33.450; -709.000; -678.000
376.886;  -91.725;-1178.000;-1026.000
377.017;   56.225;-1048.000;-1061.000
377.147;  385.175; -786.000; -782.000
377.278;   72.950;  174.000;  228.000
377.408; -131.875; -801.000; -815.000
377.538; -109.350; -707.000; -693.000
377.669;  -92.950; -537.000; -613.000
377.799;  -97.300; -645.000; -635.000
377.929;  -80.225; -610.000; -428.000
378.060; -127.600; -781.000; -847.000
378.190;  -68.225; -726.000; -531.000
378.320;  -58.900; -401.000; -406.000
378.451;  -20.200; -131.000;  -22.000
378.581;  -14.375;  -67.000; -110.000
378.711;  135.275; 1035.000;  866.000
378.841;  -32.425; -533.000; -675.000
378.972;  -86.800; -871.000; -751.000
379.102;  -24.200; -652.000; -579.000
379.232;  -33.800; -126.000;  -73.000
379.362; -100.325;-1001.000; -885.000
379.492;   -7.375; -373.000; -424.000
379.623;   87.375;    0.000;  111.000
379.753; -113.875;-1107.000; -974.000
379.883;  166.175;   59.000;  156.000
380.013;   -5.575;-1081.000;-1017.000
380.143; -116.825;-1097.000;-1056.000
380.273; -124.200; -985.000; -861.000
380.403;    1.625; -344.000; -257.000
380.533;  -53.800; -651.000; -664.000
380.663;   56.675;  173.000;  128.000
380.793; -112.575;-1027.000;-1074.000
380.923;  -37.650; -103.000;  -34.000
381.053;  -97.175; -613.000; -623.000
381.183;  -25.075; -106.000; -248.000
381.313;   11.350; -656.000; -470.000
381.443;   12.150; -692.000; -473.000
381.573;  139.975; -402.000; -409.000
381.703;  191.625;-1249.000;-1095.000
381.833; -151.225;-1454.000;-1336.000
381.963;   88.525; -134.000;  -87.000
382.093; 1253.775; -925.000; -909.000
382.223;  378.925; -713.000; -602.000
382.353;  -36.825; -801.000; -608.000
382.482;  303.425;-1091.000; -964.000
382.612;  670.150; -872.000; -644.000
382.742;  375.100; -695.000; -622.000
382.872;  206.100; -565.000; -551.000
383.002;   45.200;  347.000; -132.000
383.131;  -29.025; -226.000; -160.000
383.261;  -42.850; -706.000; -768.000
383.391;  279.925; -552.000; -377.000
383.521; 3352.875;  451.000;  263.000
383.650;  844.300; -947.000; -904.000
383.780;  -12.350; -783.000; -656.000
383.910;   98.450;  880.000;  802.000
384.039;   -4.100; -794.000; -656.000
384.169;  150.200;-1205.000;-1017.000
384.299;  -51.525; -650.000; -662.000
384.428;  -97.800; -764.000; -680.000
384.558;  -60.875; -308.000; -275.000
384.687;  -59.525; -414.000; -334.000
384.817;   -0.750;   75.000;   -2.000
384.947;   -8.300; -234.000; -141.000
385.076;  262.250;  982.000;  912.000
385.206;   79.200;  369.000;  480.000
385.335;  -52.050; -549.000; -417.000
385.465;  -90.775; -655.000; -663.000
385.594;   99.975;  -53.000;  -44.000
385.724;  335.525; -868.000; -838.000
385.853;  105.550; -296.000; -270.000
385.982; 1173.675; -743.000; -787.000
386.112; 1914.300;-1052.000; -871.000
386.241;  109.475; -307.000; -312.000
386.371;    3.200; -174.000;  -87.000
386.500;  -14.400; -825.000; -789.000
386.629;    8.825; -874.000; -817.000
386.759;   46.175;  -43.000;   68.000
386.888;   -9.400; -170.000; -250.000
387.017;  -98.800; -648.000; -620.000
387.147; -112.275; -771.000; -798.000
387.276;  -14.950; -410.000; -397.000
387.405;    2.725; -398.000; -342.000
387.535;  -60.750; -452.000; -361.000
387.664;  -58.900; -692.000; -620.000
387.793;   28.475; -198.000; -113.000
387.922;  444.125;  255.000;  200.000
388.052;   -9.450; -576.000; -423.000
388.181;  -18.450; -342.000; -472.000
388.310;  -37.875; -889.000; -710.000
388.439;  -56.425; -749.000; -742.000
388.568;  148.275;  365.000;  244.000
388.697;  915.175; -756.000; -653.000
388.826;  171.850; -768.000; -666.000
388.956;   41.775; -285.000; -307.000
389.085;  -52.225; -347.000; -287.000
389.214; -114.175; -842.000; -872.000
389.343;  -78.450; -645.000; -413.000
389.472;  399.650;  126.000;  149.000
389.601;  499.825;   91.000;    0.000
389.730;  -12.750; -568.000; -687.000
389.859;   49.475;  226.000;   46.000
389.988;  148.350; -423.000; -408.000
390.117;  123.450; -168.000; -146.000
390.246;  -19.575; -331.000; -320.000
390.375;   55.225; -673.000; -626.000
390.504;  -61.250; -703.000; -621.000
390.633; -110.350; -672.000; -726.000
390.761;  -80.675; -732.000; -645.000
390.890;    0.900;   -4.000; -130.000
391.019;  -40.125; -421.000; -441.000
391.148; -141.650; -826.000; -855.000
391.277;  -92.425; -576.000; -493.000
391.406;  -93.175; -821.000; -805.000
391.534;    6.600;  574.000; -301.000
391.663;  -76.525; -583.000; -645.000
391.792;  -99.050; -673.000; -701.000
391.921;   66.150;   -3.000;   15.000
392.050;  132.875; -287.000; -228.000
392.178;  -77.425;-1206.000;-1061.000
392.307;  118.325; -758.000; -712.000
392.436;   49.450; -427.000; -641.000
392.564;   17.450;  166.000;   -6.000
392.693; -114.525; -860.000; -682.000
392.822;  146.175; -529.000; -534.000
392.950;   51.200; -880.000; -714.000
393.079;  284.900; -188.000; -328.000
393.208;    0.225; -488.000; -511.000
393.336;  -15.900; -170.000; -145.000
393.465;  -46.975; -317.000; -199.000
393.593;   -2.450;   62.000;   79.000
393.722; -168.750;-1121.000; -916.000
393.850;  -35.425; -188.000;  -61.000
393.979; -155.625; -926.000; -805.000
394.107;  -68.725; -517.000; -537.000
394.236;  -37.350; -570.000; -507.000
394.364;  194.000;  383.000;  206.000
394.493;  293.300; -911.000; -767.000
394.621;  -14.175; -955.000; -916.000
394.750;  733.150; -873.000; -923.000
394.878; 3013.200; -247.000; -149.000
395.007; 4134.825; -721.000; -807.000
395.135;  306.075; -790.000; -721.000
395.263;  -88.625;-1038.000;-1040.000
395.392;   -5.175;  -25.000; -107.000
395.520; -145.150; -818.000; -679.000
395.648;  -89.825; -865.000; -915.000
395.777;  -25.500; -366.000; -405.000
395.905;  -47.675; -449.000; -564.000
396.033;   -1.250;  217.000;  172.000
396.162;  481.300; -399.000; -453.000
396.290;  455.675;  -17.000;   -2.000
396.418;   71.025; -555.000; -514.000
396.546;  -86.650; -571.000; -466.000
396.674; -106.600; -850.000; -878.000
396.803;   -7.775;  -72.000;  -23.000
396.931;   64.325; -179.000; -199.000
397.059;    6.475;-1026.000; -989.000
397.187; -117.725;-1026.000; -975.000
397.315; -133.325; -884.000; -649.000
397.443; -103.975; -592.000; -443.000
397.572; -104.500; -578.000; -424.000
397.700;  -22.600; -607.000; -614.000
397.828;    8.150;  120.000;  -90.000
397.956;  -48.875; -508.000; -478.000
398.084;  -75.375; -767.000; -626.000
398.212;   25.150;  137.000;  124.000
398.340;  -10.825;  -56.000;  159.000
398.468;   14.550; -390.000; -169.000
398.596; -145.875; -993.000; -953.000
398.724; -127.925; -762.000; -767.000
398.852; -153.325;-1024.000; -976.000
398.980;  -67.800; -560.000; -560.000
399.108;  -59.850; -982.000; -735.000
399.236;   22.925;   13.000;    8.000
399.363;    6.700;  222.000;  196.000
399.491;  -79.575; -404.000; -398.000
399.619; -125.450; -829.000; -800.000
399.747; -121.125; -859.000; -771.000
399.875;   56.025;  220.000;  234.000
400.003;  -48.950; -359.000; -284.000
400.130;  -99.200; -421.000; -341.000
400.258;  -31.000;  -83.000;   38.000
400.386;  -70.275; -352.000; -168.000
400.514;  -59.925; -526.000; -587.000
400.641; -105.725; -928.000; -802.000
400.769; -143.275; -979.000; -888.000
400.897; -112.275; -838.000; -793.000
401.025;  -23.800; -166.000; -152.000
401.152;  -12.850;  220.000;   38.000
401.280;  -81.525; -430.000; -429.000
401.408; -120.875; -712.000; -576.000
401.535; -115.050; -735.000; -758.000
401.663; -193.825;-1134.000;-1054.000
401.790;  -93.425; -514.000; -525.000
401.918;   33.625;  436.000;  405.000
402.046;  -29.300;  134.000;  122.000
402.173;  -37.900;  -18.000;    7.000
402.301;  -70.675; -519.000; -397.000
402.428;   40.475;  528.000;  383.000
402.556; -141.875;-1188.000; -913.000
402.683;  -44.000;  -20.000;   -1.000
402.811;  -21.050;  -37.000; -206.000
402.938;  -19.025;   20.000;   27.000
403.066;  148.625; -574.000; -558.000
403.193;  295.775;  299.000;  239.000
403.321;  208.125; -396.000; -574.000
403.448;  260.575;   83.000;   27.000
403.575;  131.400;  -90.000;  -46.000
403.703;  -91.400; -732.000; -557.000
403.830;  -65.825; -531.000; -496.000
403.957; -146.675;-1117.000;-1023.000
404.085;    5.550;  -61.000; -172.000
404.212;   88.675;  -50.000;   63.000
404.339;  273.250; -566.000; -306.000
404.467; 5916.350; -612.000; -524.000
404.594; 3862.550; -287.000; -227.000
404.721;  845.175; -869.000; -764.000
404.848;   83.425; -113.000; -202.000
404.976; -114.125; -856.000; -783.000
405.103;   -8.050;  -14.000;  -82.000
405.230;   -3.425;  190.000;  226.000
405.357;   15.375;  117.000;   44.000
405.484;  269.325;  -49.000;    5.000
405.612;   37.475; -548.000; -563.000
405.739;  -73.900; -488.000; -243.000
405.866;   64.775;  669.000;  385.000
405.993;  -54.725; -398.000; -102.000
406.120; -143.700; -801.000; -887.000
406.247;  -63.500; -323.000; -342.000
406.374;  373.575;  540.000;  629.000
406.501;   62.225; -632.000; -702.000
406.628;  -87.200; -621.000; -589.000
406.755; -116.575; -803.000; -620.000
406.882;  -53.550; -228.000; -277.000
407.009; -111.050; -719.000; -628.000
407.136;   31.125; -480.000; -401.000
407.263;   84.200; -939.000; -829.000
407.390;  -82.475; -692.000; -614.000
407.517; -181.475;-1139.000;-1187.000
407.644;  -57.225; -332.000; -256.000
407.771; -133.025; -249.000; -287.000
407.898;   -8.075;  168.000;  328.000
408.025;  -70.900; -421.000; -313.000
408.151;  -12.000;   82.000;  153.000
408.278;  -75.675; -267.000; -216.000
408.405; -146.550; -931.000; -899.000
408.532;  -79.375; -549.000; -542.000
408.659; -119.500; -677.000; -648.000
408.785; -194.650;-1298.000;-1170.000
408.912;  -61.900; -412.000; -296.000
409.039; -115.925; -610.000; -686.000
409.166;  -95.300; -591.000; -555.000
409.292; -109.125; -571.000; -534.000
409.419; -108.800; -665.000; -649.000
409.546;  -89.850; -431.000; -192.000
409.672; -112.175; -713.000; -545.000
409.799;  -38.900;  -36.000;   34.000
409.926;  -37.650; -180.000; -179.000
410.052; -179.200;-1127.000;-1091.000
410.179;  -66.225; -368.000; -392.000
410.305; -105.100; -375.000; -493.000
410.432;  -42.925; -220.000; -333.000
410.558; -113.650; -305.000; -380.000
410.685; -110.250; -688.000; -431.000
410.812; -114.825; -409.000; -588.000
410.938; -140.125; -964.000; -808.000
411.065;  -98.400; -671.000; -645.000
411.191;  -22.150; -189.000; -174.000
411.317; -123.825; -823.000; -742.000
411.444;  -63.425; -317.000; -246.000
411.570;  -77.300; -339.000; -294.000
411.697; -131.525; -758.000; -752.000
411.823; -174.175; -989.000; -999.000
411.949;  -39.050;  -56.000;   17.000
412.076; -120.675; -539.000; -519.000
412.202; -119.075; -758.000; -757.000
412.329; -135.850; -798.000; -752.000
412.455; -114.500; -821.000; -657.000
412.581;  -16.850;  -15.000;  172.000
412.707;  -72.750; -540.000; -457.000
412.834;   -5.575;  156.000;  219.000
412.960;  -74.925; -785.000; -784.000
413.086; -103.050; -743.000; -701.000
413.212;  133.125;  604.000;  578.000
413.339;  -80.675; -685.000; -701.000
413.465;  -10.300; -364.000; -310.000
413.591; -103.850; -757.000; -474.000
413.717;  -72.975; -358.000; -366.000
413.843; -139.200; -839.000; -861.000
413.969;  -65.625;  -47.000; -292.000
414.096; -104.200; -679.000; -679.000
414.222;   -6.725;  -33.000;   85.000
414.348;  -46.450; -652.000; -385.000
414.474;   55.400;   38.000;  -52.000
414.600;  -12.750; -126.000; -144.000
414.726;  -24.600;  -96.000;  -55.000
414.852;  -53.050; -365.000; -342.000
414.978;   32.450;  104.000;  -18.000
415.104;   35.700;   38.000;   80.000
415.230;    9.425; -329.000; -330.000
415.356;   24.375; -409.000; -514.000
415.482;  186.400;   13.000;  -35.000
415.608;  271.675; -247.000; -323.000
415.734;  952.875;   67.000;   38.000
415.860;20055.450; -875.000; -767.000
415.986;15061.850; -685.000; -607.000
416.111; 1310.650; -798.000; -652.000
416.237;  273.200; -424.000; -571.000
416.363; 1159.275; -765.000; -733.000
416.489; 4386.300; -324.000; -251.000
416.615;  479.000; -707.000; -742.000
416.741;  -16.825; -677.000; -784.000
416.866; -108.925; -673.000; -736.000
416.992; -115.175; -801.000; -818.000
417.118;  -33.475;  -41.000;  -80.000
417.244;  -80.550; -798.000; -531.000
417.369; -104.725; -801.000; -612.000
417.495;  -15.200; -325.000; -254.000
417.621;  -99.300;-1015.000; -803.000
417.746;   -6.100; -579.000; -572.000
417.872;   44.550; -254.000; -144.000
417.998;   52.525; -515.000; -530.000
418.123; 1030.775;-1073.000; -845.000
418.249; 5608.950; -512.000; -601.000
418.374;  816.000; -916.000; -824.000
418.500;  120.050; -383.000; -482.000
418.626;  121.000;   70.000;  -59.000
418.751;  118.575; -549.000; -448.000
418.877;  196.475; -637.000; -643.000
419.002; 1814.650; -688.000; -560.000
419.128;13037.975; -930.000; -721.000
419.253; 3305.050; -967.000; -837.000
419.379;  408.400; -391.000; -338.000
419.504;  409.500;  325.000;  415.000
419.629;  550.325; -393.000; -212.000
419.755; 3656.425; -317.000; -254.000
419.880;22283.750;  -98.000;   67.000
420.006;11893.625; -280.000; -221.000
420.131;30475.700; -662.000; -775.000
420.256; 4551.125; -315.000; -316.000
420.382;  600.000; -665.000; -687.000
420.507;   73.075; -649.000; -778.000
420.632;   92.950; -337.000; -339.000
420.758;  198.325; -251.000; -425.000
420.883;  -78.325; -876.000; -672.000
421.008;  -98.800; -775.000; -619.000
421.133;  -90.125; -509.000; -467.000
421.259;  -44.875; -325.000; -259.000
421.384; -129.750; -834.000; -693.000
421.509;  -57.425;-1052.000; -862.000
421.634;  917.775; -936.000; -820.000
421.759;  417.100; -359.000; -327.000
421.885;  -60.350; -717.000; -656.000
422.010;  -76.975; -673.000; -542.000
422.135; -159.750; -695.000; -727.000
422.260;   28.125;  340.000;  280.000
422.385;  -42.825;   12.000;  -98.000
422.510;   15.425;  151.000;  -26.000
422.635;   16.300;  -87.000;  -43.000
422.760;   83.250; -766.000; -791.000
422.885;   48.675;  -57.000;  -80.000
423.010;  -37.825; -112.000; -169.000
423.135;  -99.825; -481.000; -561.000
423.260;  -20.475; -150.000; -245.000
423.385;   31.125;  476.000;  222.000
423.510;   24.325;   71.000;  -22.000
423.635;   49.000;  133.000;   45.000
423.760;   64.200;  383.000;  328.000
423.885;   46.250;  336.000;  391.000
424.010;   12.450;  -68.000;  -13.000
424.135;  -20.350;    5.000;  -33.000
424.259;  -90.050; -654.000; -457.000
424.384;  -83.900; -279.000; -272.000
424.509;  -24.950; -260.000; -186.000
424.634;  -85.075; -761.000; -623.000
424.759;  -30.000; -688.000; -544.000
424.883;  -15.800; -506.000; -527.000
425.008;  163.125; -502.000; -410.000
425.133; 2017.450; -679.000; -653.000
425.258; 1006.275; -517.000; -381.000
425.382;  903.775; -867.000; -774.000
425.507; 2415.775; -487.000; -543.000
425.632;  426.650; -802.000; -663.000
425.756;  478.125; -256.000; -146.000
425.881; 6767.125; -831.000; -857.000
426.006;19196.300; -604.000; -355.000
426.130; 3055.250; -696.000; -508.000
426.255;  402.150; -611.000; -491.000
426.379;  160.725; -189.000; -577.000
426.504;  376.625;  660.000;  544.000
426.629; 4052.575; -519.000; -466.000
426.753; 2903.750;   64.000;  -46.000
426.878;  337.850; -252.000; -288.000
427.002;  143.250; -651.000; -668.000
427.127; 1558.250;  -35.000; -158.000
427.251;11773.800;  372.000;  401.000
427.375; 3472.375; -191.000; -173.000
427.500; 2107.700; -616.000; -610.000
427.624;  736.200; -234.000; -400.000
427.749;   81.350; -216.000; -225.000
427.873;  -46.850; -499.000; -412.000
427.997;  -45.375; -222.000; -230.000
428.122;   76.250;  795.000;  703.000
428.246;   55.475;  433.000;  434.000
428.371; -138.025; -869.000; -773.000
428.495; -111.600; -624.000; -646.000
428.619;  -49.600; -186.000; -117.000
428.743;   13.800;   65.000;  132.000
428.868;   -4.875; -732.000; -643.000
428.992; 1259.225; -219.000; -326.000
429.116;  509.175; -329.000; -357.000
429.240;  224.425;  419.000;  426.000
429.365;  -34.375; -454.000; -574.000
429.489;  -42.775; -638.000; -647.000
429.613;   14.625; -236.000; -177.000
429.737;   22.275; -563.000; -432.000
429.861;  263.250; -247.000; -133.000
429.985; 5625.350; -425.000; -305.000
430.109; 6392.275; -770.000; -908.000
430.234;  750.550;   76.000;  -50.000
430.358;   73.250; -250.000; -160.000
430.482;  -73.525; -672.000; -564.000
430.606;  -72.100; -655.000; -375.000
430.730;  -19.075; -437.000; -388.000
430.854;   63.300; -909.000; -835.000
430.978;  -78.325; -795.000; -764.000
431.102;  -99.500; -499.000; -422.000
431.226; -118.750; -874.000; -815.000
431.350;   16.875;  345.000;  422.000
431.474;  -80.225; -661.000; -373.000
431.597; -153.375;-1060.000; -848.000
431.721;  -74.425; -276.000; -267.000
431.845; -125.575; -704.000; -472.000
431.969;  -79.550; -304.000; -349.000
432.093; -105.150; -395.000; -317.000
432.217;  -19.900;   32.000;   82.000
432.341;  -94.700; -523.000; -518.000
432.464;    3.450;   96.000;   40.000
432.588;  136.175; -401.000; -329.000
432.712;   77.525;  -52.000;  -52.000
432.836;   40.250;  213.000;  263.000
432.959;   -9.350; -372.000; -311.000
433.083;   69.600;   11.000;    2.000
433.207;  387.600;  285.000;  930.000
433.330; 5203.000; -391.000; -200.000
433.454; 6611.575; -654.000; -638.000
433.578; 3747.875;  583.000;  278.000
433.701;  701.775; -623.000; -675.000
433.825;  119.775; -292.000; -299.000
433.949;  142.900;   28.000;  -72.000
434.072;   26.000; -410.000; -323.000
434.196;  -21.025; -309.000; -117.000
434.319; 3691.425;25482.000;25124.000
434.443;  690.400; -656.000; -603.000
434.566; 2775.100;  281.000;   62.000
434.690;  489.125; -637.000; -383.000
434.813;   36.775; -251.000; -173.000
434.937;  -69.625; -569.000; -696.000
435.060;  -68.050; -423.000; -332.000
435.184;  193.050; -492.000; -217.000
435.307;  118.825;  159.000;  102.000
435.431;  -15.075;  -40.000;   24.000
435.554;  -93.200; -399.000; -240.000
435.677;  -89.575; -350.000; -258.000
435.801;  -49.075;  -25.000;   49.000
435.924;  -23.300;    1.000;  -67.000
436.048; -138.300;-1019.000; -732.000
436.171;  -69.675; -240.000;  -66.000
436.294;  -28.525; -248.000; -229.000
436.417;   94.325; -963.000; -849.000
436.541;  -82.050; -814.000; -840.000
436.664;  -54.325; -242.000; -316.000
436.787;  -46.475;   13.000;  113.000
436.910; -111.600; -792.000; -422.000
437.034;   -6.475;  142.000;  143.000
437.157;   31.300;  -11.000;    0.000
437.280;  -53.425; -392.000; -292.000
437.403; -100.800; -982.000; -869.000
437.526;  439.575; -903.000; -865.000
437.649; 1809.125; -505.000; -332.000
437.772;  248.475; -692.000; -540.000
437.896;   97.225;  700.000;  544.000
438.019;  -97.400; -758.000; -503.000
438.142;  -88.025; -596.000; -506.000
438.265;  -46.950; -639.000; -670.000
438.388;  447.850; -520.000; -410.000
438.511;   83.150; -597.000; -394.000
438.634;  -61.450; -247.000; -125.000
438.757; -126.825; -693.000; -619.000
438.880;  -21.850;  -34.000;  -57.000
439.003;  -82.675; -417.000; -437.000
439.126;  -75.275; -287.000; -167.000
439.248;  -58.525;  -98.000; -139.000
439.371;  -41.050;    9.000;  -53.000
439.494;   11.250;  510.000;  439.000
439.617;  -51.300;   65.000;  -88.000
439.740; -172.300; -968.000; -816.000
439.863; -146.475; -755.000; -595.000
439.986; -131.125; -476.000; -431.000
440.108;  -52.925; -161.000; -112.000
440.231; -157.975; -950.000; -836.000
440.354;  -48.200;  -64.000; -150.000
440.477;   -8.625; -566.000; -542.000
440.599;  -12.000; -200.000; -225.000
440.722; -135.225; -709.000; -586.000
440.845;   67.750;  751.000;  928.000
440.968; -113.575; -415.000; -311.000
441.090;  -78.000; -199.000;  -33.000
441.213; -168.125;-1021.000; -825.000
441.336;  -46.900; -159.000;   -5.000
441.458;  -80.775; -549.000; -396.000
441.581;  -91.450; -628.000; -629.000
441.703;  -73.325; -152.000;   13.000
441.826; -114.150; -557.000; -400.000
441.948;  -67.025;   56.000;   51.000
442.071;   26.475;  555.000;  424.000
442.193; -119.925; -531.000; -485.000
442.316;   11.825;  152.000;   97.000
442.438;   28.050; -233.000;  -10.000
442.561;   62.425;  272.000;  262.000
442.683;  402.475; -809.000; -522.000
442.806;  945.575;   -8.000;   74.000
442.928;   -8.900; -859.000; -604.000
443.051;  -84.075; -577.000; -373.000
443.173; -101.900; -341.000; -339.000
443.295;  -86.525; -263.000; -371.000
443.418;  -74.375; -321.000;  -29.000
443.540;  -13.675; -106.000;   -4.000
443.662; -111.475; -563.000; -465.000
443.785;  -10.375;  335.000;  199.000
443.907;  -93.125; -362.000; -208.000
444.029; -134.325; -767.000; -494.000
444.152; -129.125; -644.000; -554.000
444.274;  -38.875;  -18.000;  -24.000
444.396; -108.275; -461.000; -221.000
444.518; -129.825; -691.000; -454.000
444.640; -105.075; -268.000; -111.000
444.763;  -20.650;  388.000;  249.000
444.885; -142.925; -432.000; -392.000
445.007;  -37.550;   35.000;   86.000
445.129; -122.375; -610.000; -515.000
445.251; -127.600; -372.000; -439.000
445.373; -141.850; -537.000; -386.000
445.495;    0.025;  242.000;  350.000
445.617;   37.425;  853.000;  753.000
445.739;  -63.950; -215.000;  -97.000
445.861;  -36.925; -245.000; -112.000
445.984;  -50.775; -267.000; -101.000
446.105;  147.450; -418.000; -251.000
446.227;  489.175; -176.000;  -19.000
446.349;  -11.650; -358.000; -249.000
446.471; -100.750; -615.000; -448.000
446.593;  -68.300; -316.000;   19.000
446.715;  -19.050;  -67.000;   41.000
446.837;   52.200;  697.000;  832.000
446.959; -110.600; -457.000; -478.000
447.081; -143.550; -628.000; -518.000
447.203;   57.550;  862.000;  834.000
447.325;  -80.800; -270.000;   42.000
447.446;  -13.475;  286.000;  530.000
447.568; -148.300; -921.000; -803.000
447.690;  -84.075; -236.000; -245.000
447.812; -151.525; -798.000; -519.000
447.933;  -31.275;  155.000;  127.000
448.055;  -81.350; -306.000; -261.000
448.177;  116.550;   31.000;   79.000
448.299;   23.675; -935.000; -727.000
448.420;   15.100;  -25.000;  159.000
448.542;  -53.000;   -3.000;   33.000
448.664;  -24.900;  109.000;  322.000
448.785;  -34.650;  265.000;   83.000
448.907;  -81.150; -614.000; -353.000
449.028;  -59.325; -771.000; -471.000
449.150;   57.200;  492.000;  589.000
449.272; -179.375;-1044.000; -913.000
449.393;   22.800;  612.000;  694.000
449.515; -138.650; -634.000; -581.000
449.636;  -75.850; -264.000; -155.000
449.758;   71.500;  763.000;  622.000
449.879;  -90.550; -498.000; -396.000
450.001;  -65.550; -149.000;  -49.000
450.122;  -49.175;  -95.000;  162.000
450.244;  -38.100;   37.000;  364.000
450.365;  -88.475; -495.000; -301.000
450.486;  -37.600;   80.000;  268.000
450.608;   29.625;  393.000;  326.000
450.729;   55.925;  578.000;  645.000
450.850;   10.975; -574.000; -466.000
450.972;  779.300; -552.000; -389.000
451.093; 5137.450;  190.000;  588.000
451.214; 2357.900; -516.000; -337.000
451.336;  426.575;  773.000;  579.000
451.457;   71.000;  264.000;  393.000
451.578;  -40.400; -118.000;  -74.000
451.699; -119.425; -546.000; -540.000
451.821;  -66.800; -284.000;  -50.000
451.942;   -8.425;  278.000;  285.000
452.063;   37.025;  228.000;  419.000
452.184;  547.400;  -54.000;  -49.000
452.305; 1136.675;  103.000;  170.000
452.427;  146.050; -549.000; -301.000
452.548;  -21.500;   23.000;   79.000
452.669;  -69.900; -257.000;  -89.000
452.790;  -43.675;    3.000;  -18.000
452.911;   -9.750;  195.000;  259.000
453.032;  -71.375; -289.000;  -60.000
453.153;  -49.325;  -29.000;   81.000
453.274;   50.325;  737.000;  868.000
453.395;  -52.800;  -51.000;  175.000
453.516;  117.925; 1317.000; 1388.000
453.637;  -67.825; -205.000; -150.000
453.758;  -54.775;   15.000;   69.000
453.879; -120.325; -462.000; -250.000
454.000;   64.325; 1086.000;  948.000
454.121; -136.300; -554.000; -326.000
454.242; -121.200; -599.000; -383.000
454.362;  -52.600;  -99.000;  114.000
454.483;  -39.000; -309.000; -229.000
454.604;   37.775;  512.000;  580.000
454.725; -134.150; -627.000; -555.000
454.846; -132.900; -474.000; -406.000
454.967;  -33.100;  230.000;  539.000
455.087;  -43.525;  179.000;  153.000
455.208;   22.350;  554.000;  856.000
455.329;  -71.275;  -22.000;   82.000
455.450;   47.075;  473.000;  633.000
455.570;  -83.700; -234.000; -211.000
455.691;  -46.575;  201.000;  407.000
455.812; -105.650; -270.000;  -92.000
455.932;  -59.275;  107.000;  -97.000
456.053;  -98.975;   36.000;   24.000
456.173; -113.800; -433.000; -355.000
456.294; -132.400; -476.000; -303.000
456.415;  -68.125;  -73.000;   70.000
456.535;  -20.350;  297.000;  273.000
456.656;  -41.650;  132.000;  240.000
456.776;  -73.575;    3.000;  298.000
456.897;    5.525;  308.000;  513.000
457.017;  -94.525; -153.000;   -3.000
457.138; -118.850; -402.000; -249.000
457.258;  -37.575;  263.000;  224.000
457.379;  -21.550;  509.000;  521.000
457.499;  -42.650;  443.000;  432.000
457.620; -124.325; -407.000; -231.000
457.740; -100.625; -132.000;  -11.000
457.860;  -57.950;   87.000;   44.000
457.981;  -55.525;  132.000;  124.000
458.101;  -69.000;  -89.000;   40.000
458.221;  -12.200;  336.000;  402.000
458.342;  -64.000;   -4.000;  -37.000
458.462;   16.925;  617.000;  352.000
458.582;  -35.225; -302.000; -294.000
458.703;   12.950;  303.000;  154.000
458.823;  -35.700;   22.000;  163.000
458.943;   14.775;  341.000;  467.000
459.063;  -25.350; 1124.000;  192.000
459.183;  -32.100;  328.000;  313.000
459.304;   -6.150;  315.000;  517.000
459.424;  -71.650; -246.000;  -89.000
459.544;  306.375;  388.000;  764.000
459.664;  859.025;  499.000;  506.000
459.784;  333.625; 1004.000; 1175.000
459.904;   63.100;  867.000;  744.000
460.024;   71.975;  867.000;  684.000
460.144;   -8.900;  449.000;  554.000
460.264;   -4.100;  515.000;  327.000
460.385;  -97.525; -145.000; -119.000
460.505;   44.150;  905.000;  858.000
460.625;  -84.300;  -17.000;  -68.000
460.745;  -30.475;  396.000;  541.000
460.864;  -58.850;  153.000;  469.000
460.984;    0.675;  499.000;  573.000
461.104;  136.625; 1656.000; 1775.000
461.224;   25.325;  657.000;  650.000
461.344;  -15.700;  431.000;  360.000
461.464;  -50.425;  258.000;  513.000
461.584;  -20.450;  283.000;  466.000
461.704;  -62.600;   58.000;  108.000
461.824;  -50.100;  238.000;  259.000
461.943;  -35.525;  191.000;  130.000
462.063;  -87.300;    2.000;  324.000
462.183;   16.625;  639.000;  717.000
462.303;   90.575; 1678.000; 1230.000
462.422;   32.475;  781.000;  840.000
462.542;  -47.475;  271.000;  391.000
462.662;   34.450;  353.000;  380.000
462.782;  237.775;  833.000;  572.000
462.901;  497.850;  545.000;  717.000
463.021;  297.150; 1702.000; 1638.000
463.141;    4.550;  337.000;  770.000
463.260;  -15.750;  614.000;  474.000
463.380;   13.550;  902.000;  884.000
463.499;  -41.550;  342.000;  332.000
463.619;  -45.875;  581.000;  559.000
463.738;  100.050; 1644.000;  903.000
463.858;    1.925;  657.000;  811.000
463.978;  -35.675;  542.000;  396.000
464.097;   37.000;  921.000; 1114.000
464.217;  115.975; 1196.000; 1143.000
464.336;  114.800; 1068.000; 1130.000
464.455;  -38.175;  328.000;  659.000
464.575;   31.725;  597.000;  602.000
464.694;  159.950; 1204.000; 1179.000
464.814;  143.775; 1190.000; 1138.000
464.933;   59.850; 1095.000; 1027.000
465.052;   88.775; 1412.000; 1054.000
465.172;   76.200;  922.000;  799.000
465.291;  130.275; 1376.000; 1320.000
465.410;    3.150;  462.000;  735.000
465.530;   67.425; 1355.000; 1310.000
465.649;   57.850; 1209.000; 1273.000
465.768;  135.325; 1673.000; 1508.000
465.888;   44.350;  941.000; 1174.000
466.007;   85.900; 1335.000; 1440.000
466.126;   -5.350;  721.000;  641.000
466.245;   41.625; 1176.000; 1187.000
466.364;    9.400;  950.000; 1060.000
466.484;   60.775; 1024.000; 1213.000
466.603;   27.500; 1101.000; 1222.000
466.722;  110.400; 1490.000; 1769.000
466.841;   73.250; 1151.000; 1401.000
466.960;   38.775; 1069.000;  972.000
467.079;  120.675; 1971.000; 1786.000
467.198;   43.300; 1238.000; 1181.000
467.317;   84.750; 1768.000; 1162.000
467.436;   79.700; 1709.000; 1261.000
467.555;  121.275; 1796.000; 1746.000
467.674;   51.825; 1227.000; 1329.000
467.793;   38.825; 1376.000; 1374.000
467.912;   87.975; 1658.000; 1539.000
468.031;  129.025; 2038.000; 1930.000
468.150;  159.875; 1842.000; 1837.000
468.269;  195.075; 2313.000; 2090.000
468.388;  178.675; 2168.000; 2339.000
468.507;  254.525; 2884.000; 2903.000
468.626;  277.200; 2555.000; 2541.000
468.744;  124.025; 2018.000; 2174.000
468.863;  194.575; 2312.000; 2523.000
468.982;   94.800; 1503.000; 1555.000
469.101;  218.225; 2788.000; 2692.000
469.220;  171.375; 2333.000; 2176.000
469.338;  240.550; 2935.000; 3051.000
469.457;  202.625; 2719.000; 2545.000
469.576;  346.525; 3953.000; 3784.000
469.695;  240.875; 2877.000; 3066.000
469.813;  421.350; 4148.000; 4192.000
469.932;  417.025; 4255.000; 4485.000
470.051;  428.475; 4075.000; 4161.000
470.169;  856.875; 4470.000; 4338.000
470.288; 1531.975; 4700.000; 4809.000
470.406;  906.975; 5059.000; 5194.000
470.525;  635.550; 6101.000; 5787.000
470.644;  657.850; 6847.000; 6794.000
470.762;  810.150; 8397.000; 7873.000
470.881;  919.250; 8651.000; 8464.000
470.999; 1060.800; 9685.000; 9151.000
471.118; 1117.700;11174.000;10711.000

