
Integration time [ms]: 200.000
Averaging Nr. [scans]: 10
Smoothing Nr. [pixels]: 0
Data measured with spectrometer [name]: 2101012U2
Wave   ;Sample   ;Dark     ;Reference
[nm]   ;[counts] ;[counts] ;[counts] 

197.733;  106.300;  516.000;  404.000
197.879; -185.100; -610.000; -634.000
198.025; -150.800; -475.000; -420.000
198.171; -181.800; -602.000; -612.000
198.317;  -81.200; -401.000; -316.000
198.463; -120.100; -655.000; -404.000
198.609;   55.100;  181.000; -137.000
198.755; -163.400; -644.000; -410.000
198.901; -123.400; -505.000; -424.000
199.047; -144.400; -615.000; -488.000
199.193;  -54.700; -230.000; -468.000
199.339;  -69.800; -222.000; -369.000
199.485;   87.600;  330.000;  271.000
199.631;   54.900;  227.000;  310.000
199.777; -119.800; -466.000; -398.000
199.923; -114.000; -610.000; -424.000
200.069;    0.100; -141.000;  -58.000
200.215;  128.000;  128.000;  453.000
200.361;  100.700;  243.000;  477.000
200.507; -131.100; -600.000; -373.000
200.653;  -21.600; -371.000; -194.000
200.798;  -63.900; -215.000; -125.000
200.944;  -56.400; -146.000;  -41.000
201.090;   78.600;   61.000;  222.000
201.236;  -26.100; -116.000; -158.000
201.382;  279.400;  874.000;  903.000
201.528;   -0.200;  -58.000;  -48.000
201.674;  -74.200; -386.000; -293.000
201.819; -155.400; -540.000; -439.000
201.965; -156.500; -699.000; -447.000
202.111;  -35.600; -273.000; -226.000
202.257;  -63.600; -250.000; -238.000
202.402;    0.400;   13.000;  -36.000
202.548;  -79.300; -169.000; -116.000
202.694;  166.300;  410.000; -183.000
202.840; -152.500; -603.000; -531.000
202.985; -140.700; -681.000; -639.000
203.131; -215.700; -832.000; -666.000
203.277;  -35.100; -199.000; -262.000
203.423; -117.700; -434.000; -520.000
203.568;  -85.600; -462.000; -237.000
203.714; -113.500; -535.000; -542.000
203.860; -202.100; -682.000; -641.000
204.005;   36.500;  112.000;  167.000
204.151;  145.000;  561.000;  556.000
204.296;  -71.900; -354.000; -221.000
204.442; -173.700; -600.000; -547.000
204.588; -160.900; -592.000; -579.000
204.733;   18.500;  178.000;  168.000
204.879; -279.000;-1018.000; -822.000
205.025;   25.300;  -99.000;  126.000
205.170;   18.200;  -17.000;   94.000
205.316;  208.300;  438.000;  661.000
205.461; -178.100; -698.000; -554.000
205.607;  194.200;  609.000;  665.000
205.752; -191.400; -626.000; -551.000
205.898; -123.800; -501.000; -391.000
206.043; -129.200; -578.000; -506.000
206.189; -100.100; -243.000; -285.000
206.334;  160.300;  554.000;  606.000
206.480;  190.700;  409.000;  239.000
206.625; -156.700; -529.000; -552.000
206.771;  -93.800; -451.000; -373.000
206.916;  -56.700; -210.000; -537.000
207.062; -156.700; -545.000; -591.000
207.207; -124.800; -546.000; -443.000
207.353;  118.200;  185.000;  460.000
207.498;   25.900;  196.000;   85.000
207.643; -105.500; -501.000; -370.000
207.789; -278.600;-1069.000; -910.000
207.934; -197.100; -665.000; -713.000
208.080;  -46.200; -154.000;   66.000
208.225;  -15.500;  -22.000;  -57.000
208.370; -179.800; -727.000; -619.000
208.516; -157.000; -741.000; -487.000
208.661;  -52.300; -127.000;  -69.000
208.806;  -43.500; -165.000; -171.000
208.952; -268.000;-1044.000; -731.000
209.097;  125.200;  378.000;  349.000
209.242;  -85.100; -307.000; -382.000
209.387;   96.000;  392.000;  350.000
209.533;  -93.600; -321.000; -350.000
209.678;  153.800;  472.000;  543.000
209.823; -113.100; -408.000; -310.000
209.969; -228.600; -860.000; -757.000
210.114; -212.500; -907.000; -719.000
210.259; -247.500; -939.000; -889.000
210.404;   -8.100; -171.000;  103.000
210.549;   24.800;  108.000;    3.000
210.695;  -21.500;   -3.000;  -95.000
210.840;   49.400;   94.000;   67.000
210.985; -146.100; -484.000; -303.000
211.130;  175.500;  268.000;  406.000
211.275;   40.000;  207.000;  199.000
211.420; -111.400; -300.000; -289.000
211.566; -166.400; -536.000; -489.000
211.711;   68.100;  218.000;  157.000
211.856; -107.100; -545.000; -519.000
212.001;   24.000;  151.000;   44.000
212.146;   36.300;  153.000;   49.000
212.291;  -44.200; -210.000; -186.000
212.436;  -50.700; -280.000;   -6.000
212.581; -182.100; -685.000; -653.000
212.726; -146.700; -487.000; -538.000
212.871; -120.000; -552.000; -217.000
213.016; -308.200;-1172.000;-1029.000
213.161;  141.700;  406.000;  291.000
213.306; -111.800; -435.000; -577.000
213.451; -172.500; -778.000; -689.000
213.596;  -98.600; -455.000; -347.000
213.741; -108.800; -448.000; -538.000
213.886; -141.700; -498.000; -517.000
214.031;  -64.400; -294.000; -124.000
214.176; -120.200; -408.000; -341.000
214.321;  -44.300; -296.000; -157.000
214.466;  -51.700; -163.000;  -43.000
214.611;   15.600;  -61.000;  -10.000
214.756; -251.200; -948.000; -858.000
214.901;  -51.400; -388.000; -226.000
215.046; -261.800; -797.000; -825.000
215.191;   25.700;  128.000;   35.000
215.336;  -32.300; -157.000;  -19.000
215.480; -153.600; -684.000; -505.000
215.625;   -8.400; -175.000;  -19.000
215.770; -163.300; -757.000; -662.000
215.915;  -12.600;   -5.000;  -97.000
216.060;    9.200; -113.000;  -21.000
216.205; -207.200; -731.000; -779.000
216.349; -167.500; -470.000; -533.000
216.494; -275.300; -939.000; -867.000
216.639; -261.600; -823.000; -888.000
216.784; -171.000; -577.000; -525.000
216.929;   99.900;  392.000;  281.000
217.073;  -10.100; -244.000;  -31.000
217.218;   12.300;   78.000;  -47.000
217.363; -152.500; -656.000; -618.000
217.507; -185.700; -623.000; -588.000
217.652; -270.800; -845.000; -874.000
217.797; -188.500; -708.000; -659.000
217.942; -208.200; -856.000; -720.000
218.086;  177.800;  608.000;  539.000
218.231;  -17.300; -174.000;  -26.000
218.376;  -53.400; -337.000; -229.000
218.520;    5.200;  -41.000;   96.000
218.665;  -67.900; -338.000; -204.000
218.810; -105.400; -275.000; -233.000
218.954;   38.500;  201.000;   35.000
219.099; -209.900; -713.000; -963.000
219.243; -123.900; -589.000; -554.000
219.388;  -75.600; -264.000; -136.000
219.532;  -23.200; -116.000; -116.000
219.677; -168.400; -564.000; -521.000
219.822;   26.100;   33.000;   89.000
219.966;   24.800;   17.000;  -99.000
220.111;  -54.300; -328.000;  -40.000
220.255; -187.600; -797.000; -750.000
220.400;  -31.600; -180.000; -146.000
220.544; -102.500; -516.000; -450.000
220.689;  -77.100; -422.000; -451.000
220.833;  -33.200; -123.000;  -58.000
220.978;  -88.900; -393.000; -563.000
221.122;   82.200;  319.000;  307.000
221.267; -248.100; -906.000; -837.000
221.411; -130.900; -478.000; -394.000
221.555;  -30.500; -104.000;  -23.000
221.700;  -97.900; -329.000; -222.000
221.844;   81.100;  255.000;  272.000
221.989;  -60.700; -328.000; -311.000
222.133;  -45.600; -289.000; -307.000
222.277;  -18.500;    5.000;   78.000
222.422;   22.600;  227.000;  113.000
222.566;  -40.800; -381.000; -214.000
222.711; -105.000; -414.000; -479.000
222.855; -136.000; -643.000; -586.000
222.999; -167.000; -642.000; -717.000
223.144;  -33.100; -195.000; -194.000
223.288;  101.800;  423.000;  251.000
223.432;   17.800;  184.000;  230.000
223.576;   55.700;  152.000;  -21.000
223.721;  113.300;  364.000;  273.000
223.865; -137.000; -472.000; -475.000
224.009;  554.100; 1673.000; 1631.000
224.153; -163.300; -660.000; -671.000
224.298; -141.400; -531.000; -489.000
224.442;  -43.400;  -74.000;  -33.000
224.586;  -10.100; -169.000; -106.000
224.730; -208.400; -858.000; -670.000
224.875; -201.100; -739.000; -688.000
225.019;   41.100;  102.000;  188.000
225.163;  119.100;  208.000;  341.000
225.307;   43.600;   97.000;  -91.000
225.451;  116.500;  360.000;  481.000
225.595;   42.000;  264.000;  176.000
225.739;  -30.700; -170.000;  -94.000
225.884;    7.400;   86.000;    5.000
226.028; -179.300; -760.000; -626.000
226.172;  -60.100; -260.000; -273.000
226.316; -250.600; -941.000; -902.000
226.460; -126.700; -645.000; -493.000
226.604; -111.700; -406.000; -400.000
226.748; -212.700; -836.000; -733.000
226.892;  -84.400; -227.000; -181.000
227.036;  -89.500; -537.000; -447.000
227.180;  -89.900; -551.000; -375.000
227.324; -137.700; -561.000; -580.000
227.468; -277.100; -819.000; -717.000
227.612;   11.000;  242.000;  -28.000
227.756; -176.500; -845.000; -698.000
227.900;  103.100;  342.000;  441.000
228.044; -125.600; -509.000; -290.000
228.188;  139.100;  448.000;  568.000
228.332; -182.200; -546.000; -472.000
228.476;  -19.400; -223.000; -149.000
228.620;  -66.700; -210.000; -150.000
228.764;  134.400;  431.000;  349.000
228.908;   16.800; -155.000;   30.000
229.052; -129.600; -615.000; -528.000
229.195;    6.800; -172.000;   13.000
229.339;  -64.300; -235.000; -305.000
229.483;  -71.700;    5.000; -162.000
229.627;   13.500; -156.000;  139.000
229.771;  -70.100; -218.000; -294.000
229.915;   41.000;  230.000;   79.000
230.059; -191.600; -648.000; -663.000
230.202; -100.500; -370.000; -317.000
230.346;  -23.700; -107.000;  107.000
230.490; -137.000; -489.000; -521.000
230.634; -202.100; -736.000; -553.000
230.777;  179.800;  478.000;  509.000
230.921;  -94.900; -450.000; -359.000
231.065;  -79.500; -246.000; -286.000
231.209;   60.900;  261.000;  265.000
231.352;   45.100;   54.000;   40.000
231.496;   37.000;  568.000;  188.000
231.640; -157.700; -693.000; -621.000
231.783;  179.100;  546.000;  525.000
231.927; -107.100; -294.000; -365.000
232.071; -220.700; -962.000; -736.000
232.214; -233.600; -980.000; -764.000
232.358; -210.900; -683.000; -599.000
232.502;   14.200;  -19.000;    7.000
232.645; -281.200;-1090.000; -927.000
232.789;  -21.800; -257.000; -218.000
232.933;  -80.900; -407.000; -224.000
233.076; -274.600;-1038.000; -897.000
233.220; -222.000; -752.000; -777.000
233.363; -142.100; -669.000; -477.000
233.507;  133.400;  371.000;  129.000
233.650; -197.700; -764.000; -834.000
233.794;  114.700;  438.000;  461.000
233.938; -110.800; -530.000; -362.000
234.081;  -10.000;  -93.000;   31.000
234.225; -146.700; -631.000; -539.000
234.368; -225.600; -773.000; -723.000
234.512;  -87.100; -385.000; -299.000
234.655; -181.000; -582.000; -555.000
234.798; -133.500; -493.000; -466.000
234.942; -280.500; -884.000;-1002.000
235.085; -146.200; -651.000; -443.000
235.229; -141.900; -405.000; -410.000
235.372;  -97.000; -247.000; -191.000
235.516;  -91.300; -397.000; -321.000
235.659;   39.600;   92.000;  121.000
235.802;   -2.100;  -38.000;  -22.000
235.946;   67.600;  335.000;  215.000
236.089;   48.200;  126.000;  250.000
236.233;  133.500;  275.000;  298.000
236.376;  -87.500; -235.000; -378.000
236.519;  -72.300; -297.000; -319.000
236.663;   -7.100; -215.000; -117.000
236.806; -280.400;-1029.000; -999.000
236.949;  114.300;  543.000;  431.000
237.092;  133.100;  412.000;  391.000
237.236; -143.800; -589.000; -502.000
237.379;  138.500;  352.000;  428.000
237.522; -254.300; -879.000; -768.000
237.666;    1.400; -271.000;   18.000
237.809; -233.000; -851.000; -823.000
237.952;   90.600;  469.000;  271.000
238.095; -115.300; -447.000; -442.000
238.238;  181.300;  688.000;  700.000
238.382;   33.700;  166.000;  103.000
238.525; -138.600; -598.000; -511.000
238.668; -257.600;-1060.000; -985.000
238.811; -161.000; -638.000; -643.000
238.954; -125.800; -483.000; -334.000
239.097;  218.200;  617.000;  664.000
239.241;   66.300;  394.000;  326.000
239.384;  -66.700; -254.000; -214.000
239.527; -129.800; -424.000; -224.000
239.670; -330.000; -994.000;-1091.000
239.813; -213.700; -696.000; -658.000
239.956;  168.000;  579.000;  473.000
240.099; -228.900; -778.000; -725.000
240.242;  134.900;  428.000;  432.000
240.385;  115.100;  466.000;  450.000
240.528; -127.700; -706.000; -473.000
240.671;   45.100;  189.000;  134.000
240.814;  -88.900; -441.000; -158.000
240.957; -196.000; -767.000; -578.000
241.100; -215.600; -779.000; -755.000
241.243; -298.600;-1234.000; -893.000
241.386; -139.000; -508.000; -379.000
241.529; -180.800; -735.000; -547.000
241.672; -152.000; -566.000; -495.000
241.815; -241.400; -832.000; -808.000
241.958;  -43.800; -125.000; -182.000
242.101; -144.500; -545.000; -390.000
242.244;  -67.700; -270.000; -325.000
242.387;  -71.000; -304.000; -246.000
242.530;  150.600;  470.000;  134.000
242.673;  -76.700; -381.000; -309.000
242.815; -248.600; -925.000; -899.000
242.958; -124.300; -482.000; -381.000
243.101;   44.700;  132.000;  187.000
243.244; -164.600; -564.000; -521.000
243.387;  -91.100; -313.000; -316.000
243.530; -193.200; -657.000; -674.000
243.672;    6.900;   43.000;  -92.000
243.815; -104.700; -355.000; -283.000
243.958;   14.500;   98.000;  -26.000
244.101;   33.600;   59.000;  -16.000
244.243;  -21.400;  -47.000;  101.000
244.386; -231.000; -761.000; -630.000
244.529;  -37.700; -132.000; -139.000
244.672; -318.100;-1154.000; -951.000
244.814; -206.300; -621.000; -794.000
244.957;  -58.700; -380.000; -304.000
245.100; -140.700; -489.000; -489.000
245.242; -111.800; -387.000; -374.000
245.385;  -11.600;  -59.000;  -39.000
245.528; -226.900; -871.000; -705.000
245.670;  222.000;  612.000;  634.000
245.813; -117.700; -599.000; -547.000
245.956;  -70.100; -324.000; -275.000
246.098; -127.000; -508.000; -650.000
246.241;   22.900;  194.000;   48.000
246.383;  -40.500; -119.000;  -73.000
246.526; -155.700; -454.000; -525.000
246.669; -233.800; -889.000; -780.000
246.811;   24.800;  172.000;   -1.000
246.954; -135.500; -512.000; -426.000
247.096;  -37.400;  -84.000;   -6.000
247.239; -122.400; -482.000; -445.000
247.381; -122.600; -647.000; -488.000
247.524;  190.400;  645.000;  679.000
247.666;   23.800;   58.000;   11.000
247.809; -231.800; -887.000; -691.000
247.951;  -30.000;  -75.000;  138.000
248.094;   97.900;  432.000;  308.000
248.236; -330.700;-1262.000;-1238.000
248.378;   24.200; -356.000;  -81.000
248.521;  -16.000; -334.000; -337.000
248.663;  -88.700; -236.000; -267.000
248.806;  -32.300; -300.000; -266.000
248.948; -191.000; -886.000; -763.000
249.090; -103.900; -428.000; -398.000
249.233; -102.100; -344.000; -381.000
249.375; -158.100; -474.000; -451.000
249.518;  -59.100;  -83.000; -133.000
249.660;  -11.800; -103.000;    3.000
249.802; -351.800;-1303.000;-1189.000
249.945; -151.000; -612.000; -540.000
250.087; -220.900; -834.000; -768.000
250.229;  -81.100; -362.000; -480.000
250.371; -140.700; -494.000; -439.000
250.514; -107.400; -310.000; -244.000
250.656; -108.700;   69.000;  102.000
250.798; -243.500; -849.000; -800.000
250.940; -113.300; -322.000; -322.000
251.083;  -31.900; -335.000; -111.000
251.225;  168.200;  338.000;  310.000
251.367;  -80.600; -274.000; -373.000
251.509;  -40.500; -265.000; -210.000
251.651; -213.600; -731.000; -671.000
251.794;  136.700;  538.000;  632.000
251.936; -219.400; -821.000; -747.000
252.078; -140.100; -540.000; -461.000
252.220; -131.700; -645.000; -477.000
252.362;  157.900;  344.000;  462.000
252.504; -113.000; -677.000; -584.000
252.646; -214.500; -875.000; -722.000
252.788;   10.400;   14.000; -128.000
252.931;  -54.600; -257.000; -253.000
253.073;  -92.800; -376.000; -317.000
253.215;   28.000;  141.000;  122.000
253.357;  -19.600;   82.000; -153.000
253.499;  -95.600; -374.000; -234.000
253.641; -163.800; -749.000; -594.000
253.783; -212.900; -609.000; -527.000
253.925; -184.100; -586.000; -591.000
254.067; -215.400; -744.000; -667.000
254.209;  -52.900; -391.000; -259.000
254.351; -265.200; -865.000; -883.000
254.493; -127.000; -441.000; -417.000
254.635; -230.500; -936.000; -818.000
254.777; -182.900; -752.000; -687.000
254.918; -136.200; -512.000; -430.000
255.060; -115.000; -551.000; -395.000
255.202; -101.400; -473.000; -261.000
255.344; -153.300; -658.000; -455.000
255.486; -125.400; -471.000; -406.000
255.628; -218.200; -780.000; -781.000
255.770; -166.900; -676.000; -536.000
255.912;  -91.600; -559.000; -468.000
256.053; -184.300; -730.000; -508.000
256.195;  352.000; 1008.000;  903.000
256.337; -194.500; -861.000; -595.000
256.479;  153.700;  532.000;  416.000
256.621;  -68.300; -394.000; -212.000
256.762; -159.100; -789.000; -742.000
256.904;  119.800;  485.000;  487.000
257.046;  -58.600; -381.000; -271.000
257.188;  -69.100; -351.000; -264.000
257.329; -161.100; -525.000; -464.000
257.471; -264.800; -939.000; -807.000
257.613;  -91.900; -584.000; -498.000
257.755; -289.700;-1073.000; -982.000
257.896;   60.800;  286.000;  392.000
258.038; -112.500; -403.000; -352.000
258.180;  -85.800; -354.000; -279.000
258.321; -139.800; -581.000; -457.000
258.463;   17.800;  -71.000;  133.000
258.605; -173.500; -562.000; -570.000
258.746; -204.900; -886.000; -772.000
258.888; -279.700;-1026.000;-1020.000
259.029;   61.700;  121.000;   -8.000
259.171; -170.800; -614.000; -550.000
259.313;   14.200;  -49.000;  -47.000
259.454; -135.600; -536.000; -414.000
259.596; -107.900; -483.000; -390.000
259.737; -118.400; -590.000; -474.000
259.879;  102.500;  217.000;  311.000
260.020;  191.400;  901.000;  636.000
260.162;  -69.600; -146.000; -253.000
260.303; -237.500; -768.000; -687.000
260.445; -159.200; -609.000; -613.000
260.586;   74.100;  392.000;  157.000
260.728;  -58.100; -360.000; -248.000
260.869; -128.300; -350.000; -343.000
261.011;  213.100;  706.000;  537.000
261.152; -125.100; -479.000; -319.000
261.293; -144.600; -576.000; -595.000
261.435;  -38.500; -219.000; -184.000
261.576;  -75.600; -455.000; -325.000
261.718;  109.200;  420.000;  470.000
261.859; -276.600; -940.000; -949.000
262.000; -225.200; -951.000;-1016.000
262.142;  -17.700;  -52.000;  -60.000
262.283; -239.000; -808.000; -691.000
262.424; -171.000; -666.000; -625.000
262.566; -299.000;-1161.000; -983.000
262.707; -230.000; -840.000; -830.000
262.848; -247.500; -769.000; -726.000
262.990;  -74.800; -362.000; -345.000
263.131;  193.400;  650.000;  681.000
263.272;  -10.300;  -61.000;  -41.000
263.413; -139.300; -589.000; -561.000
263.555; -125.300; -669.000; -143.000
263.696; -182.000; -550.000; -641.000
263.837; -101.300; -449.000; -551.000
263.978;   10.400;   -5.000;  -77.000
264.119;  -73.500; -283.000; -264.000
264.261; -189.900; -847.000; -630.000
264.402;   33.400;   33.000;   40.000
264.543; -157.700; -509.000; -524.000
264.684;  -18.600;   61.000;  -50.000
264.825; -124.700; -816.000; -538.000
264.966;   34.800;  -84.000;  -67.000
265.107; -247.300; -646.000; -670.000
265.248; -255.200; -825.000; -812.000
265.390;   10.300;  152.000;   -9.000
265.531;  -10.500; -238.000; -107.000
265.672; -201.200; -557.000; -630.000
265.813;  163.500;  563.000;  439.000
265.954; -276.000; -959.000; -940.000
266.095;    0.500; -372.000; -322.000
266.236; -151.500; -686.000; -548.000
266.377;  -69.700; -243.000; -297.000
266.518; -119.800; -619.000; -547.000
266.659;   81.000;  170.000;  268.000
266.800;   83.600;   83.000;   85.000
266.941; -139.900; -487.000; -478.000
267.082;   69.200;  354.000;   99.000
267.223;  -61.000; -344.000; -273.000
267.364; -235.100; -892.000; -686.000
267.504;   -9.500;    3.000;  135.000
267.645;   13.100;  160.000;   67.000
267.786;  -60.400; -147.000;  -86.000
267.927; -103.400; -473.000; -379.000
268.068;  -13.600; -186.000;  -61.000
268.209;  -75.600; -175.000; -413.000
268.350; -107.200; -388.000; -532.000
268.490; -176.800; -648.000; -521.000
268.631;   75.500;  127.000;  225.000
268.772; -219.700; -874.000; -647.000
268.913;  -49.300; -328.000; -476.000
269.054;   19.400; -117.000;   12.000
269.194;  -62.200; -418.000; -402.000
269.335; -312.700;-1137.000;-1074.000
269.476;  -17.000;   33.000;  -35.000
269.617;  -71.600; -347.000; -392.000
269.757; -197.800; -713.000; -646.000
269.898; -202.800; -856.000; -613.000
270.039; -136.600; -415.000; -405.000
270.180; -254.900; -952.000; -816.000
270.320;  -45.700; -190.000; -250.000
270.461;  -61.700; -277.000; -249.000
270.602;   10.800; -186.000; -156.000
270.742; -230.000; -868.000; -943.000
270.883; -108.000; -442.000; -390.000
271.023;  -72.800; -358.000; -357.000
271.164; -104.200; -607.000; -528.000
271.305; -183.300; -666.000; -654.000
271.445; -187.300; -722.000; -683.000
271.586;  -78.700; -462.000; -283.000
271.726;  -65.000; -397.000; -322.000
271.867; -108.800; -594.000; -534.000
272.008;  349.000; -473.000; -285.000
272.148;  270.600;  462.000;  468.000
272.289;   40.800; -113.000; -181.000
272.429;   65.500;   19.000;  185.000
272.570; -196.700; -633.000; -737.000
272.710; -222.300; -825.000; -775.000
272.851;  -44.200;  113.000; -130.000
272.991; -296.900;-1173.000;-1077.000
273.131; -106.900; -419.000; -459.000
273.272; -169.600; -683.000; -723.000
273.412;   53.400; -143.000;  -31.000
273.553;  -71.200; -488.000; -507.000
273.693;  289.400;  913.000;  858.000
273.834; -153.400; -894.000; -692.000
273.974; -104.000; -664.000; -615.000
274.114; -178.500; -772.000; -560.000
274.255;  154.900;  414.000;  373.000
274.395;   25.800; -180.000; -125.000
274.535;   51.000;  199.000;  350.000
274.676;   95.200;  225.000;   94.000
274.816;   33.200;  110.000;   34.000
274.956; -159.200; -624.000; -690.000
275.097; -154.400;-1014.000; -922.000
275.237; -204.500; -913.000; -803.000
275.377; -169.300; -778.000; -689.000
275.517; -276.600; -878.000; -937.000
275.658; -100.600; -590.000; -555.000
275.798; -118.800; -606.000; -413.000
275.938;   70.400;  215.000;  323.000
276.078; -121.100; -626.000; -395.000
276.218;   42.300;   99.000;  104.000
276.359; -249.300;-1026.000;-1024.000
276.499; -160.200; -605.000; -446.000
276.639;  -34.000; -305.000; -151.000
276.779;  -87.900; -475.000; -357.000
276.919; -190.500; -783.000; -624.000
277.059;  -10.900; -261.000; -212.000
277.199;  -81.000; -357.000; -259.000
277.340;  110.400;  287.000;  175.000
277.480; -217.100; -840.000; -693.000
277.620;   81.200;  192.000;   16.000
277.760; -380.200;-1533.000;-1294.000
277.900;   27.900;  113.000;   33.000
278.040;   87.900;  137.000;  159.000
278.180;  124.300;  270.000;  170.000
278.320;   32.800;   21.000;   56.000
278.460; -133.600; -443.000; -469.000
278.600; -169.900; -708.000; -598.000
278.740;  110.600;  448.000;  224.000
278.880;  -98.400; -768.000; -791.000
279.020;   73.900; -194.000; -144.000
279.160; -177.400; -672.000; -595.000
279.300; -225.600; -926.000; -873.000
279.440; -170.800; -709.000; -622.000
279.579;  -92.600;-1014.000; -929.000
279.719;  -65.600; -410.000; -394.000
279.859;  156.300;   -4.000;   41.000
279.999;   81.800; -208.000;  101.000
280.139;  -63.800; -435.000; -387.000
280.279; -153.000; -708.000; -745.000
280.419;    5.600; -229.000; -147.000
280.559;  -29.300; -259.000; -180.000
280.698; -178.500; -790.000; -639.000
280.838; -171.700; -778.000; -800.000
280.978; -197.300; -846.000; -790.000
281.118; -210.600; -811.000; -704.000
281.257;   20.800;   24.000;    6.000
281.397; -206.000;-1094.000; -960.000
281.537; -148.600; -599.000; -712.000
281.677;    0.300; -150.000; -101.000
281.816; -156.100; -700.000; -630.000
281.956;  -78.100; -193.000; -257.000
282.096;  -83.300; -539.000; -396.000
282.235; -190.100; -672.000; -638.000
282.375;    3.500; -243.000;  -98.000
282.515; -161.800; -715.000; -707.000
282.654;   83.900;   29.000;  106.000
282.794;   87.700;  388.000;  244.000
282.934;  -72.600; -530.000; -491.000
283.073; -250.300;-1030.000; -857.000
283.213; -111.100; -460.000; -467.000
283.353;  -45.200; -408.000; -349.000
283.492;  -16.700; -264.000; -296.000
283.632;  -62.600; -254.000; -168.000
283.771; -182.000; -859.000; -730.000
283.911; -112.000; -369.000; -260.000
284.050; -195.700; -794.000; -748.000
284.190; -312.400;-1229.000;-1096.000
284.329; -276.800;-1055.000; -964.000
284.469; -115.000; -516.000; -591.000
284.608; -110.900; -559.000; -598.000
284.748; -160.200; -614.000; -570.000
284.887;   33.000;  -87.000;  -20.000
285.027; -235.400; -844.000; -892.000
285.166;  -41.500; -192.000; -249.000
285.306;   64.500; -116.000;  -33.000
285.445;  -36.900; -229.000; -343.000
285.584; -164.400; -630.000; -494.000
285.724;  -74.500; -282.000; -322.000
285.863; -224.300; -857.000; -507.000
286.002;  -94.500; -366.000; -276.000
286.142; -210.900; -715.000; -622.000
286.281;  -98.900; -525.000; -493.000
286.420; -151.100; -554.000; -417.000
286.560;  226.300;  653.000;  623.000
286.699; -272.400; -958.000; -912.000
286.838; -154.900; -590.000; -591.000
286.978; -120.800; -533.000; -537.000
287.117; -273.400;-1085.000; -950.000
287.256;  -23.100; -228.000; -211.000
287.395;  -65.300; -197.000; -378.000
287.535;  -73.800; -370.000; -298.000
287.674; -163.200; -509.000; -484.000
287.813;  176.300;  661.000;  533.000
287.952; -242.900;-1010.000; -871.000
288.091; -261.400;-1049.000; -915.000
288.231;   71.200;   13.000;   15.000
288.370; -349.000;-1217.000;-1200.000
288.509; -155.600; -728.000; -645.000
288.648; -163.200; -770.000; -548.000
288.787;  -52.100; -243.000;  -87.000
288.926;  -72.700; -454.000; -475.000
289.065;  265.400;  859.000;  672.000
289.204;  -79.300; -377.000; -217.000
289.344; -170.100; -791.000; -690.000
289.483;   78.300;  416.000;  304.000
289.622;  -39.700; -291.000; -149.000
289.761;   39.200; -309.000; -166.000
289.900; -198.700; -785.000; -626.000
290.039;   16.200;  -12.000;  -95.000
290.178;  -47.100; -274.000; -180.000
290.317; -122.500; -618.000; -479.000
290.456; -111.400; -463.000; -451.000
290.595; -279.100; -961.000; -833.000
290.734; -270.200; -904.000; -891.000
290.873; -110.300; -456.000; -420.000
291.011; -203.800; -833.000; -843.000
291.150; -179.100; -770.000; -682.000
291.289;  -41.200; -343.000; -110.000
291.428; -162.200; -599.000; -480.000
291.567;  -64.700; -370.000; -442.000
291.706;   61.500;  109.000;  154.000
291.845; -160.200; -597.000; -505.000
291.984; -309.600;-1234.000;-1061.000
292.122;  162.500;  602.000;  582.000
292.261;  120.100;  620.000;  463.000
292.400;   53.300; -144.000;  211.000
292.539; -256.000; -959.000; -813.000
292.678;  -78.300; -325.000; -300.000
292.816; -288.000;-1136.000; -965.000
292.955; -179.700; -844.000; -684.000
293.094;  -57.200; -173.000; -337.000
293.233;  -68.200; -556.000; -400.000
293.371;  -34.300; -225.000;  -84.000
293.510; -186.300; -866.000; -780.000
293.649; -226.500; -959.000; -924.000
293.787; -116.600;-1083.000;-1012.000
293.926;   24.800; -113.000;  -32.000
294.065;  -52.200; -379.000; -290.000
294.203;  147.800;  298.000;  406.000
294.342;   77.200;   74.000;  156.000
294.481;14914.500;51180.000; -836.000
294.619;   -8.700; -425.000; -582.000
294.758; -277.000;-1230.000;-1137.000
294.896;  161.300; -125.000;    5.000
295.035; -242.200;-1040.000;-1006.000
295.174; -230.100;-1082.000; -954.000
295.312;  -13.800; -323.000; -203.000
295.451;   18.200; -307.000; -428.000
295.589;  -76.200; -389.000; -518.000
295.728;   95.700; -292.000; -165.000
295.866;   25.400;  -36.000;  -51.000
296.005; -120.600; -584.000; -341.000
296.143; -104.800; -558.000; -596.000
296.282; -194.100; -957.000; -881.000
296.420; -147.900; -657.000; -557.000
296.559; -150.600; -892.000; -633.000
296.697;   49.600; -847.000; -665.000
296.835;  109.200;-1141.000;-1002.000
296.974;  156.400;  -23.000;   39.000
297.112;   22.200; -443.000; -504.000
297.251; -119.500; -815.000; -755.000
297.389;  157.100; -576.000; -438.000
297.527;  103.600; -145.000;  -83.000
297.666;  -70.400; -486.000; -438.000
297.804;  -73.700; -404.000; -264.000
297.942;   25.100; -136.000; -161.000
298.081;   38.000; -183.000;   63.000
298.219;  149.400;  -17.000;  -19.000
298.357;  127.200; -144.000;  -71.000
298.495;   73.900; -810.000; -812.000
298.634;  196.000;  245.000;  219.000
298.772;  148.200; -220.000; -338.000
298.910;  -42.700; -309.000; -182.000
299.048;   26.100; -130.000; -153.000
299.187;  -55.400; -350.000; -250.000
299.325;   90.400;   52.000;  122.000
299.463;   95.200; -389.000; -299.000
299.601;  251.900; -327.000; -271.000
299.739; -175.800; -908.000; -883.000
299.877; -145.800; -791.000; -703.000
300.016; -104.700;-1095.000; -935.000
300.154;  289.900;  -19.000; -161.000
300.292;  109.800; -428.000; -348.000
300.430;   56.000; -408.000; -291.000
300.568; -196.500; -940.000; -874.000
300.706;  -61.600; -366.000; -469.000
300.844; -161.900;-1108.000; -979.000
300.982;  297.000;  246.000;  282.000
301.120; -209.700; -965.000; -866.000
301.258; -122.200; -812.000; -705.000
301.396;   78.400;  104.000;  -41.000
301.534;  149.600; -218.000; -293.000
301.672;   17.500; -664.000; -521.000
301.810;   77.900; -613.000; -545.000
301.948;  327.300;   53.000;  149.000
302.086; 1113.200; -250.000;  -32.000
302.224; 1772.900; -610.000; -585.000
302.362;   84.400; -558.000; -622.000
302.500;   -9.000; -923.000; -893.000
302.638;  253.800;  128.000;  245.000
302.776;   37.300; -352.000; -408.000
302.913;  147.900;  447.000;  236.000
303.051;   27.300;  -86.000;  -23.000
303.189;  127.200;   90.000;  118.000
303.327;  -24.700; -341.000; -256.000
303.465; -128.800; -832.000; -588.000
303.603; -141.100; -805.000; -604.000
303.740;  220.300;  417.000;  241.000
303.878;   60.000; -800.000; -759.000
304.016; -122.600; -915.000; -790.000
304.154; -263.600;-1123.000;-1152.000
304.291;  -29.800; -505.000; -554.000
304.429;   41.100;  102.000;   74.000
304.567; -266.000; -908.000; -893.000
304.705;  -26.800; -408.000; -515.000
304.842;  175.600; -616.000; -540.000
304.980;  160.400;  215.000;   35.000
305.118;  113.000; -367.000; -365.000
305.255; -100.900; -945.000; -927.000
305.393;  113.000;  178.000;  239.000
305.531; -201.300;-1173.000; -956.000
305.668; -107.400; -663.000; -582.000
305.806;  190.600; -358.000; -439.000
305.943;  187.200; -629.000; -637.000
306.081;  125.200; -378.000; -267.000
306.219; -203.200; -863.000; -748.000
306.356;   10.900;  158.000;   27.000
306.494;  286.400;  981.000;  761.000
306.631;    3.800;  -11.000;  -55.000
306.769;   47.500; -613.000; -485.000
306.906;   -1.300; -284.000; -258.000
307.044;  -95.600; -473.000; -488.000
307.181;  -85.000; -410.000; -332.000
307.319;  134.900;  112.000;   87.000
307.456; -331.000;-1191.000;-1153.000
307.594; -160.100; -980.000; -727.000
307.731;   28.900; -371.000; -164.000
307.868;   26.200;  -15.000;   20.000
308.006; -220.700; -961.000; -847.000
308.143;  -74.700; -618.000; -330.000
308.281;  483.800;  -37.000; -254.000
308.418;   88.500; -748.000; -640.000
308.555;  -81.400; -400.000; -250.000
308.693;  -82.000; -577.000; -573.000
308.830; -133.100; -712.000; -657.000
308.967;   19.800; -215.000;  -95.000
309.105;   -4.100; -507.000; -396.000
309.242;  138.700; -468.000; -367.000
309.379;  950.800; -577.000; -655.000
309.517;  -50.500; -936.000; -948.000
309.654; -177.300; -910.000; -734.000
309.791; -138.900; -662.000; -580.000
309.928; -178.200; -977.000; -914.000
310.065;  393.100;  819.000;  697.000
310.203;  -18.600; -825.000; -850.000
310.340;   34.900; -465.000; -321.000
310.477; -117.500; -412.000; -516.000
310.614; -102.200; -383.000; -473.000
310.751; -112.500; -427.000; -518.000
310.889;    7.700;    1.000;   11.000
311.026; -280.500;-1161.000; -939.000
311.163;  -45.300; -386.000; -380.000
311.300;  -80.500; -512.000; -479.000
311.437; -106.100; -658.000; -619.000
311.574; -282.000;-1226.000; -985.000
311.711;  -95.100; -595.000; -433.000
311.848;   -9.300; -380.000; -388.000
311.985;   81.100;  270.000;   93.000
312.122; -209.000; -932.000; -762.000
312.259; -204.100; -941.000; -994.000
312.396; -112.700; -508.000; -551.000
312.533; -144.900; -812.000; -790.000
312.670; -235.700;-1070.000; -898.000
312.807;  -28.800; -352.000; -367.000
312.944; -105.600; -513.000; -611.000
313.081;    1.900; -150.000; -415.000
313.218; -220.000;-1111.000; -867.000
313.355;   37.000; -531.000; -449.000
313.492;   45.300; -455.000; -292.000
313.629;  348.100;  815.000;  735.000
313.766; -278.900;-1176.000;-1008.000
313.902;   53.100; -186.000;   21.000
314.039;  -29.400; -372.000; -289.000
314.176;  105.900;  286.000;  192.000
314.313; -113.300; -569.000; -473.000
314.450; -117.700; -788.000; -684.000
314.587;  -78.400; -468.000; -480.000
314.723;   63.500;  -78.000;  130.000
314.860;  113.700;  318.000;  332.000
314.997;   89.600;  223.000;  142.000
315.134;  -29.400; -385.000; -368.000
315.270;  -24.300; -480.000; -496.000
315.407; -234.300;-1094.000; -967.000
315.544;  -72.400; -657.000; -538.000
315.681;  -94.900; -681.000; -565.000
315.817;   72.000; -133.000; -176.000
315.954;   52.800; -613.000; -392.000
316.091; -231.100;-1045.000;-1023.000
316.227;    7.700;  -71.000; -179.000
316.364;   54.300;   23.000;    6.000
316.500;  -22.900; -113.000; -300.000
316.637;  -52.600; -181.000; -302.000
316.774; -149.800; -625.000; -358.000
316.910; -137.500; -598.000; -629.000
317.047;  -68.200; -487.000; -351.000
317.183;  -65.500; -435.000; -566.000
317.320;   25.900; -367.000; -321.000
317.456; -151.400; -733.000; -805.000
317.593; -145.400; -598.000; -641.000
317.729;   61.500;  168.000;  -67.000
317.866; -387.900;-1434.000;-1285.000
318.002; -133.500; -708.000; -948.000
318.139; -138.000; -883.000; -867.000
318.275; -177.700;-1003.000; -738.000
318.412; -103.600; -517.000; -336.000
318.548;  -54.900; -751.000; -720.000
318.685; -166.100; -985.000; -888.000
318.821; -162.000; -762.000; -735.000
318.957;   -0.900;   34.000;  -23.000
319.094;  135.100;  297.000;  154.000
319.230; -107.200; -756.000; -742.000
319.367;  223.200; -471.000; -520.000
319.503;  126.700; -538.000; -436.000
319.639; -148.400; -877.000; -793.000
319.775;  -78.600; -750.000; -685.000
319.912;  -88.700; -424.000; -519.000
320.048; -157.300;-1184.000;-1184.000
320.184;  186.200;   59.000;   70.000
320.321;  -70.700; -497.000; -467.000
320.457;  177.700;  475.000;  662.000
320.593; -107.000; -375.000; -382.000
320.729; -213.900; -732.000; -734.000
320.866;  -93.400; -577.000; -635.000
321.002; -144.800; -759.000; -809.000
321.138;   19.800; -135.000; -211.000
321.274;  214.700; -148.000; -115.000
321.410;  -21.200; -585.000; -353.000
321.546;  -43.400;-1011.000; -911.000
321.683;  154.300;  400.000;  185.000
321.819;   38.900;  -48.000; -117.000
321.955; -169.700; -743.000; -722.000
322.091;  -73.900; -585.000; -540.000
322.227;    9.700; -382.000; -202.000
322.363;  -18.000; -320.000; -215.000
322.499;  -47.100; -343.000; -331.000
322.635;  385.100;  636.000;  443.000
322.771;   69.500; -139.000;   12.000
322.907;  213.500;  129.000;  327.000
323.043;   -0.600; -115.000; -206.000
323.179;  -72.500; -394.000; -363.000
323.315;   81.700; -401.000; -371.000
323.451;  244.500; -328.000; -236.000
323.587;  166.700;  -60.000;  -77.000
323.723;   56.100; -682.000; -601.000
323.859;   -2.200; -258.000;  -76.000
323.995;  -36.900; -467.000; -409.000
324.131; -186.000; -967.000; -892.000
324.267;  -40.000; -254.000; -276.000
324.402; -245.300; -960.000; -983.000
324.538;    7.900; -279.000; -104.000
324.674;   80.100;  164.000;   77.000
324.810;  305.800;  226.000;  308.000
324.946;   53.600; -810.000; -658.000
325.082; -112.900; -568.000; -475.000
325.217;   42.300;  -62.000;   16.000
325.353; -178.600; -764.000; -659.000
325.489; -152.900; -540.000; -506.000
325.625; -131.500; -579.000; -525.000
325.760;  185.400;  517.000;  376.000
325.896;  -49.700; -515.000; -702.000
326.032;  -90.800; -403.000; -352.000
326.168;  -54.700; -462.000; -369.000
326.303;  -78.300; -352.000; -461.000
326.439;  -20.800; -336.000; -276.000
326.575;   41.100; -190.000;  -29.000
326.710;   21.300; -156.000;  -30.000
326.846;    7.800;  146.000;  103.000
326.982; -150.100; -530.000; -548.000
327.117; -137.200; -481.000; -442.000
327.253; -130.900; -745.000; -742.000
327.388; -201.500;-1137.000;-1153.000
327.524;  -70.400; -811.000; -578.000
327.659;   12.200;  -58.000;  -22.000
327.795;   24.400;   69.000;   45.000
327.931; -131.800; -723.000; -499.000
328.066;   -4.500; -417.000; -276.000
328.202;   59.600;   12.000; -129.000
328.337;  220.500;  957.000;  713.000
328.473;    3.500;  -12.000;  -74.000
328.608;  -17.900; -256.000; -267.000
328.743; -124.100; -799.000; -664.000
328.879;   96.900;  214.000;  114.000
329.014;  -98.600; -102.000; -122.000
329.150; -142.600; -358.000; -483.000
329.285; -139.500; -465.000; -466.000
329.421;  -60.300; -548.000; -246.000
329.556;   31.100;  -36.000;   85.000
329.691; -165.100; -633.000; -615.000
329.827; -133.900; -626.000; -480.000
329.962;  -53.900;  131.000; -301.000
330.097; -158.000; -673.000; -585.000
330.233;  -49.400; -410.000; -223.000
330.368; -226.900; -839.000; -628.000
330.503;   19.100;    3.000;   98.000
330.638;   49.600;  -93.000; -125.000
330.774; -104.400; -609.000; -530.000
330.909;  -33.500; -434.000; -244.000
331.044; -160.200; -714.000; -708.000
331.179; -324.500;-1217.000;-1109.000
331.315;   71.600;   77.000;   20.000
331.450;   70.500;  157.000;  285.000
331.585; -168.200; -805.000; -706.000
331.720; -139.700; -510.000; -460.000
331.855;   17.300;  -35.000; -102.000
331.990;  440.000;   62.000;  138.000
332.126;  252.400; -110.000;   71.000
332.261;   -7.900; -379.000; -265.000
332.396;   11.800; -135.000; -242.000
332.531; -166.400;-1074.000;-1031.000
332.666;   93.700; -519.000; -363.000
332.801; -155.700; -726.000; -807.000
332.936;  -39.300; -192.000; -122.000
333.071; -228.600; -870.000; -817.000
333.206;   48.600;  307.000;  379.000
333.341;  149.900;  344.000;  418.000
333.476; -163.600; -627.000; -623.000
333.611;   -9.100; -251.000; -173.000
333.746;  -58.800; -381.000; -464.000
333.881; -178.700; -973.000; -935.000
334.016; -218.700; -936.000; -917.000
334.151; -199.400; -746.000; -702.000
334.286;   98.800;  152.000;  186.000
334.421;   48.200; -125.000; -178.000
334.556; -126.400; -611.000; -567.000
334.690; -131.400; -631.000; -577.000
334.825;  149.300;  381.000;   83.000
334.960;  -80.100; -285.000; -413.000
335.095;   39.000;  135.000;  -91.000
335.230; -141.300; -722.000; -738.000
335.365; -235.100;-1084.000; -990.000
335.499; -246.300;-1108.000;-1037.000
335.634;  118.500;    9.000;  534.000
335.769; -150.600; -755.000; -720.000
335.904;  -80.600; -603.000; -561.000
336.038;  -63.800; -735.000; -657.000
336.173; -200.000;-1206.000;-1194.000
336.308;   61.300; -116.000; -189.000
336.443;   61.500; -544.000; -634.000
336.577; -111.800; -936.000; -787.000
336.712;  154.800;   -4.000;  -12.000
336.847;  -50.000; -724.000; -607.000
336.981;  137.700; -272.000; -208.000
337.116;  606.500;  615.000;  501.000
337.250;  352.200; -434.000; -421.000
337.385;  452.200; -297.000; -208.000
337.520;  144.900; -632.000; -603.000
337.654;  -47.300; -215.000; -126.000
337.789; -225.400; -989.000; -933.000
337.923;  -24.200; -104.000; -205.000
338.058; -145.900; -673.000; -738.000
338.192;  -29.100; -611.000; -488.000
338.327;   19.900;  -18.000; -155.000
338.461;  -82.200; -299.000; -469.000
338.596; -143.300; -780.000; -638.000
338.730; -168.000; -767.000; -803.000
338.865;  178.600;  -46.000; -140.000
338.999;  -85.000; -846.000; -702.000
339.134;  -34.300; -634.000; -536.000
339.268;   31.600; -741.000; -603.000
339.403;  635.000; -740.000; -775.000
339.537;  167.700; -894.000; -820.000
339.671; -183.600; -829.000; -813.000
339.806;  -92.600; -556.000; -512.000
339.940;   83.600; -261.000; -235.000
340.074; -151.800; -685.000; -510.000
340.209;  -37.900; -351.000; -230.000
340.343; -144.200; -517.000; -573.000
340.477;  375.300;  998.000; 1036.000
340.612; -113.600;-1033.000; -900.000
340.746;  249.300; -199.000; -243.000
340.880; -117.600; -924.000; -785.000
341.014;   -9.100;  -45.000; -154.000
341.149; -204.200; -756.000; -718.000
341.283; -169.400; -839.000; -754.000
341.417; -153.000;-1124.000; -938.000
341.551;  292.100; -768.000; -708.000
341.685;  -42.200; -633.000; -611.000
341.820;  -81.300; -562.000; -493.000
341.954;  -66.800; -218.000; -349.000
342.088; -271.600;-1102.000;-1019.000
342.222;  120.900;  565.000;  618.000
342.356;  -73.500; -395.000; -335.000
342.490; -153.500; -880.000; -841.000
342.624;  -77.900; -339.000; -242.000
342.758;   31.500; -364.000; -312.000
342.892; -110.800; -710.000; -585.000
343.026;  -20.300;  -58.000; -116.000
343.160;  -88.200; -426.000; -376.000
343.294; -101.900; -474.000; -337.000
343.428;  -30.000; -488.000; -448.000
343.562;   -1.000; -172.000;  -23.000
343.696;    2.800; -385.000; -314.000
343.830;   16.800; -362.000; -356.000
343.964;   86.800; -231.000; -168.000
344.098; 1758.200;  199.000;   70.000
344.232; 1412.100; -266.000; -127.000
344.366;  185.800; -567.000; -453.000
344.500;  177.200; -665.000; -744.000
344.634;   99.500; -324.000; -164.000
344.768;   -2.600; -531.000; -341.000
344.902;  111.000;  278.000;  256.000
345.035; -110.700; -556.000; -496.000
345.169; -229.300; -933.000; -656.000
345.303;  -24.600; -308.000; -482.000
345.437; -113.600; -826.000; -717.000
345.571; -101.500; -675.000; -594.000
345.704;  -68.500; -309.000; -532.000
345.838;    8.000; -331.000; -284.000
345.972;  -20.100; -543.000; -495.000
346.106;  319.600; -179.000; -190.000
346.239;  844.400; -312.000; -243.000
346.373;   57.200; -343.000; -302.000
346.507; -238.900; -950.000; -962.000
346.640;  314.200;  -30.000;   13.000
346.774;  -70.900; -650.000; -797.000
346.908;   41.700; -138.000;  -11.000
347.041; -131.900; -646.000; -593.000
347.175;   51.400;  259.000;   27.000
347.309;  -95.100; -698.000; -628.000
347.442; -166.100; -883.000; -732.000
347.576;  590.300;  670.000;  668.000
347.709;  408.100; -123.000;  -52.000
347.843; -134.300; -933.000; -825.000
347.976;  135.700;  235.000;  294.000
348.110; -344.400;-1268.000;-1186.000
348.243; -181.500; -679.000; -772.000
348.377;   44.200;  -26.000;   60.000
348.510;  148.500;  403.000;  540.000
348.644;  -16.600;  -37.000; -159.000
348.777;   61.700;  180.000;  191.000
348.911;  -29.900; -142.000; -112.000
349.044;  381.200;  471.000;  448.000
349.178;  307.500;-1069.000;-1006.000
349.311;  294.600;  141.000;  255.000
349.444;    7.000; -927.000; -813.000
349.578;  -10.900; -347.000; -200.000
349.711; -149.800; -959.000; -862.000
349.845;   -7.700; -661.000; -591.000
349.978; -285.200;-1224.000;-1137.000
350.111; -126.000; -546.000; -612.000
350.244; -114.700; -596.000; -700.000
350.378;   55.700; -392.000; -393.000
350.511;  -72.000; -393.000; -426.000
350.644; -188.900; -808.000; -806.000
350.778;   88.100;  168.000;  104.000
350.911;   35.300;  134.000;  140.000
351.044; -141.200; -685.000; -615.000
351.177;   -6.500; -321.000; -281.000
351.310;   51.200;    3.000; -131.000
351.444; -119.600; -888.000; -788.000
351.577;  306.600;  140.000;   90.000
351.710;  238.200;  593.000;  417.000
351.843;    9.100; -165.000;  -77.000
351.976;   38.100;  149.000;  -79.000
352.109; -154.300; -621.000; -612.000
352.242;    0.600; -464.000; -419.000
352.376;  -78.500; -580.000; -636.000
352.509;  384.100; -437.000; -356.000
352.642;   30.700; -654.000; -604.000
352.775;  170.000; -141.000;  -98.000
352.908; -193.400; -933.000; -904.000
353.041; -180.300; -814.000; -824.000
353.174;  -74.700; -551.000; -424.000
353.307; -131.800; -753.000; -764.000
353.440;  225.700;  541.000;  453.000
353.573; -199.300; -957.000;-1008.000
353.706;  -15.100; -384.000; -558.000
353.839;    3.800; -264.000; -220.000
353.971; -125.200; -657.000; -512.000
354.104; -112.700; -896.000; -835.000
354.237;  -45.600; -627.000; -662.000
354.370; -150.100; -846.000; -879.000
354.503; -319.600;-1231.000;-1308.000
354.636;  -19.900; -529.000; -348.000
354.769; -232.200; -937.000; -860.000
354.902;    5.400; -230.000; -139.000
355.034;    6.400; -164.000; -220.000
355.167;   -7.200; -262.000; -162.000
355.300; -149.100;-1061.000; -880.000
355.433; 1690.500;  -71.000;  -14.000
355.565; 2619.400; -402.000; -384.000
355.698;  693.200; -356.000; -296.000
355.831;   13.000; -882.000; -801.000
355.964;  204.900; -285.000; -170.000
356.096; -111.800; -856.000; -843.000
356.229;   56.700; -523.000; -530.000
356.362;  585.500; -373.000; -266.000
356.494; 1114.500; -229.000; -162.000
356.627;  963.600;  269.000;  377.000
356.760; 1223.400;  120.000;   53.000
356.892; 1635.400; -286.000; -601.000
357.025; 1229.300;  403.000;  389.000
357.157; 1173.700; -167.000; -179.000
357.290; 1158.600; -856.000; -713.000
357.423;  328.800; -667.000; -556.000
357.555;  254.400; -217.000; -228.000
357.688;  278.400; -483.000; -364.000
357.820;  860.700; -870.000; -877.000
357.953; 6814.800; -563.000; -589.000
358.085; 1494.900; -632.000; -612.000
358.218; 2230.000;-1131.000; -932.000
358.350;  451.800;  -58.000;  312.000
358.483; -206.100;-1300.000;-1187.000
358.615;  -47.600;-1182.000;-1078.000
358.747;  -84.000;-1187.000;-1058.000
358.880;   65.200; -810.000; -744.000
359.012;   44.700; -376.000; -202.000
359.145;  -69.000; -480.000; -511.000
359.277;  110.700; -962.000; -913.000
359.409; 5625.600;  536.000;  231.000
359.542; 1449.800; -738.000; -688.000
359.674;  119.600;   46.000;   13.000
359.806;  -82.400; -565.000; -438.000
359.939;  -32.200; -617.000; -516.000
360.071;    3.400; -583.000; -579.000
360.203;  -28.900; -411.000; -364.000
360.335;  145.200;  164.000;  -16.000
360.468;  382.400; -249.000; -307.000
360.600; 4453.500; -547.000; -454.000
360.732; 4889.400; -546.000; -423.000
360.864;  624.100;-1216.000;-1044.000
360.996;  556.400; -516.000; -554.000
361.129;  117.000; -389.000; -598.000
361.261;  111.300;  110.000; -113.000
361.393;  -24.300; -252.000; -214.000
361.525;  114.500;   94.000;  244.000
361.657;  -58.500; -821.000; -703.000
361.789;   53.400; -139.000; -155.000
361.921;  468.000; -642.000; -593.000
362.053;  543.100;  524.000;  541.000
362.185;  151.000;  288.000;   72.000
362.318; -123.800; -709.000; -705.000
362.450;  292.100;  294.000;  444.000
362.582;  243.200; -913.000; -870.000
362.714;  -13.900; -353.000; -332.000
362.846; -130.900; -606.000; -490.000
362.978; -231.500; -941.000; -811.000
363.109;   98.000; -161.000; -260.000
363.241;  854.900; -739.000; -749.000
363.373;  772.900; -649.000; -564.000
363.505; 1174.300; -186.000;  -91.000
363.637;  290.700; -787.000; -601.000
363.769; -230.800;-1067.000;-1080.000
363.901; -104.600; -596.000; -654.000
364.033; -211.500;-1103.000;-1062.000
364.165;   38.500; -283.000; -283.000
364.296;  183.800; -316.000; -177.000
364.428;   99.600;-1344.000;-1220.000
364.560;  -90.700; -679.000; -661.000
364.692;  -93.800; -738.000; -835.000
364.824;  533.200; -588.000; -456.000
364.955;  807.700; -402.000; -564.000
365.087; 1560.500;-1097.000; -852.000
365.219;   73.300; -686.000; -816.000
365.351;  -95.700; -526.000; -572.000
365.482;  180.700;  300.000;  240.000
365.614;  -17.800; -402.000; -314.000
365.746; -153.300; -729.000; -752.000
365.877; -115.200; -706.000; -672.000
366.009;  463.800;  -35.000;  -62.000
366.141; -194.100;-1249.000;-1134.000
366.272; -147.300; -803.000; -719.000
366.404; -197.400;-1005.000; -874.000
366.535;   17.300; -139.000;  -12.000
366.667; -158.200; -644.000; -649.000
366.799;  125.800;  353.000;  203.000
366.930; -182.700; -862.000; -996.000
367.062;  230.000; -639.000; -613.000
367.193;  255.500; -872.000; -842.000
367.325; -102.400; -580.000; -684.000
367.456;  180.500; -246.000;   31.000
367.588;  344.300; -371.000; -318.000
367.719;  101.100;  -44.000;  -45.000
367.851;    8.500; -222.000; -241.000
367.982;  -43.200; -875.000; -732.000
368.113;  244.200; -475.000; -358.000
368.245; -208.100; -960.000; -841.000
368.376;    3.900; -254.000; -302.000
368.508;    9.800; -188.000; -263.000
368.639; -249.900;-1166.000;-1034.000
368.770;  -14.200; -670.000; -589.000
368.902;  -94.900; -836.000; -926.000
369.033; -144.900; -906.000; -855.000
369.164;  -78.000; -720.000; -653.000
369.296; -161.100; -452.000; -601.000
369.427;   51.300; -209.000; -144.000
369.558;  -60.600; -593.000; -377.000
369.689; -126.700; -721.000; -569.000
369.821; -238.300; -951.000; -845.000
369.952;   30.100;   42.000; -108.000
370.083;  -34.400; -229.000; -108.000
370.214; -126.000; -735.000; -650.000
370.345;   39.000;   65.000;   81.000
370.477; -132.100; -810.000; -790.000
370.608;  525.000; -328.000; -264.000
370.739;  -99.500;-1233.000;-1292.000
370.870;  -35.800;-1102.000; -923.000
371.001;  206.600; -378.000; -467.000
371.132;  -96.300; -754.000; -735.000
371.263;   13.000;  -42.000; -148.000
371.394; -238.500; -841.000; -748.000
371.525;   87.300;  345.000;  225.000
371.657; -131.200; -808.000; -670.000
371.788;  184.200;  103.000;  199.000
371.919;  374.100; -384.000; -304.000
372.050; 6984.300;  -91.000; -156.000
372.181; 1954.500; -188.000; -294.000
372.311;  785.900;   42.000; -127.000
372.442;  127.100; -457.000; -451.000
372.573;   30.500; -444.000; -340.000
372.704; -198.300;-1008.000; -980.000
372.835;  195.800; -228.000; -289.000
372.966;  -67.800; -646.000; -554.000
373.097;  -70.200; -575.000; -711.000
373.228;  -35.000; -717.000; -542.000
373.359;  292.800; -824.000; -536.000
373.490; 1811.100; -881.000; -727.000
373.620; 2178.000;-1001.000; -803.000
373.751; 3525.200; -332.000; -396.000
373.882; 1528.300; -663.000; -733.000
374.013;  190.700; -449.000; -262.000
374.143;  -43.500; -581.000; -659.000
374.274; -181.200; -987.000; -908.000
374.405;  405.700; -388.000; -276.000
374.536;  961.700; -526.000; -387.000
374.666; 2159.600; -759.000; -807.000
374.797;  425.300; -817.000; -868.000
374.928; 1701.600; -710.000; -560.000
375.058; 1720.600; -535.000; -500.000
375.189;  155.500;  -59.000;  -93.000
375.320; -177.500; -928.000;-1034.000
375.450;  -22.100; -625.000; -616.000
375.581;  -41.500; -526.000; -436.000
375.712;  -21.600; -574.000; -250.000
375.842;  598.400; -438.000; -415.000
375.973;  423.400; -554.000; -513.000
376.103;  -53.900; -665.000; -648.000
376.234; -112.500; -531.000; -552.000
376.364;  -42.200; -944.000; -867.000
376.495;  679.700;  925.000;  529.000
376.625;   40.300; -472.000; -485.000
376.756;  188.700; -709.000; -678.000
376.886; -101.600;-1178.000;-1026.000
377.017;  111.000;-1048.000;-1061.000
377.147;  611.400; -786.000; -782.000
377.278;  178.700;  174.000;  228.000
377.408; -204.300; -801.000; -815.000
377.538; -174.700; -707.000; -693.000
377.669;  -84.100; -537.000; -613.000
377.799; -162.000; -645.000; -635.000
377.929;  -93.300; -610.000; -428.000
378.060; -187.700; -781.000; -847.000
378.190;  -44.800; -726.000; -531.000
378.320;  -64.200; -401.000; -406.000
378.451;   44.700; -131.000;  -22.000
378.581;   43.400;  -67.000; -110.000
378.711;  412.200; 1035.000;  866.000
378.841;   -0.800; -533.000; -675.000
378.972; -125.000; -871.000; -751.000
379.102;   48.400; -652.000; -579.000
379.232;    5.900; -126.000;  -73.000
379.362; -194.900;-1001.000; -885.000
379.492;   24.300; -373.000; -424.000
379.623;  279.000;    0.000;  111.000
379.753; -164.200;-1107.000; -974.000
379.883;  452.400;   59.000;  156.000
380.013;   36.800;-1081.000;-1017.000
380.143; -164.000;-1097.000;-1056.000
380.273; -143.600; -985.000; -861.000
380.403;   47.000; -344.000; -257.000
380.533;  -18.700; -651.000; -664.000
380.663;  215.000;  173.000;  128.000
380.793; -154.700;-1027.000;-1074.000
380.923;    3.500; -103.000;  -34.000
381.053; -122.100; -613.000; -623.000
381.183;  -31.800; -106.000; -248.000
381.313;  130.900; -656.000; -470.000
381.443;  119.500; -692.000; -473.000
381.573;  462.100; -402.000; -409.000
381.703;  540.000;-1249.000;-1095.000
381.833; -205.700;-1454.000;-1336.000
381.963;  263.300; -134.000;  -87.000
382.093; 2659.200; -925.000; -909.000
382.223;  796.600; -713.000; -602.000
382.353;   31.200; -801.000; -608.000
382.482;  807.000;-1091.000; -964.000
382.612; 1453.600; -872.000; -644.000
382.742;  857.400; -695.000; -622.000
382.872;  567.300; -565.000; -551.000
383.002;  181.500;  347.000; -132.000
383.131;   -1.100; -226.000; -160.000
383.261;  -49.700; -706.000; -768.000
383.391;  536.000; -552.000; -377.000
383.521; 5654.100;  451.000;  263.000
383.650; 1186.000; -947.000; -904.000
383.780;   -5.700; -783.000; -656.000
383.910;  299.600;  880.000;  802.000
384.039;  103.800; -794.000; -656.000
384.169;  406.700;-1205.000;-1017.000
384.299;  -20.700; -650.000; -662.000
384.428; -134.000; -764.000; -680.000
384.558;  -41.800; -308.000; -275.000
384.687;  -24.500; -414.000; -334.000
384.817;  119.900;   75.000;   -2.000
384.947;  119.700; -234.000; -141.000
385.076;  614.000;  982.000;  912.000
385.206;  282.800;  369.000;  480.000
385.335;   -3.300; -549.000; -417.000
385.465; -118.700; -655.000; -663.000
385.594;  308.700;  -53.000;  -44.000
385.724;  825.800; -868.000; -838.000
385.853;  268.800; -296.000; -270.000
385.982; 2847.400; -743.000; -787.000
386.112; 3980.100;-1052.000; -871.000
386.241;  299.800; -307.000; -312.000
386.371;   95.300; -174.000;  -87.000
386.500;   47.600; -825.000; -789.000
386.629;   68.400; -874.000; -817.000
386.759;  175.400;  -43.000;   68.000
386.888;   56.900; -170.000; -250.000
387.017; -100.300; -648.000; -620.000
387.147; -125.000; -771.000; -798.000
387.276;   53.500; -410.000; -397.000
387.405;   70.000; -398.000; -342.000
387.535;  -32.700; -452.000; -361.000
387.664; -114.600; -692.000; -620.000
387.793;  212.000; -198.000; -113.000
387.922; 1087.200;  255.000;  200.000
388.052;  132.200; -576.000; -423.000
388.181;  126.900; -342.000; -472.000
388.310;   73.000; -889.000; -710.000
388.439;  -50.200; -749.000; -742.000
388.568;  435.200;  365.000;  244.000
388.697; 2085.400; -756.000; -653.000
388.826;  414.400; -768.000; -666.000
388.956;  153.200; -285.000; -307.000
389.085;   24.100; -347.000; -287.000
389.214; -184.600; -842.000; -872.000
389.343;  -52.200; -645.000; -413.000
389.472;  760.700;  126.000;  149.000
389.601; 1000.800;   91.000;    0.000
389.730;   44.200; -568.000; -687.000
389.859;  186.400;  226.000;   46.000
389.988;  404.900; -423.000; -408.000
390.117;  261.700; -168.000; -146.000
390.246;   18.000; -331.000; -320.000
390.375;  222.800; -673.000; -626.000
390.504; -120.600; -703.000; -621.000
390.633; -122.700; -672.000; -726.000
390.761;  -57.600; -732.000; -645.000
390.890;  101.100;   -4.000; -130.000
391.019;    9.600; -421.000; -441.000
391.148; -214.500; -826.000; -855.000
391.277; -101.700; -576.000; -493.000
391.406;  -91.600; -821.000; -805.000
391.534;  148.500;  574.000; -301.000
391.663;  -58.100; -583.000; -645.000
391.792; -117.900; -673.000; -701.000
391.921;  233.800;   -3.000;   15.000
392.050;  427.500; -287.000; -228.000
392.178;  -45.300;-1206.000;-1061.000
392.307;  318.300; -758.000; -712.000
392.436;  154.900; -427.000; -641.000
392.564;  106.100;  166.000;   -6.000
392.693; -163.600; -860.000; -682.000
392.822;  471.600; -529.000; -534.000
392.950;  210.000; -880.000; -714.000
393.079;  678.100; -188.000; -328.000
393.208;   77.000; -488.000; -511.000
393.336;   48.800; -170.000; -145.000
393.465;    9.200; -317.000; -199.000
393.593;   65.900;   62.000;   79.000
393.722; -264.200;-1121.000; -916.000
393.850;  -13.000; -188.000;  -61.000
393.979; -256.200; -926.000; -805.000
394.107;  -81.500; -517.000; -537.000
394.236;   34.900; -570.000; -507.000
394.364;  643.900;  383.000;  206.000
394.493; 1023.700; -911.000; -767.000
394.621;   16.600; -955.000; -916.000
394.750; 1294.400; -873.000; -923.000
394.878; 5340.100; -247.000; -149.000
395.007; 6826.100; -721.000; -807.000
395.135;  496.400; -790.000; -721.000
395.263; -170.100;-1038.000;-1040.000
395.392;   75.500;  -25.000; -107.000
395.520; -236.000; -818.000; -679.000
395.648; -145.000; -865.000; -915.000
395.777;   13.000; -366.000; -405.000
395.905;  -38.800; -449.000; -564.000
396.033;  140.900;  217.000;  172.000
396.162; 1747.500; -399.000; -453.000
396.290; 1406.200;  -17.000;   -2.000
396.418;  259.400; -555.000; -514.000
396.546; -120.700; -571.000; -466.000
396.674; -158.500; -850.000; -878.000
396.803;  104.000;  -72.000;  -23.000
396.931;  247.400; -179.000; -199.000
397.059;  107.200;-1026.000; -989.000
397.187; -196.200;-1026.000; -975.000
397.315; -197.700; -884.000; -649.000
397.443; -145.200; -592.000; -443.000
397.572; -121.600; -578.000; -424.000
397.700;   -3.300; -607.000; -614.000
397.828;   38.200;  120.000;  -90.000
397.956;  -53.100; -508.000; -478.000
398.084; -107.100; -767.000; -626.000
398.212;  108.300;  137.000;  124.000
398.340;  122.900;  -56.000;  159.000
398.468;  102.400; -390.000; -169.000
398.596; -243.600; -993.000; -953.000
398.724; -190.700; -762.000; -767.000
398.852; -292.200;-1024.000; -976.000
398.980;  -68.200; -560.000; -560.000
399.108;  -48.300; -982.000; -735.000
399.236;  135.000;   13.000;    8.000
399.363;   91.300;  222.000;  196.000
399.491;  -99.600; -404.000; -398.000
399.619; -209.100; -829.000; -800.000
399.747; -161.400; -859.000; -771.000
399.875;  236.400;  220.000;  234.000
400.003;  -47.900; -359.000; -284.000
400.130; -114.600; -421.000; -341.000
400.258;   -4.100;  -83.000;   38.000
400.386;  -88.700; -352.000; -168.000
400.514;  -27.900; -526.000; -587.000
400.641;  -96.300; -928.000; -802.000
400.769; -249.200; -979.000; -888.000
400.897; -114.900; -838.000; -793.000
401.025;   65.200; -166.000; -152.000
401.152;   64.300;  220.000;   38.000
401.280; -101.800; -430.000; -429.000
401.408; -151.000; -712.000; -576.000
401.535; -174.500; -735.000; -758.000
401.663; -333.100;-1134.000;-1054.000
401.790; -108.700; -514.000; -525.000
401.918;  137.900;  436.000;  405.000
402.046;   61.900;  134.000;  122.000
402.173;   16.600;  -18.000;    7.000
402.301; -103.400; -519.000; -397.000
402.428;  151.000;  528.000;  383.000
402.556; -240.800;-1188.000; -913.000
402.683;    6.700;  -20.000;   -1.000
402.811;   32.700;  -37.000; -206.000
402.938;   72.100;   20.000;   27.000
403.066;  411.000; -574.000; -558.000
403.193;  636.900;  299.000;  239.000
403.321;  512.800; -396.000; -574.000
403.448;  631.500;   83.000;   27.000
403.575;  328.400;  -90.000;  -46.000
403.703; -137.100; -732.000; -557.000
403.830;  -81.800; -531.000; -496.000
403.957; -229.600;-1117.000;-1023.000
404.085;   81.000;  -61.000; -172.000
404.212;  250.700;  -50.000;   63.000
404.339;  549.900; -566.000; -306.000
404.467;10439.400; -612.000; -524.000
404.594; 6510.200; -287.000; -227.000
404.721; 1532.300; -869.000; -764.000
404.848;  216.300; -113.000; -202.000
404.976; -165.800; -856.000; -783.000
405.103;   43.200;  -14.000;  -82.000
405.230;   80.600;  190.000;  226.000
405.357;  110.100;  117.000;   44.000
405.484;  505.000;  -49.000;    5.000
405.612;  109.000; -548.000; -563.000
405.739;  -61.000; -488.000; -243.000
405.866;  248.200;  669.000;  385.000
405.993;  -18.900; -398.000; -102.000
406.120; -245.200; -801.000; -887.000
406.247;  -61.000; -323.000; -342.000
406.374;  952.200;  540.000;  629.000
406.501;  221.400; -632.000; -702.000
406.628;  -97.200; -621.000; -589.000
406.755; -162.300; -803.000; -620.000
406.882;   -9.600; -228.000; -277.000
407.009; -138.400; -719.000; -628.000
407.136;  152.800; -480.000; -401.000
407.263;  305.700; -939.000; -829.000
407.390; -110.600; -692.000; -614.000
407.517; -251.300;-1139.000;-1187.000
407.644;  -56.600; -332.000; -256.000
407.771; -224.300; -249.000; -287.000
407.898;   88.000;  168.000;  328.000
408.025;  -89.400; -421.000; -313.000
408.151;   43.400;   82.000;  153.000
408.278;  -72.900; -267.000; -216.000
408.405; -182.700; -931.000; -899.000
408.532;  -97.600; -549.000; -542.000
408.659; -186.500; -677.000; -648.000
408.785; -343.400;-1298.000;-1170.000
408.912;  -77.900; -412.000; -296.000
409.039; -164.500; -610.000; -686.000
409.166; -153.000; -591.000; -555.000
409.292; -174.100; -571.000; -534.000
409.419; -178.500; -665.000; -649.000
409.546;  -92.000; -431.000; -192.000
409.672; -177.700; -713.000; -545.000
409.799;   14.100;  -36.000;   34.000
409.926;  -26.000; -180.000; -179.000
410.052; -316.800;-1127.000;-1091.000
410.179;  -52.500; -368.000; -392.000
410.305;  -81.200; -375.000; -493.000
410.432;    2.400; -220.000; -333.000
410.558; -117.400; -305.000; -380.000
410.685; -179.200; -688.000; -431.000
410.812; -126.300; -409.000; -588.000
410.938; -223.200; -964.000; -808.000
411.065; -116.000; -671.000; -645.000
411.191;   32.400; -189.000; -174.000
411.317; -154.300; -823.000; -742.000
411.444;  -39.900; -317.000; -246.000
411.570;  -79.800; -339.000; -294.000
411.697; -203.400; -758.000; -752.000
411.823; -259.500; -989.000; -999.000
411.949;    1.100;  -56.000;   17.000
412.076; -191.700; -539.000; -519.000
412.202; -185.700; -758.000; -757.000
412.329; -205.500; -798.000; -752.000
412.455; -184.300; -821.000; -657.000
412.581;   53.100;  -15.000;  172.000
412.707; -104.100; -540.000; -457.000
412.834;   75.400;  156.000;  219.000
412.960; -102.300; -785.000; -784.000
413.086; -169.900; -743.000; -701.000
413.212;  376.700;  604.000;  578.000
413.339; -110.400; -685.000; -701.000
413.465;   35.500; -364.000; -310.000
413.591; -152.600; -757.000; -474.000
413.717;  -41.900; -358.000; -366.000
413.843; -232.700; -839.000; -861.000
413.969;  -97.400;  -47.000; -292.000
414.096; -159.000; -679.000; -679.000
414.222;   28.400;  -33.000;   85.000
414.348;    6.100; -652.000; -385.000
414.474;  240.600;   38.000;  -52.000
414.600;   -3.300; -126.000; -144.000
414.726;   29.200;  -96.000;  -55.000
414.852;  -70.200; -365.000; -342.000
414.978;  112.500;  104.000;  -18.000
415.104;  154.700;   38.000;   80.000
415.230;  112.900; -329.000; -330.000
415.356;   78.100; -409.000; -514.000
415.482;  438.900;   13.000;  -35.000
415.608;  553.000; -247.000; -323.000
415.734; 1809.300;   67.000;   38.000
415.860;37326.100; -875.000; -767.000
415.986;24148.600; -685.000; -607.000
416.111; 2012.000; -798.000; -652.000
416.237;  423.700; -424.000; -571.000
416.363; 2200.400; -765.000; -733.000
416.489; 7224.200; -324.000; -251.000
416.615;  735.700; -707.000; -742.000
416.741;  -43.900; -677.000; -784.000
416.866; -149.200; -673.000; -736.000
416.992; -186.200; -801.000; -818.000
417.118;   -1.000;  -41.000;  -80.000
417.244;  -72.500; -798.000; -531.000
417.369; -144.400; -801.000; -612.000
417.495;    8.800; -325.000; -254.000
417.621; -151.700;-1015.000; -803.000
417.746;   41.100; -579.000; -572.000
417.872;  142.000; -254.000; -144.000
417.998;   92.600; -515.000; -530.000
418.123; 2101.300;-1073.000; -845.000
418.249; 9423.700; -512.000; -601.000
418.374; 1187.000; -916.000; -824.000
418.500;  204.900; -383.000; -482.000
418.626;  273.300;   70.000;  -59.000
418.751;  233.700; -549.000; -448.000
418.877;  359.400; -637.000; -643.000
419.002; 3627.300; -688.000; -560.000
419.128;22235.300; -930.000; -721.000
419.253; 4833.100; -967.000; -837.000
419.379;  698.700; -391.000; -338.000
419.504;  732.000;  325.000;  415.000
419.629;  966.300; -393.000; -212.000
419.755; 6904.600; -317.000; -254.000
419.880;36865.400;  -98.000;   67.000
420.006;20847.800; -280.000; -221.000
420.131;50146.300; -662.000; -775.000
420.256; 6495.500; -315.000; -316.000
420.382;  927.500; -665.000; -687.000
420.507;  124.400; -649.000; -778.000
420.632;  335.300; -337.000; -339.000
420.758;  495.600; -251.000; -425.000
420.883; -109.300; -876.000; -672.000
421.008; -151.400; -775.000; -619.000
421.133; -105.700; -509.000; -467.000
421.259;  -72.700; -325.000; -259.000
421.384; -173.100; -834.000; -693.000
421.509;  -43.800;-1052.000; -862.000
421.634; 2430.400; -936.000; -820.000
421.759;  966.500; -359.000; -327.000
421.885;  -53.900; -717.000; -656.000
422.010; -108.000; -673.000; -542.000
422.135; -250.700; -695.000; -727.000
422.260;  121.600;  340.000;  280.000
422.385;  -21.300;   12.000;  -98.000
422.510;   92.800;  151.000;  -26.000
422.635;  121.900;  -87.000;  -43.000
422.760;  269.000; -766.000; -791.000
422.885;  186.800;  -57.000;  -80.000
423.010;   20.200; -112.000; -169.000
423.135; -116.600; -481.000; -561.000
423.260;   38.400; -150.000; -245.000
423.385;  208.700;  476.000;  222.000
423.510;  128.200;   71.000;  -22.000
423.635;  228.000;  133.000;   45.000
423.760;  191.200;  383.000;  328.000
423.885;  170.600;  336.000;  391.000
424.010;   86.300;  -68.000;  -13.000
424.135;   35.600;    5.000;  -33.000
424.259; -117.000; -654.000; -457.000
424.384;  -75.400; -279.000; -272.000
424.509;   21.300; -260.000; -186.000
424.634; -153.000; -761.000; -623.000
424.759;  -19.700; -688.000; -544.000
424.883;   22.500; -506.000; -527.000
425.008;  412.800; -502.000; -410.000
425.133; 3724.200; -679.000; -653.000
425.258; 1565.200; -517.000; -381.000
425.382; 2049.400; -867.000; -774.000
425.507; 4711.600; -487.000; -543.000
425.632;  742.100; -802.000; -663.000
425.756;  859.600; -256.000; -146.000
425.881;12560.700; -831.000; -857.000
426.006;29801.500; -604.000; -355.000
426.130; 4210.600; -696.000; -508.000
426.255;  617.100; -611.000; -491.000
426.379;  307.300; -189.000; -577.000
426.504;  787.600;  660.000;  544.000
426.629; 7697.900; -519.000; -466.000
426.753; 4664.600;   64.000;  -46.000
426.878;  579.900; -252.000; -288.000
427.002;  349.100; -651.000; -668.000
427.127; 3258.800;  -35.000; -158.000
427.251;20606.400;  372.000;  401.000
427.375; 5134.700; -191.000; -173.000
427.500; 4364.200; -616.000; -610.000
427.624; 1308.700; -234.000; -400.000
427.749;  209.700; -216.000; -225.000
427.873;    2.600; -499.000; -412.000
427.997;  -18.600; -222.000; -230.000
428.122;  217.900;  795.000;  703.000
428.246;  225.100;  433.000;  434.000
428.371; -202.800; -869.000; -773.000
428.495; -151.500; -624.000; -646.000
428.619;   17.800; -186.000; -117.000
428.743;  122.100;   65.000;  132.000
428.868;  104.900; -732.000; -643.000
428.992; 2687.300; -219.000; -326.000
429.116; 1055.500; -329.000; -357.000
429.240;  617.500;  419.000;  426.000
429.365;   24.300; -454.000; -574.000
429.489;    9.200; -638.000; -647.000
429.613;  144.800; -236.000; -177.000
429.737;  129.900; -563.000; -432.000
429.861;  555.100; -247.000; -133.000
429.985;10635.400; -425.000; -305.000
430.109;10327.700; -770.000; -908.000
430.234; 1136.300;   76.000;  -50.000
430.358;  188.200; -250.000; -160.000
430.482;  -75.500; -672.000; -564.000
430.606;  -27.100; -655.000; -375.000
430.730;  122.000; -437.000; -388.000
430.854;  278.700; -909.000; -835.000
430.978;  -71.400; -795.000; -764.000
431.102; -108.300; -499.000; -422.000
431.226; -152.500; -874.000; -815.000
431.350;  173.000;  345.000;  422.000
431.474; -111.400; -661.000; -373.000
431.597; -261.300;-1060.000; -848.000
431.721;  -84.800; -276.000; -267.000
431.845; -206.100; -704.000; -472.000
431.969; -123.500; -304.000; -349.000
432.093; -139.900; -395.000; -317.000
432.217;   78.600;   32.000;   82.000
432.341; -105.200; -523.000; -518.000
432.464;   80.900;   96.000;   40.000
432.588;  477.200; -401.000; -329.000
432.712;  189.300;  -52.000;  -52.000
432.836;  170.300;  213.000;  263.000
432.959;    5.700; -372.000; -311.000
433.083;  233.100;   11.000;    2.000
433.207;  779.500;  285.000;  930.000
433.330; 9633.500; -391.000; -200.000
433.454;10504.700; -654.000; -638.000
433.578; 6337.900;  583.000;  278.000
433.701; 1036.600; -623.000; -675.000
433.825;  311.200; -292.000; -299.000
433.949;  389.700;   28.000;  -72.000
434.072;  160.500; -410.000; -323.000
434.196;   30.400; -309.000; -117.000
434.319; 8059.500;25482.000;25124.000
434.443; 1468.300; -656.000; -603.000
434.566; 4799.800;  281.000;   62.000
434.690;  687.700; -637.000; -383.000
434.813;  134.600; -251.000; -173.000
434.937; -116.000; -569.000; -696.000
435.060;   12.200; -423.000; -332.000
435.184;  730.500; -492.000; -217.000
435.307;  393.900;  159.000;  102.000
435.431;   49.200;  -40.000;   24.000
435.554;  -81.100; -399.000; -240.000
435.677;  -86.600; -350.000; -258.000
435.801;    3.900;  -25.000;   49.000
435.924;   61.500;    1.000;  -67.000
436.048; -182.300;-1019.000; -732.000
436.171;  -86.100; -240.000;  -66.000
436.294;   13.700; -248.000; -229.000
436.417;  211.000; -963.000; -849.000
436.541; -139.600; -814.000; -840.000
436.664;  -67.500; -242.000; -316.000
436.787;   67.200;   13.000;  113.000
436.910; -168.900; -792.000; -422.000
437.034;   93.100;  142.000;  143.000
437.157;  149.100;  -11.000;    0.000
437.280;  -42.700; -392.000; -292.000
437.403; -117.500; -982.000; -869.000
437.526; 1440.400; -903.000; -865.000
437.649; 4564.500; -505.000; -332.000
437.772;  593.200; -692.000; -540.000
437.896;  305.400;  700.000;  544.000
438.019; -175.000; -758.000; -503.000
438.142; -140.500; -596.000; -506.000
438.265;   25.900; -639.000; -670.000
438.388; 1121.200; -520.000; -410.000
438.511;  215.000; -597.000; -394.000
438.634;  -22.100; -247.000; -125.000
438.757; -219.000; -693.000; -619.000
438.880;   35.500;  -34.000;  -57.000
439.003;  -64.500; -417.000; -437.000
439.126; -106.600; -287.000; -167.000
439.248;  -63.600;  -98.000; -139.000
439.371;  -21.100;    9.000;  -53.000
439.494;  141.300;  510.000;  439.000
439.617;  -33.600;   65.000;  -88.000
439.740; -301.500; -968.000; -816.000
439.863; -251.200; -755.000; -595.000
439.986; -159.100; -476.000; -431.000
440.108;  -38.300; -161.000; -112.000
440.231; -286.600; -950.000; -836.000
440.354;  -30.500;  -64.000; -150.000
440.477;  144.200; -566.000; -542.000
440.599;   47.500; -200.000; -225.000
440.722; -168.600; -709.000; -586.000
440.845;  211.800;  751.000;  928.000
440.968; -151.600; -415.000; -311.000
441.090;  -82.900; -199.000;  -33.000
441.213; -280.400;-1021.000; -825.000
441.336;  -45.700; -159.000;   -5.000
441.458;  -77.700; -549.000; -396.000
441.581;  -95.200; -628.000; -629.000
441.703;  -56.900; -152.000;   13.000
441.826; -170.700; -557.000; -400.000
441.948;  -16.400;   56.000;   51.000
442.071;  124.300;  555.000;  424.000
442.193; -196.400; -531.000; -485.000
442.316;  133.100;  152.000;   97.000
442.438;  157.700; -233.000;  -10.000
442.561;  196.800;  272.000;  262.000
442.683; 1178.800; -809.000; -522.000
442.806; 2316.500;   -8.000;   74.000
442.928;   67.500; -859.000; -604.000
443.051;  -60.900; -577.000; -373.000
443.173; -134.200; -341.000; -339.000
443.295; -103.400; -263.000; -371.000
443.418;  -68.200; -321.000;  -29.000
443.540;   40.900; -106.000;   -4.000
443.662; -177.800; -563.000; -465.000
443.785;   35.600;  335.000;  199.000
443.907; -160.100; -362.000; -208.000
444.029; -193.400; -767.000; -494.000
444.152; -237.500; -644.000; -554.000
444.274;   12.700;  -18.000;  -24.000
444.396; -168.700; -461.000; -221.000
444.518; -199.300; -691.000; -454.000
444.640; -126.700; -268.000; -111.000
444.763;   33.300;  388.000;  249.000
444.885; -168.000; -432.000; -392.000
445.007;   10.200;   35.000;   86.000
445.129; -163.500; -610.000; -515.000
445.251; -146.700; -372.000; -439.000
445.373; -220.600; -537.000; -386.000
445.495;   52.300;  242.000;  350.000
445.617;  169.000;  853.000;  753.000
445.739;  -68.400; -215.000;  -97.000
445.861;   16.600; -245.000; -112.000
445.984;  -27.600; -267.000; -101.000
446.105;  451.600; -418.000; -251.000
446.227; 1250.400; -176.000;  -19.000
446.349;   26.500; -358.000; -249.000
446.471; -146.500; -615.000; -448.000
446.593;  -57.700; -316.000;   19.000
446.715;   64.900;  -67.000;   41.000
446.837;  190.800;  697.000;  832.000
446.959; -148.900; -457.000; -478.000
447.081; -200.000; -628.000; -518.000
447.203;  194.300;  862.000;  834.000
447.325; -107.300; -270.000;   42.000
447.446;   92.900;  286.000;  530.000
447.568; -231.200; -921.000; -803.000
447.690; -118.400; -236.000; -245.000
447.812; -222.300; -798.000; -519.000
447.933;   35.600;  155.000;  127.000
448.055;  -82.900; -306.000; -261.000
448.177;  371.300;   31.000;   79.000
448.299;  208.200; -935.000; -727.000
448.420;   68.300;  -25.000;  159.000
448.542;   16.200;   -3.000;   33.000
448.664;   24.300;  109.000;  322.000
448.785;   11.700;  265.000;   83.000
448.907; -104.900; -614.000; -353.000
449.028;    6.800; -771.000; -471.000
449.150;  197.800;  492.000;  589.000
449.272; -298.600;-1044.000; -913.000
449.393;  113.500;  612.000;  694.000
449.515; -211.200; -634.000; -581.000
449.636;  -59.300; -264.000; -155.000
449.758;  226.600;  763.000;  622.000
449.879; -136.400; -498.000; -396.000
450.001;  -62.900; -149.000;  -49.000
450.122;  -17.200;  -95.000;  162.000
450.244;   46.200;   37.000;  364.000
450.365; -149.400; -495.000; -301.000
450.486;    0.100;   80.000;  268.000
450.608;  125.100;  393.000;  326.000
450.729;  216.600;  578.000;  645.000
450.850;   47.900; -574.000; -466.000
450.972; 1513.500; -552.000; -389.000
451.093; 8941.700;  190.000;  588.000
451.214; 3336.200; -516.000; -337.000
451.336;  702.000;  773.000;  579.000
451.457;  183.300;  264.000;  393.000
451.578;  -14.400; -118.000;  -74.000
451.699; -193.600; -546.000; -540.000
451.821;  -66.400; -284.000;  -50.000
451.942;   78.000;  278.000;  285.000
452.063;  150.000;  228.000;  419.000
452.184; 1197.300;  -54.000;  -49.000
452.305; 1970.800;  103.000;  170.000
452.427;  206.000; -549.000; -301.000
452.548;   42.700;   23.000;   79.000
452.669;  -23.300; -257.000;  -89.000
452.790;  -52.500;    3.000;  -18.000
452.911;   69.500;  195.000;  259.000
453.032;  -75.600; -289.000;  -60.000
453.153;   -0.800;  -29.000;   81.000
453.274;  229.800;  737.000;  868.000
453.395;   -4.300;  -51.000;  175.000
453.516;  103.500; 1317.000; 1388.000
453.637;  -79.700; -205.000; -150.000
453.758;  -43.800;   15.000;   69.000
453.879; -179.000; -462.000; -250.000
454.000;  242.800; 1086.000;  948.000
454.121; -198.900; -554.000; -326.000
454.242; -186.900; -599.000; -383.000
454.362;  -47.100;  -99.000;  114.000
454.483;  -28.400; -309.000; -229.000
454.604;  199.900;  512.000;  580.000
454.725; -195.700; -627.000; -555.000
454.846; -187.800; -474.000; -406.000
454.967;   12.900;  230.000;  539.000
455.087;  -38.900;  179.000;  153.000
455.208;   96.100;  554.000;  856.000
455.329;  -62.400;  -22.000;   82.000
455.450;  153.800;  473.000;  633.000
455.570; -106.100; -234.000; -211.000
455.691;   -4.400;  201.000;  407.000
455.812; -149.800; -270.000;  -92.000
455.932;  -48.200;  107.000;  -97.000
456.053;  -87.800;   36.000;   24.000
456.173; -163.600; -433.000; -355.000
456.294; -213.800; -476.000; -303.000
456.415; -100.600;  -73.000;   70.000
456.535;   -3.400;  297.000;  273.000
456.656;  -12.600;  132.000;  240.000
456.776;  -84.000;    3.000;  298.000
456.897;   79.200;  308.000;  513.000
457.017;  -94.200; -153.000;   -3.000
457.138; -154.800; -402.000; -249.000
457.258;   18.300;  263.000;  224.000
457.379;    3.900;  509.000;  521.000
457.499;    5.500;  443.000;  432.000
457.620; -212.300; -407.000; -231.000
457.740; -127.100; -132.000;  -11.000
457.860;  -67.000;   87.000;   44.000
457.981;   -8.200;  132.000;  124.000
458.101;  -91.800;  -89.000;   40.000
458.221;   65.500;  336.000;  402.000
458.342;  -86.700;   -4.000;  -37.000
458.462;   93.100;  617.000;  352.000
458.582;  -42.800; -302.000; -294.000
458.703;   56.300;  303.000;  154.000
458.823;   13.700;   22.000;  163.000
458.943;   76.500;  341.000;  467.000
459.063;   31.900; 1124.000;  192.000
459.183;   21.900;  328.000;  313.000
459.304;   66.300;  315.000;  517.000
459.424;  -87.700; -246.000;  -89.000
459.544;  671.700;  388.000;  764.000
459.664; 1600.300;  499.000;  506.000
459.784;  571.700; 1004.000; 1175.000
459.904;  172.200;  867.000;  744.000
460.024;  199.400;  867.000;  684.000
460.144;   78.600;  449.000;  554.000
460.264;   59.300;  515.000;  327.000
460.385; -130.300; -145.000; -119.000
460.505;  147.200;  905.000;  858.000
460.625; -117.000;  -17.000;  -68.000
460.745;   35.800;  396.000;  541.000
460.864;  -24.000;  153.000;  469.000
460.984;  123.400;  499.000;  573.000
461.104;  383.400; 1656.000; 1775.000
461.224;  139.600;  657.000;  650.000
461.344;   42.900;  431.000;  360.000
461.464;  -12.700;  258.000;  513.000
461.584;   39.800;  283.000;  466.000
461.704;  -32.900;   58.000;  108.000
461.824;  -74.100;  238.000;  259.000
461.943;  -30.100;  191.000;  130.000
462.063;  -71.100;    2.000;  324.000
462.183;  169.500;  639.000;  717.000
462.303;  292.300; 1678.000; 1230.000
462.422;  105.300;  781.000;  840.000
462.542;    0.200;  271.000;  391.000
462.662;  164.000;  353.000;  380.000
462.782;  532.800;  833.000;  572.000
462.901;  939.000;  545.000;  717.000
463.021;  574.800; 1702.000; 1638.000
463.141;   52.700;  337.000;  770.000
463.260;   19.800;  614.000;  474.000
463.380;  104.200;  902.000;  884.000
463.499;    3.100;  342.000;  332.000
463.619;   -2.900;  581.000;  559.000
463.738;  333.500; 1644.000;  903.000
463.858;   81.500;  657.000;  811.000
463.978;   40.000;  542.000;  396.000
464.097;  181.000;  921.000; 1114.000
464.217;  324.900; 1196.000; 1143.000
464.336;  303.500; 1068.000; 1130.000
464.455;    8.900;  328.000;  659.000
464.575;  147.600;  597.000;  602.000
464.694;  411.500; 1204.000; 1179.000
464.814;  286.900; 1190.000; 1138.000
464.933;  218.300; 1095.000; 1027.000
465.052;  272.700; 1412.000; 1054.000
465.172;  279.800;  922.000;  799.000
465.291;  320.200; 1376.000; 1320.000
465.410;  104.200;  462.000;  735.000
465.530;  260.700; 1355.000; 1310.000
465.649;  215.500; 1209.000; 1273.000
465.768;  380.200; 1673.000; 1508.000
465.888;  180.500;  941.000; 1174.000
466.007;  289.100; 1335.000; 1440.000
466.126;   97.900;  721.000;  641.000
466.245;  209.400; 1176.000; 1187.000
466.364;   97.800;  950.000; 1060.000
466.484;  212.300; 1024.000; 1213.000
466.603;  161.000; 1101.000; 1222.000
466.722;  304.000; 1490.000; 1769.000
466.841;  275.900; 1151.000; 1401.000
466.960;  173.000; 1069.000;  972.000
467.079;  349.600; 1971.000; 1786.000
467.198;  157.800; 1238.000; 1181.000
467.317;  240.900; 1768.000; 1162.000
467.436;  221.100; 1709.000; 1261.000
467.555;  362.200; 1796.000; 1746.000
467.674;  195.900; 1227.000; 1329.000
467.793;  185.200; 1376.000; 1374.000
467.912;  247.800; 1658.000; 1539.000
468.031;  351.400; 2038.000; 1930.000
468.150;  380.200; 1842.000; 1837.000
468.269;  497.000; 2313.000; 2090.000
468.388;  469.500; 2168.000; 2339.000
468.507;  620.700; 2884.000; 2903.000
468.626;  604.300; 2555.000; 2541.000
468.744;  367.800; 2018.000; 2174.000
468.863;  514.000; 2312.000; 2523.000
468.982;  249.600; 1503.000; 1555.000
469.101;  529.700; 2788.000; 2692.000
469.220;  385.100; 2333.000; 2176.000
469.338;  588.300; 2935.000; 3051.000
469.457;  474.900; 2719.000; 2545.000
469.576;  779.500; 3953.000; 3784.000
469.695;  562.700; 2877.000; 3066.000
469.813;  961.000; 4148.000; 4192.000
469.932;  905.600; 4255.000; 4485.000
470.051;  911.800; 4075.000; 4161.000
470.169; 1761.100; 4470.000; 4338.000
470.288; 2787.700; 4700.000; 4809.000
470.406; 1650.200; 5059.000; 5194.000
470.525; 1323.100; 6101.000; 5787.000
470.644; 1374.400; 6847.000; 6794.000
470.762; 1792.300; 8397.000; 7873.000
470.881; 1945.100; 8651.000; 8464.000
470.999; 2147.600; 9685.000; 9151.000
471.118; 2321.800;11174.000;10711.000

