
Integration time [ms]: 100.000
Averaging Nr. [scans]: 40
Smoothing Nr. [pixels]: 0
Data measured with spectrometer [name]: 2101012U2
Wave   ;Sample   ;Dark     ;Reference
[nm]   ;[counts] ;[counts] ;[counts] 

197.733;   58.425;  516.000;  404.000
197.879;  -65.250; -610.000; -634.000
198.025;  -52.825; -475.000; -420.000
198.171;  -50.750; -602.000; -612.000
198.317;  -28.100; -401.000; -316.000
198.463;  -47.450; -655.000; -404.000
198.609;   17.475;  181.000; -137.000
198.755;  -75.575; -644.000; -410.000
198.901;  -65.100; -505.000; -424.000
199.047;  -57.450; -615.000; -488.000
199.193;  -35.400; -230.000; -468.000
199.339;  -29.100; -222.000; -369.000
199.485;   24.750;  330.000;  271.000
199.631;   17.100;  227.000;  310.000
199.777;  -54.225; -466.000; -398.000
199.923;  -59.125; -610.000; -424.000
200.069;   -9.775; -141.000;  -58.000
200.215;   64.050;  128.000;  453.000
200.361;   23.100;  243.000;  477.000
200.507;  -53.825; -600.000; -373.000
200.653;  -15.475; -371.000; -194.000
200.798;  -19.450; -215.000; -125.000
200.944;    2.650; -146.000;  -41.000
201.090;   49.650;   61.000;  222.000
201.236;  -13.950; -116.000; -158.000
201.382;  117.650;  874.000;  903.000
201.528;    1.550;  -58.000;  -48.000
201.674;  -54.150; -386.000; -293.000
201.819;  -54.975; -540.000; -439.000
201.965;  -70.300; -699.000; -447.000
202.111;  -33.000; -273.000; -226.000
202.257;  -31.550; -250.000; -238.000
202.402;   -0.925;   13.000;  -36.000
202.548;  -26.075; -169.000; -116.000
202.694;   70.600;  410.000; -183.000
202.840;  -76.925; -603.000; -531.000
202.985;  -83.125; -681.000; -639.000
203.131;  -98.950; -832.000; -666.000
203.277;  -16.825; -199.000; -262.000
203.423;  -48.050; -434.000; -520.000
203.568;  -41.475; -462.000; -237.000
203.714;  -52.125; -535.000; -542.000
203.860;  -83.675; -682.000; -641.000
204.005;   19.175;  112.000;  167.000
204.151;   58.575;  561.000;  556.000
204.296;  -28.900; -354.000; -221.000
204.442;  -67.200; -600.000; -547.000
204.588;  -64.075; -592.000; -579.000
204.733;   18.300;  178.000;  168.000
204.879; -114.125;-1018.000; -822.000
205.025;    9.475;  -99.000;  126.000
205.170;    4.625;  -17.000;   94.000
205.316;   77.400;  438.000;  661.000
205.461;  -69.550; -698.000; -554.000
205.607;   77.225;  609.000;  665.000
205.752;  -69.000; -626.000; -551.000
205.898;  -55.350; -501.000; -391.000
206.043;  -37.825; -578.000; -506.000
206.189;  -50.800; -243.000; -285.000
206.334;   75.175;  554.000;  606.000
206.480;   79.800;  409.000;  239.000
206.625;  -77.750; -529.000; -552.000
206.771;  -51.375; -451.000; -373.000
206.916;  -11.225; -210.000; -537.000
207.062;  -76.875; -545.000; -591.000
207.207;  -50.225; -546.000; -443.000
207.353;   55.150;  185.000;  460.000
207.498;   26.900;  196.000;   85.000
207.643;  -44.025; -501.000; -370.000
207.789; -115.625;-1069.000; -910.000
207.934;  -85.200; -665.000; -713.000
208.080;  -27.450; -154.000;   66.000
208.225;  -11.100;  -22.000;  -57.000
208.370;  -67.850; -727.000; -619.000
208.516;  -79.225; -741.000; -487.000
208.661;  -26.200; -127.000;  -69.000
208.806;  -22.050; -165.000; -171.000
208.952; -104.875;-1044.000; -731.000
209.097;   69.150;  378.000;  349.000
209.242;  -16.025; -307.000; -382.000
209.387;   86.800;  392.000;  350.000
209.533;  -39.350; -321.000; -350.000
209.678;   83.875;  472.000;  543.000
209.823;  -40.175; -408.000; -310.000
209.969;  -92.200; -860.000; -757.000
210.114;  -94.550; -907.000; -719.000
210.259; -106.875; -939.000; -889.000
210.404;    9.075; -171.000;  103.000
210.549;    2.375;  108.000;    3.000
210.695;  -14.200;   -3.000;  -95.000
210.840;   15.700;   94.000;   67.000
210.985;  -57.300; -484.000; -303.000
211.130;   70.250;  268.000;  406.000
211.275;    8.500;  207.000;  199.000
211.420;  -41.525; -300.000; -289.000
211.566;  -57.525; -536.000; -489.000
211.711;   17.575;  218.000;  157.000
211.856;  -50.275; -545.000; -519.000
212.001;   -1.050;  151.000;   44.000
212.146;   23.275;  153.000;   49.000
212.291;  -20.850; -210.000; -186.000
212.436;  -16.700; -280.000;   -6.000
212.581;  -66.825; -685.000; -653.000
212.726;  -65.975; -487.000; -538.000
212.871;  -47.300; -552.000; -217.000
213.016; -130.600;-1172.000;-1029.000
213.161;   59.600;  406.000;  291.000
213.306;  -65.450; -435.000; -577.000
213.451;  -89.050; -778.000; -689.000
213.596;  -35.800; -455.000; -347.000
213.741;  -61.925; -448.000; -538.000
213.886;  -65.700; -498.000; -517.000
214.031;  -27.975; -294.000; -124.000
214.176;  -30.050; -408.000; -341.000
214.321;  -20.650; -296.000; -157.000
214.466;   -6.925; -163.000;  -43.000
214.611;   -7.375;  -61.000;  -10.000
214.756; -114.450; -948.000; -858.000
214.901;  -30.875; -388.000; -226.000
215.046; -113.625; -797.000; -825.000
215.191;   14.075;  128.000;   35.000
215.336;    0.575; -157.000;  -19.000
215.480;  -56.625; -684.000; -505.000
215.625;   -8.975; -175.000;  -19.000
215.770;  -83.200; -757.000; -662.000
215.915;    4.000;   -5.000;  -97.000
216.060;   -2.500; -113.000;  -21.000
216.205;  -93.500; -731.000; -779.000
216.349;  -58.325; -470.000; -533.000
216.494; -128.975; -939.000; -867.000
216.639; -116.500; -823.000; -888.000
216.784;  -79.375; -577.000; -525.000
216.929;   45.575;  392.000;  281.000
217.073;  -15.075; -244.000;  -31.000
217.218;    9.475;   78.000;  -47.000
217.363;  -78.900; -656.000; -618.000
217.507;  -84.150; -623.000; -588.000
217.652; -112.575; -845.000; -874.000
217.797;  -88.225; -708.000; -659.000
217.942;  -96.875; -856.000; -720.000
218.086;   64.950;  608.000;  539.000
218.231;  -14.875; -174.000;  -26.000
218.376;  -31.325; -337.000; -229.000
218.520;   -2.275;  -41.000;   96.000
218.665;  -26.150; -338.000; -204.000
218.810;  -49.425; -275.000; -233.000
218.954;   21.375;  201.000;   35.000
219.099;  -93.900; -713.000; -963.000
219.243;  -61.975; -589.000; -554.000
219.388;  -27.325; -264.000; -136.000
219.532;  -12.725; -116.000; -116.000
219.677;  -70.550; -564.000; -521.000
219.822;    5.300;   33.000;   89.000
219.966;    7.675;   17.000;  -99.000
220.111;  -44.850; -328.000;  -40.000
220.255;  -82.200; -797.000; -750.000
220.400;  -33.800; -180.000; -146.000
220.544;  -67.200; -516.000; -450.000
220.689;  -64.675; -422.000; -451.000
220.833;   -0.025; -123.000;  -58.000
220.978;  -49.675; -393.000; -563.000
221.122;   41.250;  319.000;  307.000
221.267; -113.075; -906.000; -837.000
221.411;  -54.425; -478.000; -394.000
221.555;   -8.350; -104.000;  -23.000
221.700;  -30.200; -329.000; -222.000
221.844;   24.275;  255.000;  272.000
221.989;  -38.325; -328.000; -311.000
222.133;  -30.650; -289.000; -307.000
222.277;    1.925;    5.000;   78.000
222.422;    8.150;  227.000;  113.000
222.566;  -33.475; -381.000; -214.000
222.711;  -60.225; -414.000; -479.000
222.855;  -63.050; -643.000; -586.000
222.999;  -82.325; -642.000; -717.000
223.144;  -28.375; -195.000; -194.000
223.288;   38.650;  423.000;  251.000
223.432;   18.125;  184.000;  230.000
223.576;   19.525;  152.000;  -21.000
223.721;   50.525;  364.000;  273.000
223.865;  -73.625; -472.000; -475.000
224.009;  243.400; 1673.000; 1631.000
224.153;  -82.575; -660.000; -671.000
224.298;  -57.850; -531.000; -489.000
224.442;  -11.300;  -74.000;  -33.000
224.586;   -5.475; -169.000; -106.000
224.730; -110.750; -858.000; -670.000
224.875;  -94.950; -739.000; -688.000
225.019;    1.000;  102.000;  188.000
225.163;   55.000;  208.000;  341.000
225.307;   16.500;   97.000;  -91.000
225.451;   49.025;  360.000;  481.000
225.595;   26.175;  264.000;  176.000
225.739;  -15.450; -170.000;  -94.000
225.884;   17.050;   86.000;    5.000
226.028;  -98.775; -760.000; -626.000
226.172;  -31.950; -260.000; -273.000
226.316; -108.075; -941.000; -902.000
226.460;  -65.650; -645.000; -493.000
226.604;  -42.175; -406.000; -400.000
226.748;  -84.950; -836.000; -733.000
226.892;  -32.850; -227.000; -181.000
227.036;  -52.700; -537.000; -447.000
227.180;  -46.250; -551.000; -375.000
227.324;  -71.050; -561.000; -580.000
227.468; -107.250; -819.000; -717.000
227.612;    2.150;  242.000;  -28.000
227.756;  -77.375; -845.000; -698.000
227.900;   45.900;  342.000;  441.000
228.044;  -45.725; -509.000; -290.000
228.188;   55.175;  448.000;  568.000
228.332;  -79.975; -546.000; -472.000
228.476;  -21.650; -223.000; -149.000
228.620;  -14.050; -210.000; -150.000
228.764;   55.625;  431.000;  349.000
228.908;   -8.075; -155.000;   30.000
229.052;  -60.475; -615.000; -528.000
229.195;   -4.425; -172.000;   13.000
229.339;  -30.650; -235.000; -305.000
229.483;  -19.200;    5.000; -162.000
229.627;  -10.925; -156.000;  139.000
229.771;  -49.000; -218.000; -294.000
229.915;    9.275;  230.000;   79.000
230.059;  -77.975; -648.000; -663.000
230.202;  -32.275; -370.000; -317.000
230.346;  -10.325; -107.000;  107.000
230.490;  -60.700; -489.000; -521.000
230.634;  -86.825; -736.000; -553.000
230.777;   68.050;  478.000;  509.000
230.921;  -39.700; -450.000; -359.000
231.065;  -42.250; -246.000; -286.000
231.209;   20.700;  261.000;  265.000
231.352;   16.250;   54.000;   40.000
231.496;   21.750;  568.000;  188.000
231.640;  -76.175; -693.000; -621.000
231.783;   69.550;  546.000;  525.000
231.927;  -42.650; -294.000; -365.000
232.071; -104.350; -962.000; -736.000
232.214; -101.675; -980.000; -764.000
232.358;  -82.725; -683.000; -599.000
232.502;    0.425;  -19.000;    7.000
232.645; -122.250;-1090.000; -927.000
232.789;  -20.700; -257.000; -218.000
232.933;  -35.875; -407.000; -224.000
233.076; -119.225;-1038.000; -897.000
233.220;  -95.425; -752.000; -777.000
233.363;  -72.475; -669.000; -477.000
233.507;   53.725;  371.000;  129.000
233.650;  -95.025; -764.000; -834.000
233.794;   53.725;  438.000;  461.000
233.938;  -64.025; -530.000; -362.000
234.081;   -6.725;  -93.000;   31.000
234.225;  -77.575; -631.000; -539.000
234.368; -108.925; -773.000; -723.000
234.512;  -42.600; -385.000; -299.000
234.655;  -81.175; -582.000; -555.000
234.798;  -70.475; -493.000; -466.000
234.942; -110.225; -884.000;-1002.000
235.085;  -79.600; -651.000; -443.000
235.229;  -68.150; -405.000; -410.000
235.372;  -50.525; -247.000; -191.000
235.516;  -42.000; -397.000; -321.000
235.659;   12.475;   92.000;  121.000
235.802;  -13.000;  -38.000;  -22.000
235.946;   17.425;  335.000;  215.000
236.089;   35.725;  126.000;  250.000
236.233;   53.575;  275.000;  298.000
236.376;  -36.350; -235.000; -378.000
236.519;  -55.200; -297.000; -319.000
236.663;  -15.775; -215.000; -117.000
236.806; -132.550;-1029.000; -999.000
236.949;   55.725;  543.000;  431.000
237.092;   55.700;  412.000;  391.000
237.236;  -71.475; -589.000; -502.000
237.379;   62.200;  352.000;  428.000
237.522; -107.525; -879.000; -768.000
237.666;  -13.875; -271.000;   18.000
237.809; -110.725; -851.000; -823.000
237.952;   34.200;  469.000;  271.000
238.095;  -69.000; -447.000; -442.000
238.238;   70.375;  688.000;  700.000
238.382;   -5.200;  166.000;  103.000
238.525;  -60.500; -598.000; -511.000
238.668; -134.875;-1060.000; -985.000
238.811;  -80.025; -638.000; -643.000
238.954;  -37.750; -483.000; -334.000
239.097;   89.925;  617.000;  664.000
239.241;   21.525;  394.000;  326.000
239.384;  -43.625; -254.000; -214.000
239.527;  -61.400; -424.000; -224.000
239.670; -144.975; -994.000;-1091.000
239.813;  -92.325; -696.000; -658.000
239.956;   70.600;  579.000;  473.000
240.099;  -98.550; -778.000; -725.000
240.242;   63.775;  428.000;  432.000
240.385;   53.300;  466.000;  450.000
240.528;  -61.275; -706.000; -473.000
240.671;   33.500;  189.000;  134.000
240.814;  -54.000; -441.000; -158.000
240.957; -102.750; -767.000; -578.000
241.100;  -90.925; -779.000; -755.000
241.243; -132.100;-1234.000; -893.000
241.386;  -70.850; -508.000; -379.000
241.529;  -83.225; -735.000; -547.000
241.672;  -52.400; -566.000; -495.000
241.815; -108.375; -832.000; -808.000
241.958;  -31.625; -125.000; -182.000
242.101;  -66.325; -545.000; -390.000
242.244;  -41.200; -270.000; -325.000
242.387;  -32.275; -304.000; -246.000
242.530;   43.625;  470.000;  134.000
242.673;  -35.100; -381.000; -309.000
242.815; -118.850; -925.000; -899.000
242.958;  -61.675; -482.000; -381.000
243.101;   10.550;  132.000;  187.000
243.244;  -76.650; -564.000; -521.000
243.387;  -42.100; -313.000; -316.000
243.530;  -90.375; -657.000; -674.000
243.672;    8.525;   43.000;  -92.000
243.815;  -44.500; -355.000; -283.000
243.958;    7.900;   98.000;  -26.000
244.101;    7.750;   59.000;  -16.000
244.243;  -14.525;  -47.000;  101.000
244.386;  -87.275; -761.000; -630.000
244.529;  -15.550; -132.000; -139.000
244.672; -147.175;-1154.000; -951.000
244.814; -102.400; -621.000; -794.000
244.957;  -57.450; -380.000; -304.000
245.100;  -74.200; -489.000; -489.000
245.242;  -64.250; -387.000; -374.000
245.385;  -22.375;  -59.000;  -39.000
245.528; -114.975; -871.000; -705.000
245.670;   85.550;  612.000;  634.000
245.813;  -78.725; -599.000; -547.000
245.956;  -26.675; -324.000; -275.000
246.098;  -70.375; -508.000; -650.000
246.241;   20.350;  194.000;   48.000
246.383;  -27.025; -119.000;  -73.000
246.526;  -68.775; -454.000; -525.000
246.669; -104.600; -889.000; -780.000
246.811;    3.225;  172.000;   -1.000
246.954;  -58.225; -512.000; -426.000
247.096;  -30.325;  -84.000;   -6.000
247.239;  -61.800; -482.000; -445.000
247.381;  -77.825; -647.000; -488.000
247.524;   82.800;  645.000;  679.000
247.666;   -8.550;   58.000;   11.000
247.809; -114.075; -887.000; -691.000
247.951;   -3.725;  -75.000;  138.000
248.094;   32.475;  432.000;  308.000
248.236; -147.525;-1262.000;-1238.000
248.378;  -22.525; -356.000;  -81.000
248.521;  -31.525; -334.000; -337.000
248.663;  -35.950; -236.000; -267.000
248.806;  -22.000; -300.000; -266.000
248.948; -108.075; -886.000; -763.000
249.090;  -57.550; -428.000; -398.000
249.233;  -51.050; -344.000; -381.000
249.375;  -63.675; -474.000; -451.000
249.518;   -7.425;  -83.000; -133.000
249.660;   13.600; -103.000;    3.000
249.802; -167.925;-1303.000;-1189.000
249.945;  -77.700; -612.000; -540.000
250.087; -100.375; -834.000; -768.000
250.229;  -54.175; -362.000; -480.000
250.371;  -69.400; -494.000; -439.000
250.514;  -60.350; -310.000; -244.000
250.656;   -8.700;   69.000;  102.000
250.798; -109.050; -849.000; -800.000
250.940;  -60.275; -322.000; -322.000
251.083;  -48.125; -335.000; -111.000
251.225;   49.800;  338.000;  310.000
251.367;  -55.400; -274.000; -373.000
251.509;  -25.075; -265.000; -210.000
251.651;  -99.150; -731.000; -671.000
251.794;   54.500;  538.000;  632.000
251.936; -106.325; -821.000; -747.000
252.078;  -75.275; -540.000; -461.000
252.220;  -66.250; -645.000; -477.000
252.362;   53.125;  344.000;  462.000
252.504;  -80.350; -677.000; -584.000
252.646;  -98.400; -875.000; -722.000
252.788;   -6.600;   14.000; -128.000
252.931;  -38.875; -257.000; -253.000
253.073;  -44.225; -376.000; -317.000
253.215;   -5.350;  141.000;  122.000
253.357;  -13.700;   82.000; -153.000
253.499;  -44.075; -374.000; -234.000
253.641;  -97.125; -749.000; -594.000
253.783;  -84.150; -609.000; -527.000
253.925;  -93.900; -586.000; -591.000
254.067;  -96.300; -744.000; -667.000
254.209;  -33.025; -391.000; -259.000
254.351; -111.875; -865.000; -883.000
254.493;  -71.975; -441.000; -417.000
254.635; -117.025; -936.000; -818.000
254.777;  -82.650; -752.000; -687.000
254.918;  -61.975; -512.000; -430.000
255.060;  -64.750; -551.000; -395.000
255.202;  -61.700; -473.000; -261.000
255.344;  -73.450; -658.000; -455.000
255.486;  -63.925; -471.000; -406.000
255.628; -116.375; -780.000; -781.000
255.770;  -75.625; -676.000; -536.000
255.912;  -72.025; -559.000; -468.000
256.053;  -90.950; -730.000; -508.000
256.195;  148.525; 1008.000;  903.000
256.337;  -93.575; -861.000; -595.000
256.479;   42.875;  532.000;  416.000
256.621;  -44.575; -394.000; -212.000
256.762;  -85.075; -789.000; -742.000
256.904;   50.775;  485.000;  487.000
257.046;  -50.125; -381.000; -271.000
257.188;  -43.250; -351.000; -264.000
257.329;  -82.225; -525.000; -464.000
257.471; -101.450; -939.000; -807.000
257.613;  -79.275; -584.000; -498.000
257.755; -145.575;-1073.000; -982.000
257.896;   21.775;  286.000;  392.000
258.038;  -51.125; -403.000; -352.000
258.180;  -45.125; -354.000; -279.000
258.321;  -80.375; -581.000; -457.000
258.463;   -9.625;  -71.000;  133.000
258.605;  -94.900; -562.000; -570.000
258.746; -101.325; -886.000; -772.000
258.888; -135.600;-1026.000;-1020.000
259.029;   11.200;  121.000;   -8.000
259.171;  -78.050; -614.000; -550.000
259.313;    5.350;  -49.000;  -47.000
259.454;  -67.525; -536.000; -414.000
259.596;  -72.875; -483.000; -390.000
259.737;  -67.075; -590.000; -474.000
259.879;   31.400;  217.000;  311.000
260.020;   88.175;  901.000;  636.000
260.162;  -37.900; -146.000; -253.000
260.303; -107.350; -768.000; -687.000
260.445;  -85.450; -609.000; -613.000
260.586;   26.050;  392.000;  157.000
260.728;  -51.875; -360.000; -248.000
260.869;  -67.125; -350.000; -343.000
261.011;   69.725;  706.000;  537.000
261.152;  -57.425; -479.000; -319.000
261.293;  -87.850; -576.000; -595.000
261.435;  -33.775; -219.000; -184.000
261.576;  -50.100; -455.000; -325.000
261.718;   57.550;  420.000;  470.000
261.859; -140.550; -940.000; -949.000
262.000; -119.150; -951.000;-1016.000
262.142;  -21.650;  -52.000;  -60.000
262.283; -108.100; -808.000; -691.000
262.424; -104.550; -666.000; -625.000
262.566; -145.550;-1161.000; -983.000
262.707; -111.825; -840.000; -830.000
262.848; -115.250; -769.000; -726.000
262.990;  -47.575; -362.000; -345.000
263.131;   79.625;  650.000;  681.000
263.272;  -10.475;  -61.000;  -41.000
263.413;  -90.825; -589.000; -561.000
263.555;  -60.475; -669.000; -143.000
263.696;  -71.425; -550.000; -641.000
263.837;  -68.875; -449.000; -551.000
263.978;  -11.600;   -5.000;  -77.000
264.119;  -53.175; -283.000; -264.000
264.261; -110.425; -847.000; -630.000
264.402;   -5.475;   33.000;   40.000
264.543;  -71.325; -509.000; -524.000
264.684;   -1.775;   61.000;  -50.000
264.825;  -73.825; -816.000; -538.000
264.966;    0.875;  -84.000;  -67.000
265.107; -104.125; -646.000; -670.000
265.248; -124.550; -825.000; -812.000
265.390;   -2.125;  152.000;   -9.000
265.531;  -28.750; -238.000; -107.000
265.672;  -73.225; -557.000; -630.000
265.813;   49.925;  563.000;  439.000
265.954; -132.775; -959.000; -940.000
266.095;  -17.475; -372.000; -322.000
266.236;  -87.975; -686.000; -548.000
266.377;  -32.275; -243.000; -297.000
266.518;  -64.675; -619.000; -547.000
266.659;   22.550;  170.000;  268.000
266.800;    5.175;   83.000;   85.000
266.941;  -79.350; -487.000; -478.000
267.082;   12.750;  354.000;   99.000
267.223;  -69.900; -344.000; -273.000
267.364;  -88.925; -892.000; -686.000
267.504;  -23.825;    3.000;  135.000
267.645;   11.175;  160.000;   67.000
267.786;  -41.350; -147.000;  -86.000
267.927;  -67.625; -473.000; -379.000
268.068;  -11.850; -186.000;  -61.000
268.209;  -46.725; -175.000; -413.000
268.350;  -64.275; -388.000; -532.000
268.490;  -77.675; -648.000; -521.000
268.631;   26.025;  127.000;  225.000
268.772;  -93.450; -874.000; -647.000
268.913;  -65.550; -328.000; -476.000
269.054;  -26.450; -117.000;   12.000
269.194;  -48.300; -418.000; -402.000
269.335; -150.275;-1137.000;-1074.000
269.476;  -10.550;   33.000;  -35.000
269.617;  -46.475; -347.000; -392.000
269.757;  -87.575; -713.000; -646.000
269.898; -103.025; -856.000; -613.000
270.039;  -63.475; -415.000; -405.000
270.180; -133.475; -952.000; -816.000
270.320;  -33.375; -190.000; -250.000
270.461;  -41.900; -277.000; -249.000
270.602;  -11.175; -186.000; -156.000
270.742; -119.200; -868.000; -943.000
270.883;  -59.525; -442.000; -390.000
271.023;  -51.375; -358.000; -357.000
271.164;  -76.275; -607.000; -528.000
271.305;  -93.400; -666.000; -654.000
271.445;  -84.800; -722.000; -683.000
271.586;  -69.150; -462.000; -283.000
271.726;  -74.600; -397.000; -322.000
271.867;  -56.750; -594.000; -534.000
272.008;   63.375; -473.000; -285.000
272.148;   73.100;  462.000;  468.000
272.289;  -16.500; -113.000; -181.000
272.429;   -3.250;   19.000;  185.000
272.570;  -95.350; -633.000; -737.000
272.710;  -89.250; -825.000; -775.000
272.851;  -34.500;  113.000; -130.000
272.991; -154.850;-1173.000;-1077.000
273.131;  -75.650; -419.000; -459.000
273.272;  -78.575; -683.000; -723.000
273.412;    1.700; -143.000;  -31.000
273.553;  -73.050; -488.000; -507.000
273.693;  106.500;  913.000;  858.000
273.834; -105.200; -894.000; -692.000
273.974;  -90.275; -664.000; -615.000
274.114;  -99.325; -772.000; -560.000
274.255;   43.875;  414.000;  373.000
274.395;  -14.300; -180.000; -125.000
274.535;   19.175;  199.000;  350.000
274.676;   26.400;  225.000;   94.000
274.816;    1.100;  110.000;   34.000
274.956;  -86.975; -624.000; -690.000
275.097;  -92.425;-1014.000; -922.000
275.237; -115.025; -913.000; -803.000
275.377; -103.300; -778.000; -689.000
275.517; -143.650; -878.000; -937.000
275.658;  -89.250; -590.000; -555.000
275.798;  -84.725; -606.000; -413.000
275.938;    1.350;  215.000;  323.000
276.078;  -72.525; -626.000; -395.000
276.218;  -12.050;   99.000;  104.000
276.359; -131.750;-1026.000;-1024.000
276.499;  -80.100; -605.000; -446.000
276.639;  -33.925; -305.000; -151.000
276.779;  -59.975; -475.000; -357.000
276.919; -107.375; -783.000; -624.000
277.059;  -33.925; -261.000; -212.000
277.199;  -47.150; -357.000; -259.000
277.340;   36.925;  287.000;  175.000
277.480; -110.100; -840.000; -693.000
277.620;   24.950;  192.000;   16.000
277.760; -197.400;-1533.000;-1294.000
277.900;  -16.600;  113.000;   33.000
278.040;   11.875;  137.000;  159.000
278.180;   18.375;  270.000;  170.000
278.320;   -4.100;   21.000;   56.000
278.460;  -69.175; -443.000; -469.000
278.600;  -78.200; -708.000; -598.000
278.740;   29.875;  448.000;  224.000
278.880;  -94.600; -768.000; -791.000
279.020;  -25.100; -194.000; -144.000
279.160;  -91.800; -672.000; -595.000
279.300; -129.625; -926.000; -873.000
279.440;  -86.375; -709.000; -622.000
279.579;  -76.475;-1014.000; -929.000
279.719;  -57.400; -410.000; -394.000
279.859;   43.275;   -4.000;   41.000
279.999;   -4.100; -208.000;  101.000
280.139;  -45.350; -435.000; -387.000
280.279;  -79.500; -708.000; -745.000
280.419;  -10.500; -229.000; -147.000
280.559;  -29.950; -259.000; -180.000
280.698;  -90.900; -790.000; -639.000
280.838; -110.350; -778.000; -800.000
280.978;  -95.400; -846.000; -790.000
281.118;  -98.850; -811.000; -704.000
281.257;   -0.425;   24.000;    6.000
281.397; -133.525;-1094.000; -960.000
281.537; -107.950; -599.000; -712.000
281.677;  -27.200; -150.000; -101.000
281.816;  -94.225; -700.000; -630.000
281.956;  -48.050; -193.000; -257.000
282.096;  -67.950; -539.000; -396.000
282.235;  -95.400; -672.000; -638.000
282.375;  -29.025; -243.000;  -98.000
282.515; -108.050; -715.000; -707.000
282.654;    6.625;   29.000;  106.000
282.794;   16.950;  388.000;  244.000
282.934;  -44.900; -530.000; -491.000
283.073; -124.950;-1030.000; -857.000
283.213;  -68.850; -460.000; -467.000
283.353;  -47.650; -408.000; -349.000
283.492;  -38.300; -264.000; -296.000
283.632;  -25.375; -254.000; -168.000
283.771;  -90.650; -859.000; -730.000
283.911;  -58.675; -369.000; -260.000
284.050;  -99.250; -794.000; -748.000
284.190; -139.825;-1229.000;-1096.000
284.329; -141.525;-1055.000; -964.000
284.469;  -78.800; -516.000; -591.000
284.608;  -67.000; -559.000; -598.000
284.748;  -72.850; -614.000; -570.000
284.887;   -4.550;  -87.000;  -20.000
285.027; -113.275; -844.000; -892.000
285.166;  -34.000; -192.000; -249.000
285.306;   -4.250; -116.000;  -33.000
285.445;  -35.275; -229.000; -343.000
285.584;  -81.525; -630.000; -494.000
285.724;  -44.625; -282.000; -322.000
285.863; -100.950; -857.000; -507.000
286.002;  -53.800; -366.000; -276.000
286.142; -107.950; -715.000; -622.000
286.281;  -64.400; -525.000; -493.000
286.420;  -83.775; -554.000; -417.000
286.560;   78.250;  653.000;  623.000
286.699; -137.250; -958.000; -912.000
286.838;  -94.700; -590.000; -591.000
286.978;  -75.100; -533.000; -537.000
287.117; -140.675;-1085.000; -950.000
287.256;  -42.600; -228.000; -211.000
287.395;  -53.400; -197.000; -378.000
287.535;  -44.775; -370.000; -298.000
287.674;  -71.975; -509.000; -484.000
287.813;   50.950;  661.000;  533.000
287.952; -135.650;-1010.000; -871.000
288.091; -144.050;-1049.000; -915.000
288.231;    2.800;   13.000;   15.000
288.370; -157.575;-1217.000;-1200.000
288.509;  -89.050; -728.000; -645.000
288.648;  -90.100; -770.000; -548.000
288.787;  -51.225; -243.000;  -87.000
288.926;  -69.400; -454.000; -475.000
289.065;   98.575;  859.000;  672.000
289.204;  -49.300; -377.000; -217.000
289.344; -101.600; -791.000; -690.000
289.483;   18.950;  416.000;  304.000
289.622;  -35.850; -291.000; -149.000
289.761;  -26.325; -309.000; -166.000
289.900;  -99.975; -785.000; -626.000
290.039;  -32.125;  -12.000;  -95.000
290.178;  -56.275; -274.000; -180.000
290.317;  -87.975; -618.000; -479.000
290.456;  -62.100; -463.000; -451.000
290.595; -113.975; -961.000; -833.000
290.734; -123.275; -904.000; -891.000
290.873;  -70.875; -456.000; -420.000
291.011; -107.675; -833.000; -843.000
291.150; -112.200; -770.000; -682.000
291.289;  -39.050; -343.000; -110.000
291.428;  -95.950; -599.000; -480.000
291.567;  -63.700; -370.000; -442.000
291.706;    5.425;  109.000;  154.000
291.845;  -85.600; -597.000; -505.000
291.984; -167.575;-1234.000;-1061.000
292.122;   71.075;  602.000;  582.000
292.261;   32.500;  620.000;  463.000
292.400;   -8.550; -144.000;  211.000
292.539; -119.100; -959.000; -813.000
292.678;  -45.200; -325.000; -300.000
292.816; -154.150;-1136.000; -965.000
292.955; -102.325; -844.000; -684.000
293.094;  -31.800; -173.000; -337.000
293.233;  -57.050; -556.000; -400.000
293.371;  -28.925; -225.000;  -84.000
293.510; -115.875; -866.000; -780.000
293.649; -124.875; -959.000; -924.000
293.787; -124.900;-1083.000;-1012.000
293.926;  -12.850; -113.000;  -32.000
294.065;  -51.950; -379.000; -290.000
294.203;   38.550;  298.000;  406.000
294.342;   19.375;   74.000;  156.000
294.481; 5955.100;51180.000; -836.000
294.619;  -41.600; -425.000; -582.000
294.758; -154.550;-1230.000;-1137.000
294.896;    8.700; -125.000;    5.000
295.035; -122.400;-1040.000;-1006.000
295.174; -130.750;-1082.000; -954.000
295.312;  -43.275; -323.000; -203.000
295.451;  -40.025; -307.000; -428.000
295.589;  -65.050; -389.000; -518.000
295.728;   -8.800; -292.000; -165.000
295.866;    3.475;  -36.000;  -51.000
296.005;  -73.925; -584.000; -341.000
296.143;  -64.225; -558.000; -596.000
296.282; -107.500; -957.000; -881.000
296.420;  -83.675; -657.000; -557.000
296.559; -102.575; -892.000; -633.000
296.697;  -56.100; -847.000; -665.000
296.835;  -74.075;-1141.000;-1002.000
296.974;   26.450;  -23.000;   39.000
297.112;  -54.725; -443.000; -504.000
297.251;  -82.575; -815.000; -755.000
297.389;  -12.475; -576.000; -438.000
297.527;   19.925; -145.000;  -83.000
297.666;  -47.800; -486.000; -438.000
297.804;  -44.100; -404.000; -264.000
297.942;   -2.950; -136.000; -161.000
298.081;   -4.475; -183.000;   63.000
298.219;    5.550;  -17.000;  -19.000
298.357;   11.800; -144.000;  -71.000
298.495;  -67.075; -810.000; -812.000
298.634;   22.725;  245.000;  219.000
298.772;  -21.975; -220.000; -338.000
298.910;  -41.625; -309.000; -182.000
299.048;  -23.675; -130.000; -153.000
299.187;  -34.750; -350.000; -250.000
299.325;    1.525;   52.000;  122.000
299.463;  -16.425; -389.000; -299.000
299.601;   -8.950; -327.000; -271.000
299.739; -122.725; -908.000; -883.000
299.877;  -91.350; -791.000; -703.000
300.016; -104.750;-1095.000; -935.000
300.154;   33.075;  -19.000; -161.000
300.292;  -35.125; -428.000; -348.000
300.430;  -26.475; -408.000; -291.000
300.568; -115.925; -940.000; -874.000
300.706;  -65.425; -366.000; -469.000
300.844; -123.550;-1108.000; -979.000
300.982;   62.625;  246.000;  282.000
301.120; -119.600; -965.000; -866.000
301.258;  -99.250; -812.000; -705.000
301.396;    8.425;  104.000;  -41.000
301.534;  -13.400; -218.000; -293.000
301.672;  -80.650; -664.000; -521.000
301.810;  -66.075; -613.000; -545.000
301.948;   11.475;   53.000;  149.000
302.086;  254.450; -250.000;  -32.000
302.224;  306.500; -610.000; -585.000
302.362;  -48.750; -558.000; -622.000
302.500;  -82.925; -923.000; -893.000
302.638;   31.750;  128.000;  245.000
302.776;  -37.875; -352.000; -408.000
302.913;   31.975;  447.000;  236.000
303.051;  -36.475;  -86.000;  -23.000
303.189;   17.050;   90.000;  118.000
303.327;  -38.250; -341.000; -256.000
303.465; -104.275; -832.000; -588.000
303.603; -103.775; -805.000; -604.000
303.740;   58.800;  417.000;  241.000
303.878;  -62.400; -800.000; -759.000
304.016; -112.800; -915.000; -790.000
304.154; -142.200;-1123.000;-1152.000
304.291;  -65.450; -505.000; -554.000
304.429;    0.575;  102.000;   74.000
304.567; -140.150; -908.000; -893.000
304.705;  -59.475; -408.000; -515.000
304.842;  -22.150; -616.000; -540.000
304.980;   22.450;  215.000;   35.000
305.118;  -11.400; -367.000; -365.000
305.255; -118.350; -945.000; -927.000
305.393;   21.875;  178.000;  239.000
305.531; -124.900;-1173.000; -956.000
305.668;  -84.700; -663.000; -582.000
305.806;    9.400; -358.000; -439.000
305.943;    0.700; -629.000; -637.000
306.081;  -15.400; -378.000; -267.000
306.219;  -96.175; -863.000; -748.000
306.356;   14.950;  158.000;   27.000
306.494;  100.000;  981.000;  761.000
306.631;   -6.000;  -11.000;  -55.000
306.769;  -36.400; -613.000; -485.000
306.906;  -27.250; -284.000; -258.000
307.044;  -59.825; -473.000; -488.000
307.181;  -48.475; -410.000; -332.000
307.319;    0.050;  112.000;   87.000
307.456; -161.750;-1191.000;-1153.000
307.594; -115.450; -980.000; -727.000
307.731;  -19.100; -371.000; -164.000
307.868;  -12.775;  -15.000;   20.000
308.006; -123.925; -961.000; -847.000
308.143;  -83.775; -618.000; -330.000
308.281;   66.225;  -37.000; -254.000
308.418;  -59.175; -748.000; -640.000
308.555;  -62.725; -400.000; -250.000
308.693;  -70.750; -577.000; -573.000
308.830;  -95.400; -712.000; -657.000
308.967;  -13.300; -215.000;  -95.000
309.105;  -34.125; -507.000; -396.000
309.242;   -7.525; -468.000; -367.000
309.379;   84.775; -577.000; -655.000
309.517; -109.550; -936.000; -948.000
309.654;  -97.800; -910.000; -734.000
309.791;  -62.250; -662.000; -580.000
309.928; -105.925; -977.000; -914.000
310.065;  122.825;  819.000;  697.000
310.203;  -58.350; -825.000; -850.000
310.340;  -32.800; -465.000; -321.000
310.477;  -71.050; -412.000; -516.000
310.614;  -64.075; -383.000; -473.000
310.751;  -45.125; -427.000; -518.000
310.889;  -33.525;    1.000;   11.000
311.026; -148.300;-1161.000; -939.000
311.163;  -39.425; -386.000; -380.000
311.300;  -63.775; -512.000; -479.000
311.437;  -71.150; -658.000; -619.000
311.574; -147.875;-1226.000; -985.000
311.711;  -58.975; -595.000; -433.000
311.848;  -25.650; -380.000; -388.000
311.985;   11.075;  270.000;   93.000
312.122; -105.850; -932.000; -762.000
312.259;  -96.975; -941.000; -994.000
312.396;  -60.100; -508.000; -551.000
312.533;  -78.625; -812.000; -790.000
312.670; -118.550;-1070.000; -898.000
312.807;  -33.725; -352.000; -367.000
312.944;  -74.950; -513.000; -611.000
313.081;  -34.975; -150.000; -415.000
313.218;  -95.875;-1111.000; -867.000
313.355;  -13.575; -531.000; -449.000
313.492;   -8.900; -455.000; -292.000
313.629;  116.775;  815.000;  735.000
313.766; -138.100;-1176.000;-1008.000
313.902;  -21.675; -186.000;   21.000
314.039;  -37.400; -372.000; -289.000
314.176;   24.350;  286.000;  192.000
314.313;  -60.425; -569.000; -473.000
314.450;  -73.400; -788.000; -684.000
314.587;  -45.425; -468.000; -480.000
314.723;    9.150;  -78.000;  130.000
314.860;   39.125;  318.000;  332.000
314.997;   39.550;  223.000;  142.000
315.134;  -12.350; -385.000; -368.000
315.270;  -32.575; -480.000; -496.000
315.407; -107.350;-1094.000; -967.000
315.544;  -35.125; -657.000; -538.000
315.681;  -45.900; -681.000; -565.000
315.817;   45.425; -133.000; -176.000
315.954;   68.950; -613.000; -392.000
316.091; -111.675;-1045.000;-1023.000
316.227;  -31.925;  -71.000; -179.000
316.364;    1.475;   23.000;    6.000
316.500;  -41.100; -113.000; -300.000
316.637;  -50.450; -181.000; -302.000
316.774;  -73.650; -625.000; -358.000
316.910;  -83.275; -598.000; -629.000
317.047;  -66.600; -487.000; -351.000
317.183;  -56.700; -435.000; -566.000
317.320;   32.325; -367.000; -321.000
317.456;  -41.050; -733.000; -805.000
317.593;  -69.700; -598.000; -641.000
317.729;   -3.175;  168.000;  -67.000
317.866; -175.600;-1434.000;-1285.000
318.002;  -97.825; -708.000; -948.000
318.139;  -94.275; -883.000; -867.000
318.275; -114.200;-1003.000; -738.000
318.412;  -67.075; -517.000; -336.000
318.548;  -80.625; -751.000; -720.000
318.685;  -97.000; -985.000; -888.000
318.821;  -99.075; -762.000; -735.000
318.957;  -12.900;   34.000;  -23.000
319.094;   31.875;  297.000;  154.000
319.230;  -76.125; -756.000; -742.000
319.367;    7.975; -471.000; -520.000
319.503;  -12.150; -538.000; -436.000
319.639; -103.475; -877.000; -793.000
319.775;  -95.900; -750.000; -685.000
319.912;  -62.225; -424.000; -519.000
320.048;  -86.775;-1184.000;-1184.000
320.184;   80.950;   59.000;   70.000
320.321;  -50.025; -497.000; -467.000
320.457;   52.400;  475.000;  662.000
320.593;  -63.625; -375.000; -382.000
320.729; -116.850; -732.000; -734.000
320.866;  -75.725; -577.000; -635.000
321.002; -101.625; -759.000; -809.000
321.138;  -38.975; -135.000; -211.000
321.274;   15.400; -148.000; -115.000
321.410;  -51.275; -585.000; -353.000
321.546; -103.150;-1011.000; -911.000
321.683;   33.825;  400.000;  185.000
321.819;  -20.900;  -48.000; -117.000
321.955; -113.550; -743.000; -722.000
322.091;  -71.425; -585.000; -540.000
322.227;  -36.925; -382.000; -202.000
322.363;  -38.975; -320.000; -215.000
322.499;  -47.250; -343.000; -331.000
322.635;   89.900;  636.000;  443.000
322.771;  -11.300; -139.000;   12.000
322.907;   40.775;  129.000;  327.000
323.043;  -32.575; -115.000; -206.000
323.179;  -72.400; -394.000; -363.000
323.315;  -45.875; -401.000; -371.000
323.451;   12.275; -328.000; -236.000
323.587;   54.650;  -60.000;  -77.000
323.723;  -52.375; -682.000; -601.000
323.859;  -27.000; -258.000;  -76.000
323.995;  -52.100; -467.000; -409.000
324.131; -136.950; -967.000; -892.000
324.267;  -41.575; -254.000; -276.000
324.402; -126.575; -960.000; -983.000
324.538;  -37.225; -279.000; -104.000
324.674;    2.400;  164.000;   77.000
324.810;   43.125;  226.000;  308.000
324.946;  -29.825; -810.000; -658.000
325.082;  -71.500; -568.000; -475.000
325.217;  -11.750;  -62.000;   16.000
325.353; -101.025; -764.000; -659.000
325.489; -102.200; -540.000; -506.000
325.625;  -71.475; -579.000; -525.000
325.760;   70.800;  517.000;  376.000
325.896;   16.025; -515.000; -702.000
326.032;  -48.900; -403.000; -352.000
326.168;  -73.100; -462.000; -369.000
326.303;  -55.525; -352.000; -461.000
326.439;  -18.500; -336.000; -276.000
326.575;   -7.675; -190.000;  -29.000
326.710;  -28.450; -156.000;  -30.000
326.846;  -17.850;  146.000;  103.000
326.982;  -89.400; -530.000; -548.000
327.117;  -68.250; -481.000; -442.000
327.253;  -82.325; -745.000; -742.000
327.388; -158.900;-1137.000;-1153.000
327.524;  -95.975; -811.000; -578.000
327.659;  -27.250;  -58.000;  -22.000
327.795;  -11.350;   69.000;   45.000
327.931;  -67.625; -723.000; -499.000
328.066;  -30.200; -417.000; -276.000
328.202;  -29.350;   12.000; -129.000
328.337;   81.200;  957.000;  713.000
328.473;   42.025;  -12.000;  -74.000
328.608;  -37.975; -256.000; -267.000
328.743; -107.100; -799.000; -664.000
328.879;    8.325;  214.000;  114.000
329.014;  -31.850; -102.000; -122.000
329.150; -104.850; -358.000; -483.000
329.285;  -73.875; -465.000; -466.000
329.421;  -55.500; -548.000; -246.000
329.556;  -20.700;  -36.000;   85.000
329.691; -106.675; -633.000; -615.000
329.827;  -81.075; -626.000; -480.000
329.962;  -46.875;  131.000; -301.000
330.097;  -76.425; -673.000; -585.000
330.233;  -52.875; -410.000; -223.000
330.368; -113.875; -839.000; -628.000
330.503;   -5.225;    3.000;   98.000
330.638;  -11.550;  -93.000; -125.000
330.774;  -76.850; -609.000; -530.000
330.909;  -42.225; -434.000; -244.000
331.044; -101.600; -714.000; -708.000
331.179; -166.775;-1217.000;-1109.000
331.315;   -9.925;   77.000;   20.000
331.450;   12.750;  157.000;  285.000
331.585;  -85.775; -805.000; -706.000
331.720;  -84.225; -510.000; -460.000
331.855;   -4.850;  -35.000; -102.000
331.990;  407.350;   62.000;  138.000
332.126;  205.400; -110.000;   71.000
332.261;   14.725; -379.000; -265.000
332.396;    1.650; -135.000; -242.000
332.531;  -49.525;-1074.000;-1031.000
332.666;   85.450; -519.000; -363.000
332.801;  -82.400; -726.000; -807.000
332.936;  -28.275; -192.000; -122.000
333.071; -124.275; -870.000; -817.000
333.206;    7.050;  307.000;  379.000
333.341;   33.275;  344.000;  418.000
333.476;  -99.050; -627.000; -623.000
333.611;  -26.200; -251.000; -173.000
333.746;  -44.425; -381.000; -464.000
333.881;  -95.725; -973.000; -935.000
334.016; -130.400; -936.000; -917.000
334.151; -110.100; -746.000; -702.000
334.286;   11.700;  152.000;  186.000
334.421;  -11.875; -125.000; -178.000
334.556;  -96.200; -611.000; -567.000
334.690;  -82.975; -631.000; -577.000
334.825;   48.550;  381.000;   83.000
334.960;  -51.650; -285.000; -413.000
335.095;    4.475;  135.000;  -91.000
335.230;  -81.650; -722.000; -738.000
335.365; -129.350;-1084.000; -990.000
335.499; -108.850;-1108.000;-1037.000
335.634;   21.525;    9.000;  534.000
335.769;  -76.875; -755.000; -720.000
335.904;  -45.450; -603.000; -561.000
336.038;  -22.050; -735.000; -657.000
336.173;  -82.850;-1206.000;-1194.000
336.308;   42.275; -116.000; -189.000
336.443;   85.325; -544.000; -634.000
336.577;  -25.175; -936.000; -787.000
336.712;   84.050;   -4.000;  -12.000
336.847;    3.700; -724.000; -607.000
336.981;   81.550; -272.000; -208.000
337.116;  364.350;  615.000;  501.000
337.250;  178.675; -434.000; -421.000
337.385;  455.100; -297.000; -208.000
337.520;  203.700; -632.000; -603.000
337.654;  -44.000; -215.000; -126.000
337.789; -137.125; -989.000; -933.000
337.923;  -33.925; -104.000; -205.000
338.058; -102.150; -673.000; -738.000
338.192;  -67.675; -611.000; -488.000
338.327;  -13.700;  -18.000; -155.000
338.461;  -52.600; -299.000; -469.000
338.596;  -88.425; -780.000; -638.000
338.730;  -78.900; -767.000; -803.000
338.865;  148.600;  -46.000; -140.000
338.999;    9.450; -846.000; -702.000
339.134;   10.675; -634.000; -536.000
339.268;   42.750; -741.000; -603.000
339.403;  529.475; -740.000; -775.000
339.537;  253.250; -894.000; -820.000
339.671; -108.825; -829.000; -813.000
339.806;  -36.650; -556.000; -512.000
339.940;   29.575; -261.000; -235.000
340.074;  -94.875; -685.000; -510.000
340.209;  -61.975; -351.000; -230.000
340.343;  -87.725; -517.000; -573.000
340.477;  113.700;  998.000; 1036.000
340.612;    7.300;-1033.000; -900.000
340.746;  206.925; -199.000; -243.000
340.880;  -92.150; -924.000; -785.000
341.014;  -28.550;  -45.000; -154.000
341.149; -113.875; -756.000; -718.000
341.283; -120.775; -839.000; -754.000
341.417; -135.025;-1124.000; -938.000
341.551;  -17.450; -768.000; -708.000
341.685;  -59.725; -633.000; -611.000
341.820;  -54.350; -562.000; -493.000
341.954;  -47.650; -218.000; -349.000
342.088; -155.325;-1102.000;-1019.000
342.222;   52.775;  565.000;  618.000
342.356;  -76.875; -395.000; -335.000
342.490; -120.500; -880.000; -841.000
342.624;  -62.375; -339.000; -242.000
342.758;  -43.200; -364.000; -312.000
342.892; -101.875; -710.000; -585.000
343.026;  -39.725;  -58.000; -116.000
343.160;  -68.375; -426.000; -376.000
343.294;  -87.975; -474.000; -337.000
343.428;  -77.475; -488.000; -448.000
343.562;  -26.500; -172.000;  -23.000
343.696;  -57.150; -385.000; -314.000
343.830;  -49.625; -362.000; -356.000
343.964;  -18.150; -231.000; -168.000
344.098;  377.925;  199.000;   70.000
344.232;  303.175; -266.000; -127.000
344.366;   80.550; -567.000; -453.000
344.500;  -37.125; -665.000; -744.000
344.634;  -26.875; -324.000; -164.000
344.768;  -71.825; -531.000; -341.000
344.902;    5.975;  278.000;  256.000
345.035;  -79.650; -556.000; -496.000
345.169; -139.850; -933.000; -656.000
345.303;  -64.425; -308.000; -482.000
345.437; -100.650; -826.000; -717.000
345.571;  -71.300; -675.000; -594.000
345.704;  -60.450; -309.000; -532.000
345.838;  -23.925; -331.000; -284.000
345.972;  -49.475; -543.000; -495.000
346.106;  241.425; -179.000; -190.000
346.239;  466.425; -312.000; -243.000
346.373;    0.750; -343.000; -302.000
346.507; -131.900; -950.000; -962.000
346.640;   42.925;  -30.000;   13.000
346.774;  -71.425; -650.000; -797.000
346.908;  -37.800; -138.000;  -11.000
347.041;  -96.650; -646.000; -593.000
347.175;  -25.500;  259.000;   27.000
347.309;  -91.225; -698.000; -628.000
347.442; -115.650; -883.000; -732.000
347.576;  144.675;  670.000;  668.000
347.709;   45.675; -123.000;  -52.000
347.843; -119.075; -933.000; -825.000
347.976;   13.175;  235.000;  294.000
348.110; -170.050;-1268.000;-1186.000
348.243; -115.700; -679.000; -772.000
348.377;    3.675;  -26.000;   60.000
348.510;   42.950;  403.000;  540.000
348.644;  -47.500;  -37.000; -159.000
348.777;   -8.975;  180.000;  191.000
348.911;  -55.700; -142.000; -112.000
349.044;   81.575;  471.000;  448.000
349.178;   -7.075;-1069.000;-1006.000
349.311;   96.375;  141.000;  255.000
349.444;   39.150; -927.000; -813.000
349.578;  -39.700; -347.000; -200.000
349.711; -118.200; -959.000; -862.000
349.845;  -70.500; -661.000; -591.000
349.978; -145.650;-1224.000;-1137.000
350.111;  -90.825; -546.000; -612.000
350.244;  -93.100; -596.000; -700.000
350.378;  -48.900; -392.000; -393.000
350.511;  -57.500; -393.000; -426.000
350.644;  -97.450; -808.000; -806.000
350.778;    4.700;  168.000;  104.000
350.911;   -9.200;  134.000;  140.000
351.044;  -82.600; -685.000; -615.000
351.177;  -34.025; -321.000; -281.000
351.310;  -16.875;    3.000; -131.000
351.444;  -97.750; -888.000; -788.000
351.577;   40.825;  140.000;   90.000
351.710;   67.950;  593.000;  417.000
351.843;  -38.925; -165.000;  -77.000
351.976;  -19.575;  149.000;  -79.000
352.109;  -93.425; -621.000; -612.000
352.242;  -61.325; -464.000; -419.000
352.376;  -76.650; -580.000; -636.000
352.509;   36.575; -437.000; -356.000
352.642;  -78.950; -654.000; -604.000
352.775;    9.350; -141.000;  -98.000
352.908; -110.675; -933.000; -904.000
353.041; -109.125; -814.000; -824.000
353.174;  -58.425; -551.000; -424.000
353.307;  -81.950; -753.000; -764.000
353.440;   81.850;  541.000;  453.000
353.573;  -94.300; -957.000;-1008.000
353.706;  -34.125; -384.000; -558.000
353.839;  -25.600; -264.000; -220.000
353.971;  -86.225; -657.000; -512.000
354.104; -117.575; -896.000; -835.000
354.237;  -81.050; -627.000; -662.000
354.370;  -95.400; -846.000; -879.000
354.503; -167.625;-1231.000;-1308.000
354.636;  -27.625; -529.000; -348.000
354.769; -125.850; -937.000; -860.000
354.902;  -20.450; -230.000; -139.000
355.034;   -0.950; -164.000; -220.000
355.167;   -6.300; -262.000; -162.000
355.300;  -45.900;-1061.000; -880.000
355.433; 1426.450;  -71.000;  -14.000
355.565; 2247.900; -402.000; -384.000
355.698;  586.100; -356.000; -296.000
355.831;    6.775; -882.000; -801.000
355.964;   32.625; -285.000; -170.000
356.096;  -66.400; -856.000; -843.000
356.229;   -6.375; -523.000; -530.000
356.362;  512.050; -373.000; -266.000
356.494;  914.875; -229.000; -162.000
356.627;  337.300;  269.000;  377.000
356.760;  896.350;  120.000;   53.000
356.892; 1513.950; -286.000; -601.000
357.025;  381.500;  403.000;  389.000
357.157;  276.125; -167.000; -179.000
357.290; 1145.825; -856.000; -713.000
357.423;  372.125; -667.000; -556.000
357.555;  133.925; -217.000; -228.000
357.688;  175.075; -483.000; -364.000
357.820;  244.075; -870.000; -877.000
357.953; 1828.050; -563.000; -589.000
358.085;  318.000; -632.000; -612.000
358.218;  200.875;-1131.000; -932.000
358.350;   41.750;  -58.000;  312.000
358.483; -160.375;-1300.000;-1187.000
358.615; -128.000;-1182.000;-1078.000
358.747; -139.700;-1187.000;-1058.000
358.880;  -42.025; -810.000; -744.000
359.012;   -9.575; -376.000; -202.000
359.145;  -73.700; -480.000; -511.000
359.277;  -40.150; -962.000; -913.000
359.409; 1525.325;  536.000;  231.000
359.542;  358.100; -738.000; -688.000
359.674;   14.250;   46.000;   13.000
359.806;  -63.250; -565.000; -438.000
359.939;  -44.650; -617.000; -516.000
360.071;   45.250; -583.000; -579.000
360.203;  -34.425; -411.000; -364.000
360.335;   37.400;  164.000;  -16.000
360.468;   91.850; -249.000; -307.000
360.600; 1523.725; -547.000; -454.000
360.732; 4143.250; -546.000; -423.000
360.864;  633.950;-1216.000;-1044.000
360.996;   89.725; -516.000; -554.000
361.129;  -31.925; -389.000; -598.000
361.261;    8.700;  110.000; -113.000
361.393;  -55.550; -252.000; -214.000
361.525;   -2.475;   94.000;  244.000
361.657;  -83.275; -821.000; -703.000
361.789;  -29.300; -139.000; -155.000
361.921;  -21.400; -642.000; -593.000
362.053;   98.200;  524.000;  541.000
362.185;    7.400;  288.000;   72.000
362.318; -118.150; -709.000; -705.000
362.450;   51.275;  294.000;  444.000
362.582;  -73.950; -913.000; -870.000
362.714;  -55.600; -353.000; -332.000
362.846;  -85.450; -606.000; -490.000
362.978; -127.525; -941.000; -811.000
363.109;  -32.225; -161.000; -260.000
363.241;  168.275; -739.000; -749.000
363.373;  625.500; -649.000; -564.000
363.505; 1009.875; -186.000;  -91.000
363.637;  220.550; -787.000; -601.000
363.769; -131.675;-1067.000;-1080.000
363.901;  -86.800; -596.000; -654.000
364.033; -152.700;-1103.000;-1062.000
364.165;  -36.800; -283.000; -283.000
364.296;  103.800; -316.000; -177.000
364.428;  194.700;-1344.000;-1220.000
364.560;  -50.800; -679.000; -661.000
364.692;  -81.100; -738.000; -835.000
364.824;   14.950; -588.000; -456.000
364.955;  474.975; -402.000; -564.000
365.087; 1596.725;-1097.000; -852.000
365.219;   94.150; -686.000; -816.000
365.351;  -63.950; -526.000; -572.000
365.482;   22.350;  300.000;  240.000
365.614;  -63.125; -402.000; -314.000
365.746; -121.925; -729.000; -752.000
365.877;  -98.100; -706.000; -672.000
366.009;  406.575;  -35.000;  -62.000
366.141;  -18.700;-1249.000;-1134.000
366.272; -113.775; -803.000; -719.000
366.404; -110.425;-1005.000; -874.000
366.535;  -31.925; -139.000;  -12.000
366.667; -107.350; -644.000; -649.000
366.799;   31.375;  353.000;  203.000
366.930; -123.575; -862.000; -996.000
367.062;  174.925; -639.000; -613.000
367.193;  332.925; -872.000; -842.000
367.325;  -56.550; -580.000; -684.000
367.456;   -2.625; -246.000;   31.000
367.588;  256.400; -371.000; -318.000
367.719;   51.675;  -44.000;  -45.000
367.851;  -54.825; -222.000; -241.000
367.982;  -91.900; -875.000; -732.000
368.113;  -10.500; -475.000; -358.000
368.245; -138.000; -960.000; -841.000
368.376;  -66.425; -254.000; -302.000
368.508;  -52.900; -188.000; -263.000
368.639; -167.875;-1166.000;-1034.000
368.770;  -81.575; -670.000; -589.000
368.902; -117.100; -836.000; -926.000
369.033; -116.850; -906.000; -855.000
369.164;  -32.025; -720.000; -653.000
369.296; -106.725; -452.000; -601.000
369.427;  -36.975; -209.000; -144.000
369.558;  -68.400; -593.000; -377.000
369.689;  -89.000; -721.000; -569.000
369.821; -141.875; -951.000; -845.000
369.952;  -37.225;   42.000; -108.000
370.083;  -51.575; -229.000; -108.000
370.214; -109.325; -735.000; -650.000
370.345;   -9.325;   65.000;   81.000
370.477; -118.975; -810.000; -790.000
370.608;   70.050; -328.000; -264.000
370.739; -129.700;-1233.000;-1292.000
370.870; -109.625;-1102.000; -923.000
371.001;   -7.325; -378.000; -467.000
371.132;  -83.500; -754.000; -735.000
371.263;  -48.025;  -42.000; -148.000
371.394; -125.775; -841.000; -748.000
371.525;   12.475;  345.000;  225.000
371.657; -108.525; -808.000; -670.000
371.788;   20.150;  103.000;  199.000
371.919;   37.950; -384.000; -304.000
372.050; 1556.700;  -91.000; -156.000
372.181;  469.250; -188.000; -294.000
372.311;  138.325;   42.000; -127.000
372.442;  -19.000; -457.000; -451.000
372.573;  -67.825; -444.000; -340.000
372.704; -141.825;-1008.000; -980.000
372.835;  -11.125; -228.000; -289.000
372.966;  -89.650; -646.000; -554.000
373.097;  -95.750; -575.000; -711.000
373.228;  -76.575; -717.000; -542.000
373.359;  -25.600; -824.000; -536.000
373.490;  246.550; -881.000; -727.000
373.620;  330.425;-1001.000; -803.000
373.751;  686.025; -332.000; -396.000
373.882;  283.875; -663.000; -733.000
374.013;   -6.975; -449.000; -262.000
374.143;  -79.450; -581.000; -659.000
374.274; -125.575; -987.000; -908.000
374.405;   65.275; -388.000; -276.000
374.536;  139.875; -526.000; -387.000
374.666;  373.075; -759.000; -807.000
374.797;    9.550; -817.000; -868.000
374.928;  248.375; -710.000; -560.000
375.058;  264.375; -535.000; -500.000
375.189;    6.425;  -59.000;  -93.000
375.320; -111.075; -928.000;-1034.000
375.450;  -55.325; -625.000; -616.000
375.581;  -37.675; -526.000; -436.000
375.712;  -51.475; -574.000; -250.000
375.842;   35.100; -438.000; -415.000
375.973;    8.175; -554.000; -513.000
376.103; -105.625; -665.000; -648.000
376.234;  -94.750; -531.000; -552.000
376.364; -108.875; -944.000; -867.000
376.495;  150.300;  925.000;  529.000
376.625;  -51.850; -472.000; -485.000
376.756;  -47.475; -709.000; -678.000
376.886; -121.375;-1178.000;-1026.000
377.017;  132.525;-1048.000;-1061.000
377.147;  644.075; -786.000; -782.000
377.278;   63.100;  174.000;  228.000
377.408; -119.000; -801.000; -815.000
377.538;  -97.500; -707.000; -693.000
377.669;  -83.800; -537.000; -613.000
377.799; -114.250; -645.000; -635.000
377.929;  -72.675; -610.000; -428.000
378.060; -126.025; -781.000; -847.000
378.190;  -41.275; -726.000; -531.000
378.320;  -50.500; -401.000; -406.000
378.451;  -15.225; -131.000;  -22.000
378.581;  -43.000;  -67.000; -110.000
378.711;   97.500; 1035.000;  866.000
378.841;  -76.550; -533.000; -675.000
378.972;  -97.375; -871.000; -751.000
379.102;  -63.000; -652.000; -579.000
379.232;  -18.325; -126.000;  -73.000
379.362; -121.575;-1001.000; -885.000
379.492;  -53.375; -373.000; -424.000
379.623;   39.500;    0.000;  111.000
379.753; -111.200;-1107.000; -974.000
379.883;   88.825;   59.000;  156.000
380.013;  -65.325;-1081.000;-1017.000
380.143; -130.325;-1097.000;-1056.000
380.273; -100.550; -985.000; -861.000
380.403;   16.725; -344.000; -257.000
380.533;  -43.625; -651.000; -664.000
380.663;   30.750;  173.000;  128.000
380.793; -156.450;-1027.000;-1074.000
380.923;  -54.575; -103.000;  -34.000
381.053; -106.600; -613.000; -623.000
381.183;  -41.975; -106.000; -248.000
381.313;  -53.225; -656.000; -470.000
381.443;  -50.425; -692.000; -473.000
381.573;  -19.425; -402.000; -409.000
381.703;  -60.075;-1249.000;-1095.000
381.833; -172.900;-1454.000;-1336.000
381.963;   17.750; -134.000;  -87.000
382.093;  508.450; -925.000; -909.000
382.223;  137.300; -713.000; -602.000
382.353;  -85.950; -801.000; -608.000
382.482;   47.525;-1091.000; -964.000
382.612;  256.750; -872.000; -644.000
382.742;  110.400; -695.000; -622.000
382.872;   -3.650; -565.000; -551.000
383.002;   17.775;  347.000; -132.000
383.131;  -10.200; -226.000; -160.000
383.261;  -50.400; -706.000; -768.000
383.391;  320.125; -552.000; -377.000
383.521; 4888.350;  451.000;  263.000
383.650; 1442.350; -947.000; -904.000
383.780;   27.950; -783.000; -656.000
383.910;  105.625;  880.000;  802.000
384.039;  -80.675; -794.000; -656.000
384.169;  -59.325;-1205.000;-1017.000
384.299;  -85.975; -650.000; -662.000
384.428; -123.425; -764.000; -680.000
384.558;  -73.000; -308.000; -275.000
384.687;  -73.050; -414.000; -334.000
384.817;  -26.425;   75.000;   -2.000
384.947;  -19.050; -234.000; -141.000
385.076;  156.850;  982.000;  912.000
385.206;   45.775;  369.000;  480.000
385.335;  -70.775; -549.000; -417.000
385.465; -106.475; -655.000; -663.000
385.594;   24.300;  -53.000;  -44.000
385.724;   82.050; -868.000; -838.000
385.853;    3.875; -296.000; -270.000
385.982;  449.625; -743.000; -787.000
386.112;  829.750;-1052.000; -871.000
386.241;   23.975; -307.000; -312.000
386.371;  -22.650; -174.000;  -87.000
386.500;  -48.075; -825.000; -789.000
386.629;    7.975; -874.000; -817.000
386.759;   82.000;  -43.000;   68.000
386.888;  -36.675; -170.000; -250.000
387.017;  -92.700; -648.000; -620.000
387.147; -115.850; -771.000; -798.000
387.276;  -61.575; -410.000; -397.000
387.405;  -46.125; -398.000; -342.000
387.535;  -68.650; -452.000; -361.000
387.664;  -62.550; -692.000; -620.000
387.793;   -4.075; -198.000; -113.000
387.922;  169.400;  255.000;  200.000
388.052;  -45.825; -576.000; -423.000
388.181;  -43.225; -342.000; -472.000
388.310; -104.300; -889.000; -710.000
388.439; -108.225; -749.000; -742.000
388.568;   73.350;  365.000;  244.000
388.697;  345.700; -756.000; -653.000
388.826;    0.750; -768.000; -666.000
388.956;  -31.750; -285.000; -307.000
389.085;  -49.175; -347.000; -287.000
389.214; -125.225; -842.000; -872.000
389.343;  -75.700; -645.000; -413.000
389.472;  557.200;  126.000;  149.000
389.601;  637.275;   91.000;    0.000
389.730;  -31.900; -568.000; -687.000
389.859;   18.150;  226.000;   46.000
389.988;   51.600; -423.000; -408.000
390.117;   50.875; -168.000; -146.000
390.246;  -51.425; -331.000; -320.000
390.375;  -39.825; -673.000; -626.000
390.504; -101.875; -703.000; -621.000
390.633; -108.425; -672.000; -726.000
390.761; -109.450; -732.000; -645.000
390.890;  -21.700;   -4.000; -130.000
391.019;  -72.650; -421.000; -441.000
391.148; -134.375; -826.000; -855.000
391.277; -103.400; -576.000; -493.000
391.406; -117.750; -821.000; -805.000
391.534;   -6.950;  574.000; -301.000
391.663;  -98.900; -583.000; -645.000
391.792; -105.950; -673.000; -701.000
391.921;    8.750;   -3.000;   15.000
392.050;   11.175; -287.000; -228.000
392.178; -126.175;-1206.000;-1061.000
392.307;  -26.825; -758.000; -712.000
392.436;  -28.375; -427.000; -641.000
392.564;    5.300;  166.000;   -6.000
392.693;  -99.925; -860.000; -682.000
392.822;   14.725; -529.000; -534.000
392.950;  -29.300; -880.000; -714.000
393.079;   76.825; -188.000; -328.000
393.208;  -35.700; -488.000; -511.000
393.336;  -42.100; -170.000; -145.000
393.465;  -50.175; -317.000; -199.000
393.593;   -1.025;   62.000;   79.000
393.722; -151.000;-1121.000; -916.000
393.850;  -44.325; -188.000;  -61.000
393.979; -132.700; -926.000; -805.000
394.107;  -82.250; -517.000; -537.000
394.236;  -50.375; -570.000; -507.000
394.364;  104.225;  383.000;  206.000
394.493;   96.175; -911.000; -767.000
394.621;  -10.800; -955.000; -916.000
394.750; 1141.475; -873.000; -923.000
394.878; 4457.375; -247.000; -149.000
395.007; 6513.450; -721.000; -807.000
395.135;  574.675; -790.000; -721.000
395.263;  -48.475;-1038.000;-1040.000
395.392;   -6.625;  -25.000; -107.000
395.520; -120.775; -818.000; -679.000
395.648; -126.600; -865.000; -915.000
395.777;  -64.325; -366.000; -405.000
395.905;  -92.000; -449.000; -564.000
396.033;  -17.800;  217.000;  172.000
396.162;  159.750; -399.000; -453.000
396.290;  165.925;  -17.000;   -2.000
396.418;  -58.125; -555.000; -514.000
396.546;  -98.025; -571.000; -466.000
396.674; -131.200; -850.000; -878.000
396.803;  -23.750;  -72.000;  -23.000
396.931;  -20.900; -179.000; -199.000
397.059; -114.925;-1026.000; -989.000
397.187; -137.775;-1026.000; -975.000
397.315; -125.700; -884.000; -649.000
397.443; -113.225; -592.000; -443.000
397.572;  -86.475; -578.000; -424.000
397.700; -101.000; -607.000; -614.000
397.828;  -30.275;  120.000;  -90.000
397.956;  -54.700; -508.000; -478.000
398.084;  -16.975; -767.000; -626.000
398.212;    1.425;  137.000;  124.000
398.340;  -20.425;  -56.000;  159.000
398.468;  -42.575; -390.000; -169.000
398.596; -143.825; -993.000; -953.000
398.724; -135.225; -762.000; -767.000
398.852; -159.125;-1024.000; -976.000
398.980;  -71.675; -560.000; -560.000
399.108; -100.950; -982.000; -735.000
399.236;  -18.175;   13.000;    8.000
399.363;   -7.050;  222.000;  196.000
399.491;  -70.825; -404.000; -398.000
399.619; -116.300; -829.000; -800.000
399.747; -126.825; -859.000; -771.000
399.875;   34.950;  220.000;  234.000
400.003;  -73.125; -359.000; -284.000
400.130;  -93.175; -421.000; -341.000
400.258;  -34.000;  -83.000;   38.000
400.386;  -58.525; -352.000; -168.000
400.514;  -95.750; -526.000; -587.000
400.641; -138.075; -928.000; -802.000
400.769; -151.475; -979.000; -888.000
400.897; -121.750; -838.000; -793.000
401.025;  -45.550; -166.000; -152.000
401.152;   -7.600;  220.000;   38.000
401.280;  -82.350; -430.000; -429.000
401.408; -122.425; -712.000; -576.000
401.535; -125.250; -735.000; -758.000
401.663; -204.075;-1134.000;-1054.000
401.790; -104.700; -514.000; -525.000
401.918;   33.850;  436.000;  405.000
402.046;  -26.400;  134.000;  122.000
402.173;  -41.450;  -18.000;    7.000
402.301;  -89.475; -519.000; -397.000
402.428;   30.350;  528.000;  383.000
402.556; -159.825;-1188.000; -913.000
402.683;  -43.800;  -20.000;   -1.000
402.811;  -39.475;  -37.000; -206.000
402.938;  -14.175;   20.000;   27.000
403.066;   18.250; -574.000; -558.000
403.193;  146.325;  299.000;  239.000
403.321;   74.475; -396.000; -574.000
403.448;  146.300;   83.000;   27.000
403.575;   47.400;  -90.000;  -46.000
403.703;  -95.625; -732.000; -557.000
403.830;  -66.175; -531.000; -496.000
403.957; -124.000;-1117.000;-1023.000
404.085;    6.300;  -61.000; -172.000
404.212;  113.750;  -50.000;   63.000
404.339;  421.800; -566.000; -306.000
404.467; 8907.750; -612.000; -524.000
404.594; 5467.075; -287.000; -227.000
404.721;  968.825; -869.000; -764.000
404.848;   92.575; -113.000; -202.000
404.976; -100.675; -856.000; -783.000
405.103;   -5.725;  -14.000;  -82.000
405.230;    2.025;  190.000;  226.000
405.357;   47.275;  117.000;   44.000
405.484;  422.700;  -49.000;    5.000
405.612;  109.225; -548.000; -563.000
405.739;  -63.875; -488.000; -243.000
405.866;   73.800;  669.000;  385.000
405.993;  -38.125; -398.000; -102.000
406.120; -138.050; -801.000; -887.000
406.247;  -78.325; -323.000; -342.000
406.374;  123.875;  540.000;  629.000
406.501;  -59.425; -632.000; -702.000
406.628;  -95.475; -621.000; -589.000
406.755; -115.475; -803.000; -620.000
406.882;  -80.625; -228.000; -277.000
407.009; -117.250; -719.000; -628.000
407.136;  -45.850; -480.000; -401.000
407.263;  -46.575; -939.000; -829.000
407.390; -103.125; -692.000; -614.000
407.517; -180.900;-1139.000;-1187.000
407.644;  -70.125; -332.000; -256.000
407.771;  -73.475; -249.000; -287.000
407.898;  -16.250;  168.000;  328.000
408.025;  -65.225; -421.000; -313.000
408.151;  -26.350;   82.000;  153.000
408.278;  -72.050; -267.000; -216.000
408.405; -145.500; -931.000; -899.000
408.532;  -82.225; -549.000; -542.000
408.659; -123.100; -677.000; -648.000
408.785; -203.575;-1298.000;-1170.000
408.912;  -66.575; -412.000; -296.000
409.039; -111.750; -610.000; -686.000
409.166; -105.000; -591.000; -555.000
409.292; -103.500; -571.000; -534.000
409.419; -119.900; -665.000; -649.000
409.546;  -87.475; -431.000; -192.000
409.672; -122.300; -713.000; -545.000
409.799;  -42.900;  -36.000;   34.000
409.926;  -55.225; -180.000; -179.000
410.052; -186.775;-1127.000;-1091.000
410.179;  -75.325; -368.000; -392.000
410.305;  -75.675; -375.000; -493.000
410.432;  -43.400; -220.000; -333.000
410.558;  -89.125; -305.000; -380.000
410.685; -111.500; -688.000; -431.000
410.812; -109.575; -409.000; -588.000
410.938; -136.375; -964.000; -808.000
411.065; -100.275; -671.000; -645.000
411.191;  -58.375; -189.000; -174.000
411.317; -129.400; -823.000; -742.000
411.444;  -73.250; -317.000; -246.000
411.570;  -72.700; -339.000; -294.000
411.697; -139.200; -758.000; -752.000
411.823; -167.775; -989.000; -999.000
411.949;  -56.025;  -56.000;   17.000
412.076; -104.300; -539.000; -519.000
412.202; -124.950; -758.000; -757.000
412.329; -137.000; -798.000; -752.000
412.455; -114.700; -821.000; -657.000
412.581;  -25.375;  -15.000;  172.000
412.707;  -91.350; -540.000; -457.000
412.834;  -10.250;  156.000;  219.000
412.960; -101.025; -785.000; -784.000
413.086; -108.275; -743.000; -701.000
413.212;   97.525;  604.000;  578.000
413.339;  -86.875; -685.000; -701.000
413.465;  -55.925; -364.000; -310.000
413.591;  -99.400; -757.000; -474.000
413.717;  -61.350; -358.000; -366.000
413.843; -123.700; -839.000; -861.000
413.969;  -55.100;  -47.000; -292.000
414.096;  -88.900; -679.000; -679.000
414.222;  -27.725;  -33.000;   85.000
414.348;  -76.450; -652.000; -385.000
414.474;    9.500;   38.000;  -52.000
414.600;  -16.450; -126.000; -144.000
414.726;  -15.875;  -96.000;  -55.000
414.852;  -38.125; -365.000; -342.000
414.978;   39.425;  104.000;  -18.000
415.104;   57.850;   38.000;   80.000
415.230;   44.600; -329.000; -330.000
415.356;   61.250; -409.000; -514.000
415.482;  230.700;   13.000;  -35.000
415.608;  407.325; -247.000; -323.000
415.734; 1350.300;   67.000;   38.000
415.860;27733.150; -875.000; -767.000
415.986;22632.275; -685.000; -607.000
416.111; 2114.725; -798.000; -652.000
416.237;  456.400; -424.000; -571.000
416.363; 1689.400; -765.000; -733.000
416.489; 6717.725; -324.000; -251.000
416.615;  897.300; -707.000; -742.000
416.741;   41.100; -677.000; -784.000
416.866;  -59.975; -673.000; -736.000
416.992; -112.675; -801.000; -818.000
417.118;  -10.225;  -41.000;  -80.000
417.244;  -69.800; -798.000; -531.000
417.369;  -78.200; -801.000; -612.000
417.495;  -22.475; -325.000; -254.000
417.621;  -93.550;-1015.000; -803.000
417.746;    7.825; -579.000; -572.000
417.872;   93.350; -254.000; -144.000
417.998;  117.975; -515.000; -530.000
418.123; 1558.100;-1073.000; -845.000
418.249; 8533.900; -512.000; -601.000
418.374; 1437.200; -916.000; -824.000
418.500;  221.500; -383.000; -482.000
418.626;  164.675;   70.000;  -59.000
418.751;  146.400; -549.000; -448.000
418.877;  311.850; -637.000; -643.000
419.002; 2559.700; -688.000; -560.000
419.128;19333.100; -930.000; -721.000
419.253; 5427.300; -967.000; -837.000
419.379;  747.125; -391.000; -338.000
419.504;  591.600;  325.000;  415.000
419.629;  800.225; -393.000; -212.000
419.755; 5282.775; -317.000; -254.000
419.880;34181.600;  -98.000;   67.000
420.006;17293.625; -280.000; -221.000
420.131;43106.100; -662.000; -775.000
420.256; 6902.600; -315.000; -316.000
420.382;  945.425; -665.000; -687.000
420.507;  169.175; -649.000; -778.000
420.632;   50.500; -337.000; -339.000
420.758;   61.925; -251.000; -425.000
420.883;  -97.750; -876.000; -672.000
421.008; -109.700; -775.000; -619.000
421.133;  -84.800; -509.000; -467.000
421.259;  -48.100; -325.000; -259.000
421.384; -127.550; -834.000; -693.000
421.509; -118.700;-1052.000; -862.000
421.634;  284.975; -936.000; -820.000
421.759;  139.625; -359.000; -327.000
421.885;  -92.625; -717.000; -656.000
422.010; -102.150; -673.000; -542.000
422.135; -140.500; -695.000; -727.000
422.260;    9.250;  340.000;  280.000
422.385;  -55.950;   12.000;  -98.000
422.510;  -15.600;  151.000;  -26.000
422.635;   -9.575;  -87.000;  -43.000
422.760;   -3.800; -766.000; -791.000
422.885;   28.000;  -57.000;  -80.000
423.010;  -31.100; -112.000; -169.000
423.135;  -88.975; -481.000; -561.000
423.260;  -42.225; -150.000; -245.000
423.385;   18.625;  476.000;  222.000
423.510;   -3.800;   71.000;  -22.000
423.635;   31.850;  133.000;   45.000
423.760;   42.200;  383.000;  328.000
423.885;   40.750;  336.000;  391.000
424.010;   -3.550;  -68.000;  -13.000
424.135;  -24.425;    5.000;  -33.000
424.259;  -91.400; -654.000; -457.000
424.384;  -51.800; -279.000; -272.000
424.509;  -28.725; -260.000; -186.000
424.634;  -87.100; -761.000; -623.000
424.759;  -34.175; -688.000; -544.000
424.883;   -0.450; -506.000; -527.000
425.008;  195.725; -502.000; -410.000
425.133; 2852.275; -679.000; -653.000
425.258; 1531.850; -517.000; -381.000
425.382;  583.250; -867.000; -774.000
425.507; 1382.000; -487.000; -543.000
425.632;  402.775; -802.000; -663.000
425.756;  656.825; -256.000; -146.000
425.881; 9808.300; -831.000; -857.000
426.006;30006.325; -604.000; -355.000
426.130; 4967.500; -696.000; -508.000
426.255;  683.575; -611.000; -491.000
426.379;  264.850; -189.000; -577.000
426.504;  506.375;  660.000;  544.000
426.629; 5776.925; -519.000; -466.000
426.753; 4471.950;   64.000;  -46.000
426.878;  547.950; -252.000; -288.000
427.002;  319.950; -651.000; -668.000
427.127; 2106.475;  -35.000; -158.000
427.251;17124.250;  372.000;  401.000
427.375; 5549.675; -191.000; -173.000
427.500; 1499.025; -616.000; -610.000
427.624;  504.750; -234.000; -400.000
427.749;   86.575; -216.000; -225.000
427.873;  -19.725; -499.000; -412.000
427.997;  -52.600; -222.000; -230.000
428.122;   60.350;  795.000;  703.000
428.246;   28.125;  433.000;  434.000
428.371; -136.200; -869.000; -773.000
428.495; -116.975; -624.000; -646.000
428.619;  -48.425; -186.000; -117.000
428.743;    3.100;   65.000;  132.000
428.868;  -48.900; -732.000; -643.000
428.992;  595.825; -219.000; -326.000
429.116;  253.450; -329.000; -357.000
429.240;  128.375;  419.000;  426.000
429.365;  -39.725; -454.000; -574.000
429.489;  -58.600; -638.000; -647.000
429.613;   29.050; -236.000; -177.000
429.737;   89.375; -563.000; -432.000
429.861;  377.050; -247.000; -133.000
429.985; 7909.150; -425.000; -305.000
430.109;10065.500; -770.000; -908.000
430.234; 1232.700;   76.000;  -50.000
430.358;  144.525; -250.000; -160.000
430.482;  -38.700; -672.000; -564.000
430.606;  -74.925; -655.000; -375.000
430.730;  -60.550; -437.000; -388.000
430.854;  -61.700; -909.000; -835.000
430.978; -105.950; -795.000; -764.000
431.102;  -85.825; -499.000; -422.000
431.226; -118.275; -874.000; -815.000
431.350;   18.625;  345.000;  422.000
431.474; -100.250; -661.000; -373.000
431.597; -157.050;-1060.000; -848.000
431.721;  -92.700; -276.000; -267.000
431.845; -133.625; -704.000; -472.000
431.969;  -96.025; -304.000; -349.000
432.093;  -83.175; -395.000; -317.000
432.217;  -19.150;   32.000;   82.000
432.341;  -79.050; -523.000; -518.000
432.464;  -22.400;   96.000;   40.000
432.588;   -2.525; -401.000; -329.000
432.712;   13.250;  -52.000;  -52.000
432.836;   53.700;  213.000;  263.000
432.959;    3.550; -372.000; -311.000
433.083;  169.500;   11.000;    2.000
433.207;  549.900;  285.000;  930.000
433.330; 7598.850; -391.000; -200.000
433.454;10441.725; -654.000; -638.000
433.578; 5792.475;  583.000;  278.000
433.701; 1247.625; -623.000; -675.000
433.825;  148.600; -292.000; -299.000
433.949;   55.625;   28.000;  -72.000
434.072;    1.000; -410.000; -323.000
434.196;   -6.475; -309.000; -117.000
434.319; 3532.900;25482.000;25124.000
434.443;  872.575; -656.000; -603.000
434.566; 4058.950;  281.000;   62.000
434.690;  856.575; -637.000; -383.000
434.813;  144.250; -251.000; -173.000
434.937;  -68.325; -569.000; -696.000
435.060;  -72.650; -423.000; -332.000
435.184;    6.725; -492.000; -217.000
435.307;   31.150;  159.000;  102.000
435.431;  -34.500;  -40.000;   24.000
435.554;  -95.625; -399.000; -240.000
435.677;  -98.225; -350.000; -258.000
435.801;  -43.475;  -25.000;   49.000
435.924;  -39.750;    1.000;  -67.000
436.048; -146.475;-1019.000; -732.000
436.171;  -81.775; -240.000;  -66.000
436.294;   -4.600; -248.000; -229.000
436.417;  213.625; -963.000; -849.000
436.541;  -36.400; -814.000; -840.000
436.664;  -62.650; -242.000; -316.000
436.787;  -24.550;   13.000;  113.000
436.910; -121.125; -792.000; -422.000
437.034;  -13.800;  142.000;  143.000
437.157;    5.775;  -11.000;    0.000
437.280;  -76.050; -392.000; -292.000
437.403; -140.775; -982.000; -869.000
437.526;   62.300; -903.000; -865.000
437.649;  675.525; -505.000; -332.000
437.772;   48.750; -692.000; -540.000
437.896;   66.825;  700.000;  544.000
438.019; -117.700; -758.000; -503.000
438.142; -104.650; -596.000; -506.000
438.265; -106.925; -639.000; -670.000
438.388;   55.675; -520.000; -410.000
438.511;  -45.150; -597.000; -394.000
438.634;  -73.675; -247.000; -125.000
438.757; -133.275; -693.000; -619.000
438.880;  -56.300;  -34.000;  -57.000
439.003;  -92.075; -417.000; -437.000
439.126;  -67.300; -287.000; -167.000
439.248;  -58.650;  -98.000; -139.000
439.371;  -43.900;    9.000;  -53.000
439.494;   20.500;  510.000;  439.000
439.617;  -54.375;   65.000;  -88.000
439.740; -166.725; -968.000; -816.000
439.863; -144.475; -755.000; -595.000
439.986; -120.700; -476.000; -431.000
440.108;  -48.025; -161.000; -112.000
440.231; -161.350; -950.000; -836.000
440.354;  -66.675;  -64.000; -150.000
440.477; -109.250; -566.000; -542.000
440.599;  -85.225; -200.000; -225.000
440.722; -115.750; -709.000; -586.000
440.845;   63.200;  751.000;  928.000
440.968;  -99.575; -415.000; -311.000
441.090;  -73.425; -199.000;  -33.000
441.213; -173.275;-1021.000; -825.000
441.336;  -61.600; -159.000;   -5.000
441.458;  -89.225; -549.000; -396.000
441.581; -134.350; -628.000; -629.000
441.703;  -86.325; -152.000;   13.000
441.826; -120.975; -557.000; -400.000
441.948;  -46.375;   56.000;   51.000
442.071;   37.225;  555.000;  424.000
442.193; -101.925; -531.000; -485.000
442.316;    0.675;  152.000;   97.000
442.438;   70.350; -233.000;  -10.000
442.561;   54.125;  272.000;  262.000
442.683;   92.250; -809.000; -522.000
442.806;  357.400;   -8.000;   74.000
442.928;  -91.950; -859.000; -604.000
443.051;  -81.875; -577.000; -373.000
443.173;  -92.250; -341.000; -339.000
443.295;  -77.325; -263.000; -371.000
443.418;  -78.850; -321.000;  -29.000
443.540;  -36.750; -106.000;   -4.000
443.662; -122.425; -563.000; -465.000
443.785;  -17.525;  335.000;  199.000
443.907;  -94.150; -362.000; -208.000
444.029; -127.625; -767.000; -494.000
444.152; -136.375; -644.000; -554.000
444.274;  -45.325;  -18.000;  -24.000
444.396; -108.000; -461.000; -221.000
444.518; -132.650; -691.000; -454.000
444.640; -100.200; -268.000; -111.000
444.763;  -30.650;  388.000;  249.000
444.885; -123.325; -432.000; -392.000
445.007;  -39.050;   35.000;   86.000
445.129; -113.600; -610.000; -515.000
445.251; -109.900; -372.000; -439.000
445.373; -137.600; -537.000; -386.000
445.495;   -9.100;  242.000;  350.000
445.617;   57.850;  853.000;  753.000
445.739;  -86.525; -215.000;  -97.000
445.861;  -63.425; -245.000; -112.000
445.984;  -64.425; -267.000; -101.000
446.105;    7.250; -418.000; -251.000
446.227;  163.300; -176.000;  -19.000
446.349;  -81.975; -358.000; -249.000
446.471; -117.925; -615.000; -448.000
446.593;  -85.375; -316.000;   19.000
446.715;  -44.700;  -67.000;   41.000
446.837;   56.375;  697.000;  832.000
446.959; -108.075; -457.000; -478.000
447.081; -139.650; -628.000; -518.000
447.203;   48.175;  862.000;  834.000
447.325;  -82.250; -270.000;   42.000
447.446;   -8.050;  286.000;  530.000
447.568; -156.000; -921.000; -803.000
447.690;  -91.050; -236.000; -245.000
447.812; -137.625; -798.000; -519.000
447.933;  -29.475;  155.000;  127.000
448.055;  -61.675; -306.000; -261.000
448.177;   44.250;   31.000;   79.000
448.299;  -79.425; -935.000; -727.000
448.420;  -12.175;  -25.000;  159.000
448.542;  -48.300;   -3.000;   33.000
448.664;  -28.575;  109.000;  322.000
448.785;  -40.700;  265.000;   83.000
448.907; -102.825; -614.000; -353.000
449.028;  -93.375; -771.000; -471.000
449.150;   38.625;  492.000;  589.000
449.272; -172.650;-1044.000; -913.000
449.393;   27.625;  612.000;  694.000
449.515; -145.925; -634.000; -581.000
449.636;  -78.550; -264.000; -155.000
449.758;   39.275;  763.000;  622.000
449.879;  -92.450; -498.000; -396.000
450.001;  -67.500; -149.000;  -49.000
450.122;  -44.100;  -95.000;  162.000
450.244;  -14.200;   37.000;  364.000
450.365;  -76.450; -495.000; -301.000
450.486;   -3.300;   80.000;  268.000
450.608;   44.025;  393.000;  326.000
450.729;  104.150;  578.000;  645.000
450.850;   86.375; -574.000; -466.000
450.972; 1162.825; -552.000; -389.000
451.093; 7793.950;  190.000;  588.000
451.214; 4073.225; -516.000; -337.000
451.336;  632.650;  773.000;  579.000
451.457;  118.900;  264.000;  393.000
451.578;  -30.375; -118.000;  -74.000
451.699; -107.875; -546.000; -540.000
451.821;  -66.075; -284.000;  -50.000
451.942;   13.400;  278.000;  285.000
452.063;   51.450;  228.000;  419.000
452.184;  814.275;  -54.000;  -49.000
452.305; 1723.000;  103.000;  170.000
452.427;  338.825; -549.000; -301.000
452.548;  -11.225;   23.000;   79.000
452.669;  -60.775; -257.000;  -89.000
452.790;  -64.375;    3.000;  -18.000
452.911;   -8.825;  195.000;  259.000
453.032;  -81.800; -289.000;  -60.000
453.153;  -62.625;  -29.000;   81.000
453.274;   39.025;  737.000;  868.000
453.395;  -66.825;  -51.000;  175.000
453.516;   98.025; 1317.000; 1388.000
453.637;  -92.925; -205.000; -150.000
453.758;  -57.300;   15.000;   69.000
453.879; -124.875; -462.000; -250.000
454.000;   64.325; 1086.000;  948.000
454.121; -123.175; -554.000; -326.000
454.242; -115.850; -599.000; -383.000
454.362;  -55.700;  -99.000;  114.000
454.483;  -36.925; -309.000; -229.000
454.604;   58.950;  512.000;  580.000
454.725; -121.425; -627.000; -555.000
454.846; -122.675; -474.000; -406.000
454.967;  -31.900;  230.000;  539.000
455.087;  -34.250;  179.000;  153.000
455.208;    8.350;  554.000;  856.000
455.329;  -63.950;  -22.000;   82.000
455.450;   53.700;  473.000;  633.000
455.570;  -63.725; -234.000; -211.000
455.691;  -35.225;  201.000;  407.000
455.812; -102.925; -270.000;  -92.000
455.932;  -64.550;  107.000;  -97.000
456.053;  -66.950;   36.000;   24.000
456.173; -112.400; -433.000; -355.000
456.294; -126.325; -476.000; -303.000
456.415;  -68.625;  -73.000;   70.000
456.535;  -37.125;  297.000;  273.000
456.656;  -50.700;  132.000;  240.000
456.776;  -72.450;    3.000;  298.000
456.897;  -17.525;  308.000;  513.000
457.017;  -67.900; -153.000;   -3.000
457.138; -111.400; -402.000; -249.000
457.258;  -32.225;  263.000;  224.000
457.379;  -10.425;  509.000;  521.000
457.499;  -23.075;  443.000;  432.000
457.620; -114.400; -407.000; -231.000
457.740;  -85.700; -132.000;  -11.000
457.860;  -41.025;   87.000;   44.000
457.981;  -39.225;  132.000;  124.000
458.101;  -76.250;  -89.000;   40.000
458.221;  -13.250;  336.000;  402.000
458.342;  -58.525;   -4.000;  -37.000
458.462;   54.950;  617.000;  352.000
458.582;   15.575; -302.000; -294.000
458.703;   50.200;  303.000;  154.000
458.823;   -3.625;   22.000;  163.000
458.943;   56.700;  341.000;  467.000
459.063;   -1.275; 1124.000;  192.000
459.183;  -25.850;  328.000;  313.000
459.304;   13.525;  315.000;  517.000
459.424;  -42.200; -246.000;  -89.000
459.544;  458.900;  388.000;  764.000
459.664; 1298.775;  499.000;  506.000
459.784;  497.050; 1004.000; 1175.000
459.904;   93.125;  867.000;  744.000
460.024;   53.175;  867.000;  684.000
460.144;  -23.100;  449.000;  554.000
460.264;  -18.175;  515.000;  327.000
460.385;  -90.250; -145.000; -119.000
460.505;   22.800;  905.000;  858.000
460.625;  -94.450;  -17.000;  -68.000
460.745;  -26.050;  396.000;  541.000
460.864;  -36.100;  153.000;  469.000
460.984;   29.100;  499.000;  573.000
461.104;  143.675; 1656.000; 1775.000
461.224;   12.075;  657.000;  650.000
461.344;  -32.900;  431.000;  360.000
461.464;  -41.475;  258.000;  513.000
461.584;  -22.150;  283.000;  466.000
461.704;  -67.525;   58.000;  108.000
461.824;  -41.350;  238.000;  259.000
461.943;  -42.275;  191.000;  130.000
462.063;  -74.350;    2.000;  324.000
462.183;   14.250;  639.000;  717.000
462.303;   94.725; 1678.000; 1230.000
462.422;   20.100;  781.000;  840.000
462.542;  -37.050;  271.000;  391.000
462.662;   39.000;  353.000;  380.000
462.782;  343.775;  833.000;  572.000
462.901;  751.600;  545.000;  717.000
463.021;  413.650; 1702.000; 1638.000
463.141;    8.300;  337.000;  770.000
463.260;   -9.550;  614.000;  474.000
463.380;   14.700;  902.000;  884.000
463.499;  -36.975;  342.000;  332.000
463.619;  -35.350;  581.000;  559.000
463.738;  101.900; 1644.000;  903.000
463.858;   16.925;  657.000;  811.000
463.978;  -27.925;  542.000;  396.000
464.097;   52.350;  921.000; 1114.000
464.217;  142.750; 1196.000; 1143.000
464.336;  147.675; 1068.000; 1130.000
464.455;  -25.900;  328.000;  659.000
464.575;    6.025;  597.000;  602.000
464.694;  130.650; 1204.000; 1179.000
464.814;  161.950; 1190.000; 1138.000
464.933;   92.375; 1095.000; 1027.000
465.052;   92.750; 1412.000; 1054.000
465.172;   80.575;  922.000;  799.000
465.291;  102.625; 1376.000; 1320.000
465.410;    8.450;  462.000;  735.000
465.530;   77.850; 1355.000; 1310.000
465.649;   62.725; 1209.000; 1273.000
465.768;  145.975; 1673.000; 1508.000
465.888;   87.375;  941.000; 1174.000
466.007;   79.850; 1335.000; 1440.000
466.126;   13.100;  721.000;  641.000
466.245;   36.850; 1176.000; 1187.000
466.364;   13.775;  950.000; 1060.000
466.484;   54.150; 1024.000; 1213.000
466.603;   41.350; 1101.000; 1222.000
466.722;  114.300; 1490.000; 1769.000
466.841;   69.750; 1151.000; 1401.000
466.960;   35.100; 1069.000;  972.000
467.079;  136.125; 1971.000; 1786.000
467.198;   45.325; 1238.000; 1181.000
467.317;  103.850; 1768.000; 1162.000
467.436;   61.550; 1709.000; 1261.000
467.555;  127.575; 1796.000; 1746.000
467.674;   64.250; 1227.000; 1329.000
467.793;   53.600; 1376.000; 1374.000
467.912;   90.400; 1658.000; 1539.000
468.031;  134.225; 2038.000; 1930.000
468.150;  129.775; 1842.000; 1837.000
468.269;  181.425; 2313.000; 2090.000
468.388;  175.125; 2168.000; 2339.000
468.507;  235.700; 2884.000; 2903.000
468.626;  260.325; 2555.000; 2541.000
468.744;  150.150; 2018.000; 2174.000
468.863;  198.475; 2312.000; 2523.000
468.982;  112.750; 1503.000; 1555.000
469.101;  218.850; 2788.000; 2692.000
469.220;  149.575; 2333.000; 2176.000
469.338;  240.725; 2935.000; 3051.000
469.457;  216.225; 2719.000; 2545.000
469.576;  334.150; 3953.000; 3784.000
469.695;  240.500; 2877.000; 3066.000
469.813;  412.975; 4148.000; 4192.000
469.932;  414.625; 4255.000; 4485.000
470.051;  448.575; 4075.000; 4161.000
470.169; 1053.475; 4470.000; 4338.000
470.288; 1987.550; 4700.000; 4809.000
470.406; 1171.675; 5059.000; 5194.000
470.525;  681.525; 6101.000; 5787.000
470.644;  656.600; 6847.000; 6794.000
470.762;  793.725; 8397.000; 7873.000
470.881;  917.500; 8651.000; 8464.000
470.999; 1071.400; 9685.000; 9151.000
471.118; 1113.150;11174.000;10711.000

