
Integration time [ms]: 200.000
Averaging Nr. [scans]: 10
Smoothing Nr. [pixels]: 0
Data measured with spectrometer [name]: 2101012U2
Wave   ;Sample   ;Dark     ;Reference
[nm]   ;[counts] ;[counts] ;[counts] 

197.733;  117.900;  516.000;  404.000
197.879; -169.200; -610.000; -634.000
198.025; -103.800; -475.000; -420.000
198.171; -160.700; -602.000; -612.000
198.317;  -39.800; -401.000; -316.000
198.463; -112.000; -655.000; -404.000
198.609;   41.000;  181.000; -137.000
198.755; -165.300; -644.000; -410.000
198.901; -128.500; -505.000; -424.000
199.047; -124.000; -615.000; -488.000
199.193; -108.100; -230.000; -468.000
199.339; -100.400; -222.000; -369.000
199.485;  100.400;  330.000;  271.000
199.631;   34.800;  227.000;  310.000
199.777;  -89.500; -466.000; -398.000
199.923; -118.600; -610.000; -424.000
200.069;   -0.500; -141.000;  -58.000
200.215;  125.700;  128.000;  453.000
200.361;   98.000;  243.000;  477.000
200.507; -140.800; -600.000; -373.000
200.653;  -75.300; -371.000; -194.000
200.798;  -63.800; -215.000; -125.000
200.944;  -27.500; -146.000;  -41.000
201.090;   92.500;   61.000;  222.000
201.236;  -51.200; -116.000; -158.000
201.382;  282.200;  874.000;  903.000
201.528;   15.800;  -58.000;  -48.000
201.674; -144.200; -386.000; -293.000
201.819; -143.100; -540.000; -439.000
201.965; -179.900; -699.000; -447.000
202.111;  -47.700; -273.000; -226.000
202.257; -107.600; -250.000; -238.000
202.402;   12.600;   13.000;  -36.000
202.548;  -72.700; -169.000; -116.000
202.694;  159.400;  410.000; -183.000
202.840; -153.500; -603.000; -531.000
202.985; -161.300; -681.000; -639.000
203.131; -223.600; -832.000; -666.000
203.277;  -36.900; -199.000; -262.000
203.423; -126.200; -434.000; -520.000
203.568;  -60.600; -462.000; -237.000
203.714; -119.900; -535.000; -542.000
203.860; -156.000; -682.000; -641.000
204.005;   29.800;  112.000;  167.000
204.151;  190.300;  561.000;  556.000
204.296; -110.000; -354.000; -221.000
204.442; -158.400; -600.000; -547.000
204.588; -145.300; -592.000; -579.000
204.733;   79.300;  178.000;  168.000
204.879; -281.600;-1018.000; -822.000
205.025;    1.500;  -99.000;  126.000
205.170;    5.700;  -17.000;   94.000
205.316;  153.500;  438.000;  661.000
205.461; -173.500; -698.000; -554.000
205.607;  183.500;  609.000;  665.000
205.752; -156.400; -626.000; -551.000
205.898; -139.600; -501.000; -391.000
206.043; -137.500; -578.000; -506.000
206.189;  -67.400; -243.000; -285.000
206.334;  164.800;  554.000;  606.000
206.480;  171.000;  409.000;  239.000
206.625; -195.500; -529.000; -552.000
206.771;  -94.000; -451.000; -373.000
206.916;  -73.000; -210.000; -537.000
207.062; -147.800; -545.000; -591.000
207.207; -117.600; -546.000; -443.000
207.353;  140.800;  185.000;  460.000
207.498;   38.800;  196.000;   85.000
207.643; -109.600; -501.000; -370.000
207.789; -252.200;-1069.000; -910.000
207.934; -192.300; -665.000; -713.000
208.080;  -56.000; -154.000;   66.000
208.225;  -28.000;  -22.000;  -57.000
208.370; -143.000; -727.000; -619.000
208.516; -146.700; -741.000; -487.000
208.661;  -79.800; -127.000;  -69.000
208.806;  -40.000; -165.000; -171.000
208.952; -258.300;-1044.000; -731.000
209.097;  182.700;  378.000;  349.000
209.242;  -95.600; -307.000; -382.000
209.387;  137.400;  392.000;  350.000
209.533; -105.600; -321.000; -350.000
209.678;  186.500;  472.000;  543.000
209.823; -127.500; -408.000; -310.000
209.969; -212.000; -860.000; -757.000
210.114; -220.400; -907.000; -719.000
210.259; -264.100; -939.000; -889.000
210.404;   -8.000; -171.000;  103.000
210.549;    6.400;  108.000;    3.000
210.695;  -33.800;   -3.000;  -95.000
210.840;   71.000;   94.000;   67.000
210.985; -108.200; -484.000; -303.000
211.130;  157.500;  268.000;  406.000
211.275;   35.000;  207.000;  199.000
211.420;  -93.800; -300.000; -289.000
211.566; -158.500; -536.000; -489.000
211.711;   59.300;  218.000;  157.000
211.856; -132.600; -545.000; -519.000
212.001;   22.000;  151.000;   44.000
212.146;   -3.400;  153.000;   49.000
212.291;  -30.500; -210.000; -186.000
212.436;  -51.200; -280.000;   -6.000
212.581; -195.900; -685.000; -653.000
212.726; -191.100; -487.000; -538.000
212.871; -116.700; -552.000; -217.000
213.016; -314.100;-1172.000;-1029.000
213.161;  141.600;  406.000;  291.000
213.306; -169.900; -435.000; -577.000
213.451; -193.800; -778.000; -689.000
213.596;  -90.200; -455.000; -347.000
213.741; -152.200; -448.000; -538.000
213.886; -179.100; -498.000; -517.000
214.031;  -79.600; -294.000; -124.000
214.176; -115.200; -408.000; -341.000
214.321;  -23.100; -296.000; -157.000
214.466;  -63.400; -163.000;  -43.000
214.611;  -33.800;  -61.000;  -10.000
214.756; -241.800; -948.000; -858.000
214.901;  -50.100; -388.000; -226.000
215.046; -248.000; -797.000; -825.000
215.191;   36.700;  128.000;   35.000
215.336;  -32.500; -157.000;  -19.000
215.480; -133.700; -684.000; -505.000
215.625;  -16.600; -175.000;  -19.000
215.770; -190.100; -757.000; -662.000
215.915;  -56.800;   -5.000;  -97.000
216.060;   -4.300; -113.000;  -21.000
216.205; -212.600; -731.000; -779.000
216.349; -152.100; -470.000; -533.000
216.494; -271.400; -939.000; -867.000
216.639; -231.300; -823.000; -888.000
216.784; -185.200; -577.000; -525.000
216.929;  114.100;  392.000;  281.000
217.073;   -2.100; -244.000;  -31.000
217.218;   -0.600;   78.000;  -47.000
217.363; -178.400; -656.000; -618.000
217.507; -194.400; -623.000; -588.000
217.652; -267.800; -845.000; -874.000
217.797; -182.800; -708.000; -659.000
217.942; -206.300; -856.000; -720.000
218.086;  151.700;  608.000;  539.000
218.231;  -56.000; -174.000;  -26.000
218.376;  -55.500; -337.000; -229.000
218.520;   -5.400;  -41.000;   96.000
218.665;  -48.900; -338.000; -204.000
218.810;  -65.100; -275.000; -233.000
218.954;   30.400;  201.000;   35.000
219.099; -251.900; -713.000; -963.000
219.243; -178.700; -589.000; -554.000
219.388;  -81.700; -264.000; -136.000
219.532;  -12.300; -116.000; -116.000
219.677; -143.100; -564.000; -521.000
219.822;   15.700;   33.000;   89.000
219.966;   22.900;   17.000;  -99.000
220.111;  -56.900; -328.000;  -40.000
220.255; -194.400; -797.000; -750.000
220.400;  -24.600; -180.000; -146.000
220.544; -165.700; -516.000; -450.000
220.689; -110.900; -422.000; -451.000
220.833;  -45.000; -123.000;  -58.000
220.978;  -76.000; -393.000; -563.000
221.122;   44.900;  319.000;  307.000
221.267; -238.100; -906.000; -837.000
221.411; -141.800; -478.000; -394.000
221.555;  -28.000; -104.000;  -23.000
221.700;  -64.900; -329.000; -222.000
221.844;   63.300;  255.000;  272.000
221.989;  -80.600; -328.000; -311.000
222.133;  -88.800; -289.000; -307.000
222.277;  -10.600;    5.000;   78.000
222.422;   64.800;  227.000;  113.000
222.566;  -89.900; -381.000; -214.000
222.711; -112.000; -414.000; -479.000
222.855; -165.200; -643.000; -586.000
222.999; -172.200; -642.000; -717.000
223.144;  -55.600; -195.000; -194.000
223.288;  135.200;  423.000;  251.000
223.432;   31.300;  184.000;  230.000
223.576;   66.900;  152.000;  -21.000
223.721;   87.600;  364.000;  273.000
223.865; -141.500; -472.000; -475.000
224.009;  587.000; 1673.000; 1631.000
224.153; -194.300; -660.000; -671.000
224.298; -113.800; -531.000; -489.000
224.442;    2.100;  -74.000;  -33.000
224.586;   10.400; -169.000; -106.000
224.730; -191.700; -858.000; -670.000
224.875; -228.800; -739.000; -688.000
225.019;   33.900;  102.000;  188.000
225.163;  143.200;  208.000;  341.000
225.307;   62.300;   97.000;  -91.000
225.451;   94.300;  360.000;  481.000
225.595;   74.600;  264.000;  176.000
225.739;  -54.500; -170.000;  -94.000
225.884;   16.200;   86.000;    5.000
226.028; -194.400; -760.000; -626.000
226.172;  -95.300; -260.000; -273.000
226.316; -224.800; -941.000; -902.000
226.460; -145.600; -645.000; -493.000
226.604;  -89.500; -406.000; -400.000
226.748; -220.700; -836.000; -733.000
226.892;  -50.800; -227.000; -181.000
227.036;  -99.800; -537.000; -447.000
227.180; -102.300; -551.000; -375.000
227.324;  -99.300; -561.000; -580.000
227.468; -243.700; -819.000; -717.000
227.612;   33.900;  242.000;  -28.000
227.756; -200.500; -845.000; -698.000
227.900;   99.900;  342.000;  441.000
228.044; -112.100; -509.000; -290.000
228.188;  125.500;  448.000;  568.000
228.332; -170.100; -546.000; -472.000
228.476;  -65.100; -223.000; -149.000
228.620;  -77.800; -210.000; -150.000
228.764;  141.400;  431.000;  349.000
228.908;  -15.400; -155.000;   30.000
229.052; -129.500; -615.000; -528.000
229.195;   -3.400; -172.000;   13.000
229.339;  -56.600; -235.000; -305.000
229.483;  -40.800;    5.000; -162.000
229.627;   33.400; -156.000;  139.000
229.771;  -82.600; -218.000; -294.000
229.915;   38.700;  230.000;   79.000
230.059; -184.200; -648.000; -663.000
230.202;  -67.100; -370.000; -317.000
230.346;  -17.600; -107.000;  107.000
230.490; -127.100; -489.000; -521.000
230.634; -208.500; -736.000; -553.000
230.777;  144.200;  478.000;  509.000
230.921; -124.000; -450.000; -359.000
231.065;  -71.800; -246.000; -286.000
231.209;   56.000;  261.000;  265.000
231.352;   91.200;   54.000;   40.000
231.496;   52.000;  568.000;  188.000
231.640; -178.400; -693.000; -621.000
231.783;  181.700;  546.000;  525.000
231.927;  -93.300; -294.000; -365.000
232.071; -251.700; -962.000; -736.000
232.214; -223.100; -980.000; -764.000
232.358; -201.000; -683.000; -599.000
232.502;   45.200;  -19.000;    7.000
232.645; -297.700;-1090.000; -927.000
232.789;  -47.800; -257.000; -218.000
232.933;  -98.600; -407.000; -224.000
233.076; -244.100;-1038.000; -897.000
233.220; -211.000; -752.000; -777.000
233.363; -163.700; -669.000; -477.000
233.507;  152.700;  371.000;  129.000
233.650; -203.500; -764.000; -834.000
233.794;  139.600;  438.000;  461.000
233.938; -115.600; -530.000; -362.000
234.081;   10.500;  -93.000;   31.000
234.225; -161.700; -631.000; -539.000
234.368; -223.800; -773.000; -723.000
234.512;  -93.800; -385.000; -299.000
234.655; -168.400; -582.000; -555.000
234.798; -140.600; -493.000; -466.000
234.942; -246.300; -884.000;-1002.000
235.085; -143.500; -651.000; -443.000
235.229; -133.300; -405.000; -410.000
235.372;  -86.200; -247.000; -191.000
235.516; -130.900; -397.000; -321.000
235.659;   66.500;   92.000;  121.000
235.802;    3.400;  -38.000;  -22.000
235.946;   68.600;  335.000;  215.000
236.089;   79.400;  126.000;  250.000
236.233;  110.600;  275.000;  298.000
236.376;  -61.800; -235.000; -378.000
236.519;  -40.500; -297.000; -319.000
236.663;  -49.200; -215.000; -117.000
236.806; -274.900;-1029.000; -999.000
236.949;  112.500;  543.000;  431.000
237.092;  112.300;  412.000;  391.000
237.236; -148.200; -589.000; -502.000
237.379;  149.500;  352.000;  428.000
237.522; -240.800; -879.000; -768.000
237.666;  -32.300; -271.000;   18.000
237.809; -245.900; -851.000; -823.000
237.952;  109.000;  469.000;  271.000
238.095; -141.700; -447.000; -442.000
238.238;  212.700;  688.000;  700.000
238.382;   11.100;  166.000;  103.000
238.525; -143.500; -598.000; -511.000
238.668; -292.400;-1060.000; -985.000
238.811; -160.600; -638.000; -643.000
238.954; -134.400; -483.000; -334.000
239.097;  210.900;  617.000;  664.000
239.241;   55.900;  394.000;  326.000
239.384;  -68.000; -254.000; -214.000
239.527; -108.600; -424.000; -224.000
239.670; -302.900; -994.000;-1091.000
239.813; -211.200; -696.000; -658.000
239.956;  188.100;  579.000;  473.000
240.099; -226.000; -778.000; -725.000
240.242;  151.300;  428.000;  432.000
240.385;  111.100;  466.000;  450.000
240.528; -145.200; -706.000; -473.000
240.671;   44.700;  189.000;  134.000
240.814;  -80.700; -441.000; -158.000
240.957; -199.000; -767.000; -578.000
241.100; -188.600; -779.000; -755.000
241.243; -304.400;-1234.000; -893.000
241.386; -116.800; -508.000; -379.000
241.529; -190.100; -735.000; -547.000
241.672; -114.600; -566.000; -495.000
241.815; -237.100; -832.000; -808.000
241.958;  -57.500; -125.000; -182.000
242.101; -158.700; -545.000; -390.000
242.244;  -89.100; -270.000; -325.000
242.387;  -94.300; -304.000; -246.000
242.530;  158.000;  470.000;  134.000
242.673;  -68.700; -381.000; -309.000
242.815; -212.400; -925.000; -899.000
242.958; -147.800; -482.000; -381.000
243.101;   25.700;  132.000;  187.000
243.244; -170.300; -564.000; -521.000
243.387;  -77.700; -313.000; -316.000
243.530; -189.200; -657.000; -674.000
243.672;    6.000;   43.000;  -92.000
243.815; -121.200; -355.000; -283.000
243.958;   16.400;   98.000;  -26.000
244.101;   14.800;   59.000;  -16.000
244.243;   -0.700;  -47.000;  101.000
244.386; -225.900; -761.000; -630.000
244.529;  -41.000; -132.000; -139.000
244.672; -298.900;-1154.000; -951.000
244.814; -214.800; -621.000; -794.000
244.957;  -45.700; -380.000; -304.000
245.100; -142.400; -489.000; -489.000
245.242;  -77.100; -387.000; -374.000
245.385;   31.800;  -59.000;  -39.000
245.528; -239.800; -871.000; -705.000
245.670;  186.100;  612.000;  634.000
245.813; -177.000; -599.000; -547.000
245.956;  -70.700; -324.000; -275.000
246.098; -146.400; -508.000; -650.000
246.241;   28.000;  194.000;   48.000
246.383;  -18.300; -119.000;  -73.000
246.526; -164.900; -454.000; -525.000
246.669; -243.700; -889.000; -780.000
246.811;   31.900;  172.000;   -1.000
246.954;  -95.100; -512.000; -426.000
247.096;  -31.600;  -84.000;   -6.000
247.239; -138.800; -482.000; -445.000
247.381; -148.500; -647.000; -488.000
247.524;  171.300;  645.000;  679.000
247.666;   22.400;   58.000;   11.000
247.809; -249.800; -887.000; -691.000
247.951;   -3.700;  -75.000;  138.000
248.094;   34.700;  432.000;  308.000
248.236; -332.100;-1262.000;-1238.000
248.378;  -90.700; -356.000;  -81.000
248.521;  -89.500; -334.000; -337.000
248.663;  -71.600; -236.000; -267.000
248.806;  -86.000; -300.000; -266.000
248.948; -255.600; -886.000; -763.000
249.090; -152.500; -428.000; -398.000
249.233; -143.900; -344.000; -381.000
249.375; -137.200; -474.000; -451.000
249.518;  -38.600;  -83.000; -133.000
249.660;  -14.900; -103.000;    3.000
249.802; -350.300;-1303.000;-1189.000
249.945; -143.600; -612.000; -540.000
250.087; -217.600; -834.000; -768.000
250.229; -111.500; -362.000; -480.000
250.371; -153.700; -494.000; -439.000
250.514; -117.800; -310.000; -244.000
250.656;  -69.500;   69.000;  102.000
250.798; -240.800; -849.000; -800.000
250.940; -144.300; -322.000; -322.000
251.083;  -67.200; -335.000; -111.000
251.225;  135.900;  338.000;  310.000
251.367;  -90.500; -274.000; -373.000
251.509;  -49.000; -265.000; -210.000
251.651; -207.000; -731.000; -671.000
251.794;  123.700;  538.000;  632.000
251.936; -224.500; -821.000; -747.000
252.078; -170.500; -540.000; -461.000
252.220; -146.300; -645.000; -477.000
252.362;   67.700;  344.000;  462.000
252.504; -186.000; -677.000; -584.000
252.646; -246.300; -875.000; -722.000
252.788;  -32.000;   14.000; -128.000
252.931;  -64.500; -257.000; -253.000
253.073;  -80.800; -376.000; -317.000
253.215;  -10.700;  141.000;  122.000
253.357;  -16.600;   82.000; -153.000
253.499; -103.100; -374.000; -234.000
253.641; -211.800; -749.000; -594.000
253.783; -191.600; -609.000; -527.000
253.925; -195.900; -586.000; -591.000
254.067; -236.100; -744.000; -667.000
254.209;  -92.300; -391.000; -259.000
254.351; -288.900; -865.000; -883.000
254.493; -134.400; -441.000; -417.000
254.635; -225.800; -936.000; -818.000
254.777; -195.300; -752.000; -687.000
254.918; -169.800; -512.000; -430.000
255.060; -141.700; -551.000; -395.000
255.202; -109.900; -473.000; -261.000
255.344; -179.000; -658.000; -455.000
255.486; -123.800; -471.000; -406.000
255.628; -207.900; -780.000; -781.000
255.770; -189.200; -676.000; -536.000
255.912; -102.100; -559.000; -468.000
256.053; -193.100; -730.000; -508.000
256.195;  347.700; 1008.000;  903.000
256.337; -188.900; -861.000; -595.000
256.479;  127.900;  532.000;  416.000
256.621;  -56.300; -394.000; -212.000
256.762; -199.300; -789.000; -742.000
256.904;  121.200;  485.000;  487.000
257.046;  -90.600; -381.000; -271.000
257.188;  -51.100; -351.000; -264.000
257.329; -125.700; -525.000; -464.000
257.471; -246.400; -939.000; -807.000
257.613; -144.500; -584.000; -498.000
257.755; -313.900;-1073.000; -982.000
257.896;   95.600;  286.000;  392.000
258.038; -154.200; -403.000; -352.000
258.180;  -74.700; -354.000; -279.000
258.321; -177.400; -581.000; -457.000
258.463;   12.000;  -71.000;  133.000
258.605; -168.100; -562.000; -570.000
258.746; -212.800; -886.000; -772.000
258.888; -317.800;-1026.000;-1020.000
259.029;   48.100;  121.000;   -8.000
259.171; -197.400; -614.000; -550.000
259.313;   26.700;  -49.000;  -47.000
259.454; -121.600; -536.000; -414.000
259.596; -113.200; -483.000; -390.000
259.737; -139.800; -590.000; -474.000
259.879;   92.800;  217.000;  311.000
260.020;  184.500;  901.000;  636.000
260.162;  -67.500; -146.000; -253.000
260.303; -201.000; -768.000; -687.000
260.445; -158.100; -609.000; -613.000
260.586;   67.400;  392.000;  157.000
260.728;  -82.200; -360.000; -248.000
260.869; -163.400; -350.000; -343.000
261.011;  174.200;  706.000;  537.000
261.152; -107.300; -479.000; -319.000
261.293; -163.400; -576.000; -595.000
261.435;  -63.600; -219.000; -184.000
261.576; -111.400; -455.000; -325.000
261.718;  135.200;  420.000;  470.000
261.859; -279.600; -940.000; -949.000
262.000; -281.200; -951.000;-1016.000
262.142;  -29.800;  -52.000;  -60.000
262.283; -250.200; -808.000; -691.000
262.424; -192.300; -666.000; -625.000
262.566; -329.500;-1161.000; -983.000
262.707; -234.400; -840.000; -830.000
262.848; -267.500; -769.000; -726.000
262.990;  -79.800; -362.000; -345.000
263.131;  199.700;  650.000;  681.000
263.272;    4.100;  -61.000;  -41.000
263.413; -180.000; -589.000; -561.000
263.555; -110.200; -669.000; -143.000
263.696; -168.700; -550.000; -641.000
263.837; -134.600; -449.000; -551.000
263.978;   36.300;   -5.000;  -77.000
264.119;  -70.600; -283.000; -264.000
264.261; -253.100; -847.000; -630.000
264.402;   -7.000;   33.000;   40.000
264.543; -151.400; -509.000; -524.000
264.684;  -26.100;   61.000;  -50.000
264.825; -139.800; -816.000; -538.000
264.966;   39.800;  -84.000;  -67.000
265.107; -229.400; -646.000; -670.000
265.248; -228.800; -825.000; -812.000
265.390;   23.000;  152.000;   -9.000
265.531;  -59.100; -238.000; -107.000
265.672; -164.100; -557.000; -630.000
265.813;  154.200;  563.000;  439.000
265.954; -321.000; -959.000; -940.000
266.095;  -56.300; -372.000; -322.000
266.236; -219.900; -686.000; -548.000
266.377;  -50.200; -243.000; -297.000
266.518; -136.800; -619.000; -547.000
266.659;   72.300;  170.000;  268.000
266.800;   -7.600;   83.000;   85.000
266.941; -144.800; -487.000; -478.000
267.082;   41.900;  354.000;   99.000
267.223;  -96.300; -344.000; -273.000
267.364; -233.500; -892.000; -686.000
267.504;  -14.900;    3.000;  135.000
267.645;   12.400;  160.000;   67.000
267.786;  -45.600; -147.000;  -86.000
267.927; -131.200; -473.000; -379.000
268.068;  -37.000; -186.000;  -61.000
268.209; -117.900; -175.000; -413.000
268.350; -105.400; -388.000; -532.000
268.490; -172.800; -648.000; -521.000
268.631;  104.300;  127.000;  225.000
268.772; -216.500; -874.000; -647.000
268.913;  -91.200; -328.000; -476.000
269.054;   18.500; -117.000;   12.000
269.194;  -91.000; -418.000; -402.000
269.335; -338.900;-1137.000;-1074.000
269.476;  -54.000;   33.000;  -35.000
269.617; -102.700; -347.000; -392.000
269.757; -219.200; -713.000; -646.000
269.898; -195.800; -856.000; -613.000
270.039; -127.600; -415.000; -405.000
270.180; -259.000; -952.000; -816.000
270.320;  -79.500; -190.000; -250.000
270.461;  -85.300; -277.000; -249.000
270.602;  -27.400; -186.000; -156.000
270.742; -276.300; -868.000; -943.000
270.883; -126.700; -442.000; -390.000
271.023; -116.700; -358.000; -357.000
271.164; -177.600; -607.000; -528.000
271.305; -203.100; -666.000; -654.000
271.445; -196.200; -722.000; -683.000
271.586; -126.800; -462.000; -283.000
271.726;  -97.800; -397.000; -322.000
271.867; -183.500; -594.000; -534.000
272.008;  -61.800; -473.000; -285.000
272.148;  108.600;  462.000;  468.000
272.289;  -25.900; -113.000; -181.000
272.429;   21.900;   19.000;  185.000
272.570; -191.700; -633.000; -737.000
272.710; -226.500; -825.000; -775.000
272.851;  -60.300;  113.000; -130.000
272.991; -330.800;-1173.000;-1077.000
273.131; -130.300; -419.000; -459.000
273.272; -207.800; -683.000; -723.000
273.412;  -41.700; -143.000;  -31.000
273.553; -126.300; -488.000; -507.000
273.693;  268.600;  913.000;  858.000
273.834; -283.200; -894.000; -692.000
273.974; -183.200; -664.000; -615.000
274.114; -218.700; -772.000; -560.000
274.255;  113.100;  414.000;  373.000
274.395;  -86.600; -180.000; -125.000
274.535;   72.500;  199.000;  350.000
274.676;   54.600;  225.000;   94.000
274.816;   -4.900;  110.000;   34.000
274.956; -190.900; -624.000; -690.000
275.097; -286.800;-1014.000; -922.000
275.237; -256.600; -913.000; -803.000
275.377; -220.800; -778.000; -689.000
275.517; -338.700; -878.000; -937.000
275.658; -179.500; -590.000; -555.000
275.798; -174.200; -606.000; -413.000
275.938;   72.400;  215.000;  323.000
276.078; -169.100; -626.000; -395.000
276.218;   22.600;   99.000;  104.000
276.359; -290.300;-1026.000;-1024.000
276.499; -143.900; -605.000; -446.000
276.639;  -67.000; -305.000; -151.000
276.779; -117.400; -475.000; -357.000
276.919; -238.100; -783.000; -624.000
277.059;  -50.700; -261.000; -212.000
277.199;  -75.900; -357.000; -259.000
277.340;   78.300;  287.000;  175.000
277.480; -197.600; -840.000; -693.000
277.620;   71.200;  192.000;   16.000
277.760; -386.500;-1533.000;-1294.000
277.900;   19.500;  113.000;   33.000
278.040;   29.200;  137.000;  159.000
278.180;   35.200;  270.000;  170.000
278.320;    4.300;   21.000;   56.000
278.460; -146.100; -443.000; -469.000
278.600; -188.100; -708.000; -598.000
278.740;  119.300;  448.000;  224.000
278.880; -258.400; -768.000; -791.000
279.020;  -33.500; -194.000; -144.000
279.160; -209.800; -672.000; -595.000
279.300; -258.600; -926.000; -873.000
279.440; -209.700; -709.000; -622.000
279.579; -283.200;-1014.000; -929.000
279.719; -145.800; -410.000; -394.000
279.859;   40.100;   -4.000;   41.000
279.999;  -44.600; -208.000;  101.000
280.139; -129.300; -435.000; -387.000
280.279; -187.700; -708.000; -745.000
280.419;  -26.000; -229.000; -147.000
280.559;  -91.500; -259.000; -180.000
280.698; -210.900; -790.000; -639.000
280.838; -238.600; -778.000; -800.000
280.978; -187.700; -846.000; -790.000
281.118; -236.200; -811.000; -704.000
281.257;    0.300;   24.000;    6.000
281.397; -335.000;-1094.000; -960.000
281.537; -219.100; -599.000; -712.000
281.677;  -24.700; -150.000; -101.000
281.816; -183.600; -700.000; -630.000
281.956;  -74.300; -193.000; -257.000
282.096; -133.200; -539.000; -396.000
282.235; -235.900; -672.000; -638.000
282.375;  -48.800; -243.000;  -98.000
282.515; -210.600; -715.000; -707.000
282.654;   16.400;   29.000;  106.000
282.794;   73.600;  388.000;  244.000
282.934; -122.400; -530.000; -491.000
283.073; -277.000;-1030.000; -857.000
283.213; -133.100; -460.000; -467.000
283.353; -116.200; -408.000; -349.000
283.492;  -31.800; -264.000; -296.000
283.632;  -96.200; -254.000; -168.000
283.771; -201.400; -859.000; -730.000
283.911; -119.000; -369.000; -260.000
284.050; -225.600; -794.000; -748.000
284.190; -336.900;-1229.000;-1096.000
284.329; -312.900;-1055.000; -964.000
284.469; -178.500; -516.000; -591.000
284.608;  -94.900; -559.000; -598.000
284.748; -175.400; -614.000; -570.000
284.887;  -21.800;  -87.000;  -20.000
285.027; -256.000; -844.000; -892.000
285.166;  -73.300; -192.000; -249.000
285.306;  -28.100; -116.000;  -33.000
285.445;  -72.500; -229.000; -343.000
285.584; -162.200; -630.000; -494.000
285.724;  -72.900; -282.000; -322.000
285.863; -253.200; -857.000; -507.000
286.002; -116.800; -366.000; -276.000
286.142; -206.200; -715.000; -622.000
286.281; -115.700; -525.000; -493.000
286.420; -159.800; -554.000; -417.000
286.560;  231.200;  653.000;  623.000
286.699; -268.700; -958.000; -912.000
286.838; -156.000; -590.000; -591.000
286.978; -198.400; -533.000; -537.000
287.117; -294.600;-1085.000; -950.000
287.256;  -57.900; -228.000; -211.000
287.395; -113.700; -197.000; -378.000
287.535; -100.500; -370.000; -298.000
287.674; -152.200; -509.000; -484.000
287.813;  125.300;  661.000;  533.000
287.952; -251.300;-1010.000; -871.000
288.091; -328.500;-1049.000; -915.000
288.231;   29.500;   13.000;   15.000
288.370; -351.500;-1217.000;-1200.000
288.509; -191.900; -728.000; -645.000
288.648; -183.700; -770.000; -548.000
288.787;  -44.600; -243.000;  -87.000
288.926; -141.100; -454.000; -475.000
289.065;  235.200;  859.000;  672.000
289.204;  -92.900; -377.000; -217.000
289.344; -238.100; -791.000; -690.000
289.483;   47.000;  416.000;  304.000
289.622;  -28.400; -291.000; -149.000
289.761;  -48.200; -309.000; -166.000
289.900; -232.400; -785.000; -626.000
290.039;  -27.600;  -12.000;  -95.000
290.178;  -87.500; -274.000; -180.000
290.317; -177.900; -618.000; -479.000
290.456; -150.900; -463.000; -451.000
290.595; -306.300; -961.000; -833.000
290.734; -286.500; -904.000; -891.000
290.873; -131.400; -456.000; -420.000
291.011; -220.400; -833.000; -843.000
291.150; -221.100; -770.000; -682.000
291.289;  -68.600; -343.000; -110.000
291.428; -156.800; -599.000; -480.000
291.567; -112.000; -370.000; -442.000
291.706;   13.200;  109.000;  154.000
291.845; -187.500; -597.000; -505.000
291.984; -354.200;-1234.000;-1061.000
292.122;  185.300;  602.000;  582.000
292.261;  101.900;  620.000;  463.000
292.400;   37.000; -144.000;  211.000
292.539; -280.400; -959.000; -813.000
292.678;  -80.500; -325.000; -300.000
292.816; -321.900;-1136.000; -965.000
292.955; -221.600; -844.000; -684.000
293.094;  -50.200; -173.000; -337.000
293.233;  -97.300; -556.000; -400.000
293.371;  -50.900; -225.000;  -84.000
293.510; -198.900; -866.000; -780.000
293.649; -270.800; -959.000; -924.000
293.787; -270.200;-1083.000;-1012.000
293.926;  -18.900; -113.000;  -32.000
294.065;  -86.700; -379.000; -290.000
294.203;   70.800;  298.000;  406.000
294.342;   21.200;   74.000;  156.000
294.481;12449.600;51180.000; -836.000
294.619;  -78.900; -425.000; -582.000
294.758; -333.600;-1230.000;-1137.000
294.896;  -15.700; -125.000;    5.000
295.035; -330.000;-1040.000;-1006.000
295.174; -320.900;-1082.000; -954.000
295.312; -110.200; -323.000; -203.000
295.451; -116.800; -307.000; -428.000
295.589; -146.900; -389.000; -518.000
295.728;   -8.800; -292.000; -165.000
295.866;  -37.500;  -36.000;  -51.000
296.005; -170.000; -584.000; -341.000
296.143; -155.900; -558.000; -596.000
296.282; -225.200; -957.000; -881.000
296.420; -186.100; -657.000; -557.000
296.559; -246.700; -892.000; -633.000
296.697; -236.300; -847.000; -665.000
296.835; -344.700;-1141.000;-1002.000
296.974;   -9.000;  -23.000;   39.000
297.112; -126.700; -443.000; -504.000
297.251; -257.400; -815.000; -755.000
297.389; -153.100; -576.000; -438.000
297.527;  -39.100; -145.000;  -83.000
297.666; -169.900; -486.000; -438.000
297.804; -111.200; -404.000; -264.000
297.942;   -7.100; -136.000; -161.000
298.081;  -24.900; -183.000;   63.000
298.219;   16.100;  -17.000;  -19.000
298.357;  -77.500; -144.000;  -71.000
298.495; -252.200; -810.000; -812.000
298.634;    8.000;  245.000;  219.000
298.772;  -78.200; -220.000; -338.000
298.910; -107.300; -309.000; -182.000
299.048;  -41.100; -130.000; -153.000
299.187;  -94.700; -350.000; -250.000
299.325;    8.300;   52.000;  122.000
299.463; -126.100; -389.000; -299.000
299.601;  -89.600; -327.000; -271.000
299.739; -279.100; -908.000; -883.000
299.877; -209.200; -791.000; -703.000
300.016; -311.700;-1095.000; -935.000
300.154;  -32.600;  -19.000; -161.000
300.292; -139.900; -428.000; -348.000
300.430; -103.300; -408.000; -291.000
300.568; -276.400; -940.000; -874.000
300.706; -146.100; -366.000; -469.000
300.844; -305.900;-1108.000; -979.000
300.982;  109.400;  246.000;  282.000
301.120; -308.000; -965.000; -866.000
301.258; -211.300; -812.000; -705.000
301.396;   21.200;  104.000;  -41.000
301.534;  -67.500; -218.000; -293.000
301.672; -222.500; -664.000; -521.000
301.810; -176.900; -613.000; -545.000
301.948;   36.900;   53.000;  149.000
302.086;  -64.300; -250.000;  -32.000
302.224; -190.500; -610.000; -585.000
302.362; -182.200; -558.000; -622.000
302.500; -271.800; -923.000; -893.000
302.638;   -1.100;  128.000;  245.000
302.776;  -97.800; -352.000; -408.000
302.913;   96.300;  447.000;  236.000
303.051;  -79.900;  -86.000;  -23.000
303.189;   29.900;   90.000;  118.000
303.327; -134.300; -341.000; -256.000
303.465; -228.400; -832.000; -588.000
303.603; -215.600; -805.000; -604.000
303.740;  102.800;  417.000;  241.000
303.878; -258.600; -800.000; -759.000
304.016; -233.800; -915.000; -790.000
304.154; -338.500;-1123.000;-1152.000
304.291; -148.000; -505.000; -554.000
304.429;   24.000;  102.000;   74.000
304.567; -296.500; -908.000; -893.000
304.705; -130.600; -408.000; -515.000
304.842; -190.500; -616.000; -540.000
304.980;   30.000;  215.000;   35.000
305.118;  -92.000; -367.000; -365.000
305.255; -306.200; -945.000; -927.000
305.393;   46.700;  178.000;  239.000
305.531; -312.500;-1173.000; -956.000
305.668; -177.600; -663.000; -582.000
305.806; -131.800; -358.000; -439.000
305.943; -170.100; -629.000; -637.000
306.081;  -71.400; -378.000; -267.000
306.219; -244.700; -863.000; -748.000
306.356;    2.600;  158.000;   27.000
306.494;  196.300;  981.000;  761.000
306.631;  -21.300;  -11.000;  -55.000
306.769; -115.300; -613.000; -485.000
306.906; -133.800; -284.000; -258.000
307.044; -136.800; -473.000; -488.000
307.181; -132.700; -410.000; -332.000
307.319;   75.000;  112.000;   87.000
307.456; -376.000;-1191.000;-1153.000
307.594; -243.400; -980.000; -727.000
307.731;  -63.600; -371.000; -164.000
307.868;  -31.300;  -15.000;   20.000
308.006; -317.500; -961.000; -847.000
308.143; -174.400; -618.000; -330.000
308.281;  -47.900;  -37.000; -254.000
308.418; -173.900; -748.000; -640.000
308.555; -196.100; -400.000; -250.000
308.693; -173.800; -577.000; -573.000
308.830; -234.900; -712.000; -657.000
308.967;  -48.200; -215.000;  -95.000
309.105; -139.400; -507.000; -396.000
309.242;  -98.500; -468.000; -367.000
309.379; -228.100; -577.000; -655.000
309.517; -286.300; -936.000; -948.000
309.654; -275.000; -910.000; -734.000
309.791; -178.500; -662.000; -580.000
309.928; -277.700; -977.000; -914.000
310.065;  199.700;  819.000;  697.000
310.203; -258.400; -825.000; -850.000
310.340; -176.200; -465.000; -321.000
310.477; -191.800; -412.000; -516.000
310.614; -137.500; -383.000; -473.000
310.751; -163.600; -427.000; -518.000
310.889;  -31.100;    1.000;   11.000
311.026; -328.900;-1161.000; -939.000
311.163; -139.000; -386.000; -380.000
311.300; -184.200; -512.000; -479.000
311.437; -176.400; -658.000; -619.000
311.574; -365.700;-1226.000; -985.000
311.711; -162.100; -595.000; -433.000
311.848;  -93.200; -380.000; -388.000
311.985;   32.900;  270.000;   93.000
312.122; -269.200; -932.000; -762.000
312.259; -291.800; -941.000; -994.000
312.396; -172.100; -508.000; -551.000
312.533; -219.100; -812.000; -790.000
312.670; -317.700;-1070.000; -898.000
312.807; -128.400; -352.000; -367.000
312.944; -184.200; -513.000; -611.000
313.081; -103.500; -150.000; -415.000
313.218; -294.700;-1111.000; -867.000
313.355; -135.300; -531.000; -449.000
313.492;  -98.900; -455.000; -292.000
313.629;  205.100;  815.000;  735.000
313.766; -382.000;-1176.000;-1008.000
313.902;  -41.700; -186.000;   21.000
314.039; -110.600; -372.000; -289.000
314.176;   74.600;  286.000;  192.000
314.313; -160.100; -569.000; -473.000
314.450; -220.100; -788.000; -684.000
314.587; -150.300; -468.000; -480.000
314.723;  -16.100;  -78.000;  130.000
314.860;   59.600;  318.000;  332.000
314.997;   75.400;  223.000;  142.000
315.134; -156.900; -385.000; -368.000
315.270; -145.600; -480.000; -496.000
315.407; -334.400;-1094.000; -967.000
315.544; -165.100; -657.000; -538.000
315.681; -195.300; -681.000; -565.000
315.817;  -64.500; -133.000; -176.000
315.954; -158.100; -613.000; -392.000
316.091; -335.200;-1045.000;-1023.000
316.227;  -66.300;  -71.000; -179.000
316.364;   -6.900;   23.000;    6.000
316.500;  -98.200; -113.000; -300.000
316.637;  -88.200; -181.000; -302.000
316.774; -167.300; -625.000; -358.000
316.910; -180.400; -598.000; -629.000
317.047; -161.100; -487.000; -351.000
317.183; -174.400; -435.000; -566.000
317.320; -152.800; -367.000; -321.000
317.456; -229.900; -733.000; -805.000
317.593; -225.900; -598.000; -641.000
317.729;   16.200;  168.000;  -67.000
317.866; -432.500;-1434.000;-1285.000
318.002; -243.500; -708.000; -948.000
318.139; -274.000; -883.000; -867.000
318.275; -262.400;-1003.000; -738.000
318.412; -124.200; -517.000; -336.000
318.548; -185.200; -751.000; -720.000
318.685; -285.100; -985.000; -888.000
318.821; -229.100; -762.000; -735.000
318.957;  -35.600;   34.000;  -23.000
319.094;   97.100;  297.000;  154.000
319.230; -260.400; -756.000; -742.000
319.367; -173.600; -471.000; -520.000
319.503; -114.200; -538.000; -436.000
319.639; -234.700; -877.000; -793.000
319.775; -238.000; -750.000; -685.000
319.912; -135.000; -424.000; -519.000
320.048; -330.100;-1184.000;-1184.000
320.184;    1.500;   59.000;   70.000
320.321; -121.800; -497.000; -467.000
320.457;  108.400;  475.000;  662.000
320.593; -118.300; -375.000; -382.000
320.729; -225.400; -732.000; -734.000
320.866; -180.200; -577.000; -635.000
321.002; -229.400; -759.000; -809.000
321.138; -102.200; -135.000; -211.000
321.274;  -56.700; -148.000; -115.000
321.410; -160.500; -585.000; -353.000
321.546; -304.400;-1011.000; -911.000
321.683;   72.500;  400.000;  185.000
321.819;  -32.100;  -48.000; -117.000
321.955; -278.800; -743.000; -722.000
322.091; -139.400; -585.000; -540.000
322.227;  -97.900; -382.000; -202.000
322.363; -120.600; -320.000; -215.000
322.499; -105.100; -343.000; -331.000
322.635;  147.300;  636.000;  443.000
322.771;  -56.800; -139.000;   12.000
322.907;   81.800;  129.000;  327.000
323.043;  -58.200; -115.000; -206.000
323.179; -129.100; -394.000; -363.000
323.315; -144.000; -401.000; -371.000
323.451; -105.300; -328.000; -236.000
323.587;  -57.600;  -60.000;  -77.000
323.723; -200.200; -682.000; -601.000
323.859;  -60.400; -258.000;  -76.000
323.995; -119.900; -467.000; -409.000
324.131; -264.800; -967.000; -892.000
324.267;  -86.900; -254.000; -276.000
324.402; -301.700; -960.000; -983.000
324.538;  -97.400; -279.000; -104.000
324.674;    7.800;  164.000;   77.000
324.810;   32.400;  226.000;  308.000
324.946; -129.800; -810.000; -658.000
325.082; -167.500; -568.000; -475.000
325.217;  -42.400;  -62.000;   16.000
325.353; -207.400; -764.000; -659.000
325.489; -167.300; -540.000; -506.000
325.625; -141.400; -579.000; -525.000
325.760;   77.400;  517.000;  376.000
325.896; -153.700; -515.000; -702.000
326.032;  -90.900; -403.000; -352.000
326.168; -137.900; -462.000; -369.000
326.303; -129.000; -352.000; -461.000
326.439;  -34.500; -336.000; -276.000
326.575;  -58.500; -190.000;  -29.000
326.710;  -38.400; -156.000;  -30.000
326.846;  -39.700;  146.000;  103.000
326.982; -202.700; -530.000; -548.000
327.117; -166.400; -481.000; -442.000
327.253; -210.500; -745.000; -742.000
327.388; -316.600;-1137.000;-1153.000
327.524; -241.200; -811.000; -578.000
327.659;  -46.300;  -58.000;  -22.000
327.795;  -62.700;   69.000;   45.000
327.931; -202.200; -723.000; -499.000
328.066; -110.900; -417.000; -276.000
328.202;  -41.400;   12.000; -129.000
328.337;  226.200;  957.000;  713.000
328.473;  -38.200;  -12.000;  -74.000
328.608;  -76.800; -256.000; -267.000
328.743; -239.400; -799.000; -664.000
328.879;   44.200;  214.000;  114.000
329.014; -121.700; -102.000; -122.000
329.150; -166.300; -358.000; -483.000
329.285; -159.900; -465.000; -466.000
329.421; -100.000; -548.000; -246.000
329.556;  -11.800;  -36.000;   85.000
329.691; -153.200; -633.000; -615.000
329.827; -177.400; -626.000; -480.000
329.962;  -89.000;  131.000; -301.000
330.097; -199.400; -673.000; -585.000
330.233; -113.400; -410.000; -223.000
330.368; -248.100; -839.000; -628.000
330.503;  -12.400;    3.000;   98.000
330.638;  -34.800;  -93.000; -125.000
330.774; -173.500; -609.000; -530.000
330.909; -116.200; -434.000; -244.000
331.044; -228.600; -714.000; -708.000
331.179; -420.300;-1217.000;-1109.000
331.315;   18.800;   77.000;   20.000
331.450;   43.900;  157.000;  285.000
331.585; -210.800; -805.000; -706.000
331.720; -196.600; -510.000; -460.000
331.855;  -38.600;  -35.000; -102.000
331.990;  -11.700;   62.000;  138.000
332.126;   -5.100; -110.000;   71.000
332.261; -140.700; -379.000; -265.000
332.396;  -70.500; -135.000; -242.000
332.531; -317.700;-1074.000;-1031.000
332.666; -145.300; -519.000; -363.000
332.801; -257.400; -726.000; -807.000
332.936;  -31.800; -192.000; -122.000
333.071; -292.600; -870.000; -817.000
333.206;  106.600;  307.000;  379.000
333.341;   87.300;  344.000;  418.000
333.476; -173.600; -627.000; -623.000
333.611;  -65.400; -251.000; -173.000
333.746;  -91.400; -381.000; -464.000
333.881; -270.000; -973.000; -935.000
334.016; -290.000; -936.000; -917.000
334.151; -295.400; -746.000; -702.000
334.286;    9.000;  152.000;  186.000
334.421;  -41.300; -125.000; -178.000
334.556; -184.500; -611.000; -567.000
334.690; -191.200; -631.000; -577.000
334.825;   86.300;  381.000;   83.000
334.960; -145.100; -285.000; -413.000
335.095;  -17.700;  135.000;  -91.000
335.230; -244.700; -722.000; -738.000
335.365; -315.800;-1084.000; -990.000
335.499; -320.400;-1108.000;-1037.000
335.634;   -5.800;    9.000;  534.000
335.769; -252.300; -755.000; -720.000
335.904; -190.100; -603.000; -561.000
336.038; -250.700; -735.000; -657.000
336.173; -361.200;-1206.000;-1194.000
336.308;  -77.300; -116.000; -189.000
336.443; -122.800; -544.000; -634.000
336.577; -288.000; -936.000; -787.000
336.712;   -0.300;   -4.000;  -12.000
336.847; -246.800; -724.000; -607.000
336.981; -126.200; -272.000; -208.000
337.116;  115.400;  615.000;  501.000
337.250; -133.200; -434.000; -421.000
337.385; -121.100; -297.000; -208.000
337.520; -206.900; -632.000; -603.000
337.654; -109.800; -215.000; -126.000
337.789; -282.000; -989.000; -933.000
337.923;  -80.800; -104.000; -205.000
338.058; -224.500; -673.000; -738.000
338.192; -186.400; -611.000; -488.000
338.327;  -65.900;  -18.000; -155.000
338.461; -181.900; -299.000; -469.000
338.596; -214.700; -780.000; -638.000
338.730; -246.900; -767.000; -803.000
338.865;  -22.900;  -46.000; -140.000
338.999; -276.900; -846.000; -702.000
339.134; -208.500; -634.000; -536.000
339.268; -213.200; -741.000; -603.000
339.403; -236.700; -740.000; -775.000
339.537; -240.600; -894.000; -820.000
339.671; -239.200; -829.000; -813.000
339.806; -195.600; -556.000; -512.000
339.940;  -52.400; -261.000; -235.000
340.074; -195.900; -685.000; -510.000
340.209;  -93.600; -351.000; -230.000
340.343; -202.500; -517.000; -573.000
340.477;  313.500;  998.000; 1036.000
340.612; -273.000;-1033.000; -900.000
340.746; -125.100; -199.000; -243.000
340.880; -258.300; -924.000; -785.000
341.014;  -23.500;  -45.000; -154.000
341.149; -243.400; -756.000; -718.000
341.283; -246.700; -839.000; -754.000
341.417; -319.600;-1124.000; -938.000
341.551; -234.300; -768.000; -708.000
341.685; -185.000; -633.000; -611.000
341.820; -182.000; -562.000; -493.000
341.954; -148.800; -218.000; -349.000
342.088; -317.400;-1102.000;-1019.000
342.222;   98.300;  565.000;  618.000
342.356; -180.600; -395.000; -335.000
342.490; -245.900; -880.000; -841.000
342.624; -107.400; -339.000; -242.000
342.758;  -91.900; -364.000; -312.000
342.892; -227.600; -710.000; -585.000
343.026;  -81.500;  -58.000; -116.000
343.160; -154.400; -426.000; -376.000
343.294; -163.300; -474.000; -337.000
343.428; -156.200; -488.000; -448.000
343.562;  -54.000; -172.000;  -23.000
343.696; -114.800; -385.000; -314.000
343.830; -129.400; -362.000; -356.000
343.964;  -77.500; -231.000; -168.000
344.098;  -10.900;  199.000;   70.000
344.232;  -76.400; -266.000; -127.000
344.366; -187.500; -567.000; -453.000
344.500; -211.300; -665.000; -744.000
344.634;  -78.700; -324.000; -164.000
344.768; -152.200; -531.000; -341.000
344.902;   41.700;  278.000;  256.000
345.035; -168.200; -556.000; -496.000
345.169; -291.500; -933.000; -656.000
345.303; -137.400; -308.000; -482.000
345.437; -235.100; -826.000; -717.000
345.571; -210.100; -675.000; -594.000
345.704; -117.100; -309.000; -532.000
345.838;  -98.500; -331.000; -284.000
345.972; -159.700; -543.000; -495.000
346.106;  -14.300; -179.000; -190.000
346.239;  -56.900; -312.000; -243.000
346.373; -130.700; -343.000; -302.000
346.507; -324.600; -950.000; -962.000
346.640;  -25.900;  -30.000;   13.000
346.774; -219.400; -650.000; -797.000
346.908;  -52.100; -138.000;  -11.000
347.041; -208.900; -646.000; -593.000
347.175;    8.800;  259.000;   27.000
347.309; -234.200; -698.000; -628.000
347.442; -273.800; -883.000; -732.000
347.576;  180.500;  670.000;  668.000
347.709;  -50.100; -123.000;  -52.000
347.843; -277.000; -933.000; -825.000
347.976;   83.700;  235.000;  294.000
348.110; -378.300;-1268.000;-1186.000
348.243; -209.300; -679.000; -772.000
348.377;   -2.300;  -26.000;   60.000
348.510;  136.600;  403.000;  540.000
348.644;  -93.700;  -37.000; -159.000
348.777;   32.000;  180.000;  191.000
348.911;  -75.600; -142.000; -112.000
349.044;  101.600;  471.000;  448.000
349.178; -309.600;-1069.000;-1006.000
349.311;   43.800;  141.000;  255.000
349.444; -291.300; -927.000; -813.000
349.578; -106.000; -347.000; -200.000
349.711; -287.700; -959.000; -862.000
349.845; -205.500; -661.000; -591.000
349.978; -356.600;-1224.000;-1137.000
350.111; -200.000; -546.000; -612.000
350.244; -210.300; -596.000; -700.000
350.378; -128.900; -392.000; -393.000
350.511; -155.100; -393.000; -426.000
350.644; -227.300; -808.000; -806.000
350.778;  -11.200;  168.000;  104.000
350.911;  -23.800;  134.000;  140.000
351.044; -226.000; -685.000; -615.000
351.177; -120.700; -321.000; -281.000
351.310;  -34.000;    3.000; -131.000
351.444; -262.100; -888.000; -788.000
351.577;    7.600;  140.000;   90.000
351.710;  143.300;  593.000;  417.000
351.843;  -75.400; -165.000;  -77.000
351.976;    3.300;  149.000;  -79.000
352.109; -225.000; -621.000; -612.000
352.242; -149.200; -464.000; -419.000
352.376; -204.100; -580.000; -636.000
352.509; -145.400; -437.000; -356.000
352.642; -317.100; -654.000; -604.000
352.775;  -57.200; -141.000;  -98.000
352.908; -275.200; -933.000; -904.000
353.041; -266.700; -814.000; -824.000
353.174; -183.800; -551.000; -424.000
353.307; -234.100; -753.000; -764.000
353.440;  103.100;  541.000;  453.000
353.573; -292.400; -957.000;-1008.000
353.706; -147.500; -384.000; -558.000
353.839;  -70.900; -264.000; -220.000
353.971; -206.700; -657.000; -512.000
354.104; -260.500; -896.000; -835.000
354.237; -236.400; -627.000; -662.000
354.370; -246.300; -846.000; -879.000
354.503; -404.500;-1231.000;-1308.000
354.636; -146.100; -529.000; -348.000
354.769; -270.300; -937.000; -860.000
354.902;  -98.300; -230.000; -139.000
355.034;  -63.900; -164.000; -220.000
355.167;  -53.200; -262.000; -162.000
355.300; -322.600;-1061.000; -880.000
355.433;    3.200;  -71.000;  -14.000
355.565; -153.300; -402.000; -384.000
355.698; -124.100; -356.000; -296.000
355.831; -276.000; -882.000; -801.000
355.964;  -66.000; -285.000; -170.000
356.096; -295.200; -856.000; -843.000
356.229; -160.900; -523.000; -530.000
356.362;  -95.400; -373.000; -266.000
356.494;  -61.600; -229.000; -162.000
356.627;   47.400;  269.000;  377.000
356.760;   15.200;  120.000;   53.000
356.892; -237.300; -286.000; -601.000
357.025;   99.200;  403.000;  389.000
357.157;  -74.300; -167.000; -179.000
357.290; -265.600; -856.000; -713.000
357.423; -210.000; -667.000; -556.000
357.555;  -28.500; -217.000; -228.000
357.688; -176.200; -483.000; -364.000
357.820; -259.600; -870.000; -877.000
357.953; -198.000; -563.000; -589.000
358.085; -207.700; -632.000; -612.000
358.218; -297.300;-1131.000; -932.000
358.350;   -8.100;  -58.000;  312.000
358.483; -376.500;-1300.000;-1187.000
358.615; -326.300;-1182.000;-1078.000
358.747; -381.200;-1187.000;-1058.000
358.880; -216.100; -810.000; -744.000
359.012; -117.900; -376.000; -202.000
359.145; -174.500; -480.000; -511.000
359.277; -315.800; -962.000; -913.000
359.409;  104.800;  536.000;  231.000
359.542; -264.100; -738.000; -688.000
359.674;    3.800;   46.000;   13.000
359.806; -173.700; -565.000; -438.000
359.939; -156.200; -617.000; -516.000
360.071; -201.900; -583.000; -579.000
360.203; -126.500; -411.000; -364.000
360.335;    7.200;  164.000;  -16.000
360.468;  -99.800; -249.000; -307.000
360.600; -203.400; -547.000; -454.000
360.732; -210.400; -546.000; -423.000
360.864; -385.700;-1216.000;-1044.000
360.996; -145.700; -516.000; -554.000
361.129; -172.300; -389.000; -598.000
361.261;   -8.900;  110.000; -113.000
361.393; -112.600; -252.000; -214.000
361.525;    5.000;   94.000;  244.000
361.657; -229.100; -821.000; -703.000
361.789;  -56.600; -139.000; -155.000
361.921; -190.800; -642.000; -593.000
362.053;  126.900;  524.000;  541.000
362.185;   38.100;  288.000;   72.000
362.318; -244.100; -709.000; -705.000
362.450;   64.400;  294.000;  444.000
362.582; -270.200; -913.000; -870.000
362.714; -125.100; -353.000; -332.000
362.846; -190.300; -606.000; -490.000
362.978; -286.900; -941.000; -811.000
363.109; -131.800; -161.000; -260.000
363.241; -245.000; -739.000; -749.000
363.373; -184.900; -649.000; -564.000
363.505;  -56.900; -186.000;  -91.000
363.637; -194.200; -787.000; -601.000
363.769; -341.100;-1067.000;-1080.000
363.901; -198.500; -596.000; -654.000
364.033; -348.100;-1103.000;-1062.000
364.165;  -72.200; -283.000; -283.000
364.296; -134.300; -316.000; -177.000
364.428; -387.900;-1344.000;-1220.000
364.560; -193.000; -679.000; -661.000
364.692; -215.200; -738.000; -835.000
364.824; -191.000; -588.000; -456.000
364.955;  -94.200; -402.000; -564.000
365.087; -326.300;-1097.000; -852.000
365.219; -224.500; -686.000; -816.000
365.351; -196.500; -526.000; -572.000
365.482;   25.300;  300.000;  240.000
365.614;  -97.600; -402.000; -314.000
365.746; -215.900; -729.000; -752.000
365.877; -226.900; -706.000; -672.000
366.009;  -63.500;  -35.000;  -62.000
366.141; -383.500;-1249.000;-1134.000
366.272; -227.600; -803.000; -719.000
366.404; -264.500;-1005.000; -874.000
366.535;  -10.800; -139.000;  -12.000
366.667; -209.600; -644.000; -649.000
366.799;   69.400;  353.000;  203.000
366.930; -304.900; -862.000; -996.000
367.062; -191.900; -639.000; -613.000
367.193; -279.400; -872.000; -842.000
367.325; -156.800; -580.000; -684.000
367.456;  -76.800; -246.000;   31.000
367.588; -109.100; -371.000; -318.000
367.719;  -51.500;  -44.000;  -45.000
367.851;  -97.000; -222.000; -241.000
367.982; -287.700; -875.000; -732.000
368.113;  -91.100; -475.000; -358.000
368.245; -322.700; -960.000; -841.000
368.376;  -95.400; -254.000; -302.000
368.508;  -90.700; -188.000; -263.000
368.639; -354.200;-1166.000;-1034.000
368.770; -224.000; -670.000; -589.000
368.902; -261.700; -836.000; -926.000
369.033; -280.400; -906.000; -855.000
369.164; -207.300; -720.000; -653.000
369.296; -239.400; -452.000; -601.000
369.427;  -52.900; -209.000; -144.000
369.558; -149.800; -593.000; -377.000
369.689; -206.900; -721.000; -569.000
369.821; -295.700; -951.000; -845.000
369.952;   -5.700;   42.000; -108.000
370.083;  -99.800; -229.000; -108.000
370.214; -239.500; -735.000; -650.000
370.345;  -27.900;   65.000;   81.000
370.477; -240.300; -810.000; -790.000
370.608; -102.300; -328.000; -264.000
370.739; -340.600;-1233.000;-1292.000
370.870; -300.200;-1102.000; -923.000
371.001; -131.800; -378.000; -467.000
371.132; -213.700; -754.000; -735.000
371.263;  -67.500;  -42.000; -148.000
371.394; -281.200; -841.000; -748.000
371.525;   55.100;  345.000;  225.000
371.657; -254.600; -808.000; -670.000
371.788;   26.200;  103.000;  199.000
371.919; -149.000; -384.000; -304.000
372.050;  -56.700;  -91.000; -156.000
372.181;  -58.100; -188.000; -294.000
372.311;   -6.700;   42.000; -127.000
372.442; -158.900; -457.000; -451.000
372.573;  -89.300; -444.000; -340.000
372.704; -291.400;-1008.000; -980.000
372.835; -101.500; -228.000; -289.000
372.966; -208.100; -646.000; -554.000
373.097; -207.600; -575.000; -711.000
373.228; -217.400; -717.000; -542.000
373.359; -213.500; -824.000; -536.000
373.490; -290.000; -881.000; -727.000
373.620; -290.900;-1001.000; -803.000
373.751; -174.900; -332.000; -396.000
373.882; -196.700; -663.000; -733.000
374.013; -132.500; -449.000; -262.000
374.143; -187.700; -581.000; -659.000
374.274; -314.000; -987.000; -908.000
374.405; -104.600; -388.000; -276.000
374.536; -153.900; -526.000; -387.000
374.666; -255.600; -759.000; -807.000
374.797; -293.700; -817.000; -868.000
374.928; -223.500; -710.000; -560.000
375.058; -205.300; -535.000; -500.000
375.189;  -75.900;  -59.000;  -93.000
375.320; -331.800; -928.000;-1034.000
375.450; -199.800; -625.000; -616.000
375.581; -151.100; -526.000; -436.000
375.712; -124.200; -574.000; -250.000
375.842; -172.200; -438.000; -415.000
375.973; -205.800; -554.000; -513.000
376.103; -226.500; -665.000; -648.000
376.234; -168.000; -531.000; -552.000
376.364; -319.200; -944.000; -867.000
376.495;  214.700;  925.000;  529.000
376.625; -203.600; -472.000; -485.000
376.756; -229.300; -709.000; -678.000
376.886; -356.200;-1178.000;-1026.000
377.017; -332.600;-1048.000;-1061.000
377.147; -290.100; -786.000; -782.000
377.278;   27.500;  174.000;  228.000
377.408; -240.400; -801.000; -815.000
377.538; -231.800; -707.000; -693.000
377.669; -193.100; -537.000; -613.000
377.799; -223.400; -645.000; -635.000
377.929; -178.700; -610.000; -428.000
378.060; -259.400; -781.000; -847.000
378.190; -233.500; -726.000; -531.000
378.320; -163.500; -401.000; -406.000
378.451;  -47.800; -131.000;  -22.000
378.581;  -33.400;  -67.000; -110.000
378.711;  214.400; 1035.000;  866.000
378.841; -197.700; -533.000; -675.000
378.972; -289.100; -871.000; -751.000
379.102; -190.600; -652.000; -579.000
379.232;  -76.200; -126.000;  -73.000
379.362; -319.600;-1001.000; -885.000
379.492; -159.000; -373.000; -424.000
379.623;   64.100;    0.000;  111.000
379.753; -294.900;-1107.000; -974.000
379.883;    8.800;   59.000;  156.000
380.013; -332.800;-1081.000;-1017.000
380.143; -335.100;-1097.000;-1056.000
380.273; -301.400; -985.000; -861.000
380.403; -107.300; -344.000; -257.000
380.533; -257.000; -651.000; -664.000
380.663;   38.400;  173.000;  128.000
380.793; -327.900;-1027.000;-1074.000
380.923;  -71.700; -103.000;  -34.000
381.053; -232.900; -613.000; -623.000
381.183;  -62.400; -106.000; -248.000
381.313; -216.400; -656.000; -470.000
381.443; -177.300; -692.000; -473.000
381.573; -163.300; -402.000; -409.000
381.703; -387.900;-1249.000;-1095.000
381.833; -430.100;-1454.000;-1336.000
381.963;  -31.800; -134.000;  -87.000
382.093; -332.100; -925.000; -909.000
382.223; -226.100; -713.000; -602.000
382.353; -239.000; -801.000; -608.000
382.482; -337.700;-1091.000; -964.000
382.612; -257.500; -872.000; -644.000
382.742; -201.400; -695.000; -622.000
382.872; -180.100; -565.000; -551.000
383.002;   -0.400;  347.000; -132.000
383.131; -112.400; -226.000; -160.000
383.261; -243.300; -706.000; -768.000
383.391; -192.300; -552.000; -377.000
383.521;   77.000;  451.000;  263.000
383.650; -320.200; -947.000; -904.000
383.780; -216.100; -783.000; -656.000
383.910;  202.500;  880.000;  802.000
384.039; -261.700; -794.000; -656.000
384.169; -361.900;-1205.000;-1017.000
384.299; -212.000; -650.000; -662.000
384.428; -260.300; -764.000; -680.000
384.558; -114.300; -308.000; -275.000
384.687; -157.800; -414.000; -334.000
384.817;   11.700;   75.000;   -2.000
384.947;  -86.000; -234.000; -141.000
385.076;  274.600;  982.000;  912.000
385.206;   98.600;  369.000;  480.000
385.335; -121.400; -549.000; -417.000
385.465; -251.200; -655.000; -663.000
385.594;   -9.600;  -53.000;  -44.000
385.724; -258.400; -868.000; -838.000
385.853; -128.700; -296.000; -270.000
385.982; -256.800; -743.000; -787.000
386.112; -278.000;-1052.000; -871.000
386.241; -155.700; -307.000; -312.000
386.371;  -49.800; -174.000;  -87.000
386.500; -276.900; -825.000; -789.000
386.629; -244.200; -874.000; -817.000
386.759;  -61.700;  -43.000;   68.000
386.888;  -47.100; -170.000; -250.000
387.017; -228.000; -648.000; -620.000
387.147; -220.500; -771.000; -798.000
387.276; -205.200; -410.000; -397.000
387.405; -111.200; -398.000; -342.000
387.535; -161.800; -452.000; -361.000
387.664; -198.000; -692.000; -620.000
387.793;  -51.300; -198.000; -113.000
387.922;   -3.600;  255.000;  200.000
388.052; -188.300; -576.000; -423.000
388.181; -144.400; -342.000; -472.000
388.310; -267.000; -889.000; -710.000
388.439; -266.600; -749.000; -742.000
388.568;   11.000;  365.000;  244.000
388.697; -232.900; -756.000; -653.000
388.826; -221.600; -768.000; -666.000
388.956;  -93.400; -285.000; -307.000
389.085; -130.200; -347.000; -287.000
389.214; -244.600; -842.000; -872.000
389.343; -205.900; -645.000; -413.000
389.472;   31.100;  126.000;  149.000
389.601;   -8.300;   91.000;    0.000
389.730; -231.800; -568.000; -687.000
389.859;   50.000;  226.000;   46.000
389.988; -138.200; -423.000; -408.000
390.117; -121.700; -168.000; -146.000
390.246;  -87.800; -331.000; -320.000
390.375; -219.700; -673.000; -626.000
390.504; -224.800; -703.000; -621.000
390.633; -269.300; -672.000; -726.000
390.761; -232.600; -732.000; -645.000
390.890;  -60.500;   -4.000; -130.000
391.019; -164.700; -421.000; -441.000
391.148; -291.200; -826.000; -855.000
391.277; -207.300; -576.000; -493.000
391.406; -267.600; -821.000; -805.000
391.534;   13.700;  574.000; -301.000
391.663; -182.200; -583.000; -645.000
391.792; -237.400; -673.000; -701.000
391.921;  -44.100;   -3.000;   15.000
392.050; -119.200; -287.000; -228.000
392.178; -347.700;-1206.000;-1061.000
392.307; -231.500; -758.000; -712.000
392.436; -252.300; -427.000; -641.000
392.564;   -8.100;  166.000;   -6.000
392.693; -268.900; -860.000; -682.000
392.822; -156.300; -529.000; -534.000
392.950; -244.700; -880.000; -714.000
393.079; -142.000; -188.000; -328.000
393.208; -188.500; -488.000; -511.000
393.336;  -65.700; -170.000; -145.000
393.465; -157.100; -317.000; -199.000
393.593;   10.100;   62.000;   79.000
393.722; -298.300;-1121.000; -916.000
393.850;  -54.600; -188.000;  -61.000
393.979; -315.800; -926.000; -805.000
394.107; -183.000; -517.000; -537.000
394.236; -202.700; -570.000; -507.000
394.364;   61.100;  383.000;  206.000
394.493; -269.900; -911.000; -767.000
394.621; -304.200; -955.000; -916.000
394.750; -276.200; -873.000; -923.000
394.878;  -94.800; -247.000; -149.000
395.007; -278.500; -721.000; -807.000
395.135; -225.000; -790.000; -721.000
395.263; -332.100;-1038.000;-1040.000
395.392;  -14.400;  -25.000; -107.000
395.520; -264.800; -818.000; -679.000
395.648; -288.800; -865.000; -915.000
395.777; -174.000; -366.000; -405.000
395.905; -153.300; -449.000; -564.000
396.033;  -21.200;  217.000;  172.000
396.162; -133.400; -399.000; -453.000
396.290;  -43.500;  -17.000;   -2.000
396.418; -159.600; -555.000; -514.000
396.546; -255.600; -571.000; -466.000
396.674; -301.100; -850.000; -878.000
396.803;  -19.900;  -72.000;  -23.000
396.931;  -54.700; -179.000; -199.000
397.059; -346.500;-1026.000; -989.000
397.187; -283.500;-1026.000; -975.000
397.315; -290.100; -884.000; -649.000
397.443; -196.700; -592.000; -443.000
397.572; -195.700; -578.000; -424.000
397.700; -188.100; -607.000; -614.000
397.828;  -25.100;  120.000;  -90.000
397.956; -170.400; -508.000; -478.000
398.084; -250.100; -767.000; -626.000
398.212;  -25.900;  137.000;  124.000
398.340;  -23.800;  -56.000;  159.000
398.468; -125.500; -390.000; -169.000
398.596; -309.600; -993.000; -953.000
398.724; -248.700; -762.000; -767.000
398.852; -325.600;-1024.000; -976.000
398.980; -188.000; -560.000; -560.000
399.108; -206.400; -982.000; -735.000
399.236;  -18.800;   13.000;    8.000
399.363;    6.400;  222.000;  196.000
399.491; -164.400; -404.000; -398.000
399.619; -274.100; -829.000; -800.000
399.747; -267.100; -859.000; -771.000
399.875;   33.200;  220.000;  234.000
400.003; -142.600; -359.000; -284.000
400.130; -175.400; -421.000; -341.000
400.258;  -26.800;  -83.000;   38.000
400.386; -119.200; -352.000; -168.000
400.514; -187.400; -526.000; -587.000
400.641; -300.800; -928.000; -802.000
400.769; -293.100; -979.000; -888.000
400.897; -244.400; -838.000; -793.000
401.025;  -54.400; -166.000; -152.000
401.152;   25.600;  220.000;   38.000
401.280; -160.200; -430.000; -429.000
401.408; -240.300; -712.000; -576.000
401.535; -207.500; -735.000; -758.000
401.663; -398.500;-1134.000;-1054.000
401.790; -167.600; -514.000; -525.000
401.918;  113.700;  436.000;  405.000
402.046;   -7.200;  134.000;  122.000
402.173;  -47.600;  -18.000;    7.000
402.301; -144.000; -519.000; -397.000
402.428;   71.500;  528.000;  383.000
402.556; -342.500;-1188.000; -913.000
402.683;  -74.400;  -20.000;   -1.000
402.811;  -78.100;  -37.000; -206.000
402.938;  -14.500;   20.000;   27.000
403.066; -194.800; -574.000; -558.000
403.193;  -21.200;  299.000;  239.000
403.321; -174.000; -396.000; -574.000
403.448;  -13.000;   83.000;   27.000
403.575;  -36.500;  -90.000;  -46.000
403.703; -276.600; -732.000; -557.000
403.830; -179.400; -531.000; -496.000
403.957; -339.300;-1117.000;-1023.000
404.085;  -94.800;  -61.000; -172.000
404.212;  -46.300;  -50.000;   63.000
404.339; -135.300; -566.000; -306.000
404.467; -181.500; -612.000; -524.000
404.594;  -89.700; -287.000; -227.000
404.721; -263.200; -869.000; -764.000
404.848;  -77.700; -113.000; -202.000
404.976; -264.600; -856.000; -783.000
405.103;  -19.500;  -14.000;  -82.000
405.230;  -23.300;  190.000;  226.000
405.357;  -23.700;  117.000;   44.000
405.484;  -66.800;  -49.000;    5.000
405.612; -200.800; -548.000; -563.000
405.739; -161.000; -488.000; -243.000
405.866;  117.400;  669.000;  385.000
405.993; -141.900; -398.000; -102.000
406.120; -272.900; -801.000; -887.000
406.247; -150.000; -323.000; -342.000
406.374;  123.900;  540.000;  629.000
406.501; -244.600; -632.000; -702.000
406.628; -165.400; -621.000; -589.000
406.755; -262.000; -803.000; -620.000
406.882; -119.600; -228.000; -277.000
407.009; -230.700; -719.000; -628.000
407.136; -115.400; -480.000; -401.000
407.263; -303.300; -939.000; -829.000
407.390; -211.600; -692.000; -614.000
407.517; -366.300;-1139.000;-1187.000
407.644; -128.400; -332.000; -256.000
407.771; -137.700; -249.000; -287.000
407.898;    6.300;  168.000;  328.000
408.025; -186.600; -421.000; -313.000
408.151;  -16.700;   82.000;  153.000
408.278; -150.700; -267.000; -216.000
408.405; -267.500; -931.000; -899.000
408.532; -198.100; -549.000; -542.000
408.659; -257.200; -677.000; -648.000
408.785; -369.500;-1298.000;-1170.000
408.912; -115.100; -412.000; -296.000
409.039; -194.800; -610.000; -686.000
409.166; -197.800; -591.000; -555.000
409.292; -186.900; -571.000; -534.000
409.419; -227.400; -665.000; -649.000
409.546; -151.900; -431.000; -192.000
409.672; -224.000; -713.000; -545.000
409.799;  -77.500;  -36.000;   34.000
409.926;  -89.400; -180.000; -179.000
410.052; -372.700;-1127.000;-1091.000
410.179; -138.700; -368.000; -392.000
410.305; -190.100; -375.000; -493.000
410.432;  -91.900; -220.000; -333.000
410.558; -187.100; -305.000; -380.000
410.685; -193.400; -688.000; -431.000
410.812; -181.400; -409.000; -588.000
410.938; -296.200; -964.000; -808.000
411.065; -232.000; -671.000; -645.000
411.191; -103.500; -189.000; -174.000
411.317; -272.200; -823.000; -742.000
411.444; -157.500; -317.000; -246.000
411.570; -137.400; -339.000; -294.000
411.697; -261.200; -758.000; -752.000
411.823; -336.400; -989.000; -999.000
411.949; -112.900;  -56.000;   17.000
412.076; -213.600; -539.000; -519.000
412.202; -252.200; -758.000; -757.000
412.329; -257.500; -798.000; -752.000
412.455; -234.900; -821.000; -657.000
412.581;  -48.300;  -15.000;  172.000
412.707; -165.700; -540.000; -457.000
412.834;   -4.900;  156.000;  219.000
412.960; -256.200; -785.000; -784.000
413.086; -264.100; -743.000; -701.000
413.212;  111.800;  604.000;  578.000
413.339; -275.200; -685.000; -701.000
413.465; -158.300; -364.000; -310.000
413.591; -259.300; -757.000; -474.000
413.717; -121.300; -358.000; -366.000
413.843; -284.000; -839.000; -861.000
413.969; -152.500;  -47.000; -292.000
414.096; -260.800; -679.000; -679.000
414.222;  -22.100;  -33.000;   85.000
414.348; -228.900; -652.000; -385.000
414.474;  -57.800;   38.000;  -52.000
414.600;  -89.500; -126.000; -144.000
414.726;  -46.700;  -96.000;  -55.000
414.852; -173.200; -365.000; -342.000
414.978;   -8.600;  104.000;  -18.000
415.104;  -59.200;   38.000;   80.000
415.230; -152.300; -329.000; -330.000
415.356; -204.500; -409.000; -514.000
415.482;  -83.000;   13.000;  -35.000
415.608; -102.200; -247.000; -323.000
415.734;    2.900;   67.000;   38.000
415.860; -269.800; -875.000; -767.000
415.986; -243.300; -685.000; -607.000
416.111; -265.200; -798.000; -652.000
416.237; -169.000; -424.000; -571.000
416.363; -220.500; -765.000; -733.000
416.489; -149.700; -324.000; -251.000
416.615; -253.300; -707.000; -742.000
416.741; -223.800; -677.000; -784.000
416.866; -254.500; -673.000; -736.000
416.992; -286.100; -801.000; -818.000
417.118;  -85.600;  -41.000;  -80.000
417.244; -213.800; -798.000; -531.000
417.369; -241.800; -801.000; -612.000
417.495; -140.600; -325.000; -254.000
417.621; -308.000;-1015.000; -803.000
417.746; -173.500; -579.000; -572.000
417.872;  -86.900; -254.000; -144.000
417.998; -199.900; -515.000; -530.000
418.123; -331.100;-1073.000; -845.000
418.249; -216.800; -512.000; -601.000
418.374; -316.700; -916.000; -824.000
418.500; -171.600; -383.000; -482.000
418.626;  -17.200;   70.000;  -59.000
418.751; -182.700; -549.000; -448.000
418.877; -247.700; -637.000; -643.000
419.002; -189.000; -688.000; -560.000
419.128; -287.600; -930.000; -721.000
419.253; -304.300; -967.000; -837.000
419.379; -175.300; -391.000; -338.000
419.504;   61.100;  325.000;  415.000
419.629; -127.600; -393.000; -212.000
419.755; -132.600; -317.000; -254.000
419.880; -121.400;  -98.000;   67.000
420.006; -124.900; -280.000; -221.000
420.131; -243.300; -662.000; -775.000
420.256; -139.400; -315.000; -316.000
420.382; -235.000; -665.000; -687.000
420.507; -264.900; -649.000; -778.000
420.632; -141.900; -337.000; -339.000
420.758; -105.100; -251.000; -425.000
420.883; -247.400; -876.000; -672.000
421.008; -240.300; -775.000; -619.000
421.133; -155.800; -509.000; -467.000
421.259; -121.300; -325.000; -259.000
421.384; -278.400; -834.000; -693.000
421.509; -249.000;-1052.000; -862.000
421.634; -323.900; -936.000; -820.000
421.759; -121.800; -359.000; -327.000
421.885; -234.500; -717.000; -656.000
422.010; -165.800; -673.000; -542.000
422.135; -302.900; -695.000; -727.000
422.260;   50.900;  340.000;  280.000
422.385;  -72.100;   12.000;  -98.000
422.510;    0.500;  151.000;  -26.000
422.635;  -52.900;  -87.000;  -43.000
422.760; -229.500; -766.000; -791.000
422.885;  -52.500;  -57.000;  -80.000
423.010;  -86.800; -112.000; -169.000
423.135; -202.100; -481.000; -561.000
423.260;  -93.000; -150.000; -245.000
423.385;   26.500;  476.000;  222.000
423.510;    3.700;   71.000;  -22.000
423.635;  -22.900;  133.000;   45.000
423.760;   36.000;  383.000;  328.000
423.885;   33.700;  336.000;  391.000
424.010;  -54.500;  -68.000;  -13.000
424.135;  -57.100;    5.000;  -33.000
424.259; -191.400; -654.000; -457.000
424.384; -188.000; -279.000; -272.000
424.509;  -97.800; -260.000; -186.000
424.634; -263.100; -761.000; -623.000
424.759; -227.100; -688.000; -544.000
424.883; -209.900; -506.000; -527.000
425.008; -211.600; -502.000; -410.000
425.133; -275.900; -679.000; -653.000
425.258; -198.400; -517.000; -381.000
425.382; -253.400; -867.000; -774.000
425.507; -177.600; -487.000; -543.000
425.632; -248.800; -802.000; -663.000
425.756; -131.700; -256.000; -146.000
425.881; -243.200; -831.000; -857.000
426.006; -137.700; -604.000; -355.000
426.130; -244.500; -696.000; -508.000
426.255; -225.600; -611.000; -491.000
426.379;  -84.700; -189.000; -577.000
426.504;  148.700;  660.000;  544.000
426.629; -201.800; -519.000; -466.000
426.753;  -70.200;   64.000;  -46.000
426.878; -102.500; -252.000; -288.000
427.002; -193.100; -651.000; -668.000
427.127; -105.100;  -35.000; -158.000
427.251;   62.700;  372.000;  401.000
427.375; -108.500; -191.000; -173.000
427.500; -248.300; -616.000; -610.000
427.624; -148.700; -234.000; -400.000
427.749; -106.700; -216.000; -225.000
427.873; -213.200; -499.000; -412.000
427.997; -106.500; -222.000; -230.000
428.122;  168.800;  795.000;  703.000
428.246;   88.500;  433.000;  434.000
428.371; -307.600; -869.000; -773.000
428.495; -219.500; -624.000; -646.000
428.619;  -80.600; -186.000; -117.000
428.743;  -37.300;   65.000;  132.000
428.868; -283.600; -732.000; -643.000
428.992; -156.800; -219.000; -326.000
429.116; -177.400; -329.000; -357.000
429.240;   58.000;  419.000;  426.000
429.365; -186.800; -454.000; -574.000
429.489; -226.100; -638.000; -647.000
429.613; -114.200; -236.000; -177.000
429.737; -195.500; -563.000; -432.000
429.861; -129.300; -247.000; -133.000
429.985; -177.200; -425.000; -305.000
430.109; -300.600; -770.000; -908.000
430.234;   -6.600;   76.000;  -50.000
430.358; -121.200; -250.000; -160.000
430.482; -234.200; -672.000; -564.000
430.606; -201.300; -655.000; -375.000
430.730; -177.000; -437.000; -388.000
430.854; -323.900; -909.000; -835.000
430.978; -257.100; -795.000; -764.000
431.102; -237.500; -499.000; -422.000
431.226; -288.300; -874.000; -815.000
431.350;   62.300;  345.000;  422.000
431.474; -193.700; -661.000; -373.000
431.597; -334.100;-1060.000; -848.000
431.721; -139.600; -276.000; -267.000
431.845; -251.500; -704.000; -472.000
431.969; -134.200; -304.000; -349.000
432.093; -156.600; -395.000; -317.000
432.217;   -5.700;   32.000;   82.000
432.341; -215.000; -523.000; -518.000
432.464;  -36.300;   96.000;   40.000
432.588; -203.400; -401.000; -329.000
432.712; -107.400;  -52.000;  -52.000
432.836;   26.100;  213.000;  263.000
432.959; -106.500; -372.000; -311.000
433.083;  -88.000;   11.000;    2.000
433.207;   96.800;  285.000;  930.000
433.330; -129.500; -391.000; -200.000
433.454; -208.000; -654.000; -638.000
433.578;   94.700;  583.000;  278.000
433.701; -231.200; -623.000; -675.000
433.825; -163.700; -292.000; -299.000
433.949;  -47.600;   28.000;  -72.000
434.072; -145.600; -410.000; -323.000
434.196;  -97.800; -309.000; -117.000
434.319; 7869.400;25482.000;25124.000
434.443; -244.900; -656.000; -603.000
434.566;  -65.800;  281.000;   62.000
434.690; -211.100; -637.000; -383.000
434.813; -114.000; -251.000; -173.000
434.937; -222.800; -569.000; -696.000
435.060; -160.800; -423.000; -332.000
435.184; -170.900; -492.000; -217.000
435.307;  -40.900;  159.000;  102.000
435.431;  -30.000;  -40.000;   24.000
435.554; -131.200; -399.000; -240.000
435.677; -150.300; -350.000; -258.000
435.801;  -37.200;  -25.000;   49.000
435.924;  -58.300;    1.000;  -67.000
436.048; -315.000;-1019.000; -732.000
436.171; -119.200; -240.000;  -66.000
436.294; -135.100; -248.000; -229.000
436.417; -331.100; -963.000; -849.000
436.541; -276.500; -814.000; -840.000
436.664;  -69.300; -242.000; -316.000
436.787;  -25.200;   13.000;  113.000
436.910; -222.100; -792.000; -422.000
437.034;  -11.200;  142.000;  143.000
437.157;  -24.700;  -11.000;    0.000
437.280; -162.400; -392.000; -292.000
437.403; -327.300; -982.000; -869.000
437.526; -312.500; -903.000; -865.000
437.649; -185.000; -505.000; -332.000
437.772; -261.500; -692.000; -540.000
437.896;  119.700;  700.000;  544.000
438.019; -267.900; -758.000; -503.000
438.142; -170.400; -596.000; -506.000
438.265; -223.300; -639.000; -670.000
438.388; -142.400; -520.000; -410.000
438.511; -235.400; -597.000; -394.000
438.634; -162.900; -247.000; -125.000
438.757; -258.500; -693.000; -619.000
438.880;  -53.000;  -34.000;  -57.000
439.003; -187.000; -417.000; -437.000
439.126; -123.300; -287.000; -167.000
439.248; -106.700;  -98.000; -139.000
439.371;  -46.000;    9.000;  -53.000
439.494;  117.900;  510.000;  439.000
439.617;  -87.400;   65.000;  -88.000
439.740; -314.300; -968.000; -816.000
439.863; -272.500; -755.000; -595.000
439.986; -213.900; -476.000; -431.000
440.108; -109.500; -161.000; -112.000
440.231; -352.400; -950.000; -836.000
440.354; -115.800;  -64.000; -150.000
440.477; -247.400; -566.000; -542.000
440.599; -192.200; -200.000; -225.000
440.722; -253.500; -709.000; -586.000
440.845;  205.500;  751.000;  928.000
440.968; -182.400; -415.000; -311.000
441.090; -107.900; -199.000;  -33.000
441.213; -337.400;-1021.000; -825.000
441.336;  -85.400; -159.000;   -5.000
441.458; -151.300; -549.000; -396.000
441.581; -222.200; -628.000; -629.000
441.703; -118.700; -152.000;   13.000
441.826; -213.400; -557.000; -400.000
441.948;  -46.500;   56.000;   51.000
442.071;  120.800;  555.000;  424.000
442.193; -235.800; -531.000; -485.000
442.316;  -15.500;  152.000;   97.000
442.438;  -96.100; -233.000;  -10.000
442.561;   -8.600;  272.000;  262.000
442.683; -263.300; -809.000; -522.000
442.806;  -80.800;   -8.000;   74.000
442.928; -306.500; -859.000; -604.000
443.051; -191.700; -577.000; -373.000
443.173; -169.500; -341.000; -339.000
443.295; -145.800; -263.000; -371.000
443.418; -145.100; -321.000;  -29.000
443.540;  -57.700; -106.000;   -4.000
443.662; -237.200; -563.000; -465.000
443.785;   11.000;  335.000;  199.000
443.907; -203.900; -362.000; -208.000
444.029; -245.600; -767.000; -494.000
444.152; -256.400; -644.000; -554.000
444.274;  -80.400;  -18.000;  -24.000
444.396; -191.100; -461.000; -221.000
444.518; -225.500; -691.000; -454.000
444.640; -192.300; -268.000; -111.000
444.763;    9.300;  388.000;  249.000
444.885; -233.400; -432.000; -392.000
445.007;  -40.800;   35.000;   86.000
445.129; -235.300; -610.000; -515.000
445.251; -180.200; -372.000; -439.000
445.373; -266.000; -537.000; -386.000
445.495;   31.500;  242.000;  350.000
445.617;  100.700;  853.000;  753.000
445.739; -138.200; -215.000;  -97.000
445.861; -137.300; -245.000; -112.000
445.984; -123.100; -267.000; -101.000
446.105; -162.200; -418.000; -251.000
446.227; -102.200; -176.000;  -19.000
446.349; -231.800; -358.000; -249.000
446.471; -215.700; -615.000; -448.000
446.593; -147.000; -316.000;   19.000
446.715;  -58.800;  -67.000;   41.000
446.837;  119.800;  697.000;  832.000
446.959; -194.900; -457.000; -478.000
447.081; -270.100; -628.000; -518.000
447.203;  153.900;  862.000;  834.000
447.325; -154.100; -270.000;   42.000
447.446;   12.400;  286.000;  530.000
447.568; -313.500; -921.000; -803.000
447.690; -190.500; -236.000; -245.000
447.812; -274.000; -798.000; -519.000
447.933;  -43.000;  155.000;  127.000
448.055; -133.200; -306.000; -261.000
448.177;  -50.600;   31.000;   79.000
448.299; -347.100; -935.000; -727.000
448.420;  -40.600;  -25.000;  159.000
448.542;  -78.400;   -3.000;   33.000
448.664;    8.200;  109.000;  322.000
448.785;  -40.600;  265.000;   83.000
448.907; -195.500; -614.000; -353.000
449.028; -232.700; -771.000; -471.000
449.150;  139.900;  492.000;  589.000
449.272; -358.000;-1044.000; -913.000
449.393;   96.200;  612.000;  694.000
449.515; -285.500; -634.000; -581.000
449.636; -135.500; -264.000; -155.000
449.758;  105.700;  763.000;  622.000
449.879; -179.900; -498.000; -396.000
450.001; -146.600; -149.000;  -49.000
450.122;  -31.700;  -95.000;  162.000
450.244;  -42.400;   37.000;  364.000
450.365; -189.200; -495.000; -301.000
450.486;  -75.600;   80.000;  268.000
450.608;   10.700;  393.000;  326.000
450.729;  108.300;  578.000;  645.000
450.850; -211.200; -574.000; -466.000
450.972; -269.700; -552.000; -389.000
451.093;   52.400;  190.000;  588.000
451.214; -175.000; -516.000; -337.000
451.336;   97.900;  773.000;  579.000
451.457;   26.600;  264.000;  393.000
451.578; -105.500; -118.000;  -74.000
451.699; -242.500; -546.000; -540.000
451.821; -103.900; -284.000;  -50.000
451.942;   -6.300;  278.000;  285.000
452.063;   25.900;  228.000;  419.000
452.184;  -97.600;  -54.000;  -49.000
452.305;  -23.100;  103.000;  170.000
452.427; -208.300; -549.000; -301.000
452.548;  -88.800;   23.000;   79.000
452.669; -140.500; -257.000;  -89.000
452.790; -106.400;    3.000;  -18.000
452.911;  -20.900;  195.000;  259.000
453.032; -128.600; -289.000;  -60.000
453.153;  -72.300;  -29.000;   81.000
453.274;  191.100;  737.000;  868.000
453.395;  -77.300;  -51.000;  175.000
453.516;   38.200; 1317.000; 1388.000
453.637; -145.600; -205.000; -150.000
453.758;  -79.300;   15.000;   69.000
453.879; -198.800; -462.000; -250.000
454.000;  201.200; 1086.000;  948.000
454.121; -252.000; -554.000; -326.000
454.242; -222.300; -599.000; -383.000
454.362;  -63.000;  -99.000;  114.000
454.483; -166.500; -309.000; -229.000
454.604;   -7.600;  512.000;  580.000
454.725; -265.000; -627.000; -555.000
454.846; -258.500; -474.000; -406.000
454.967;   29.600;  230.000;  539.000
455.087;  -47.200;  179.000;  153.000
455.208;   59.800;  554.000;  856.000
455.329; -103.800;  -22.000;   82.000
455.450;   90.500;  473.000;  633.000
455.570; -137.900; -234.000; -211.000
455.691;  -47.500;  201.000;  407.000
455.812; -139.500; -270.000;  -92.000
455.932;  -98.400;  107.000;  -97.000
456.053; -132.100;   36.000;   24.000
456.173; -211.900; -433.000; -355.000
456.294; -223.500; -476.000; -303.000
456.415;  -87.000;  -73.000;   70.000
456.535;  -24.600;  297.000;  273.000
456.656;  -41.600;  132.000;  240.000
456.776;  -88.300;    3.000;  298.000
456.897;   45.500;  308.000;  513.000
457.017; -135.600; -153.000;   -3.000
457.138; -222.700; -402.000; -249.000
457.258;  -24.900;  263.000;  224.000
457.379;   34.400;  509.000;  521.000
457.499;  -23.000;  443.000;  432.000
457.620; -202.000; -407.000; -231.000
457.740; -142.000; -132.000;  -11.000
457.860;  -46.100;   87.000;   44.000
457.981;  -57.400;  132.000;  124.000
458.101; -146.100;  -89.000;   40.000
458.221;   -2.900;  336.000;  402.000
458.342;  -93.900;   -4.000;  -37.000
458.462;   16.200;  617.000;  352.000
458.582; -203.300; -302.000; -294.000
458.703;  -46.800;  303.000;  154.000
458.823; -100.800;   22.000;  163.000
458.943;    6.500;  341.000;  467.000
459.063;  -77.700; 1124.000;  192.000
459.183;  -20.500;  328.000;  313.000
459.304;   31.500;  315.000;  517.000
459.424; -146.500; -246.000;  -89.000
459.544;   53.900;  388.000;  764.000
459.664;   22.400;  499.000;  506.000
459.784;  139.400; 1004.000; 1175.000
459.904;   70.400;  867.000;  744.000
460.024;  138.000;  867.000;  684.000
460.144;   13.300;  449.000;  554.000
460.264;   10.900;  515.000;  327.000
460.385; -174.600; -145.000; -119.000
460.505;  125.100;  905.000;  858.000
460.625; -133.600;  -17.000;  -68.000
460.745;    8.900;  396.000;  541.000
460.864;  -72.800;  153.000;  469.000
460.984;   18.900;  499.000;  573.000
461.104;  305.300; 1656.000; 1775.000
461.224;   94.400;  657.000;  650.000
461.344;  -31.500;  431.000;  360.000
461.464;  -20.600;  258.000;  513.000
461.584;  -56.200;  283.000;  466.000
461.704;  -81.900;   58.000;  108.000
461.824;  -78.900;  238.000;  259.000
461.943;  -59.200;  191.000;  130.000
462.063; -116.600;    2.000;  324.000
462.183;  113.000;  639.000;  717.000
462.303;  249.100; 1678.000; 1230.000
462.422;   72.100;  781.000;  840.000
462.542;  -93.100;  271.000;  391.000
462.662;    6.600;  353.000;  380.000
462.782;   21.900;  833.000;  572.000
462.901;   28.900;  545.000;  717.000
463.021;  305.200; 1702.000; 1638.000
463.141;   13.600;  337.000;  770.000
463.260;   24.300;  614.000;  474.000
463.380;   60.900;  902.000;  884.000
463.499;  -36.300;  342.000;  332.000
463.619;    2.100;  581.000;  559.000
463.738;  303.000; 1644.000;  903.000
463.858;   87.600;  657.000;  811.000
463.978;   -8.600;  542.000;  396.000
464.097;  164.300;  921.000; 1114.000
464.217;  202.800; 1196.000; 1143.000
464.336;  195.600; 1068.000; 1130.000
464.455;  -69.100;  328.000;  659.000
464.575;    4.000;  597.000;  602.000
464.694;  170.900; 1204.000; 1179.000
464.814;  129.500; 1190.000; 1138.000
464.933;  136.500; 1095.000; 1027.000
465.052;  210.100; 1412.000; 1054.000
465.172;  102.300;  922.000;  799.000
465.291;  220.300; 1376.000; 1320.000
465.410;   49.600;  462.000;  735.000
465.530;  199.400; 1355.000; 1310.000
465.649;  156.600; 1209.000; 1273.000
465.768;  315.900; 1673.000; 1508.000
465.888;  141.400;  941.000; 1174.000
466.007;  271.900; 1335.000; 1440.000
466.126;   24.700;  721.000;  641.000
466.245;  114.400; 1176.000; 1187.000
466.364;   88.700;  950.000; 1060.000
466.484;  118.700; 1024.000; 1213.000
466.603;  141.300; 1101.000; 1222.000
466.722;  264.500; 1490.000; 1769.000
466.841;  166.400; 1151.000; 1401.000
466.960;  111.400; 1069.000;  972.000
467.079;  349.000; 1971.000; 1786.000
467.198;  150.600; 1238.000; 1181.000
467.317;  244.700; 1768.000; 1162.000
467.436;  159.200; 1709.000; 1261.000
467.555;  301.500; 1796.000; 1746.000
467.674;  169.400; 1227.000; 1329.000
467.793;  209.800; 1376.000; 1374.000
467.912;  198.200; 1658.000; 1539.000
468.031;  332.700; 2038.000; 1930.000
468.150;  292.100; 1842.000; 1837.000
468.269;  450.300; 2313.000; 2090.000
468.388;  416.700; 2168.000; 2339.000
468.507;  568.800; 2884.000; 2903.000
468.626;  588.100; 2555.000; 2541.000
468.744;  320.800; 2018.000; 2174.000
468.863;  441.600; 2312.000; 2523.000
468.982;  266.600; 1503.000; 1555.000
469.101;  528.400; 2788.000; 2692.000
469.220;  361.700; 2333.000; 2176.000
469.338;  543.800; 2935.000; 3051.000
469.457;  457.500; 2719.000; 2545.000
469.576;  775.500; 3953.000; 3784.000
469.695;  515.100; 2877.000; 3066.000
469.813;  897.200; 4148.000; 4192.000
469.932;  830.100; 4255.000; 4485.000
470.051;  752.800; 4075.000; 4161.000
470.169;  896.300; 4470.000; 4338.000
470.288;  899.100; 4700.000; 4809.000
470.406;  986.000; 5059.000; 5194.000
470.525; 1209.700; 6101.000; 5787.000
470.644; 1341.500; 6847.000; 6794.000
470.762; 1704.700; 8397.000; 7873.000
470.881; 1770.900; 8651.000; 8464.000
470.999; 2004.000; 9685.000; 9151.000
471.118; 2288.500;11174.000;10711.000

