
Integration time [ms]: 200.000
Averaging Nr. [scans]: 10
Smoothing Nr. [pixels]: 0
Data measured with spectrometer [name]: 2101012U2
Wave   ;Sample   ;Dark     ;Reference
[nm]   ;[counts] ;[counts] ;[counts] 

197.733;  127.400;  516.000;  404.000
197.879; -179.100; -610.000; -634.000
198.025; -107.700; -475.000; -420.000
198.171; -159.900; -602.000; -612.000
198.317;  -64.400; -401.000; -316.000
198.463; -142.000; -655.000; -404.000
198.609;   82.500;  181.000; -137.000
198.755; -182.000; -644.000; -410.000
198.901; -148.700; -505.000; -424.000
199.047; -125.300; -615.000; -488.000
199.193;  -44.100; -230.000; -468.000
199.339;  -95.500; -222.000; -369.000
199.485;   84.100;  330.000;  271.000
199.631;   36.200;  227.000;  310.000
199.777; -103.900; -466.000; -398.000
199.923; -137.500; -610.000; -424.000
200.069;  -15.500; -141.000;  -58.000
200.215;   98.900;  128.000;  453.000
200.361;   88.200;  243.000;  477.000
200.507; -139.400; -600.000; -373.000
200.653;  -74.600; -371.000; -194.000
200.798;  -52.700; -215.000; -125.000
200.944;  -39.600; -146.000;  -41.000
201.090;   75.600;   61.000;  222.000
201.236;   -1.000; -116.000; -158.000
201.382;  241.700;  874.000;  903.000
201.528;  -40.400;  -58.000;  -48.000
201.674;  -79.900; -386.000; -293.000
201.819; -144.700; -540.000; -439.000
201.965; -158.600; -699.000; -447.000
202.111;  -51.800; -273.000; -226.000
202.257;  -48.200; -250.000; -238.000
202.402;  -15.800;   13.000;  -36.000
202.548;  -78.600; -169.000; -116.000
202.694;  164.500;  410.000; -183.000
202.840; -139.700; -603.000; -531.000
202.985; -141.500; -681.000; -639.000
203.131; -210.600; -832.000; -666.000
203.277;  -37.600; -199.000; -262.000
203.423; -126.000; -434.000; -520.000
203.568;  -94.200; -462.000; -237.000
203.714; -126.700; -535.000; -542.000
203.860; -169.000; -682.000; -641.000
204.005;   20.100;  112.000;  167.000
204.151;  153.300;  561.000;  556.000
204.296;  -98.000; -354.000; -221.000
204.442; -167.200; -600.000; -547.000
204.588; -174.700; -592.000; -579.000
204.733;   41.900;  178.000;  168.000
204.879; -273.700;-1018.000; -822.000
205.025;   19.500;  -99.000;  126.000
205.170;   -0.200;  -17.000;   94.000
205.316;  166.200;  438.000;  661.000
205.461; -146.700; -698.000; -554.000
205.607;  171.700;  609.000;  665.000
205.752; -178.800; -626.000; -551.000
205.898; -124.800; -501.000; -391.000
206.043; -136.300; -578.000; -506.000
206.189;  -78.000; -243.000; -285.000
206.334;  159.100;  554.000;  606.000
206.480;  156.600;  409.000;  239.000
206.625; -160.100; -529.000; -552.000
206.771; -116.300; -451.000; -373.000
206.916;  -60.900; -210.000; -537.000
207.062; -151.500; -545.000; -591.000
207.207; -140.500; -546.000; -443.000
207.353;  134.900;  185.000;  460.000
207.498;   54.600;  196.000;   85.000
207.643; -111.200; -501.000; -370.000
207.789; -275.800;-1069.000; -910.000
207.934; -214.000; -665.000; -713.000
208.080;  -89.700; -154.000;   66.000
208.225;  -11.900;  -22.000;  -57.000
208.370; -187.300; -727.000; -619.000
208.516; -139.400; -741.000; -487.000
208.661;  -63.600; -127.000;  -69.000
208.806;  -82.000; -165.000; -171.000
208.952; -251.200;-1044.000; -731.000
209.097;  138.000;  378.000;  349.000
209.242;  -90.400; -307.000; -382.000
209.387;  113.100;  392.000;  350.000
209.533; -103.700; -321.000; -350.000
209.678;  146.400;  472.000;  543.000
209.823; -105.700; -408.000; -310.000
209.969; -198.500; -860.000; -757.000
210.114; -219.900; -907.000; -719.000
210.259; -226.900; -939.000; -889.000
210.404;  -19.000; -171.000;  103.000
210.549;   23.500;  108.000;    3.000
210.695;  -41.300;   -3.000;  -95.000
210.840;   58.400;   94.000;   67.000
210.985; -130.500; -484.000; -303.000
211.130;  144.300;  268.000;  406.000
211.275;   26.100;  207.000;  199.000
211.420; -111.400; -300.000; -289.000
211.566; -150.100; -536.000; -489.000
211.711;   20.600;  218.000;  157.000
211.856; -123.100; -545.000; -519.000
212.001;   12.800;  151.000;   44.000
212.146;   14.600;  153.000;   49.000
212.291;  -51.500; -210.000; -186.000
212.436;  -37.000; -280.000;   -6.000
212.581; -183.600; -685.000; -653.000
212.726; -177.900; -487.000; -538.000
212.871;  -83.500; -552.000; -217.000
213.016; -305.000;-1172.000;-1029.000
213.161;  152.100;  406.000;  291.000
213.306; -149.500; -435.000; -577.000
213.451; -186.500; -778.000; -689.000
213.596; -126.700; -455.000; -347.000
213.741; -129.700; -448.000; -538.000
213.886; -154.400; -498.000; -517.000
214.031;  -21.300; -294.000; -124.000
214.176; -119.800; -408.000; -341.000
214.321;  -41.900; -296.000; -157.000
214.466;  -28.900; -163.000;  -43.000
214.611;   -9.600;  -61.000;  -10.000
214.756; -255.800; -948.000; -858.000
214.901;  -55.200; -388.000; -226.000
215.046; -245.700; -797.000; -825.000
215.191;    1.000;  128.000;   35.000
215.336;  -50.200; -157.000;  -19.000
215.480; -144.700; -684.000; -505.000
215.625;  -25.200; -175.000;  -19.000
215.770; -181.500; -757.000; -662.000
215.915;  -16.800;   -5.000;  -97.000
216.060;  -46.800; -113.000;  -21.000
216.205; -215.600; -731.000; -779.000
216.349; -147.500; -470.000; -533.000
216.494; -271.600; -939.000; -867.000
216.639; -218.000; -823.000; -888.000
216.784; -183.000; -577.000; -525.000
216.929;  117.100;  392.000;  281.000
217.073;  -31.500; -244.000;  -31.000
217.218;   -7.300;   78.000;  -47.000
217.363; -173.700; -656.000; -618.000
217.507; -150.200; -623.000; -588.000
217.652; -276.000; -845.000; -874.000
217.797; -203.100; -708.000; -659.000
217.942; -227.300; -856.000; -720.000
218.086;  104.000;  608.000;  539.000
218.231;  -31.700; -174.000;  -26.000
218.376;  -45.500; -337.000; -229.000
218.520;  -20.000;  -41.000;   96.000
218.665;  -89.300; -338.000; -204.000
218.810;  -99.800; -275.000; -233.000
218.954;   27.600;  201.000;   35.000
219.099; -203.100; -713.000; -963.000
219.243; -125.500; -589.000; -554.000
219.388;  -70.300; -264.000; -136.000
219.532;    2.000; -116.000; -116.000
219.677; -164.400; -564.000; -521.000
219.822;   22.900;   33.000;   89.000
219.966;   -2.100;   17.000;  -99.000
220.111;  -68.200; -328.000;  -40.000
220.255; -204.300; -797.000; -750.000
220.400;  -31.600; -180.000; -146.000
220.544; -143.400; -516.000; -450.000
220.689; -110.600; -422.000; -451.000
220.833;  -67.300; -123.000;  -58.000
220.978;  -92.300; -393.000; -563.000
221.122;   51.100;  319.000;  307.000
221.267; -224.500; -906.000; -837.000
221.411; -140.800; -478.000; -394.000
221.555;   -5.900; -104.000;  -23.000
221.700;  -71.000; -329.000; -222.000
221.844;   57.500;  255.000;  272.000
221.989; -124.100; -328.000; -311.000
222.133;  -80.900; -289.000; -307.000
222.277;  -17.400;    5.000;   78.000
222.422;   51.800;  227.000;  113.000
222.566;  -57.100; -381.000; -214.000
222.711; -109.200; -414.000; -479.000
222.855; -158.700; -643.000; -586.000
222.999; -184.300; -642.000; -717.000
223.144;  -38.300; -195.000; -194.000
223.288;  112.100;  423.000;  251.000
223.432;    7.600;  184.000;  230.000
223.576;   27.400;  152.000;  -21.000
223.721;   71.600;  364.000;  273.000
223.865;  -91.200; -472.000; -475.000
224.009;  502.100; 1673.000; 1631.000
224.153; -170.800; -660.000; -671.000
224.298; -118.100; -531.000; -489.000
224.442;  -19.700;  -74.000;  -33.000
224.586;  -32.900; -169.000; -106.000
224.730; -168.100; -858.000; -670.000
224.875; -210.300; -739.000; -688.000
225.019;   10.400;  102.000;  188.000
225.163;   90.800;  208.000;  341.000
225.307;   42.600;   97.000;  -91.000
225.451;   80.900;  360.000;  481.000
225.595;   88.200;  264.000;  176.000
225.739;  -48.000; -170.000;  -94.000
225.884;   -7.900;   86.000;    5.000
226.028; -188.500; -760.000; -626.000
226.172;  -38.100; -260.000; -273.000
226.316; -231.300; -941.000; -902.000
226.460; -154.900; -645.000; -493.000
226.604;  -92.700; -406.000; -400.000
226.748; -207.000; -836.000; -733.000
226.892;  -74.300; -227.000; -181.000
227.036;  -90.300; -537.000; -447.000
227.180; -100.100; -551.000; -375.000
227.324; -127.900; -561.000; -580.000
227.468; -242.100; -819.000; -717.000
227.612;   11.100;  242.000;  -28.000
227.756; -196.900; -845.000; -698.000
227.900;  114.100;  342.000;  441.000
228.044; -139.200; -509.000; -290.000
228.188;  100.400;  448.000;  568.000
228.332; -160.500; -546.000; -472.000
228.476;  -57.000; -223.000; -149.000
228.620;  -52.900; -210.000; -150.000
228.764;  130.700;  431.000;  349.000
228.908;  -32.400; -155.000;   30.000
229.052; -136.900; -615.000; -528.000
229.195;  -39.100; -172.000;   13.000
229.339;  -49.600; -235.000; -305.000
229.483;  -14.600;    5.000; -162.000
229.627;   29.500; -156.000;  139.000
229.771; -113.600; -218.000; -294.000
229.915;   49.200;  230.000;   79.000
230.059; -203.800; -648.000; -663.000
230.202;  -60.100; -370.000; -317.000
230.346;  -57.700; -107.000;  107.000
230.490; -113.700; -489.000; -521.000
230.634; -232.600; -736.000; -553.000
230.777;  138.900;  478.000;  509.000
230.921;  -96.200; -450.000; -359.000
231.065;  -71.700; -246.000; -286.000
231.209;   79.900;  261.000;  265.000
231.352;   58.800;   54.000;   40.000
231.496;   44.200;  568.000;  188.000
231.640; -173.700; -693.000; -621.000
231.783;  120.700;  546.000;  525.000
231.927;  -43.300; -294.000; -365.000
232.071; -214.800; -962.000; -736.000
232.214; -222.500; -980.000; -764.000
232.358; -177.800; -683.000; -599.000
232.502;   48.300;  -19.000;    7.000
232.645; -285.700;-1090.000; -927.000
232.789;  -48.900; -257.000; -218.000
232.933;  -94.000; -407.000; -224.000
233.076; -265.900;-1038.000; -897.000
233.220; -232.300; -752.000; -777.000
233.363; -145.200; -669.000; -477.000
233.507;  116.300;  371.000;  129.000
233.650; -180.000; -764.000; -834.000
233.794;  101.100;  438.000;  461.000
233.938; -116.300; -530.000; -362.000
234.081;  -29.500;  -93.000;   31.000
234.225; -128.600; -631.000; -539.000
234.368; -218.200; -773.000; -723.000
234.512;  -77.700; -385.000; -299.000
234.655; -196.300; -582.000; -555.000
234.798; -139.900; -493.000; -466.000
234.942; -270.100; -884.000;-1002.000
235.085; -157.800; -651.000; -443.000
235.229; -131.900; -405.000; -410.000
235.372; -103.100; -247.000; -191.000
235.516;  -94.700; -397.000; -321.000
235.659;   47.800;   92.000;  121.000
235.802;  -43.400;  -38.000;  -22.000
235.946;   38.200;  335.000;  215.000
236.089;   45.500;  126.000;  250.000
236.233;  104.300;  275.000;  298.000
236.376;  -67.200; -235.000; -378.000
236.519;  -52.700; -297.000; -319.000
236.663;  -11.800; -215.000; -117.000
236.806; -277.600;-1029.000; -999.000
236.949;  122.900;  543.000;  431.000
237.092;  140.700;  412.000;  391.000
237.236; -181.500; -589.000; -502.000
237.379;  133.200;  352.000;  428.000
237.522; -236.500; -879.000; -768.000
237.666;  -11.700; -271.000;   18.000
237.809; -262.700; -851.000; -823.000
237.952;   94.800;  469.000;  271.000
238.095; -137.200; -447.000; -442.000
238.238;  183.000;  688.000;  700.000
238.382;   40.200;  166.000;  103.000
238.525; -126.700; -598.000; -511.000
238.668; -268.300;-1060.000; -985.000
238.811; -144.800; -638.000; -643.000
238.954; -119.700; -483.000; -334.000
239.097;  185.000;  617.000;  664.000
239.241;   64.900;  394.000;  326.000
239.384; -105.000; -254.000; -214.000
239.527; -114.000; -424.000; -224.000
239.670; -306.900; -994.000;-1091.000
239.813; -212.100; -696.000; -658.000
239.956;  149.500;  579.000;  473.000
240.099; -245.200; -778.000; -725.000
240.242;  113.600;  428.000;  432.000
240.385;   94.300;  466.000;  450.000
240.528; -136.000; -706.000; -473.000
240.671;   43.600;  189.000;  134.000
240.814;  -75.900; -441.000; -158.000
240.957; -182.900; -767.000; -578.000
241.100; -206.400; -779.000; -755.000
241.243; -297.500;-1234.000; -893.000
241.386; -117.400; -508.000; -379.000
241.529; -187.800; -735.000; -547.000
241.672; -101.400; -566.000; -495.000
241.815; -233.700; -832.000; -808.000
241.958;  -43.300; -125.000; -182.000
242.101; -139.600; -545.000; -390.000
242.244;  -44.400; -270.000; -325.000
242.387; -117.500; -304.000; -246.000
242.530;  127.600;  470.000;  134.000
242.673;  -95.000; -381.000; -309.000
242.815; -221.900; -925.000; -899.000
242.958; -138.900; -482.000; -381.000
243.101;    9.800;  132.000;  187.000
243.244; -148.300; -564.000; -521.000
243.387;  -72.600; -313.000; -316.000
243.530; -164.000; -657.000; -674.000
243.672;  -32.900;   43.000;  -92.000
243.815; -101.600; -355.000; -283.000
243.958;   10.900;   98.000;  -26.000
244.101;  -32.900;   59.000;  -16.000
244.243;  -28.500;  -47.000;  101.000
244.386; -233.000; -761.000; -630.000
244.529;   -7.600; -132.000; -139.000
244.672; -329.400;-1154.000; -951.000
244.814; -192.600; -621.000; -794.000
244.957; -115.700; -380.000; -304.000
245.100; -147.000; -489.000; -489.000
245.242; -126.800; -387.000; -374.000
245.385;   14.200;  -59.000;  -39.000
245.528; -239.400; -871.000; -705.000
245.670;  202.300;  612.000;  634.000
245.813; -172.200; -599.000; -547.000
245.956;  -65.900; -324.000; -275.000
246.098; -146.100; -508.000; -650.000
246.241;   -3.300;  194.000;   48.000
246.383;  -13.000; -119.000;  -73.000
246.526; -154.600; -454.000; -525.000
246.669; -226.800; -889.000; -780.000
246.811;   -1.100;  172.000;   -1.000
246.954; -120.800; -512.000; -426.000
247.096;  -47.600;  -84.000;   -6.000
247.239; -115.200; -482.000; -445.000
247.381; -165.000; -647.000; -488.000
247.524;  153.500;  645.000;  679.000
247.666;   -6.600;   58.000;   11.000
247.809; -239.900; -887.000; -691.000
247.951;   -0.700;  -75.000;  138.000
248.094;   75.700;  432.000;  308.000
248.236; -306.900;-1262.000;-1238.000
248.378;  -82.800; -356.000;  -81.000
248.521;  -94.600; -334.000; -337.000
248.663; -101.000; -236.000; -267.000
248.806;  -71.800; -300.000; -266.000
248.948; -260.400; -886.000; -763.000
249.090; -124.200; -428.000; -398.000
249.233; -144.400; -344.000; -381.000
249.375; -148.000; -474.000; -451.000
249.518;  -54.100;  -83.000; -133.000
249.660;   16.800; -103.000;    3.000
249.802; -351.500;-1303.000;-1189.000
249.945; -168.600; -612.000; -540.000
250.087; -228.400; -834.000; -768.000
250.229; -113.100; -362.000; -480.000
250.371; -135.100; -494.000; -439.000
250.514;  -81.500; -310.000; -244.000
250.656;  -42.500;   69.000;  102.000
250.798; -207.700; -849.000; -800.000
250.940; -126.500; -322.000; -322.000
251.083;  -56.100; -335.000; -111.000
251.225;  106.300;  338.000;  310.000
251.367;  -59.700; -274.000; -373.000
251.509;  -31.700; -265.000; -210.000
251.651; -191.200; -731.000; -671.000
251.794;  171.300;  538.000;  632.000
251.936; -213.100; -821.000; -747.000
252.078; -159.200; -540.000; -461.000
252.220; -109.900; -645.000; -477.000
252.362;   83.400;  344.000;  462.000
252.504; -144.700; -677.000; -584.000
252.646; -251.700; -875.000; -722.000
252.788;  -12.300;   14.000; -128.000
252.931;  -84.100; -257.000; -253.000
253.073;  -94.400; -376.000; -317.000
253.215;  -20.600;  141.000;  122.000
253.357;  -34.300;   82.000; -153.000
253.499;  -99.500; -374.000; -234.000
253.641; -177.000; -749.000; -594.000
253.783; -149.600; -609.000; -527.000
253.925; -174.700; -586.000; -591.000
254.067; -201.000; -744.000; -667.000
254.209;  -90.700; -391.000; -259.000
254.351; -286.800; -865.000; -883.000
254.493; -128.900; -441.000; -417.000
254.635; -227.200; -936.000; -818.000
254.777; -195.200; -752.000; -687.000
254.918; -147.400; -512.000; -430.000
255.060; -108.900; -551.000; -395.000
255.202; -128.400; -473.000; -261.000
255.344; -144.300; -658.000; -455.000
255.486; -153.700; -471.000; -406.000
255.628; -216.800; -780.000; -781.000
255.770; -164.400; -676.000; -536.000
255.912; -144.800; -559.000; -468.000
256.053; -188.800; -730.000; -508.000
256.195;  312.000; 1008.000;  903.000
256.337; -216.500; -861.000; -595.000
256.479;  135.700;  532.000;  416.000
256.621; -122.500; -394.000; -212.000
256.762; -169.100; -789.000; -742.000
256.904;   89.500;  485.000;  487.000
257.046;  -82.100; -381.000; -271.000
257.188;  -91.200; -351.000; -264.000
257.329; -155.200; -525.000; -464.000
257.471; -235.900; -939.000; -807.000
257.613; -140.800; -584.000; -498.000
257.755; -322.700;-1073.000; -982.000
257.896;   83.900;  286.000;  392.000
258.038; -137.900; -403.000; -352.000
258.180;  -61.800; -354.000; -279.000
258.321; -183.400; -581.000; -457.000
258.463;  -20.200;  -71.000;  133.000
258.605; -193.600; -562.000; -570.000
258.746; -217.300; -886.000; -772.000
258.888; -311.100;-1026.000;-1020.000
259.029;   74.400;  121.000;   -8.000
259.171; -170.400; -614.000; -550.000
259.313;    3.300;  -49.000;  -47.000
259.454; -155.100; -536.000; -414.000
259.596;  -82.600; -483.000; -390.000
259.737; -162.700; -590.000; -474.000
259.879;  108.900;  217.000;  311.000
260.020;  187.800;  901.000;  636.000
260.162;  -53.100; -146.000; -253.000
260.303; -248.300; -768.000; -687.000
260.445; -169.200; -609.000; -613.000
260.586;   54.400;  392.000;  157.000
260.728;  -68.700; -360.000; -248.000
260.869; -153.900; -350.000; -343.000
261.011;  156.100;  706.000;  537.000
261.152; -118.500; -479.000; -319.000
261.293; -172.200; -576.000; -595.000
261.435;  -22.300; -219.000; -184.000
261.576;  -95.000; -455.000; -325.000
261.718;   99.600;  420.000;  470.000
261.859; -247.800; -940.000; -949.000
262.000; -270.100; -951.000;-1016.000
262.142;  -39.100;  -52.000;  -60.000
262.283; -201.500; -808.000; -691.000
262.424; -159.900; -666.000; -625.000
262.566; -287.300;-1161.000; -983.000
262.707; -202.900; -840.000; -830.000
262.848; -250.000; -769.000; -726.000
262.990;  -73.500; -362.000; -345.000
263.131;  154.800;  650.000;  681.000
263.272;  -13.100;  -61.000;  -41.000
263.413; -183.800; -589.000; -561.000
263.555; -121.300; -669.000; -143.000
263.696; -163.700; -550.000; -641.000
263.837; -146.700; -449.000; -551.000
263.978;    3.100;   -5.000;  -77.000
264.119;  -66.400; -283.000; -264.000
264.261; -203.200; -847.000; -630.000
264.402;   17.600;   33.000;   40.000
264.543; -152.200; -509.000; -524.000
264.684;   -2.200;   61.000;  -50.000
264.825; -199.800; -816.000; -538.000
264.966;   16.200;  -84.000;  -67.000
265.107; -222.100; -646.000; -670.000
265.248; -246.600; -825.000; -812.000
265.390;   -3.100;  152.000;   -9.000
265.531;  -10.300; -238.000; -107.000
265.672; -188.400; -557.000; -630.000
265.813;  137.300;  563.000;  439.000
265.954; -254.900; -959.000; -940.000
266.095;  -38.500; -372.000; -322.000
266.236; -185.900; -686.000; -548.000
266.377;  -77.200; -243.000; -297.000
266.518; -125.500; -619.000; -547.000
266.659;   80.600;  170.000;  268.000
266.800;   36.400;   83.000;   85.000
266.941; -143.400; -487.000; -478.000
267.082;    4.200;  354.000;   99.000
267.223; -112.400; -344.000; -273.000
267.364; -232.700; -892.000; -686.000
267.504;  -61.800;    3.000;  135.000
267.645;   14.200;  160.000;   67.000
267.786;  -90.500; -147.000;  -86.000
267.927; -150.800; -473.000; -379.000
268.068;  -49.700; -186.000;  -61.000
268.209;  -77.700; -175.000; -413.000
268.350;  -71.500; -388.000; -532.000
268.490; -175.300; -648.000; -521.000
268.631;   38.300;  127.000;  225.000
268.772; -233.200; -874.000; -647.000
268.913; -109.900; -328.000; -476.000
269.054;  -32.000; -117.000;   12.000
269.194;  -91.000; -418.000; -402.000
269.335; -316.000;-1137.000;-1074.000
269.476;  -47.600;   33.000;  -35.000
269.617;  -99.600; -347.000; -392.000
269.757; -178.000; -713.000; -646.000
269.898; -211.000; -856.000; -613.000
270.039; -131.800; -415.000; -405.000
270.180; -254.400; -952.000; -816.000
270.320;  -39.100; -190.000; -250.000
270.461;  -82.300; -277.000; -249.000
270.602;  -16.100; -186.000; -156.000
270.742; -264.400; -868.000; -943.000
270.883; -141.100; -442.000; -390.000
271.023;  -91.800; -358.000; -357.000
271.164; -139.000; -607.000; -528.000
271.305; -188.600; -666.000; -654.000
271.445; -185.400; -722.000; -683.000
271.586; -140.000; -462.000; -283.000
271.726;  -87.900; -397.000; -322.000
271.867; -175.500; -594.000; -534.000
272.008;  -57.500; -473.000; -285.000
272.148;   97.900;  462.000;  468.000
272.289;  -45.700; -113.000; -181.000
272.429;    3.900;   19.000;  185.000
272.570; -186.100; -633.000; -737.000
272.710; -204.600; -825.000; -775.000
272.851;  -47.500;  113.000; -130.000
272.991; -321.000;-1173.000;-1077.000
273.131; -134.900; -419.000; -459.000
273.272; -199.800; -683.000; -723.000
273.412;  -30.400; -143.000;  -31.000
273.553; -152.300; -488.000; -507.000
273.693;  193.600;  913.000;  858.000
273.834; -263.300; -894.000; -692.000
273.974; -176.500; -664.000; -615.000
274.114; -192.900; -772.000; -560.000
274.255;   59.700;  414.000;  373.000
274.395;  -82.700; -180.000; -125.000
274.535;   48.900;  199.000;  350.000
274.676;   68.200;  225.000;   94.000
274.816;   13.400;  110.000;   34.000
274.956; -192.300; -624.000; -690.000
275.097; -263.200;-1014.000; -922.000
275.237; -241.400; -913.000; -803.000
275.377; -219.100; -778.000; -689.000
275.517; -312.400; -878.000; -937.000
275.658; -130.100; -590.000; -555.000
275.798; -198.700; -606.000; -413.000
275.938;   67.300;  215.000;  323.000
276.078; -208.300; -626.000; -395.000
276.218;    8.000;   99.000;  104.000
276.359; -281.500;-1026.000;-1024.000
276.499; -169.300; -605.000; -446.000
276.639;  -56.400; -305.000; -151.000
276.779; -122.300; -475.000; -357.000
276.919; -229.500; -783.000; -624.000
277.059;  -38.300; -261.000; -212.000
277.199;  -86.500; -357.000; -259.000
277.340;   88.300;  287.000;  175.000
277.480; -237.000; -840.000; -693.000
277.620;   61.900;  192.000;   16.000
277.760; -405.900;-1533.000;-1294.000
277.900;  -14.400;  113.000;   33.000
278.040;   17.800;  137.000;  159.000
278.180;   36.900;  270.000;  170.000
278.320;   18.000;   21.000;   56.000
278.460; -138.700; -443.000; -469.000
278.600; -157.200; -708.000; -598.000
278.740;   91.600;  448.000;  224.000
278.880; -260.600; -768.000; -791.000
279.020;  -59.800; -194.000; -144.000
279.160; -186.400; -672.000; -595.000
279.300; -228.600; -926.000; -873.000
279.440; -205.200; -709.000; -622.000
279.579; -293.700;-1014.000; -929.000
279.719; -144.000; -410.000; -394.000
279.859;   12.900;   -4.000;   41.000
279.999;  -38.800; -208.000;  101.000
280.139; -108.600; -435.000; -387.000
280.279; -204.000; -708.000; -745.000
280.419;  -66.300; -229.000; -147.000
280.559; -102.700; -259.000; -180.000
280.698; -186.300; -790.000; -639.000
280.838; -212.200; -778.000; -800.000
280.978; -208.100; -846.000; -790.000
281.118; -204.500; -811.000; -704.000
281.257;   25.300;   24.000;    6.000
281.397; -337.400;-1094.000; -960.000
281.537; -226.000; -599.000; -712.000
281.677;  -42.900; -150.000; -101.000
281.816; -176.300; -700.000; -630.000
281.956;  -95.700; -193.000; -257.000
282.096; -116.900; -539.000; -396.000
282.235; -219.800; -672.000; -638.000
282.375;  -30.700; -243.000;  -98.000
282.515; -198.400; -715.000; -707.000
282.654;   17.800;   29.000;  106.000
282.794;   62.200;  388.000;  244.000
282.934; -120.600; -530.000; -491.000
283.073; -273.500;-1030.000; -857.000
283.213; -124.500; -460.000; -467.000
283.353; -115.700; -408.000; -349.000
283.492;  -83.200; -264.000; -296.000
283.632; -103.100; -254.000; -168.000
283.771; -193.400; -859.000; -730.000
283.911; -118.300; -369.000; -260.000
284.050; -218.300; -794.000; -748.000
284.190; -326.200;-1229.000;-1096.000
284.329; -303.200;-1055.000; -964.000
284.469; -199.900; -516.000; -591.000
284.608; -113.600; -559.000; -598.000
284.748; -192.000; -614.000; -570.000
284.887;    8.600;  -87.000;  -20.000
285.027; -280.100; -844.000; -892.000
285.166;  -79.700; -192.000; -249.000
285.306;  -51.300; -116.000;  -33.000
285.445;  -66.100; -229.000; -343.000
285.584; -170.700; -630.000; -494.000
285.724;  -62.100; -282.000; -322.000
285.863; -205.500; -857.000; -507.000
286.002;  -64.500; -366.000; -276.000
286.142; -220.100; -715.000; -622.000
286.281; -132.000; -525.000; -493.000
286.420; -148.500; -554.000; -417.000
286.560;  190.400;  653.000;  623.000
286.699; -267.400; -958.000; -912.000
286.838; -131.600; -590.000; -591.000
286.978; -167.900; -533.000; -537.000
287.117; -263.700;-1085.000; -950.000
287.256;  -79.800; -228.000; -211.000
287.395; -111.400; -197.000; -378.000
287.535; -111.000; -370.000; -298.000
287.674; -148.900; -509.000; -484.000
287.813;  103.400;  661.000;  533.000
287.952; -248.200;-1010.000; -871.000
288.091; -290.100;-1049.000; -915.000
288.231;    3.800;   13.000;   15.000
288.370; -359.500;-1217.000;-1200.000
288.509; -167.700; -728.000; -645.000
288.648; -155.000; -770.000; -548.000
288.787;  -43.300; -243.000;  -87.000
288.926; -136.600; -454.000; -475.000
289.065;  178.500;  859.000;  672.000
289.204; -139.400; -377.000; -217.000
289.344; -207.600; -791.000; -690.000
289.483;   11.600;  416.000;  304.000
289.622;  -34.800; -291.000; -149.000
289.761;  -40.200; -309.000; -166.000
289.900; -222.600; -785.000; -626.000
290.039;  -59.700;  -12.000;  -95.000
290.178;  -85.000; -274.000; -180.000
290.317; -168.000; -618.000; -479.000
290.456; -124.800; -463.000; -451.000
290.595; -284.900; -961.000; -833.000
290.734; -283.000; -904.000; -891.000
290.873; -150.400; -456.000; -420.000
291.011; -237.300; -833.000; -843.000
291.150; -191.200; -770.000; -682.000
291.289;  -70.300; -343.000; -110.000
291.428; -191.700; -599.000; -480.000
291.567; -120.300; -370.000; -442.000
291.706;    0.400;  109.000;  154.000
291.845; -182.300; -597.000; -505.000
291.984; -326.500;-1234.000;-1061.000
292.122;  148.600;  602.000;  582.000
292.261;   87.700;  620.000;  463.000
292.400;    0.100; -144.000;  211.000
292.539; -250.900; -959.000; -813.000
292.678;  -39.300; -325.000; -300.000
292.816; -314.000;-1136.000; -965.000
292.955; -214.500; -844.000; -684.000
293.094;  -69.700; -173.000; -337.000
293.233; -105.100; -556.000; -400.000
293.371;  -58.000; -225.000;  -84.000
293.510; -243.000; -866.000; -780.000
293.649; -307.700; -959.000; -924.000
293.787; -296.900;-1083.000;-1012.000
293.926;  -56.600; -113.000;  -32.000
294.065;  -95.700; -379.000; -290.000
294.203;   78.400;  298.000;  406.000
294.342;    8.800;   74.000;  156.000
294.481;12937.400;51180.000; -836.000
294.619;  -66.200; -425.000; -582.000
294.758; -313.900;-1230.000;-1137.000
294.896;  -27.500; -125.000;    5.000
295.035; -312.400;-1040.000;-1006.000
295.174; -296.500;-1082.000; -954.000
295.312; -119.400; -323.000; -203.000
295.451; -110.300; -307.000; -428.000
295.589; -152.900; -389.000; -518.000
295.728;  -12.700; -292.000; -165.000
295.866;  -39.300;  -36.000;  -51.000
296.005; -164.300; -584.000; -341.000
296.143; -161.000; -558.000; -596.000
296.282; -258.200; -957.000; -881.000
296.420; -199.300; -657.000; -557.000
296.559; -208.600; -892.000; -633.000
296.697; -229.000; -847.000; -665.000
296.835; -330.400;-1141.000;-1002.000
296.974;   10.800;  -23.000;   39.000
297.112; -142.100; -443.000; -504.000
297.251; -220.100; -815.000; -755.000
297.389; -158.700; -576.000; -438.000
297.527;  -37.300; -145.000;  -83.000
297.666; -142.500; -486.000; -438.000
297.804; -131.900; -404.000; -264.000
297.942;  -42.800; -136.000; -161.000
298.081;  -82.400; -183.000;   63.000
298.219;  -22.700;  -17.000;  -19.000
298.357;  -94.900; -144.000;  -71.000
298.495; -250.200; -810.000; -812.000
298.634;   -6.000;  245.000;  219.000
298.772;  -94.200; -220.000; -338.000
298.910;  -98.600; -309.000; -182.000
299.048;  -33.100; -130.000; -153.000
299.187;  -77.500; -350.000; -250.000
299.325;   -6.200;   52.000;  122.000
299.463; -129.600; -389.000; -299.000
299.601;  -89.300; -327.000; -271.000
299.739; -316.800; -908.000; -883.000
299.877; -190.400; -791.000; -703.000
300.016; -347.400;-1095.000; -935.000
300.154;  -12.400;  -19.000; -161.000
300.292; -152.100; -428.000; -348.000
300.430; -108.000; -408.000; -291.000
300.568; -240.200; -940.000; -874.000
300.706; -128.300; -366.000; -469.000
300.844; -333.000;-1108.000; -979.000
300.982;  117.200;  246.000;  282.000
301.120; -283.900; -965.000; -866.000
301.258; -207.500; -812.000; -705.000
301.396;    4.700;  104.000;  -41.000
301.534;  -66.100; -218.000; -293.000
301.672; -187.300; -664.000; -521.000
301.810; -169.200; -613.000; -545.000
301.948;   15.800;   53.000;  149.000
302.086;  -43.200; -250.000;  -32.000
302.224; -192.900; -610.000; -585.000
302.362; -189.900; -558.000; -622.000
302.500; -262.900; -923.000; -893.000
302.638;   40.100;  128.000;  245.000
302.776;  -94.000; -352.000; -408.000
302.913;   69.500;  447.000;  236.000
303.051;  -88.900;  -86.000;  -23.000
303.189;   41.100;   90.000;  118.000
303.327; -105.900; -341.000; -256.000
303.465; -193.900; -832.000; -588.000
303.603; -225.000; -805.000; -604.000
303.740;  114.500;  417.000;  241.000
303.878; -219.400; -800.000; -759.000
304.016; -220.700; -915.000; -790.000
304.154; -349.200;-1123.000;-1152.000
304.291; -160.000; -505.000; -554.000
304.429;  -13.300;  102.000;   74.000
304.567; -295.500; -908.000; -893.000
304.705; -119.200; -408.000; -515.000
304.842; -165.000; -616.000; -540.000
304.980;   10.300;  215.000;   35.000
305.118; -100.400; -367.000; -365.000
305.255; -259.300; -945.000; -927.000
305.393;   45.600;  178.000;  239.000
305.531; -298.700;-1173.000; -956.000
305.668; -193.100; -663.000; -582.000
305.806; -138.700; -358.000; -439.000
305.943; -154.900; -629.000; -637.000
306.081; -107.000; -378.000; -267.000
306.219; -220.800; -863.000; -748.000
306.356;    9.600;  158.000;   27.000
306.494;  188.700;  981.000;  761.000
306.631;  -41.900;  -11.000;  -55.000
306.769; -123.100; -613.000; -485.000
306.906; -131.900; -284.000; -258.000
307.044; -131.000; -473.000; -488.000
307.181; -118.900; -410.000; -332.000
307.319;   24.700;  112.000;   87.000
307.456; -371.000;-1191.000;-1153.000
307.594; -264.200; -980.000; -727.000
307.731;  -59.600; -371.000; -164.000
307.868;  -14.000;  -15.000;   20.000
308.006; -296.000; -961.000; -847.000
308.143; -200.100; -618.000; -330.000
308.281;  -56.500;  -37.000; -254.000
308.418; -194.200; -748.000; -640.000
308.555; -156.100; -400.000; -250.000
308.693; -160.900; -577.000; -573.000
308.830; -230.300; -712.000; -657.000
308.967;  -49.700; -215.000;  -95.000
309.105; -130.500; -507.000; -396.000
309.242; -155.200; -468.000; -367.000
309.379; -211.300; -577.000; -655.000
309.517; -253.000; -936.000; -948.000
309.654; -253.500; -910.000; -734.000
309.791; -140.600; -662.000; -580.000
309.928; -286.200; -977.000; -914.000
310.065;  150.400;  819.000;  697.000
310.203; -277.800; -825.000; -850.000
310.340; -143.900; -465.000; -321.000
310.477; -181.400; -412.000; -516.000
310.614; -140.400; -383.000; -473.000
310.751; -176.500; -427.000; -518.000
310.889;  -44.900;    1.000;   11.000
311.026; -325.600;-1161.000; -939.000
311.163;  -89.000; -386.000; -380.000
311.300; -174.700; -512.000; -479.000
311.437; -163.100; -658.000; -619.000
311.574; -333.400;-1226.000; -985.000
311.711; -184.500; -595.000; -433.000
311.848;  -95.900; -380.000; -388.000
311.985;   -3.700;  270.000;   93.000
312.122; -264.400; -932.000; -762.000
312.259; -272.800; -941.000; -994.000
312.396; -187.800; -508.000; -551.000
312.533; -180.800; -812.000; -790.000
312.670; -300.900;-1070.000; -898.000
312.807; -106.600; -352.000; -367.000
312.944; -195.800; -513.000; -611.000
313.081; -102.800; -150.000; -415.000
313.218; -313.400;-1111.000; -867.000
313.355; -133.800; -531.000; -449.000
313.492; -133.800; -455.000; -292.000
313.629;  178.700;  815.000;  735.000
313.766; -378.200;-1176.000;-1008.000
313.902;  -38.600; -186.000;   21.000
314.039; -117.800; -372.000; -289.000
314.176;   42.800;  286.000;  192.000
314.313; -186.600; -569.000; -473.000
314.450; -196.000; -788.000; -684.000
314.587; -181.800; -468.000; -480.000
314.723;  -28.900;  -78.000;  130.000
314.860;   34.400;  318.000;  332.000
314.997;    1.200;  223.000;  142.000
315.134; -135.100; -385.000; -368.000
315.270; -141.200; -480.000; -496.000
315.407; -341.500;-1094.000; -967.000
315.544; -175.100; -657.000; -538.000
315.681; -186.900; -681.000; -565.000
315.817;  -65.900; -133.000; -176.000
315.954; -179.600; -613.000; -392.000
316.091; -310.200;-1045.000;-1023.000
316.227; -100.800;  -71.000; -179.000
316.364;    7.100;   23.000;    6.000
316.500;  -75.600; -113.000; -300.000
316.637;  -99.000; -181.000; -302.000
316.774; -161.000; -625.000; -358.000
316.910; -188.500; -598.000; -629.000
317.047; -177.700; -487.000; -351.000
317.183; -158.700; -435.000; -566.000
317.320; -129.400; -367.000; -321.000
317.456; -215.300; -733.000; -805.000
317.593; -202.000; -598.000; -641.000
317.729;   42.000;  168.000;  -67.000
317.866; -406.800;-1434.000;-1285.000
318.002; -195.300; -708.000; -948.000
318.139; -287.600; -883.000; -867.000
318.275; -219.100;-1003.000; -738.000
318.412; -123.700; -517.000; -336.000
318.548; -168.100; -751.000; -720.000
318.685; -275.300; -985.000; -888.000
318.821; -229.300; -762.000; -735.000
318.957;  -36.100;   34.000;  -23.000
319.094;   98.400;  297.000;  154.000
319.230; -224.900; -756.000; -742.000
319.367; -139.400; -471.000; -520.000
319.503; -110.400; -538.000; -436.000
319.639; -228.300; -877.000; -793.000
319.775; -212.100; -750.000; -685.000
319.912; -128.800; -424.000; -519.000
320.048; -332.100;-1184.000;-1184.000
320.184;   33.200;   59.000;   70.000
320.321; -143.100; -497.000; -467.000
320.457;  126.500;  475.000;  662.000
320.593; -127.500; -375.000; -382.000
320.729; -255.100; -732.000; -734.000
320.866; -189.100; -577.000; -635.000
321.002; -218.200; -759.000; -809.000
321.138;  -92.400; -135.000; -211.000
321.274;  -39.600; -148.000; -115.000
321.410; -175.200; -585.000; -353.000
321.546; -288.600;-1011.000; -911.000
321.683;    8.800;  400.000;  185.000
321.819;  -29.100;  -48.000; -117.000
321.955; -273.600; -743.000; -722.000
322.091; -186.600; -585.000; -540.000
322.227;  -91.000; -382.000; -202.000
322.363; -117.800; -320.000; -215.000
322.499; -152.200; -343.000; -331.000
322.635;  112.500;  636.000;  443.000
322.771;  -57.500; -139.000;   12.000
322.907;  112.900;  129.000;  327.000
323.043;  -70.600; -115.000; -206.000
323.179; -153.400; -394.000; -363.000
323.315; -155.700; -401.000; -371.000
323.451; -100.500; -328.000; -236.000
323.587;  -96.900;  -60.000;  -77.000
323.723; -205.700; -682.000; -601.000
323.859;  -83.600; -258.000;  -76.000
323.995; -135.600; -467.000; -409.000
324.131; -262.900; -967.000; -892.000
324.267;  -95.600; -254.000; -276.000
324.402; -290.400; -960.000; -983.000
324.538;  -80.100; -279.000; -104.000
324.674;   16.600;  164.000;   77.000
324.810;    1.600;  226.000;  308.000
324.946; -146.000; -810.000; -658.000
325.082; -139.500; -568.000; -475.000
325.217;  -18.100;  -62.000;   16.000
325.353; -235.100; -764.000; -659.000
325.489; -167.400; -540.000; -506.000
325.625; -154.800; -579.000; -525.000
325.760;   62.700;  517.000;  376.000
325.896; -173.200; -515.000; -702.000
326.032; -121.100; -403.000; -352.000
326.168; -129.600; -462.000; -369.000
326.303; -143.200; -352.000; -461.000
326.439;  -46.400; -336.000; -276.000
326.575;  -60.700; -190.000;  -29.000
326.710;  -63.700; -156.000;  -30.000
326.846;  -24.700;  146.000;  103.000
326.982; -180.200; -530.000; -548.000
327.117; -149.600; -481.000; -442.000
327.253; -199.700; -745.000; -742.000
327.388; -386.400;-1137.000;-1153.000
327.524; -215.900; -811.000; -578.000
327.659;  -40.000;  -58.000;  -22.000
327.795;  -19.500;   69.000;   45.000
327.931; -208.300; -723.000; -499.000
328.066; -119.600; -417.000; -276.000
328.202;  -66.900;   12.000; -129.000
328.337;  203.400;  957.000;  713.000
328.473;  -39.700;  -12.000;  -74.000
328.608;  -62.200; -256.000; -267.000
328.743; -263.200; -799.000; -664.000
328.879;    8.300;  214.000;  114.000
329.014; -101.100; -102.000; -122.000
329.150; -150.800; -358.000; -483.000
329.285; -151.800; -465.000; -466.000
329.421; -101.000; -548.000; -246.000
329.556;  -42.500;  -36.000;   85.000
329.691; -183.200; -633.000; -615.000
329.827; -163.300; -626.000; -480.000
329.962;  -76.800;  131.000; -301.000
330.097; -185.700; -673.000; -585.000
330.233; -110.700; -410.000; -223.000
330.368; -267.800; -839.000; -628.000
330.503;   11.000;    3.000;   98.000
330.638;  -56.700;  -93.000; -125.000
330.774; -173.400; -609.000; -530.000
330.909;  -96.200; -434.000; -244.000
331.044; -168.500; -714.000; -708.000
331.179; -355.400;-1217.000;-1109.000
331.315;    8.600;   77.000;   20.000
331.450;   37.500;  157.000;  285.000
331.585; -244.200; -805.000; -706.000
331.720; -188.600; -510.000; -460.000
331.855;  -48.500;  -35.000; -102.000
331.990;  -33.700;   62.000;  138.000
332.126;  -39.500; -110.000;   71.000
332.261; -144.100; -379.000; -265.000
332.396; -111.600; -135.000; -242.000
332.531; -311.300;-1074.000;-1031.000
332.666; -126.900; -519.000; -363.000
332.801; -230.900; -726.000; -807.000
332.936;  -11.600; -192.000; -122.000
333.071; -328.900; -870.000; -817.000
333.206;   31.700;  307.000;  379.000
333.341;   67.200;  344.000;  418.000
333.476; -186.400; -627.000; -623.000
333.611;  -88.600; -251.000; -173.000
333.746; -106.500; -381.000; -464.000
333.881; -272.800; -973.000; -935.000
334.016; -256.300; -936.000; -917.000
334.151; -267.200; -746.000; -702.000
334.286;   21.700;  152.000;  186.000
334.421;  -49.800; -125.000; -178.000
334.556; -171.900; -611.000; -567.000
334.690; -197.800; -631.000; -577.000
334.825;   92.300;  381.000;   83.000
334.960; -118.500; -285.000; -413.000
335.095;   -5.600;  135.000;  -91.000
335.230; -250.000; -722.000; -738.000
335.365; -317.600;-1084.000; -990.000
335.499; -334.400;-1108.000;-1037.000
335.634;   -9.300;    9.000;  534.000
335.769; -215.300; -755.000; -720.000
335.904; -185.400; -603.000; -561.000
336.038; -208.000; -735.000; -657.000
336.173; -303.700;-1206.000;-1194.000
336.308;  -95.200; -116.000; -189.000
336.443; -208.200; -544.000; -634.000
336.577; -286.900; -936.000; -787.000
336.712;  -62.600;   -4.000;  -12.000
336.847; -241.200; -724.000; -607.000
336.981; -102.600; -272.000; -208.000
337.116;   89.900;  615.000;  501.000
337.250; -157.000; -434.000; -421.000
337.385; -106.100; -297.000; -208.000
337.520; -202.800; -632.000; -603.000
337.654; -119.100; -215.000; -126.000
337.789; -279.200; -989.000; -933.000
337.923;  -73.600; -104.000; -205.000
338.058; -199.700; -673.000; -738.000
338.192; -173.700; -611.000; -488.000
338.327;  -67.400;  -18.000; -155.000
338.461; -183.800; -299.000; -469.000
338.596; -220.600; -780.000; -638.000
338.730; -226.100; -767.000; -803.000
338.865;  -60.900;  -46.000; -140.000
338.999; -259.300; -846.000; -702.000
339.134; -188.900; -634.000; -536.000
339.268; -224.000; -741.000; -603.000
339.403; -254.500; -740.000; -775.000
339.537; -253.600; -894.000; -820.000
339.671; -266.300; -829.000; -813.000
339.806; -176.400; -556.000; -512.000
339.940;  -47.600; -261.000; -235.000
340.074; -187.500; -685.000; -510.000
340.209; -102.300; -351.000; -230.000
340.343; -195.900; -517.000; -573.000
340.477;  305.000;  998.000; 1036.000
340.612; -278.500;-1033.000; -900.000
340.746; -111.600; -199.000; -243.000
340.880; -268.000; -924.000; -785.000
341.014;  -54.900;  -45.000; -154.000
341.149; -249.300; -756.000; -718.000
341.283; -225.100; -839.000; -754.000
341.417; -318.500;-1124.000; -938.000
341.551; -244.800; -768.000; -708.000
341.685; -191.700; -633.000; -611.000
341.820; -184.600; -562.000; -493.000
341.954; -137.700; -218.000; -349.000
342.088; -293.300;-1102.000;-1019.000
342.222;  100.300;  565.000;  618.000
342.356; -148.700; -395.000; -335.000
342.490; -261.700; -880.000; -841.000
342.624;  -97.600; -339.000; -242.000
342.758;  -94.700; -364.000; -312.000
342.892; -189.900; -710.000; -585.000
343.026; -110.800;  -58.000; -116.000
343.160;  -96.800; -426.000; -376.000
343.294; -159.700; -474.000; -337.000
343.428; -154.400; -488.000; -448.000
343.562;  -65.600; -172.000;  -23.000
343.696;  -83.600; -385.000; -314.000
343.830; -107.400; -362.000; -356.000
343.964;  -69.300; -231.000; -168.000
344.098;  -29.300;  199.000;   70.000
344.232;  -87.200; -266.000; -127.000
344.366; -175.400; -567.000; -453.000
344.500; -190.000; -665.000; -744.000
344.634; -100.200; -324.000; -164.000
344.768; -167.200; -531.000; -341.000
344.902;   14.500;  278.000;  256.000
345.035; -153.500; -556.000; -496.000
345.169; -287.300; -933.000; -656.000
345.303; -179.900; -308.000; -482.000
345.437; -230.800; -826.000; -717.000
345.571; -190.400; -675.000; -594.000
345.704; -123.800; -309.000; -532.000
345.838; -108.500; -331.000; -284.000
345.972; -174.800; -543.000; -495.000
346.106;  -48.400; -179.000; -190.000
346.239;  -98.400; -312.000; -243.000
346.373; -133.100; -343.000; -302.000
346.507; -322.600; -950.000; -962.000
346.640;  -61.200;  -30.000;   13.000
346.774; -241.600; -650.000; -797.000
346.908;  -40.200; -138.000;  -11.000
347.041; -230.500; -646.000; -593.000
347.175;    7.900;  259.000;   27.000
347.309; -247.500; -698.000; -628.000
347.442; -245.400; -883.000; -732.000
347.576;  140.400;  670.000;  668.000
347.709;  -21.900; -123.000;  -52.000
347.843; -266.300; -933.000; -825.000
347.976;   47.000;  235.000;  294.000
348.110; -383.700;-1268.000;-1186.000
348.243; -217.100; -679.000; -772.000
348.377;  -13.100;  -26.000;   60.000
348.510;  122.800;  403.000;  540.000
348.644; -106.300;  -37.000; -159.000
348.777;    0.600;  180.000;  191.000
348.911; -102.000; -142.000; -112.000
349.044;   71.500;  471.000;  448.000
349.178; -331.300;-1069.000;-1006.000
349.311;   47.200;  141.000;  255.000
349.444; -251.200; -927.000; -813.000
349.578;  -88.500; -347.000; -200.000
349.711; -285.100; -959.000; -862.000
349.845; -192.100; -661.000; -591.000
349.978; -332.900;-1224.000;-1137.000
350.111; -177.800; -546.000; -612.000
350.244; -229.100; -596.000; -700.000
350.378; -158.200; -392.000; -393.000
350.511; -120.100; -393.000; -426.000
350.644; -207.100; -808.000; -806.000
350.778;  -33.900;  168.000;  104.000
350.911;   -3.500;  134.000;  140.000
351.044; -239.600; -685.000; -615.000
351.177;  -71.300; -321.000; -281.000
351.310;  -34.300;    3.000; -131.000
351.444; -247.600; -888.000; -788.000
351.577;  -31.800;  140.000;   90.000
351.710;  136.200;  593.000;  417.000
351.843;  -54.000; -165.000;  -77.000
351.976;  -14.300;  149.000;  -79.000
352.109; -215.300; -621.000; -612.000
352.242; -130.900; -464.000; -419.000
352.376; -202.100; -580.000; -636.000
352.509; -111.100; -437.000; -356.000
352.642; -326.300; -654.000; -604.000
352.775;  -51.600; -141.000;  -98.000
352.908; -263.600; -933.000; -904.000
353.041; -245.000; -814.000; -824.000
353.174; -145.200; -551.000; -424.000
353.307; -214.200; -753.000; -764.000
353.440;   83.900;  541.000;  453.000
353.573; -275.300; -957.000;-1008.000
353.706; -256.100; -384.000; -558.000
353.839; -105.300; -264.000; -220.000
353.971; -217.300; -657.000; -512.000
354.104; -246.300; -896.000; -835.000
354.237; -217.400; -627.000; -662.000
354.370; -228.300; -846.000; -879.000
354.503; -396.900;-1231.000;-1308.000
354.636; -112.200; -529.000; -348.000
354.769; -281.400; -937.000; -860.000
354.902; -100.600; -230.000; -139.000
355.034;  -82.100; -164.000; -220.000
355.167;  -81.600; -262.000; -162.000
355.300; -307.800;-1061.000; -880.000
355.433;  -60.500;  -71.000;  -14.000
355.565; -169.000; -402.000; -384.000
355.698; -106.400; -356.000; -296.000
355.831; -278.900; -882.000; -801.000
355.964;  -54.400; -285.000; -170.000
356.096; -311.800; -856.000; -843.000
356.229; -184.300; -523.000; -530.000
356.362; -132.500; -373.000; -266.000
356.494;  -80.800; -229.000; -162.000
356.627;   31.100;  269.000;  377.000
356.760;  -23.700;  120.000;   53.000
356.892; -208.600; -286.000; -601.000
357.025;   98.700;  403.000;  389.000
357.157;  -73.100; -167.000; -179.000
357.290; -247.700; -856.000; -713.000
357.423; -236.600; -667.000; -556.000
357.555;  -67.900; -217.000; -228.000
357.688; -157.300; -483.000; -364.000
357.820; -274.400; -870.000; -877.000
357.953; -178.700; -563.000; -589.000
358.085; -190.500; -632.000; -612.000
358.218; -329.600;-1131.000; -932.000
358.350;  -37.500;  -58.000;  312.000
358.483; -380.600;-1300.000;-1187.000
358.615; -306.100;-1182.000;-1078.000
358.747; -339.200;-1187.000;-1058.000
358.880; -235.900; -810.000; -744.000
359.012; -132.600; -376.000; -202.000
359.145; -146.500; -480.000; -511.000
359.277; -325.900; -962.000; -913.000
359.409;   57.700;  536.000;  231.000
359.542; -223.000; -738.000; -688.000
359.674;  -25.700;   46.000;   13.000
359.806; -162.400; -565.000; -438.000
359.939; -141.900; -617.000; -516.000
360.071; -223.400; -583.000; -579.000
360.203; -122.400; -411.000; -364.000
360.335;  -27.100;  164.000;  -16.000
360.468; -107.500; -249.000; -307.000
360.600; -177.200; -547.000; -454.000
360.732; -164.700; -546.000; -423.000
360.864; -355.800;-1216.000;-1044.000
360.996; -136.900; -516.000; -554.000
361.129; -188.000; -389.000; -598.000
361.261;  -24.300;  110.000; -113.000
361.393;  -92.500; -252.000; -214.000
361.525;    7.600;   94.000;  244.000
361.657; -242.700; -821.000; -703.000
361.789;  -56.400; -139.000; -155.000
361.921; -189.500; -642.000; -593.000
362.053;  102.400;  524.000;  541.000
362.185;   11.600;  288.000;   72.000
362.318; -248.000; -709.000; -705.000
362.450;   35.100;  294.000;  444.000
362.582; -259.700; -913.000; -870.000
362.714; -121.100; -353.000; -332.000
362.846; -172.800; -606.000; -490.000
362.978; -296.500; -941.000; -811.000
363.109; -122.700; -161.000; -260.000
363.241; -220.600; -739.000; -749.000
363.373; -181.000; -649.000; -564.000
363.505;  -72.800; -186.000;  -91.000
363.637; -168.500; -787.000; -601.000
363.769; -327.700;-1067.000;-1080.000
363.901; -174.000; -596.000; -654.000
364.033; -327.900;-1103.000;-1062.000
364.165;  -88.400; -283.000; -283.000
364.296; -157.800; -316.000; -177.000
364.428; -376.700;-1344.000;-1220.000
364.560; -214.400; -679.000; -661.000
364.692; -193.000; -738.000; -835.000
364.824; -174.900; -588.000; -456.000
364.955; -126.000; -402.000; -564.000
365.087; -339.400;-1097.000; -852.000
365.219; -232.000; -686.000; -816.000
365.351; -219.700; -526.000; -572.000
365.482;    7.600;  300.000;  240.000
365.614; -129.500; -402.000; -314.000
365.746; -233.800; -729.000; -752.000
365.877; -217.800; -706.000; -672.000
366.009;  -18.300;  -35.000;  -62.000
366.141; -368.200;-1249.000;-1134.000
366.272; -259.200; -803.000; -719.000
366.404; -266.300;-1005.000; -874.000
366.535;  -45.800; -139.000;  -12.000
366.667; -215.300; -644.000; -649.000
366.799;   66.100;  353.000;  203.000
366.930; -324.600; -862.000; -996.000
367.062; -184.800; -639.000; -613.000
367.193; -272.400; -872.000; -842.000
367.325; -198.900; -580.000; -684.000
367.456; -116.800; -246.000;   31.000
367.588; -152.500; -371.000; -318.000
367.719;  -81.800;  -44.000;  -45.000
367.851; -114.100; -222.000; -241.000
367.982; -254.000; -875.000; -732.000
368.113; -128.600; -475.000; -358.000
368.245; -312.300; -960.000; -841.000
368.376;  -82.900; -254.000; -302.000
368.508; -114.900; -188.000; -263.000
368.639; -342.200;-1166.000;-1034.000
368.770; -247.200; -670.000; -589.000
368.902; -260.300; -836.000; -926.000
369.033; -308.600; -906.000; -855.000
369.164; -204.900; -720.000; -653.000
369.296; -236.600; -452.000; -601.000
369.427;  -81.900; -209.000; -144.000
369.558; -143.500; -593.000; -377.000
369.689; -221.500; -721.000; -569.000
369.821; -287.600; -951.000; -845.000
369.952;  -52.600;   42.000; -108.000
370.083; -101.300; -229.000; -108.000
370.214; -205.600; -735.000; -650.000
370.345;  -31.400;   65.000;   81.000
370.477; -245.400; -810.000; -790.000
370.608; -129.700; -328.000; -264.000
370.739; -336.800;-1233.000;-1292.000
370.870; -279.900;-1102.000; -923.000
371.001; -126.900; -378.000; -467.000
371.132; -239.400; -754.000; -735.000
371.263;  -54.600;  -42.000; -148.000
371.394; -264.900; -841.000; -748.000
371.525;   82.400;  345.000;  225.000
371.657; -248.900; -808.000; -670.000
371.788;    6.300;  103.000;  199.000
371.919; -170.400; -384.000; -304.000
372.050;  -58.000;  -91.000; -156.000
372.181;  -44.900; -188.000; -294.000
372.311;  -22.000;   42.000; -127.000
372.442; -165.800; -457.000; -451.000
372.573; -105.600; -444.000; -340.000
372.704; -289.700;-1008.000; -980.000
372.835; -137.600; -228.000; -289.000
372.966; -204.000; -646.000; -554.000
373.097; -216.900; -575.000; -711.000
373.228; -219.600; -717.000; -542.000
373.359; -239.600; -824.000; -536.000
373.490; -288.900; -881.000; -727.000
373.620; -291.100;-1001.000; -803.000
373.751; -174.500; -332.000; -396.000
373.882; -185.300; -663.000; -733.000
374.013; -122.400; -449.000; -262.000
374.143; -179.800; -581.000; -659.000
374.274; -308.200; -987.000; -908.000
374.405; -109.300; -388.000; -276.000
374.536; -177.900; -526.000; -387.000
374.666; -254.700; -759.000; -807.000
374.797; -255.600; -817.000; -868.000
374.928; -199.600; -710.000; -560.000
375.058; -197.800; -535.000; -500.000
375.189;  -48.300;  -59.000;  -93.000
375.320; -300.400; -928.000;-1034.000
375.450; -179.600; -625.000; -616.000
375.581; -165.300; -526.000; -436.000
375.712; -102.500; -574.000; -250.000
375.842; -186.400; -438.000; -415.000
375.973; -201.900; -554.000; -513.000
376.103; -215.200; -665.000; -648.000
376.234; -172.700; -531.000; -552.000
376.364; -290.600; -944.000; -867.000
376.495;  202.400;  925.000;  529.000
376.625; -187.100; -472.000; -485.000
376.756; -194.700; -709.000; -678.000
376.886; -366.700;-1178.000;-1026.000
377.017; -307.400;-1048.000;-1061.000
377.147; -292.300; -786.000; -782.000
377.278;   27.600;  174.000;  228.000
377.408; -261.300; -801.000; -815.000
377.538; -237.400; -707.000; -693.000
377.669; -218.700; -537.000; -613.000
377.799; -240.800; -645.000; -635.000
377.929; -213.700; -610.000; -428.000
378.060; -242.400; -781.000; -847.000
378.190; -223.800; -726.000; -531.000
378.320; -143.700; -401.000; -406.000
378.451;  -42.200; -131.000;  -22.000
378.581;  -80.400;  -67.000; -110.000
378.711;  200.600; 1035.000;  866.000
378.841; -186.900; -533.000; -675.000
378.972; -302.900; -871.000; -751.000
379.102; -193.000; -652.000; -579.000
379.232; -142.900; -126.000;  -73.000
379.362; -285.500;-1001.000; -885.000
379.492; -195.400; -373.000; -424.000
379.623;   13.800;    0.000;  111.000
379.753; -305.900;-1107.000; -974.000
379.883;   28.400;   59.000;  156.000
380.013; -350.600;-1081.000;-1017.000
380.143; -328.600;-1097.000;-1056.000
380.273; -303.700; -985.000; -861.000
380.403; -106.200; -344.000; -257.000
380.533; -238.700; -651.000; -664.000
380.663;   22.200;  173.000;  128.000
380.793; -338.100;-1027.000;-1074.000
380.923;  -70.000; -103.000;  -34.000
381.053; -199.600; -613.000; -623.000
381.183; -109.100; -106.000; -248.000
381.313; -184.000; -656.000; -470.000
381.443; -212.500; -692.000; -473.000
381.573; -158.300; -402.000; -409.000
381.703; -353.800;-1249.000;-1095.000
381.833; -422.700;-1454.000;-1336.000
381.963;  -31.500; -134.000;  -87.000
382.093; -319.000; -925.000; -909.000
382.223; -193.300; -713.000; -602.000
382.353; -260.800; -801.000; -608.000
382.482; -309.000;-1091.000; -964.000
382.612; -262.200; -872.000; -644.000
382.742; -225.700; -695.000; -622.000
382.872; -204.200; -565.000; -551.000
383.002;  -16.800;  347.000; -132.000
383.131; -130.500; -226.000; -160.000
383.261; -209.900; -706.000; -768.000
383.391; -190.700; -552.000; -377.000
383.521;   71.200;  451.000;  263.000
383.650; -302.700; -947.000; -904.000
383.780; -220.400; -783.000; -656.000
383.910;  189.400;  880.000;  802.000
384.039; -228.700; -794.000; -656.000
384.169; -371.000;-1205.000;-1017.000
384.299; -203.600; -650.000; -662.000
384.428; -218.200; -764.000; -680.000
384.558; -108.300; -308.000; -275.000
384.687; -155.400; -414.000; -334.000
384.817;  -17.100;   75.000;   -2.000
384.947; -106.400; -234.000; -141.000
385.076;  249.500;  982.000;  912.000
385.206;   60.300;  369.000;  480.000
385.335; -124.100; -549.000; -417.000
385.465; -244.700; -655.000; -663.000
385.594;  -39.800;  -53.000;  -44.000
385.724; -297.200; -868.000; -838.000
385.853; -105.900; -296.000; -270.000
385.982; -215.600; -743.000; -787.000
386.112; -270.400;-1052.000; -871.000
386.241; -130.900; -307.000; -312.000
386.371;  -79.000; -174.000;  -87.000
386.500; -292.000; -825.000; -789.000
386.629; -272.800; -874.000; -817.000
386.759;  -71.000;  -43.000;   68.000
386.888;  -55.700; -170.000; -250.000
387.017; -209.000; -648.000; -620.000
387.147; -226.300; -771.000; -798.000
387.276; -173.700; -410.000; -397.000
387.405; -107.000; -398.000; -342.000
387.535; -171.200; -452.000; -361.000
387.664; -211.400; -692.000; -620.000
387.793; -104.700; -198.000; -113.000
387.922;   33.600;  255.000;  200.000
388.052; -180.000; -576.000; -423.000
388.181; -160.800; -342.000; -472.000
388.310; -261.200; -889.000; -710.000
388.439; -238.200; -749.000; -742.000
388.568;   -4.100;  365.000;  244.000
388.697; -249.300; -756.000; -653.000
388.826; -220.600; -768.000; -666.000
388.956; -113.900; -285.000; -307.000
389.085; -153.400; -347.000; -287.000
389.214; -269.500; -842.000; -872.000
389.343; -209.800; -645.000; -413.000
389.472;   57.000;  126.000;  149.000
389.601;  -21.200;   91.000;    0.000
389.730; -172.000; -568.000; -687.000
389.859;   24.800;  226.000;   46.000
389.988;  -94.600; -423.000; -408.000
390.117; -109.800; -168.000; -146.000
390.246; -133.900; -331.000; -320.000
390.375; -212.500; -673.000; -626.000
390.504; -200.400; -703.000; -621.000
390.633; -260.500; -672.000; -726.000
390.761; -215.900; -732.000; -645.000
390.890;  -94.800;   -4.000; -130.000
391.019; -133.800; -421.000; -441.000
391.148; -276.000; -826.000; -855.000
391.277; -166.700; -576.000; -493.000
391.406; -287.300; -821.000; -805.000
391.534;  -14.400;  574.000; -301.000
391.663; -213.800; -583.000; -645.000
391.792; -194.500; -673.000; -701.000
391.921;  -71.700;   -3.000;   15.000
392.050; -100.200; -287.000; -228.000
392.178; -371.300;-1206.000;-1061.000
392.307; -251.900; -758.000; -712.000
392.436; -208.300; -427.000; -641.000
392.564;  -32.300;  166.000;   -6.000
392.693; -286.000; -860.000; -682.000
392.822; -178.300; -529.000; -534.000
392.950; -251.000; -880.000; -714.000
393.079; -117.400; -188.000; -328.000
393.208; -192.500; -488.000; -511.000
393.336;  -95.100; -170.000; -145.000
393.465;  -90.600; -317.000; -199.000
393.593;  -18.100;   62.000;   79.000
393.722; -340.400;-1121.000; -916.000
393.850;  -78.200; -188.000;  -61.000
393.979; -295.100; -926.000; -805.000
394.107; -165.800; -517.000; -537.000
394.236; -214.500; -570.000; -507.000
394.364;   59.300;  383.000;  206.000
394.493; -260.900; -911.000; -767.000
394.621; -285.900; -955.000; -916.000
394.750; -319.900; -873.000; -923.000
394.878;  -92.900; -247.000; -149.000
395.007; -253.200; -721.000; -807.000
395.135; -234.100; -790.000; -721.000
395.263; -335.700;-1038.000;-1040.000
395.392;  -44.100;  -25.000; -107.000
395.520; -221.500; -818.000; -679.000
395.648; -306.700; -865.000; -915.000
395.777; -165.900; -366.000; -405.000
395.905; -170.700; -449.000; -564.000
396.033;  -41.000;  217.000;  172.000
396.162; -128.800; -399.000; -453.000
396.290;  -77.400;  -17.000;   -2.000
396.418; -157.500; -555.000; -514.000
396.546; -261.300; -571.000; -466.000
396.674; -253.500; -850.000; -878.000
396.803;  -59.400;  -72.000;  -23.000
396.931;  -83.500; -179.000; -199.000
397.059; -343.900;-1026.000; -989.000
397.187; -284.900;-1026.000; -975.000
397.315; -262.100; -884.000; -649.000
397.443; -202.300; -592.000; -443.000
397.572; -194.600; -578.000; -424.000
397.700; -217.500; -607.000; -614.000
397.828;  -98.500;  120.000;  -90.000
397.956; -185.500; -508.000; -478.000
398.084; -255.400; -767.000; -626.000
398.212;  -15.800;  137.000;  124.000
398.340;  -38.400;  -56.000;  159.000
398.468; -139.100; -390.000; -169.000
398.596; -302.200; -993.000; -953.000
398.724; -243.300; -762.000; -767.000
398.852; -317.900;-1024.000; -976.000
398.980; -175.800; -560.000; -560.000
399.108; -222.500; -982.000; -735.000
399.236;  -16.200;   13.000;    8.000
399.363;    4.300;  222.000;  196.000
399.491; -144.600; -404.000; -398.000
399.619; -266.700; -829.000; -800.000
399.747; -241.300; -859.000; -771.000
399.875;   58.800;  220.000;  234.000
400.003; -117.000; -359.000; -284.000
400.130; -176.400; -421.000; -341.000
400.258;  -40.300;  -83.000;   38.000
400.386; -128.700; -352.000; -168.000
400.514; -166.500; -526.000; -587.000
400.641; -297.600; -928.000; -802.000
400.769; -277.200; -979.000; -888.000
400.897; -233.700; -838.000; -793.000
401.025;  -80.600; -166.000; -152.000
401.152;  -22.500;  220.000;   38.000
401.280; -140.200; -430.000; -429.000
401.408; -229.600; -712.000; -576.000
401.535; -213.200; -735.000; -758.000
401.663; -360.800;-1134.000;-1054.000
401.790; -153.700; -514.000; -525.000
401.918;   97.200;  436.000;  405.000
402.046;  -33.800;  134.000;  122.000
402.173;  -91.700;  -18.000;    7.000
402.301; -129.000; -519.000; -397.000
402.428;   66.500;  528.000;  383.000
402.556; -325.300;-1188.000; -913.000
402.683;  -88.200;  -20.000;   -1.000
402.811;  -57.000;  -37.000; -206.000
402.938;  -43.100;   20.000;   27.000
403.066; -209.000; -574.000; -558.000
403.193;  -25.700;  299.000;  239.000
403.321; -129.600; -396.000; -574.000
403.448;  -33.500;   83.000;   27.000
403.575;  -38.600;  -90.000;  -46.000
403.703; -254.200; -732.000; -557.000
403.830; -178.300; -531.000; -496.000
403.957; -338.900;-1117.000;-1023.000
404.085; -106.400;  -61.000; -172.000
404.212;  -63.600;  -50.000;   63.000
404.339; -148.600; -566.000; -306.000
404.467; -170.400; -612.000; -524.000
404.594; -113.600; -287.000; -227.000
404.721; -255.200; -869.000; -764.000
404.848; -101.300; -113.000; -202.000
404.976; -290.600; -856.000; -783.000
405.103;  -41.300;  -14.000;  -82.000
405.230;  -29.500;  190.000;  226.000
405.357;  -10.100;  117.000;   44.000
405.484;  -73.800;  -49.000;    5.000
405.612; -179.400; -548.000; -563.000
405.739; -158.600; -488.000; -243.000
405.866;  111.100;  669.000;  385.000
405.993; -134.500; -398.000; -102.000
406.120; -251.000; -801.000; -887.000
406.247; -158.700; -323.000; -342.000
406.374;  118.400;  540.000;  629.000
406.501; -226.400; -632.000; -702.000
406.628; -172.900; -621.000; -589.000
406.755; -263.300; -803.000; -620.000
406.882;  -80.900; -228.000; -277.000
407.009; -235.100; -719.000; -628.000
407.136; -118.600; -480.000; -401.000
407.263; -292.800; -939.000; -829.000
407.390; -206.100; -692.000; -614.000
407.517; -352.400;-1139.000;-1187.000
407.644; -129.800; -332.000; -256.000
407.771; -125.200; -249.000; -287.000
407.898;    3.000;  168.000;  328.000
408.025; -141.800; -421.000; -313.000
408.151;  -19.200;   82.000;  153.000
408.278; -169.300; -267.000; -216.000
408.405; -255.800; -931.000; -899.000
408.532; -201.900; -549.000; -542.000
408.659; -236.400; -677.000; -648.000
408.785; -366.700;-1298.000;-1170.000
408.912; -118.900; -412.000; -296.000
409.039; -217.800; -610.000; -686.000
409.166; -198.600; -591.000; -555.000
409.292; -199.200; -571.000; -534.000
409.419; -186.300; -665.000; -649.000
409.546; -118.100; -431.000; -192.000
409.672; -182.400; -713.000; -545.000
409.799;  -67.400;  -36.000;   34.000
409.926;  -63.400; -180.000; -179.000
410.052; -370.300;-1127.000;-1091.000
410.179; -148.300; -368.000; -392.000
410.305; -157.400; -375.000; -493.000
410.432; -111.500; -220.000; -333.000
410.558; -159.500; -305.000; -380.000
410.685; -194.300; -688.000; -431.000
410.812; -246.400; -409.000; -588.000
410.938; -296.100; -964.000; -808.000
411.065; -221.700; -671.000; -645.000
411.191;  -95.100; -189.000; -174.000
411.317; -278.500; -823.000; -742.000
411.444; -111.800; -317.000; -246.000
411.570; -155.500; -339.000; -294.000
411.697; -214.300; -758.000; -752.000
411.823; -327.400; -989.000; -999.000
411.949;  -78.600;  -56.000;   17.000
412.076; -229.300; -539.000; -519.000
412.202; -240.200; -758.000; -757.000
412.329; -254.900; -798.000; -752.000
412.455; -249.500; -821.000; -657.000
412.581;  -57.700;  -15.000;  172.000
412.707; -175.800; -540.000; -457.000
412.834;   20.700;  156.000;  219.000
412.960; -263.600; -785.000; -784.000
413.086; -252.000; -743.000; -701.000
413.212;  107.900;  604.000;  578.000
413.339; -259.600; -685.000; -701.000
413.465; -151.000; -364.000; -310.000
413.591; -215.500; -757.000; -474.000
413.717; -112.700; -358.000; -366.000
413.843; -293.400; -839.000; -861.000
413.969; -128.000;  -47.000; -292.000
414.096; -249.600; -679.000; -679.000
414.222;  -11.600;  -33.000;   85.000
414.348; -205.800; -652.000; -385.000
414.474;  -51.300;   38.000;  -52.000
414.600;  -84.200; -126.000; -144.000
414.726;  -67.200;  -96.000;  -55.000
414.852; -186.600; -365.000; -342.000
414.978;  -35.100;  104.000;  -18.000
415.104;  -64.900;   38.000;   80.000
415.230; -160.900; -329.000; -330.000
415.356; -201.300; -409.000; -514.000
415.482;  -70.800;   13.000;  -35.000
415.608; -152.600; -247.000; -323.000
415.734;  -29.800;   67.000;   38.000
415.860; -226.000; -875.000; -767.000
415.986; -222.300; -685.000; -607.000
416.111; -261.200; -798.000; -652.000
416.237; -185.100; -424.000; -571.000
416.363; -248.200; -765.000; -733.000
416.489;  -86.000; -324.000; -251.000
416.615; -286.200; -707.000; -742.000
416.741; -229.600; -677.000; -784.000
416.866; -238.500; -673.000; -736.000
416.992; -275.900; -801.000; -818.000
417.118; -129.800;  -41.000;  -80.000
417.244; -247.600; -798.000; -531.000
417.369; -267.600; -801.000; -612.000
417.495; -134.100; -325.000; -254.000
417.621; -307.100;-1015.000; -803.000
417.746; -177.000; -579.000; -572.000
417.872;  -96.700; -254.000; -144.000
417.998; -199.400; -515.000; -530.000
418.123; -317.400;-1073.000; -845.000
418.249; -184.200; -512.000; -601.000
418.374; -290.700; -916.000; -824.000
418.500; -178.200; -383.000; -482.000
418.626;  -53.600;   70.000;  -59.000
418.751; -178.200; -549.000; -448.000
418.877; -224.200; -637.000; -643.000
419.002; -178.800; -688.000; -560.000
419.128; -321.500; -930.000; -721.000
419.253; -270.100; -967.000; -837.000
419.379; -219.100; -391.000; -338.000
419.504;   78.700;  325.000;  415.000
419.629; -120.100; -393.000; -212.000
419.755; -103.000; -317.000; -254.000
419.880; -147.400;  -98.000;   67.000
420.006; -129.200; -280.000; -221.000
420.131; -274.300; -662.000; -775.000
420.256; -141.200; -315.000; -316.000
420.382; -226.100; -665.000; -687.000
420.507; -234.700; -649.000; -778.000
420.632; -145.800; -337.000; -339.000
420.758;  -84.000; -251.000; -425.000
420.883; -253.600; -876.000; -672.000
421.008; -230.200; -775.000; -619.000
421.133; -194.100; -509.000; -467.000
421.259; -123.100; -325.000; -259.000
421.384; -267.400; -834.000; -693.000
421.509; -272.600;-1052.000; -862.000
421.634; -299.000; -936.000; -820.000
421.759; -158.700; -359.000; -327.000
421.885; -250.700; -717.000; -656.000
422.010; -171.400; -673.000; -542.000
422.135; -291.100; -695.000; -727.000
422.260;   39.900;  340.000;  280.000
422.385; -120.800;   12.000;  -98.000
422.510;    9.000;  151.000;  -26.000
422.635;  -88.100;  -87.000;  -43.000
422.760; -231.000; -766.000; -791.000
422.885;  -74.500;  -57.000;  -80.000
423.010;  -84.100; -112.000; -169.000
423.135; -222.700; -481.000; -561.000
423.260;  -90.100; -150.000; -245.000
423.385;   32.400;  476.000;  222.000
423.510;  -12.400;   71.000;  -22.000
423.635;  -17.300;  133.000;   45.000
423.760;   55.700;  383.000;  328.000
423.885;   31.700;  336.000;  391.000
424.010;  -51.200;  -68.000;  -13.000
424.135;  -73.800;    5.000;  -33.000
424.259; -216.000; -654.000; -457.000
424.384; -193.100; -279.000; -272.000
424.509;  -84.400; -260.000; -186.000
424.634; -267.700; -761.000; -623.000
424.759; -213.900; -688.000; -544.000
424.883; -197.800; -506.000; -527.000
425.008; -176.100; -502.000; -410.000
425.133; -251.400; -679.000; -653.000
425.258; -195.200; -517.000; -381.000
425.382; -276.600; -867.000; -774.000
425.507; -234.100; -487.000; -543.000
425.632; -292.300; -802.000; -663.000
425.756; -130.300; -256.000; -146.000
425.881; -254.900; -831.000; -857.000
426.006; -159.700; -604.000; -355.000
426.130; -285.100; -696.000; -508.000
426.255; -207.400; -611.000; -491.000
426.379;  -89.200; -189.000; -577.000
426.504;  128.800;  660.000;  544.000
426.629; -233.700; -519.000; -466.000
426.753;  -47.600;   64.000;  -46.000
426.878; -134.500; -252.000; -288.000
427.002; -280.400; -651.000; -668.000
427.127; -121.500;  -35.000; -158.000
427.251;   36.100;  372.000;  401.000
427.375; -105.500; -191.000; -173.000
427.500; -210.300; -616.000; -610.000
427.624; -166.000; -234.000; -400.000
427.749; -131.100; -216.000; -225.000
427.873; -193.900; -499.000; -412.000
427.997; -122.900; -222.000; -230.000
428.122;  121.900;  795.000;  703.000
428.246;   52.600;  433.000;  434.000
428.371; -297.100; -869.000; -773.000
428.495; -250.000; -624.000; -646.000
428.619; -111.200; -186.000; -117.000
428.743;    2.100;   65.000;  132.000
428.868; -279.600; -732.000; -643.000
428.992; -160.600; -219.000; -326.000
429.116; -175.500; -329.000; -357.000
429.240;   16.600;  419.000;  426.000
429.365; -164.900; -454.000; -574.000
429.489; -233.500; -638.000; -647.000
429.613; -105.500; -236.000; -177.000
429.737; -181.200; -563.000; -432.000
429.861; -156.300; -247.000; -133.000
429.985; -166.100; -425.000; -305.000
430.109; -339.500; -770.000; -908.000
430.234;  -21.300;   76.000;  -50.000
430.358; -152.100; -250.000; -160.000
430.482; -240.300; -672.000; -564.000
430.606; -229.400; -655.000; -375.000
430.730; -147.200; -437.000; -388.000
430.854; -292.600; -909.000; -835.000
430.978; -250.600; -795.000; -764.000
431.102; -197.200; -499.000; -422.000
431.226; -294.600; -874.000; -815.000
431.350;   32.000;  345.000;  422.000
431.474; -162.900; -661.000; -373.000
431.597; -350.400;-1060.000; -848.000
431.721; -153.900; -276.000; -267.000
431.845; -253.800; -704.000; -472.000
431.969; -135.900; -304.000; -349.000
432.093; -173.100; -395.000; -317.000
432.217;    1.700;   32.000;   82.000
432.341; -217.700; -523.000; -518.000
432.464;  -44.000;   96.000;   40.000
432.588; -200.800; -401.000; -329.000
432.712;  -73.500;  -52.000;  -52.000
432.836;    5.300;  213.000;  263.000
432.959; -128.900; -372.000; -311.000
433.083;  -92.800;   11.000;    2.000
433.207;   81.500;  285.000;  930.000
433.330; -156.300; -391.000; -200.000
433.454; -220.800; -654.000; -638.000
433.578;   97.700;  583.000;  278.000
433.701; -239.900; -623.000; -675.000
433.825; -169.800; -292.000; -299.000
433.949;  -86.300;   28.000;  -72.000
434.072; -165.800; -410.000; -323.000
434.196; -104.800; -309.000; -117.000
434.319; 7452.800;25482.000;25124.000
434.443; -247.400; -656.000; -603.000
434.566;  -38.900;  281.000;   62.000
434.690; -197.600; -637.000; -383.000
434.813; -125.400; -251.000; -173.000
434.937; -223.200; -569.000; -696.000
435.060; -155.400; -423.000; -332.000
435.184; -142.800; -492.000; -217.000
435.307;  -58.500;  159.000;  102.000
435.431;  -51.300;  -40.000;   24.000
435.554; -137.700; -399.000; -240.000
435.677; -128.200; -350.000; -258.000
435.801;  -62.500;  -25.000;   49.000
435.924;  -46.700;    1.000;  -67.000
436.048; -322.000;-1019.000; -732.000
436.171; -138.100; -240.000;  -66.000
436.294; -131.200; -248.000; -229.000
436.417; -318.500; -963.000; -849.000
436.541; -272.800; -814.000; -840.000
436.664;  -91.500; -242.000; -316.000
436.787;  -34.500;   13.000;  113.000
436.910; -227.500; -792.000; -422.000
437.034;  -23.500;  142.000;  143.000
437.157;  -33.500;  -11.000;    0.000
437.280; -185.500; -392.000; -292.000
437.403; -279.700; -982.000; -869.000
437.526; -289.400; -903.000; -865.000
437.649; -155.800; -505.000; -332.000
437.772; -261.200; -692.000; -540.000
437.896;  123.100;  700.000;  544.000
438.019; -234.900; -758.000; -503.000
438.142; -198.000; -596.000; -506.000
438.265; -273.900; -639.000; -670.000
438.388; -163.200; -520.000; -410.000
438.511; -234.600; -597.000; -394.000
438.634; -130.700; -247.000; -125.000
438.757; -249.000; -693.000; -619.000
438.880;  -87.700;  -34.000;  -57.000
439.003; -202.900; -417.000; -437.000
439.126; -100.800; -287.000; -167.000
439.248; -112.900;  -98.000; -139.000
439.371;  -44.800;    9.000;  -53.000
439.494;   54.400;  510.000;  439.000
439.617;  -79.600;   65.000;  -88.000
439.740; -334.200; -968.000; -816.000
439.863; -260.900; -755.000; -595.000
439.986; -227.200; -476.000; -431.000
440.108;  -84.500; -161.000; -112.000
440.231; -343.500; -950.000; -836.000
440.354;  -76.400;  -64.000; -150.000
440.477; -229.300; -566.000; -542.000
440.599; -124.000; -200.000; -225.000
440.722; -246.100; -709.000; -586.000
440.845;  160.900;  751.000;  928.000
440.968; -185.600; -415.000; -311.000
441.090;  -99.400; -199.000;  -33.000
441.213; -312.000;-1021.000; -825.000
441.336;  -70.700; -159.000;   -5.000
441.458; -184.600; -549.000; -396.000
441.581; -240.000; -628.000; -629.000
441.703; -126.800; -152.000;   13.000
441.826; -178.500; -557.000; -400.000
441.948;  -97.200;   56.000;   51.000
442.071;   86.400;  555.000;  424.000
442.193; -257.400; -531.000; -485.000
442.316;  -30.600;  152.000;   97.000
442.438; -161.600; -233.000;  -10.000
442.561;    3.600;  272.000;  262.000
442.683; -265.400; -809.000; -522.000
442.806;  -94.200;   -8.000;   74.000
442.928; -295.400; -859.000; -604.000
443.051; -208.700; -577.000; -373.000
443.173; -168.800; -341.000; -339.000
443.295; -167.400; -263.000; -371.000
443.418; -145.500; -321.000;  -29.000
443.540;  -64.300; -106.000;   -4.000
443.662; -247.600; -563.000; -465.000
443.785;   34.400;  335.000;  199.000
443.907; -199.700; -362.000; -208.000
444.029; -224.000; -767.000; -494.000
444.152; -267.200; -644.000; -554.000
444.274;  -45.700;  -18.000;  -24.000
444.396; -212.500; -461.000; -221.000
444.518; -233.000; -691.000; -454.000
444.640; -195.200; -268.000; -111.000
444.763;   13.500;  388.000;  249.000
444.885; -217.500; -432.000; -392.000
445.007;  -37.500;   35.000;   86.000
445.129; -215.800; -610.000; -515.000
445.251; -190.900; -372.000; -439.000
445.373; -242.800; -537.000; -386.000
445.495;   20.700;  242.000;  350.000
445.617;  125.000;  853.000;  753.000
445.739; -150.000; -215.000;  -97.000
445.861;  -81.000; -245.000; -112.000
445.984; -114.300; -267.000; -101.000
446.105; -185.800; -418.000; -251.000
446.227;  -94.400; -176.000;  -19.000
446.349; -207.800; -358.000; -249.000
446.471; -217.800; -615.000; -448.000
446.593; -168.800; -316.000;   19.000
446.715;  -71.300;  -67.000;   41.000
446.837;  123.800;  697.000;  832.000
446.959; -175.900; -457.000; -478.000
447.081; -224.700; -628.000; -518.000
447.203;  135.900;  862.000;  834.000
447.325; -134.100; -270.000;   42.000
447.446;   34.700;  286.000;  530.000
447.568; -308.100; -921.000; -803.000
447.690; -148.000; -236.000; -245.000
447.812; -271.100; -798.000; -519.000
447.933;  -26.100;  155.000;  127.000
448.055; -158.300; -306.000; -261.000
448.177;  -32.400;   31.000;   79.000
448.299; -354.500; -935.000; -727.000
448.420;   -5.300;  -25.000;  159.000
448.542;  -94.900;   -3.000;   33.000
448.664;   15.600;  109.000;  322.000
448.785;  -56.600;  265.000;   83.000
448.907; -196.100; -614.000; -353.000
449.028; -259.500; -771.000; -471.000
449.150;  102.500;  492.000;  589.000
449.272; -334.800;-1044.000; -913.000
449.393;  107.600;  612.000;  694.000
449.515; -286.600; -634.000; -581.000
449.636; -117.200; -264.000; -155.000
449.758;   99.200;  763.000;  622.000
449.879; -190.600; -498.000; -396.000
450.001; -163.200; -149.000;  -49.000
450.122;  -55.900;  -95.000;  162.000
450.244;  -53.000;   37.000;  364.000
450.365; -195.200; -495.000; -301.000
450.486;  -74.400;   80.000;  268.000
450.608;   40.700;  393.000;  326.000
450.729;   60.700;  578.000;  645.000
450.850; -215.600; -574.000; -466.000
450.972; -259.200; -552.000; -389.000
451.093;   14.900;  190.000;  588.000
451.214; -239.900; -516.000; -337.000
451.336;  150.200;  773.000;  579.000
451.457;  -20.100;  264.000;  393.000
451.578; -109.500; -118.000;  -74.000
451.699; -218.900; -546.000; -540.000
451.821; -141.000; -284.000;  -50.000
451.942;  -24.300;  278.000;  285.000
452.063;    3.000;  228.000;  419.000
452.184; -147.300;  -54.000;  -49.000
452.305;   -2.900;  103.000;  170.000
452.427; -239.800; -549.000; -301.000
452.548;  -84.100;   23.000;   79.000
452.669; -144.400; -257.000;  -89.000
452.790;  -97.000;    3.000;  -18.000
452.911;  -21.400;  195.000;  259.000
453.032; -140.900; -289.000;  -60.000
453.153; -104.700;  -29.000;   81.000
453.274;  175.600;  737.000;  868.000
453.395;  -93.100;  -51.000;  175.000
453.516;  257.900; 1317.000; 1388.000
453.637; -140.900; -205.000; -150.000
453.758;  -87.900;   15.000;   69.000
453.879; -214.900; -462.000; -250.000
454.000;  199.300; 1086.000;  948.000
454.121; -279.600; -554.000; -326.000
454.242; -205.100; -599.000; -383.000
454.362;  -79.300;  -99.000;  114.000
454.483; -174.200; -309.000; -229.000
454.604;   20.000;  512.000;  580.000
454.725; -257.600; -627.000; -555.000
454.846; -201.900; -474.000; -406.000
454.967;   22.700;  230.000;  539.000
455.087;  -52.600;  179.000;  153.000
455.208;   95.100;  554.000;  856.000
455.329; -117.900;  -22.000;   82.000
455.450;   74.500;  473.000;  633.000
455.570; -174.500; -234.000; -211.000
455.691;  -41.800;  201.000;  407.000
455.812; -156.500; -270.000;  -92.000
455.932;  -82.500;  107.000;  -97.000
456.053; -109.200;   36.000;   24.000
456.173; -157.900; -433.000; -355.000
456.294; -222.300; -476.000; -303.000
456.415;  -89.700;  -73.000;   70.000
456.535;  -30.800;  297.000;  273.000
456.656;  -22.100;  132.000;  240.000
456.776; -113.700;    3.000;  298.000
456.897;   27.300;  308.000;  513.000
457.017; -129.400; -153.000;   -3.000
457.138; -227.700; -402.000; -249.000
457.258;   -7.300;  263.000;  224.000
457.379;   29.200;  509.000;  521.000
457.499;   21.700;  443.000;  432.000
457.620; -204.800; -407.000; -231.000
457.740; -151.200; -132.000;  -11.000
457.860;  -75.500;   87.000;   44.000
457.981;  -91.400;  132.000;  124.000
458.101; -125.800;  -89.000;   40.000
458.221;  -24.800;  336.000;  402.000
458.342;  -79.200;   -4.000;  -37.000
458.462;  -52.800;  617.000;  352.000
458.582; -180.900; -302.000; -294.000
458.703;  -75.800;  303.000;  154.000
458.823;  -89.900;   22.000;  163.000
458.943;  -33.200;  341.000;  467.000
459.063;  -72.000; 1124.000;  192.000
459.183;  -58.700;  328.000;  313.000
459.304;   -3.500;  315.000;  517.000
459.424; -137.000; -246.000;  -89.000
459.544;   46.600;  388.000;  764.000
459.664;   25.900;  499.000;  506.000
459.784;  164.900; 1004.000; 1175.000
459.904;   77.600;  867.000;  744.000
460.024;  156.300;  867.000;  684.000
460.144;   15.800;  449.000;  554.000
460.264;   56.200;  515.000;  327.000
460.385; -137.200; -145.000; -119.000
460.505;  122.900;  905.000;  858.000
460.625; -140.400;  -17.000;  -68.000
460.745;   14.100;  396.000;  541.000
460.864;  -76.900;  153.000;  469.000
460.984;   32.100;  499.000;  573.000
461.104;  323.200; 1656.000; 1775.000
461.224;   74.400;  657.000;  650.000
461.344;  -23.200;  431.000;  360.000
461.464;  -24.800;  258.000;  513.000
461.584;  -28.900;  283.000;  466.000
461.704;  -94.700;   58.000;  108.000
461.824;  -73.200;  238.000;  259.000
461.943;  -64.600;  191.000;  130.000
462.063; -107.600;    2.000;  324.000
462.183;   94.400;  639.000;  717.000
462.303;  239.000; 1678.000; 1230.000
462.422;   69.000;  781.000;  840.000
462.542;  -69.200;  271.000;  391.000
462.662;  -12.700;  353.000;  380.000
462.782;   56.100;  833.000;  572.000
462.901;   33.100;  545.000;  717.000
463.021;  323.300; 1702.000; 1638.000
463.141;   13.000;  337.000;  770.000
463.260;   46.000;  614.000;  474.000
463.380;   68.200;  902.000;  884.000
463.499;  -56.400;  342.000;  332.000
463.619;  -14.600;  581.000;  559.000
463.738;  272.300; 1644.000;  903.000
463.858;   71.400;  657.000;  811.000
463.978;  -19.500;  542.000;  396.000
464.097;  146.500;  921.000; 1114.000
464.217;  165.500; 1196.000; 1143.000
464.336;  178.600; 1068.000; 1130.000
464.455;  -20.000;  328.000;  659.000
464.575;   43.200;  597.000;  602.000
464.694;  162.300; 1204.000; 1179.000
464.814;  128.500; 1190.000; 1138.000
464.933;  143.200; 1095.000; 1027.000
465.052;  219.900; 1412.000; 1054.000
465.172;   49.600;  922.000;  799.000
465.291;  219.000; 1376.000; 1320.000
465.410;   57.900;  462.000;  735.000
465.530;  209.400; 1355.000; 1310.000
465.649;  147.400; 1209.000; 1273.000
465.768;  283.000; 1673.000; 1508.000
465.888;  111.700;  941.000; 1174.000
466.007;  249.200; 1335.000; 1440.000
466.126;   42.000;  721.000;  641.000
466.245;  123.500; 1176.000; 1187.000
466.364;  108.700;  950.000; 1060.000
466.484;  147.500; 1024.000; 1213.000
466.603;  111.900; 1101.000; 1222.000
466.722;  247.700; 1490.000; 1769.000
466.841;  165.900; 1151.000; 1401.000
466.960;  124.000; 1069.000;  972.000
467.079;  319.700; 1971.000; 1786.000
467.198;  137.600; 1238.000; 1181.000
467.317;  226.900; 1768.000; 1162.000
467.436;  199.600; 1709.000; 1261.000
467.555;  278.000; 1796.000; 1746.000
467.674;  202.100; 1227.000; 1329.000
467.793;  138.900; 1376.000; 1374.000
467.912;  229.900; 1658.000; 1539.000
468.031;  285.600; 2038.000; 1930.000
468.150;  302.700; 1842.000; 1837.000
468.269;  394.000; 2313.000; 2090.000
468.388;  410.600; 2168.000; 2339.000
468.507;  595.900; 2884.000; 2903.000
468.626;  627.700; 2555.000; 2541.000
468.744;  360.400; 2018.000; 2174.000
468.863;  499.100; 2312.000; 2523.000
468.982;  244.300; 1503.000; 1555.000
469.101;  507.000; 2788.000; 2692.000
469.220;  344.200; 2333.000; 2176.000
469.338;  538.900; 2935.000; 3051.000
469.457;  423.200; 2719.000; 2545.000
469.576;  730.800; 3953.000; 3784.000
469.695;  477.400; 2877.000; 3066.000
469.813;  873.000; 4148.000; 4192.000
469.932;  832.700; 4255.000; 4485.000
470.051;  769.600; 4075.000; 4161.000
470.169;  812.400; 4470.000; 4338.000
470.288;  915.100; 4700.000; 4809.000
470.406; 1022.300; 5059.000; 5194.000
470.525; 1236.400; 6101.000; 5787.000
470.644; 1286.100; 6847.000; 6794.000
470.762; 1652.300; 8397.000; 7873.000
470.881; 1693.700; 8651.000; 8464.000
470.999; 2017.100; 9685.000; 9151.000
471.118; 2197.800;11174.000;10711.000

