
Integration time [ms]: 100.000
Averaging Nr. [scans]: 40
Smoothing Nr. [pixels]: 0
Data measured with spectrometer [name]: 2101012U2
Wave   ;Sample   ;Dark     ;Reference
[nm]   ;[counts] ;[counts] ;[counts] 

197.733;   47.325;  516.000;  404.000
197.879;  -60.175; -610.000; -634.000
198.025;  -53.550; -475.000; -420.000
198.171;  -53.525; -602.000; -612.000
198.317;  -29.000; -401.000; -316.000
198.463;  -57.800; -655.000; -404.000
198.609;   21.450;  181.000; -137.000
198.755;  -77.050; -644.000; -410.000
198.901;  -56.375; -505.000; -424.000
199.047;  -52.700; -615.000; -488.000
199.193;  -35.475; -230.000; -468.000
199.339;  -36.800; -222.000; -369.000
199.485;   45.375;  330.000;  271.000
199.631;   25.875;  227.000;  310.000
199.777;  -50.625; -466.000; -398.000
199.923;  -53.825; -610.000; -424.000
200.069;    0.200; -141.000;  -58.000
200.215;   63.575;  128.000;  453.000
200.361;   38.375;  243.000;  477.000
200.507;  -53.150; -600.000; -373.000
200.653;  -21.475; -371.000; -194.000
200.798;  -27.125; -215.000; -125.000
200.944;    5.200; -146.000;  -41.000
201.090;   20.775;   61.000;  222.000
201.236;    3.100; -116.000; -158.000
201.382;  112.100;  874.000;  903.000
201.528;    9.175;  -58.000;  -48.000
201.674;  -53.900; -386.000; -293.000
201.819;  -56.075; -540.000; -439.000
201.965;  -82.600; -699.000; -447.000
202.111;  -16.875; -273.000; -226.000
202.257;  -34.550; -250.000; -238.000
202.402;    0.825;   13.000;  -36.000
202.548;  -18.875; -169.000; -116.000
202.694;   84.325;  410.000; -183.000
202.840;  -73.900; -603.000; -531.000
202.985;  -67.825; -681.000; -639.000
203.131; -109.350; -832.000; -666.000
203.277;  -35.975; -199.000; -262.000
203.423;  -44.750; -434.000; -520.000
203.568;  -41.300; -462.000; -237.000
203.714;  -59.200; -535.000; -542.000
203.860;  -62.950; -682.000; -641.000
204.005;   13.550;  112.000;  167.000
204.151;   75.850;  561.000;  556.000
204.296;  -54.900; -354.000; -221.000
204.442;  -65.525; -600.000; -547.000
204.588;  -68.300; -592.000; -579.000
204.733;   30.150;  178.000;  168.000
204.879; -139.650;-1018.000; -822.000
205.025;    0.375;  -99.000;  126.000
205.170;    3.325;  -17.000;   94.000
205.316;   80.925;  438.000;  661.000
205.461;  -70.125; -698.000; -554.000
205.607;   75.575;  609.000;  665.000
205.752;  -76.550; -626.000; -551.000
205.898;  -49.825; -501.000; -391.000
206.043;  -59.375; -578.000; -506.000
206.189;  -42.450; -243.000; -285.000
206.334;   85.425;  554.000;  606.000
206.480;   85.125;  409.000;  239.000
206.625;  -77.425; -529.000; -552.000
206.771;  -50.550; -451.000; -373.000
206.916;  -17.725; -210.000; -537.000
207.062;  -79.150; -545.000; -591.000
207.207;  -55.750; -546.000; -443.000
207.353;   49.850;  185.000;  460.000
207.498;   10.650;  196.000;   85.000
207.643;  -39.825; -501.000; -370.000
207.789; -122.500;-1069.000; -910.000
207.934;  -97.350; -665.000; -713.000
208.080;  -23.175; -154.000;   66.000
208.225;   -7.125;  -22.000;  -57.000
208.370;  -84.175; -727.000; -619.000
208.516;  -65.025; -741.000; -487.000
208.661;  -12.350; -127.000;  -69.000
208.806;  -27.250; -165.000; -171.000
208.952; -123.475;-1044.000; -731.000
209.097;   66.900;  378.000;  349.000
209.242;  -43.450; -307.000; -382.000
209.387;   87.000;  392.000;  350.000
209.533;  -51.550; -321.000; -350.000
209.678;   67.150;  472.000;  543.000
209.823;  -53.275; -408.000; -310.000
209.969; -102.175; -860.000; -757.000
210.114;  -93.350; -907.000; -719.000
210.259; -107.125; -939.000; -889.000
210.404;   -6.450; -171.000;  103.000
210.549;    0.475;  108.000;    3.000
210.695;  -11.050;   -3.000;  -95.000
210.840;   37.025;   94.000;   67.000
210.985;  -64.350; -484.000; -303.000
211.130;   55.000;  268.000;  406.000
211.275;    8.600;  207.000;  199.000
211.420;  -61.775; -300.000; -289.000
211.566;  -65.875; -536.000; -489.000
211.711;   22.700;  218.000;  157.000
211.856;  -65.775; -545.000; -519.000
212.001;    7.925;  151.000;   44.000
212.146;   19.500;  153.000;   49.000
212.291;  -19.350; -210.000; -186.000
212.436;   -5.200; -280.000;   -6.000
212.581;  -85.375; -685.000; -653.000
212.726;  -75.450; -487.000; -538.000
212.871;  -41.500; -552.000; -217.000
213.016; -127.775;-1172.000;-1029.000
213.161;   64.875;  406.000;  291.000
213.306;  -67.250; -435.000; -577.000
213.451; -102.050; -778.000; -689.000
213.596;  -25.925; -455.000; -347.000
213.741;  -50.825; -448.000; -538.000
213.886;  -75.525; -498.000; -517.000
214.031;  -26.125; -294.000; -124.000
214.176;  -37.725; -408.000; -341.000
214.321;  -19.450; -296.000; -157.000
214.466;  -36.825; -163.000;  -43.000
214.611;    2.575;  -61.000;  -10.000
214.756; -111.925; -948.000; -858.000
214.901;  -25.950; -388.000; -226.000
215.046; -118.450; -797.000; -825.000
215.191;   13.050;  128.000;   35.000
215.336;  -16.050; -157.000;  -19.000
215.480;  -63.875; -684.000; -505.000
215.625;  -22.425; -175.000;  -19.000
215.770;  -70.525; -757.000; -662.000
215.915;    6.250;   -5.000;  -97.000
216.060;    0.500; -113.000;  -21.000
216.205; -109.800; -731.000; -779.000
216.349;  -76.475; -470.000; -533.000
216.494; -130.050; -939.000; -867.000
216.639; -108.725; -823.000; -888.000
216.784;  -90.650; -577.000; -525.000
216.929;   33.425;  392.000;  281.000
217.073;   -2.625; -244.000;  -31.000
217.218;   -5.250;   78.000;  -47.000
217.363;  -80.000; -656.000; -618.000
217.507;  -83.775; -623.000; -588.000
217.652; -116.700; -845.000; -874.000
217.797;  -91.350; -708.000; -659.000
217.942; -108.075; -856.000; -720.000
218.086;   71.125;  608.000;  539.000
218.231;  -15.925; -174.000;  -26.000
218.376;  -25.525; -337.000; -229.000
218.520;    5.600;  -41.000;   96.000
218.665;  -35.625; -338.000; -204.000
218.810;  -47.575; -275.000; -233.000
218.954;   30.275;  201.000;   35.000
219.099;  -98.175; -713.000; -963.000
219.243;  -60.925; -589.000; -554.000
219.388;  -18.775; -264.000; -136.000
219.532;  -16.075; -116.000; -116.000
219.677;  -79.650; -564.000; -521.000
219.822;   11.425;   33.000;   89.000
219.966;    1.775;   17.000;  -99.000
220.111;  -37.575; -328.000;  -40.000
220.255; -101.500; -797.000; -750.000
220.400;  -25.050; -180.000; -146.000
220.544;  -65.575; -516.000; -450.000
220.689;  -57.750; -422.000; -451.000
220.833;  -22.750; -123.000;  -58.000
220.978;  -45.500; -393.000; -563.000
221.122;   19.600;  319.000;  307.000
221.267; -104.725; -906.000; -837.000
221.411;  -56.575; -478.000; -394.000
221.555;  -15.700; -104.000;  -23.000
221.700;  -51.875; -329.000; -222.000
221.844;   20.600;  255.000;  272.000
221.989;  -40.800; -328.000; -311.000
222.133;  -34.325; -289.000; -307.000
222.277;   -9.000;    5.000;   78.000
222.422;   17.000;  227.000;  113.000
222.566;  -40.150; -381.000; -214.000
222.711;  -58.200; -414.000; -479.000
222.855;  -83.425; -643.000; -586.000
222.999;  -81.700; -642.000; -717.000
223.144;  -27.400; -195.000; -194.000
223.288;   42.575;  423.000;  251.000
223.432;   32.975;  184.000;  230.000
223.576;    3.325;  152.000;  -21.000
223.721;   33.200;  364.000;  273.000
223.865;  -57.950; -472.000; -475.000
224.009;  263.200; 1673.000; 1631.000
224.153;  -78.725; -660.000; -671.000
224.298;  -71.650; -531.000; -489.000
224.442;  -10.425;  -74.000;  -33.000
224.586;   -7.575; -169.000; -106.000
224.730;  -91.200; -858.000; -670.000
224.875; -101.750; -739.000; -688.000
225.019;    9.625;  102.000;  188.000
225.163;   56.750;  208.000;  341.000
225.307;   17.850;   97.000;  -91.000
225.451;   52.200;  360.000;  481.000
225.595;   19.000;  264.000;  176.000
225.739;   -7.375; -170.000;  -94.000
225.884;   18.000;   86.000;    5.000
226.028; -100.525; -760.000; -626.000
226.172;  -30.700; -260.000; -273.000
226.316; -122.050; -941.000; -902.000
226.460;  -72.100; -645.000; -493.000
226.604;  -50.125; -406.000; -400.000
226.748;  -96.725; -836.000; -733.000
226.892;  -30.325; -227.000; -181.000
227.036;  -47.875; -537.000; -447.000
227.180;  -63.625; -551.000; -375.000
227.324;  -52.375; -561.000; -580.000
227.468; -112.150; -819.000; -717.000
227.612;   10.325;  242.000;  -28.000
227.756;  -89.850; -845.000; -698.000
227.900;   56.650;  342.000;  441.000
228.044;  -58.125; -509.000; -290.000
228.188;   43.050;  448.000;  568.000
228.332;  -80.950; -546.000; -472.000
228.476;  -30.950; -223.000; -149.000
228.620;  -26.175; -210.000; -150.000
228.764;   61.400;  431.000;  349.000
228.908;   -7.525; -155.000;   30.000
229.052;  -60.550; -615.000; -528.000
229.195;  -17.725; -172.000;   13.000
229.339;  -28.475; -235.000; -305.000
229.483;  -18.750;    5.000; -162.000
229.627;    4.975; -156.000;  139.000
229.771;  -42.475; -218.000; -294.000
229.915;   12.125;  230.000;   79.000
230.059;  -86.175; -648.000; -663.000
230.202;  -39.000; -370.000; -317.000
230.346;  -14.150; -107.000;  107.000
230.490;  -63.250; -489.000; -521.000
230.634; -109.375; -736.000; -553.000
230.777;   74.600;  478.000;  509.000
230.921;  -56.575; -450.000; -359.000
231.065;  -41.000; -246.000; -286.000
231.209;   24.250;  261.000;  265.000
231.352;   25.000;   54.000;   40.000
231.496;   18.450;  568.000;  188.000
231.640;  -90.225; -693.000; -621.000
231.783;   58.525;  546.000;  525.000
231.927;  -43.200; -294.000; -365.000
232.071; -112.875; -962.000; -736.000
232.214; -105.575; -980.000; -764.000
232.358;  -92.925; -683.000; -599.000
232.502;   -7.900;  -19.000;    7.000
232.645; -121.400;-1090.000; -927.000
232.789;  -16.100; -257.000; -218.000
232.933;  -44.700; -407.000; -224.000
233.076; -118.175;-1038.000; -897.000
233.220;  -88.600; -752.000; -777.000
233.363;  -84.675; -669.000; -477.000
233.507;   35.825;  371.000;  129.000
233.650;  -86.325; -764.000; -834.000
233.794;   43.675;  438.000;  461.000
233.938;  -54.000; -530.000; -362.000
234.081;  -21.725;  -93.000;   31.000
234.225;  -68.925; -631.000; -539.000
234.368; -110.900; -773.000; -723.000
234.512;  -45.125; -385.000; -299.000
234.655;  -89.100; -582.000; -555.000
234.798;  -51.975; -493.000; -466.000
234.942; -128.925; -884.000;-1002.000
235.085;  -73.500; -651.000; -443.000
235.229;  -66.850; -405.000; -410.000
235.372;  -61.100; -247.000; -191.000
235.516;  -53.275; -397.000; -321.000
235.659;   15.975;   92.000;  121.000
235.802;  -14.775;  -38.000;  -22.000
235.946;   31.325;  335.000;  215.000
236.089;   35.950;  126.000;  250.000
236.233;   43.475;  275.000;  298.000
236.376;  -46.250; -235.000; -378.000
236.519;  -55.725; -297.000; -319.000
236.663;  -15.850; -215.000; -117.000
236.806; -133.525;-1029.000; -999.000
236.949;   50.500;  543.000;  431.000
237.092;   51.625;  412.000;  391.000
237.236;  -90.500; -589.000; -502.000
237.379;   69.650;  352.000;  428.000
237.522; -115.450; -879.000; -768.000
237.666;  -21.450; -271.000;   18.000
237.809; -116.525; -851.000; -823.000
237.952;   35.925;  469.000;  271.000
238.095;  -66.800; -447.000; -442.000
238.238;   78.250;  688.000;  700.000
238.382;    0.025;  166.000;  103.000
238.525;  -71.225; -598.000; -511.000
238.668; -134.925;-1060.000; -985.000
238.811;  -80.775; -638.000; -643.000
238.954;  -54.725; -483.000; -334.000
239.097;   87.050;  617.000;  664.000
239.241;   12.475;  394.000;  326.000
239.384;  -27.500; -254.000; -214.000
239.527;  -49.025; -424.000; -224.000
239.670; -132.225; -994.000;-1091.000
239.813; -103.875; -696.000; -658.000
239.956;   74.875;  579.000;  473.000
240.099; -109.975; -778.000; -725.000
240.242;   52.875;  428.000;  432.000
240.385;   45.125;  466.000;  450.000
240.528;  -76.200; -706.000; -473.000
240.671;    8.275;  189.000;  134.000
240.814;  -46.750; -441.000; -158.000
240.957;  -92.275; -767.000; -578.000
241.100;  -91.875; -779.000; -755.000
241.243; -128.450;-1234.000; -893.000
241.386;  -63.475; -508.000; -379.000
241.529;  -94.200; -735.000; -547.000
241.672;  -67.275; -566.000; -495.000
241.815; -122.525; -832.000; -808.000
241.958;  -37.950; -125.000; -182.000
242.101;  -73.800; -545.000; -390.000
242.244;  -38.775; -270.000; -325.000
242.387;  -44.700; -304.000; -246.000
242.530;   61.425;  470.000;  134.000
242.673;  -45.375; -381.000; -309.000
242.815; -113.800; -925.000; -899.000
242.958;  -56.425; -482.000; -381.000
243.101;   13.350;  132.000;  187.000
243.244;  -77.150; -564.000; -521.000
243.387;  -49.900; -313.000; -316.000
243.530;  -88.000; -657.000; -674.000
243.672;   -3.275;   43.000;  -92.000
243.815;  -56.200; -355.000; -283.000
243.958;    8.175;   98.000;  -26.000
244.101;   -0.275;   59.000;  -16.000
244.243;  -18.850;  -47.000;  101.000
244.386; -107.300; -761.000; -630.000
244.529;  -15.950; -132.000; -139.000
244.672; -150.075;-1154.000; -951.000
244.814;  -80.475; -621.000; -794.000
244.957;  -40.450; -380.000; -304.000
245.100;  -62.850; -489.000; -489.000
245.242;  -66.075; -387.000; -374.000
245.385;   -6.900;  -59.000;  -39.000
245.528; -115.750; -871.000; -705.000
245.670;   75.125;  612.000;  634.000
245.813;  -69.650; -599.000; -547.000
245.956;  -36.350; -324.000; -275.000
246.098;  -72.550; -508.000; -650.000
246.241;   12.175;  194.000;   48.000
246.383;  -26.750; -119.000;  -73.000
246.526;  -69.625; -454.000; -525.000
246.669; -118.900; -889.000; -780.000
246.811;    9.925;  172.000;   -1.000
246.954;  -72.550; -512.000; -426.000
247.096;  -22.325;  -84.000;   -6.000
247.239;  -75.450; -482.000; -445.000
247.381;  -87.150; -647.000; -488.000
247.524;   82.225;  645.000;  679.000
247.666;  -17.075;   58.000;   11.000
247.809; -110.925; -887.000; -691.000
247.951;   -7.375;  -75.000;  138.000
248.094;   17.150;  432.000;  308.000
248.236; -152.875;-1262.000;-1238.000
248.378;  -28.850; -356.000;  -81.000
248.521;  -27.500; -334.000; -337.000
248.663;  -43.500; -236.000; -267.000
248.806;  -35.250; -300.000; -266.000
248.948; -103.900; -886.000; -763.000
249.090;  -52.150; -428.000; -398.000
249.233;  -65.225; -344.000; -381.000
249.375;  -81.225; -474.000; -451.000
249.518;  -33.250;  -83.000; -133.000
249.660;   -2.875; -103.000;    3.000
249.802; -163.275;-1303.000;-1189.000
249.945;  -77.775; -612.000; -540.000
250.087; -113.075; -834.000; -768.000
250.229;  -50.975; -362.000; -480.000
250.371;  -75.375; -494.000; -439.000
250.514;  -61.050; -310.000; -244.000
250.656;  -58.850;   69.000;  102.000
250.798; -118.675; -849.000; -800.000
250.940;  -66.625; -322.000; -322.000
251.083;  -36.500; -335.000; -111.000
251.225;   44.625;  338.000;  310.000
251.367;  -51.200; -274.000; -373.000
251.509;  -32.275; -265.000; -210.000
251.651;  -86.400; -731.000; -671.000
251.794;   46.975;  538.000;  632.000
251.936; -112.750; -821.000; -747.000
252.078;  -78.850; -540.000; -461.000
252.220;  -73.950; -645.000; -477.000
252.362;   50.275;  344.000;  462.000
252.504;  -66.025; -677.000; -584.000
252.646; -102.150; -875.000; -722.000
252.788;   -5.250;   14.000; -128.000
252.931;  -33.600; -257.000; -253.000
253.073;  -47.525; -376.000; -317.000
253.215;    2.050;  141.000;  122.000
253.357;  -21.900;   82.000; -153.000
253.499;  -50.150; -374.000; -234.000
253.641;  -89.675; -749.000; -594.000
253.783;  -86.625; -609.000; -527.000
253.925;  -85.350; -586.000; -591.000
254.067; -108.525; -744.000; -667.000
254.209;  -52.200; -391.000; -259.000
254.351; -131.050; -865.000; -883.000
254.493;  -60.925; -441.000; -417.000
254.635; -126.025; -936.000; -818.000
254.777;  -82.625; -752.000; -687.000
254.918;  -59.175; -512.000; -430.000
255.060;  -59.575; -551.000; -395.000
255.202;  -48.550; -473.000; -261.000
255.344;  -66.375; -658.000; -455.000
255.486;  -68.975; -471.000; -406.000
255.628; -118.425; -780.000; -781.000
255.770;  -77.650; -676.000; -536.000
255.912;  -65.525; -559.000; -468.000
256.053;  -84.875; -730.000; -508.000
256.195;  129.725; 1008.000;  903.000
256.337; -104.000; -861.000; -595.000
256.479;   56.600;  532.000;  416.000
256.621;  -42.675; -394.000; -212.000
256.762;  -86.925; -789.000; -742.000
256.904;   33.375;  485.000;  487.000
257.046;  -50.950; -381.000; -271.000
257.188;  -36.600; -351.000; -264.000
257.329;  -74.625; -525.000; -464.000
257.471; -110.350; -939.000; -807.000
257.613;  -72.450; -584.000; -498.000
257.755; -153.875;-1073.000; -982.000
257.896;   30.575;  286.000;  392.000
258.038;  -71.250; -403.000; -352.000
258.180;  -50.200; -354.000; -279.000
258.321;  -97.475; -581.000; -457.000
258.463;  -13.750;  -71.000;  133.000
258.605;  -86.350; -562.000; -570.000
258.746; -112.875; -886.000; -772.000
258.888; -135.275;-1026.000;-1020.000
259.029;   25.400;  121.000;   -8.000
259.171;  -90.050; -614.000; -550.000
259.313;   -8.375;  -49.000;  -47.000
259.454;  -79.625; -536.000; -414.000
259.596;  -68.925; -483.000; -390.000
259.737;  -78.950; -590.000; -474.000
259.879;   35.475;  217.000;  311.000
260.020;   75.525;  901.000;  636.000
260.162;  -28.525; -146.000; -253.000
260.303;  -98.975; -768.000; -687.000
260.445;  -84.800; -609.000; -613.000
260.586;   31.050;  392.000;  157.000
260.728;  -49.650; -360.000; -248.000
260.869;  -63.150; -350.000; -343.000
261.011;   74.425;  706.000;  537.000
261.152;  -63.500; -479.000; -319.000
261.293;  -93.125; -576.000; -595.000
261.435;  -30.350; -219.000; -184.000
261.576;  -42.300; -455.000; -325.000
261.718;   39.950;  420.000;  470.000
261.859; -112.000; -940.000; -949.000
262.000; -129.575; -951.000;-1016.000
262.142;  -33.750;  -52.000;  -60.000
262.283; -111.525; -808.000; -691.000
262.424;  -92.750; -666.000; -625.000
262.566; -147.725;-1161.000; -983.000
262.707; -104.525; -840.000; -830.000
262.848; -113.025; -769.000; -726.000
262.990;  -51.450; -362.000; -345.000
263.131;   76.000;  650.000;  681.000
263.272;    3.275;  -61.000;  -41.000
263.413;  -92.150; -589.000; -561.000
263.555;  -62.025; -669.000; -143.000
263.696;  -90.225; -550.000; -641.000
263.837;  -58.175; -449.000; -551.000
263.978;  -14.600;   -5.000;  -77.000
264.119;  -51.925; -283.000; -264.000
264.261; -108.550; -847.000; -630.000
264.402;   -1.525;   33.000;   40.000
264.543;  -84.775; -509.000; -524.000
264.684;  -10.600;   61.000;  -50.000
264.825;  -95.875; -816.000; -538.000
264.966;  -11.250;  -84.000;  -67.000
265.107; -122.825; -646.000; -670.000
265.248; -112.700; -825.000; -812.000
265.390;  -16.425;  152.000;   -9.000
265.531;  -34.175; -238.000; -107.000
265.672;  -78.775; -557.000; -630.000
265.813;   53.850;  563.000;  439.000
265.954; -141.475; -959.000; -940.000
266.095;  -20.625; -372.000; -322.000
266.236;  -91.975; -686.000; -548.000
266.377;  -29.850; -243.000; -297.000
266.518;  -68.250; -619.000; -547.000
266.659;   21.675;  170.000;  268.000
266.800;   12.300;   83.000;   85.000
266.941;  -71.925; -487.000; -478.000
267.082;   -0.025;  354.000;   99.000
267.223;  -53.500; -344.000; -273.000
267.364; -105.925; -892.000; -686.000
267.504;  -13.275;    3.000;  135.000
267.645;   -0.800;  160.000;   67.000
267.786;  -41.150; -147.000;  -86.000
267.927;  -69.600; -473.000; -379.000
268.068;  -24.275; -186.000;  -61.000
268.209;  -58.725; -175.000; -413.000
268.350;  -52.575; -388.000; -532.000
268.490;  -78.125; -648.000; -521.000
268.631;   19.100;  127.000;  225.000
268.772; -112.275; -874.000; -647.000
268.913;  -61.925; -328.000; -476.000
269.054;  -28.400; -117.000;   12.000
269.194;  -42.550; -418.000; -402.000
269.335; -162.425;-1137.000;-1074.000
269.476;  -14.725;   33.000;  -35.000
269.617;  -42.175; -347.000; -392.000
269.757;  -96.350; -713.000; -646.000
269.898; -102.250; -856.000; -613.000
270.039;  -61.925; -415.000; -405.000
270.180; -133.650; -952.000; -816.000
270.320;  -30.050; -190.000; -250.000
270.461;  -41.650; -277.000; -249.000
270.602;  -12.250; -186.000; -156.000
270.742; -123.150; -868.000; -943.000
270.883;  -63.775; -442.000; -390.000
271.023;  -58.825; -358.000; -357.000
271.164;  -63.025; -607.000; -528.000
271.305;  -95.075; -666.000; -654.000
271.445; -103.225; -722.000; -683.000
271.586;  -79.800; -462.000; -283.000
271.726;  -47.825; -397.000; -322.000
271.867;  -81.200; -594.000; -534.000
272.008;   55.850; -473.000; -285.000
272.148;   64.650;  462.000;  468.000
272.289;  -10.725; -113.000; -181.000
272.429;   -5.650;   19.000;  185.000
272.570;  -96.625; -633.000; -737.000
272.710; -101.175; -825.000; -775.000
272.851;  -20.875;  113.000; -130.000
272.991; -147.475;-1173.000;-1077.000
273.131;  -68.850; -419.000; -459.000
273.272;  -94.750; -683.000; -723.000
273.412;  -14.350; -143.000;  -31.000
273.553;  -68.475; -488.000; -507.000
273.693;  103.900;  913.000;  858.000
273.834; -120.400; -894.000; -692.000
273.974;  -80.625; -664.000; -615.000
274.114;  -91.075; -772.000; -560.000
274.255;   40.375;  414.000;  373.000
274.395;  -27.850; -180.000; -125.000
274.535;   34.750;  199.000;  350.000
274.676;   16.175;  225.000;   94.000
274.816;   -8.950;  110.000;   34.000
274.956;  -97.025; -624.000; -690.000
275.097; -102.100;-1014.000; -922.000
275.237; -103.725; -913.000; -803.000
275.377; -105.125; -778.000; -689.000
275.517; -138.000; -878.000; -937.000
275.658;  -72.625; -590.000; -555.000
275.798;  -86.300; -606.000; -413.000
275.938;   16.975;  215.000;  323.000
276.078;  -83.850; -626.000; -395.000
276.218;    5.375;   99.000;  104.000
276.359; -143.125;-1026.000;-1024.000
276.499;  -67.875; -605.000; -446.000
276.639;  -45.725; -305.000; -151.000
276.779;  -55.500; -475.000; -357.000
276.919;  -96.000; -783.000; -624.000
277.059;  -30.750; -261.000; -212.000
277.199;  -40.875; -357.000; -259.000
277.340;   21.525;  287.000;  175.000
277.480; -109.125; -840.000; -693.000
277.620;   15.625;  192.000;   16.000
277.760; -194.050;-1533.000;-1294.000
277.900;   -2.850;  113.000;   33.000
278.040;   -3.325;  137.000;  159.000
278.180;   19.125;  270.000;  170.000
278.320;  -16.725;   21.000;   56.000
278.460;  -69.800; -443.000; -469.000
278.600;  -77.500; -708.000; -598.000
278.740;   37.150;  448.000;  224.000
278.880; -118.125; -768.000; -791.000
279.020;  -33.025; -194.000; -144.000
279.160;  -96.275; -672.000; -595.000
279.300; -125.075; -926.000; -873.000
279.440;  -99.900; -709.000; -622.000
279.579;  -94.675;-1014.000; -929.000
279.719;  -69.400; -410.000; -394.000
279.859;   30.675;   -4.000;   41.000
279.999;   -3.925; -208.000;  101.000
280.139;  -48.275; -435.000; -387.000
280.279; -100.475; -708.000; -745.000
280.419;  -16.675; -229.000; -147.000
280.559;  -48.325; -259.000; -180.000
280.698;  -88.300; -790.000; -639.000
280.838; -111.925; -778.000; -800.000
280.978;  -99.375; -846.000; -790.000
281.118; -107.900; -811.000; -704.000
281.257;   -4.975;   24.000;    6.000
281.397; -157.425;-1094.000; -960.000
281.537; -101.525; -599.000; -712.000
281.677;  -28.725; -150.000; -101.000
281.816;  -81.725; -700.000; -630.000
281.956;  -40.175; -193.000; -257.000
282.096;  -76.875; -539.000; -396.000
282.235; -104.375; -672.000; -638.000
282.375;  -32.650; -243.000;  -98.000
282.515; -100.275; -715.000; -707.000
282.654;    5.250;   29.000;  106.000
282.794;    9.425;  388.000;  244.000
282.934;  -64.725; -530.000; -491.000
283.073; -139.200;-1030.000; -857.000
283.213;  -65.175; -460.000; -467.000
283.353;  -56.600; -408.000; -349.000
283.492;  -30.450; -264.000; -296.000
283.632;  -48.950; -254.000; -168.000
283.771; -102.375; -859.000; -730.000
283.911;  -61.000; -369.000; -260.000
284.050; -118.750; -794.000; -748.000
284.190; -155.450;-1229.000;-1096.000
284.329; -145.350;-1055.000; -964.000
284.469;  -76.600; -516.000; -591.000
284.608;  -49.825; -559.000; -598.000
284.748;  -92.650; -614.000; -570.000
284.887;  -11.500;  -87.000;  -20.000
285.027; -118.800; -844.000; -892.000
285.166;  -42.050; -192.000; -249.000
285.306;  -25.550; -116.000;  -33.000
285.445;  -43.225; -229.000; -343.000
285.584;  -92.950; -630.000; -494.000
285.724;  -37.725; -282.000; -322.000
285.863; -101.825; -857.000; -507.000
286.002;  -58.200; -366.000; -276.000
286.142; -100.350; -715.000; -622.000
286.281;  -76.400; -525.000; -493.000
286.420;  -78.375; -554.000; -417.000
286.560;   91.200;  653.000;  623.000
286.699; -133.375; -958.000; -912.000
286.838;  -86.525; -590.000; -591.000
286.978;  -89.450; -533.000; -537.000
287.117; -125.050;-1085.000; -950.000
287.256;  -38.175; -228.000; -211.000
287.395;  -55.700; -197.000; -378.000
287.535;  -47.750; -370.000; -298.000
287.674;  -71.175; -509.000; -484.000
287.813;   60.500;  661.000;  533.000
287.952; -127.400;-1010.000; -871.000
288.091; -145.175;-1049.000; -915.000
288.231;   -8.850;   13.000;   15.000
288.370; -171.900;-1217.000;-1200.000
288.509;  -93.625; -728.000; -645.000
288.648;  -85.450; -770.000; -548.000
288.787;  -49.625; -243.000;  -87.000
288.926;  -78.150; -454.000; -475.000
289.065;   99.400;  859.000;  672.000
289.204;  -62.275; -377.000; -217.000
289.344;  -88.725; -791.000; -690.000
289.483;   11.525;  416.000;  304.000
289.622;  -30.350; -291.000; -149.000
289.761;  -25.225; -309.000; -166.000
289.900; -109.850; -785.000; -626.000
290.039;  -22.750;  -12.000;  -95.000
290.178;  -46.175; -274.000; -180.000
290.317;  -89.700; -618.000; -479.000
290.456;  -78.700; -463.000; -451.000
290.595; -127.200; -961.000; -833.000
290.734; -134.700; -904.000; -891.000
290.873;  -75.750; -456.000; -420.000
291.011; -108.000; -833.000; -843.000
291.150; -109.300; -770.000; -682.000
291.289;  -47.600; -343.000; -110.000
291.428;  -86.300; -599.000; -480.000
291.567;  -49.000; -370.000; -442.000
291.706;  -10.350;  109.000;  154.000
291.845;  -98.775; -597.000; -505.000
291.984; -165.025;-1234.000;-1061.000
292.122;   70.450;  602.000;  582.000
292.261;   27.050;  620.000;  463.000
292.400;  -20.025; -144.000;  211.000
292.539; -102.775; -959.000; -813.000
292.678;  -45.175; -325.000; -300.000
292.816; -160.200;-1136.000; -965.000
292.955;  -96.725; -844.000; -684.000
293.094;  -32.400; -173.000; -337.000
293.233;  -65.350; -556.000; -400.000
293.371;  -34.950; -225.000;  -84.000
293.510; -122.950; -866.000; -780.000
293.649; -132.575; -959.000; -924.000
293.787; -122.800;-1083.000;-1012.000
293.926;   -9.850; -113.000;  -32.000
294.065;  -51.400; -379.000; -290.000
294.203;   26.400;  298.000;  406.000
294.342;   11.350;   74.000;  156.000
294.481; 5795.850;51180.000; -836.000
294.619;  -36.250; -425.000; -582.000
294.758; -144.400;-1230.000;-1137.000
294.896;    5.375; -125.000;    5.000
295.035; -144.025;-1040.000;-1006.000
295.174; -129.000;-1082.000; -954.000
295.312;  -50.275; -323.000; -203.000
295.451;  -45.650; -307.000; -428.000
295.589;  -79.525; -389.000; -518.000
295.728;    0.875; -292.000; -165.000
295.866;  -16.525;  -36.000;  -51.000
296.005;  -72.250; -584.000; -341.000
296.143;  -80.425; -558.000; -596.000
296.282; -101.650; -957.000; -881.000
296.420;  -96.725; -657.000; -557.000
296.559; -107.450; -892.000; -633.000
296.697;  -73.525; -847.000; -665.000
296.835;  -90.850;-1141.000;-1002.000
296.974;   12.300;  -23.000;   39.000
297.112;  -58.175; -443.000; -504.000
297.251; -100.000; -815.000; -755.000
297.389;  -13.100; -576.000; -438.000
297.527;   -7.850; -145.000;  -83.000
297.666;  -72.050; -486.000; -438.000
297.804;  -63.600; -404.000; -264.000
297.942;  -13.075; -136.000; -161.000
298.081;  -14.125; -183.000;   63.000
298.219;   13.050;  -17.000;  -19.000
298.357;  -14.100; -144.000;  -71.000
298.495;  -57.975; -810.000; -812.000
298.634;    5.625;  245.000;  219.000
298.772;  -24.600; -220.000; -338.000
298.910;  -56.575; -309.000; -182.000
299.048;  -27.675; -130.000; -153.000
299.187;  -41.100; -350.000; -250.000
299.325;   -8.875;   52.000;  122.000
299.463;  -34.725; -389.000; -299.000
299.601;   -7.275; -327.000; -271.000
299.739; -112.775; -908.000; -883.000
299.877;  -84.675; -791.000; -703.000
300.016;  -98.100;-1095.000; -935.000
300.154;   42.600;  -19.000; -161.000
300.292;  -37.450; -428.000; -348.000
300.430;  -39.150; -408.000; -291.000
300.568; -123.975; -940.000; -874.000
300.706;  -67.500; -366.000; -469.000
300.844; -131.350;-1108.000; -979.000
300.982;   77.275;  246.000;  282.000
301.120; -128.925; -965.000; -866.000
301.258;  -96.450; -812.000; -705.000
301.396;   11.225;  104.000;  -41.000
301.534;  -30.100; -218.000; -293.000
301.672;  -74.625; -664.000; -521.000
301.810;  -83.950; -613.000; -545.000
301.948;   12.550;   53.000;  149.000
302.086;  200.250; -250.000;  -32.000
302.224;  224.500; -610.000; -585.000
302.362;  -68.250; -558.000; -622.000
302.500;  -95.000; -923.000; -893.000
302.638;   32.525;  128.000;  245.000
302.776;  -35.350; -352.000; -408.000
302.913;   38.750;  447.000;  236.000
303.051;  -20.175;  -86.000;  -23.000
303.189;   10.075;   90.000;  118.000
303.327;  -51.375; -341.000; -256.000
303.465;  -85.000; -832.000; -588.000
303.603; -109.775; -805.000; -604.000
303.740;   42.850;  417.000;  241.000
303.878;  -76.300; -800.000; -759.000
304.016;  -99.600; -915.000; -790.000
304.154; -147.575;-1123.000;-1152.000
304.291;  -65.050; -505.000; -554.000
304.429;   -6.400;  102.000;   74.000
304.567; -138.675; -908.000; -893.000
304.705;  -88.475; -408.000; -515.000
304.842;  -23.075; -616.000; -540.000
304.980;   12.200;  215.000;   35.000
305.118;  -29.625; -367.000; -365.000
305.255; -124.850; -945.000; -927.000
305.393;   16.400;  178.000;  239.000
305.531; -154.100;-1173.000; -956.000
305.668;  -90.225; -663.000; -582.000
305.806;   -1.800; -358.000; -439.000
305.943;  -23.750; -629.000; -637.000
306.081;  -28.350; -378.000; -267.000
306.219; -119.575; -863.000; -748.000
306.356;    2.225;  158.000;   27.000
306.494;  107.525;  981.000;  761.000
306.631;  -16.750;  -11.000;  -55.000
306.769;  -31.475; -613.000; -485.000
306.906;  -29.300; -284.000; -258.000
307.044;  -68.375; -473.000; -488.000
307.181;  -61.025; -410.000; -332.000
307.319;    5.700;  112.000;   87.000
307.456; -164.550;-1191.000;-1153.000
307.594; -105.750; -980.000; -727.000
307.731;  -36.075; -371.000; -164.000
307.868;   -7.475;  -15.000;   20.000
308.006; -138.025; -961.000; -847.000
308.143;  -89.900; -618.000; -330.000
308.281;   48.675;  -37.000; -254.000
308.418;  -58.500; -748.000; -640.000
308.555;  -70.125; -400.000; -250.000
308.693;  -68.275; -577.000; -573.000
308.830; -102.350; -712.000; -657.000
308.967;   -4.300; -215.000;  -95.000
309.105;  -45.575; -507.000; -396.000
309.242;  -13.775; -468.000; -367.000
309.379;   26.475; -577.000; -655.000
309.517; -101.125; -936.000; -948.000
309.654;  -96.525; -910.000; -734.000
309.791;  -80.550; -662.000; -580.000
309.928; -106.025; -977.000; -914.000
310.065;  119.275;  819.000;  697.000
310.203;  -75.850; -825.000; -850.000
310.340;  -47.500; -465.000; -321.000
310.477;  -88.525; -412.000; -516.000
310.614;  -73.025; -383.000; -473.000
310.751;  -73.975; -427.000; -518.000
310.889;  -28.825;    1.000;   11.000
311.026; -145.025;-1161.000; -939.000
311.163;  -55.325; -386.000; -380.000
311.300;  -74.850; -512.000; -479.000
311.437;  -66.625; -658.000; -619.000
311.574; -147.975;-1226.000; -985.000
311.711;  -52.700; -595.000; -433.000
311.848;  -46.000; -380.000; -388.000
311.985;    3.825;  270.000;   93.000
312.122; -116.200; -932.000; -762.000
312.259; -119.175; -941.000; -994.000
312.396;  -86.475; -508.000; -551.000
312.533;  -89.400; -812.000; -790.000
312.670; -128.750;-1070.000; -898.000
312.807;  -34.175; -352.000; -367.000
312.944;  -77.000; -513.000; -611.000
313.081;  -26.050; -150.000; -415.000
313.218;  -78.050;-1111.000; -867.000
313.355;  -20.075; -531.000; -449.000
313.492;  -12.100; -455.000; -292.000
313.629;  115.475;  815.000;  735.000
313.766; -151.325;-1176.000;-1008.000
313.902;  -27.550; -186.000;   21.000
314.039;  -61.800; -372.000; -289.000
314.176;   15.700;  286.000;  192.000
314.313;  -84.125; -569.000; -473.000
314.450;  -73.050; -788.000; -684.000
314.587;  -60.200; -468.000; -480.000
314.723;    8.800;  -78.000;  130.000
314.860;   27.275;  318.000;  332.000
314.997;   29.100;  223.000;  142.000
315.134;  -35.350; -385.000; -368.000
315.270;  -25.425; -480.000; -496.000
315.407; -115.400;-1094.000; -967.000
315.544;  -51.850; -657.000; -538.000
315.681;  -65.125; -681.000; -565.000
315.817;   23.300; -133.000; -176.000
315.954;   32.000; -613.000; -392.000
316.091; -118.150;-1045.000;-1023.000
316.227;  -32.925;  -71.000; -179.000
316.364;  -13.625;   23.000;    6.000
316.500;  -49.700; -113.000; -300.000
316.637;  -59.425; -181.000; -302.000
316.774;  -93.850; -625.000; -358.000
316.910;  -90.500; -598.000; -629.000
317.047;  -81.525; -487.000; -351.000
317.183;  -70.925; -435.000; -566.000
317.320;   35.775; -367.000; -321.000
317.456;  -46.300; -733.000; -805.000
317.593; -102.600; -598.000; -641.000
317.729;    6.075;  168.000;  -67.000
317.866; -190.375;-1434.000;-1285.000
318.002;  -88.200; -708.000; -948.000
318.139; -131.050; -883.000; -867.000
318.275; -118.400;-1003.000; -738.000
318.412;  -83.250; -517.000; -336.000
318.548;  -83.300; -751.000; -720.000
318.685;  -99.650; -985.000; -888.000
318.821;  -84.450; -762.000; -735.000
318.957;  -29.250;   34.000;  -23.000
319.094;   28.575;  297.000;  154.000
319.230;  -88.125; -756.000; -742.000
319.367;  -12.575; -471.000; -520.000
319.503;  -32.800; -538.000; -436.000
319.639;  -94.750; -877.000; -793.000
319.775;  -85.975; -750.000; -685.000
319.912;  -70.200; -424.000; -519.000
320.048; -113.100;-1184.000;-1184.000
320.184;   71.175;   59.000;   70.000
320.321;  -46.475; -497.000; -467.000
320.457;   56.225;  475.000;  662.000
320.593;  -72.975; -375.000; -382.000
320.729;  -99.650; -732.000; -734.000
320.866;  -80.225; -577.000; -635.000
321.002;  -90.150; -759.000; -809.000
321.138;  -41.825; -135.000; -211.000
321.274;    2.675; -148.000; -115.000
321.410;  -66.150; -585.000; -353.000
321.546; -113.800;-1011.000; -911.000
321.683;   27.550;  400.000;  185.000
321.819;  -24.500;  -48.000; -117.000
321.955; -119.400; -743.000; -722.000
322.091;  -66.125; -585.000; -540.000
322.227;  -46.775; -382.000; -202.000
322.363;  -44.625; -320.000; -215.000
322.499;  -67.325; -343.000; -331.000
322.635;   89.125;  636.000;  443.000
322.771;  -16.700; -139.000;   12.000
322.907;   48.800;  129.000;  327.000
323.043;  -43.950; -115.000; -206.000
323.179;  -53.250; -394.000; -363.000
323.315;  -46.775; -401.000; -371.000
323.451;    2.625; -328.000; -236.000
323.587;   51.750;  -60.000;  -77.000
323.723;  -47.925; -682.000; -601.000
323.859;  -27.750; -258.000;  -76.000
323.995;  -59.425; -467.000; -409.000
324.131; -133.675; -967.000; -892.000
324.267;  -47.750; -254.000; -276.000
324.402; -157.050; -960.000; -983.000
324.538;  -39.425; -279.000; -104.000
324.674;   -1.275;  164.000;   77.000
324.810;   22.900;  226.000;  308.000
324.946;  -50.600; -810.000; -658.000
325.082;  -81.075; -568.000; -475.000
325.217;  -26.675;  -62.000;   16.000
325.353; -114.125; -764.000; -659.000
325.489; -105.050; -540.000; -506.000
325.625;  -84.200; -579.000; -525.000
325.760;   82.725;  517.000;  376.000
325.896;    6.875; -515.000; -702.000
326.032;  -54.175; -403.000; -352.000
326.168;  -77.800; -462.000; -369.000
326.303;  -73.525; -352.000; -461.000
326.439;  -20.225; -336.000; -276.000
326.575;   -9.900; -190.000;  -29.000
326.710;  -24.850; -156.000;  -30.000
326.846;  -14.425;  146.000;  103.000
326.982;  -96.575; -530.000; -548.000
327.117;  -73.650; -481.000; -442.000
327.253;  -77.650; -745.000; -742.000
327.388; -163.275;-1137.000;-1153.000
327.524;  -86.250; -811.000; -578.000
327.659;  -29.025;  -58.000;  -22.000
327.795;  -28.250;   69.000;   45.000
327.931;  -80.775; -723.000; -499.000
328.066;  -40.050; -417.000; -276.000
328.202;  -31.975;   12.000; -129.000
328.337;   93.575;  957.000;  713.000
328.473;   21.425;  -12.000;  -74.000
328.608;  -24.775; -256.000; -267.000
328.743; -103.050; -799.000; -664.000
328.879;    2.675;  214.000;  114.000
329.014;  -48.025; -102.000; -122.000
329.150;  -74.275; -358.000; -483.000
329.285;  -93.850; -465.000; -466.000
329.421;  -58.100; -548.000; -246.000
329.556;  -21.050;  -36.000;   85.000
329.691;  -95.575; -633.000; -615.000
329.827;  -82.200; -626.000; -480.000
329.962;  -53.675;  131.000; -301.000
330.097;  -76.900; -673.000; -585.000
330.233;  -50.825; -410.000; -223.000
330.368; -115.750; -839.000; -628.000
330.503;  -30.600;    3.000;   98.000
330.638;  -27.075;  -93.000; -125.000
330.774; -108.875; -609.000; -530.000
330.909;  -57.725; -434.000; -244.000
331.044;  -96.375; -714.000; -708.000
331.179; -170.175;-1217.000;-1109.000
331.315;    9.950;   77.000;   20.000
331.450;    6.225;  157.000;  285.000
331.585; -100.400; -805.000; -706.000
331.720;  -90.625; -510.000; -460.000
331.855;   -4.000;  -35.000; -102.000
331.990;  415.500;   62.000;  138.000
332.126;  221.775; -110.000;   71.000
332.261;   10.375; -379.000; -265.000
332.396;   15.625; -135.000; -242.000
332.531;  -65.075;-1074.000;-1031.000
332.666;   86.625; -519.000; -363.000
332.801;  -94.550; -726.000; -807.000
332.936;  -27.775; -192.000; -122.000
333.071; -140.325; -870.000; -817.000
333.206;    4.925;  307.000;  379.000
333.341;   14.825;  344.000;  418.000
333.476;  -91.150; -627.000; -623.000
333.611;  -47.550; -251.000; -173.000
333.746;  -53.575; -381.000; -464.000
333.881; -113.425; -973.000; -935.000
334.016; -126.100; -936.000; -917.000
334.151; -131.200; -746.000; -702.000
334.286;   15.325;  152.000;  186.000
334.421;  -23.800; -125.000; -178.000
334.556;  -85.375; -611.000; -567.000
334.690;  -86.125; -631.000; -577.000
334.825;   38.125;  381.000;   83.000
334.960;  -81.450; -285.000; -413.000
335.095;  -12.850;  135.000;  -91.000
335.230; -106.175; -722.000; -738.000
335.365; -139.875;-1084.000; -990.000
335.499; -136.050;-1108.000;-1037.000
335.634;    4.800;    9.000;  534.000
335.769;  -90.725; -755.000; -720.000
335.904;  -72.250; -603.000; -561.000
336.038;  -46.400; -735.000; -657.000
336.173; -123.225;-1206.000;-1194.000
336.308;   18.550; -116.000; -189.000
336.443;   72.525; -544.000; -634.000
336.577;  -59.675; -936.000; -787.000
336.712;   64.000;   -4.000;  -12.000
336.847;  -24.475; -724.000; -607.000
336.981;   40.950; -272.000; -208.000
337.116;  284.125;  615.000;  501.000
337.250;  114.150; -434.000; -421.000
337.385;  484.250; -297.000; -208.000
337.520;  229.475; -632.000; -603.000
337.654;  -36.250; -215.000; -126.000
337.789; -117.475; -989.000; -933.000
337.923;  -36.825; -104.000; -205.000
338.058; -112.025; -673.000; -738.000
338.192;  -60.300; -611.000; -488.000
338.327;  -28.075;  -18.000; -155.000
338.461;  -71.050; -299.000; -469.000
338.596;  -99.325; -780.000; -638.000
338.730;  -87.750; -767.000; -803.000
338.865;  169.300;  -46.000; -140.000
338.999;    6.350; -846.000; -702.000
339.134;    6.000; -634.000; -536.000
339.268;   34.050; -741.000; -603.000
339.403;  571.525; -740.000; -775.000
339.537;  263.100; -894.000; -820.000
339.671; -100.450; -829.000; -813.000
339.806;  -44.850; -556.000; -512.000
339.940;   31.575; -261.000; -235.000
340.074;  -95.025; -685.000; -510.000
340.209;  -52.225; -351.000; -230.000
340.343;  -98.400; -517.000; -573.000
340.477;  120.900;  998.000; 1036.000
340.612;    3.950;-1033.000; -900.000
340.746;  230.625; -199.000; -243.000
340.880;  -98.900; -924.000; -785.000
341.014;  -31.575;  -45.000; -154.000
341.149; -119.275; -756.000; -718.000
341.283; -122.000; -839.000; -754.000
341.417; -140.425;-1124.000; -938.000
341.551;  -51.075; -768.000; -708.000
341.685;  -68.125; -633.000; -611.000
341.820;  -57.550; -562.000; -493.000
341.954;  -48.775; -218.000; -349.000
342.088; -152.050;-1102.000;-1019.000
342.222;   49.950;  565.000;  618.000
342.356;  -72.425; -395.000; -335.000
342.490; -126.200; -880.000; -841.000
342.624;  -62.400; -339.000; -242.000
342.758;  -64.475; -364.000; -312.000
342.892; -105.125; -710.000; -585.000
343.026;  -41.825;  -58.000; -116.000
343.160;  -67.025; -426.000; -376.000
343.294;  -86.025; -474.000; -337.000
343.428;  -75.375; -488.000; -448.000
343.562;  -44.575; -172.000;  -23.000
343.696;  -51.275; -385.000; -314.000
343.830;  -58.400; -362.000; -356.000
343.964;  -20.325; -231.000; -168.000
344.098;  264.400;  199.000;   70.000
344.232;  227.100; -266.000; -127.000
344.366;   64.150; -567.000; -453.000
344.500;  -49.900; -665.000; -744.000
344.634;  -33.225; -324.000; -164.000
344.768;  -67.075; -531.000; -341.000
344.902;   -5.050;  278.000;  256.000
345.035;  -92.575; -556.000; -496.000
345.169; -128.500; -933.000; -656.000
345.303;  -62.050; -308.000; -482.000
345.437;  -98.600; -826.000; -717.000
345.571;  -69.250; -675.000; -594.000
345.704;  -66.100; -309.000; -532.000
345.838;  -33.275; -331.000; -284.000
345.972;  -63.975; -543.000; -495.000
346.106;  256.650; -179.000; -190.000
346.239;  483.400; -312.000; -243.000
346.373;  -10.500; -343.000; -302.000
346.507; -143.200; -950.000; -962.000
346.640;   14.200;  -30.000;   13.000
346.774;  -98.175; -650.000; -797.000
346.908;  -27.600; -138.000;  -11.000
347.041; -100.575; -646.000; -593.000
347.175;  -14.950;  259.000;   27.000
347.309; -108.075; -698.000; -628.000
347.442; -114.300; -883.000; -732.000
347.576;  112.825;  670.000;  668.000
347.709;   36.225; -123.000;  -52.000
347.843; -128.750; -933.000; -825.000
347.976;   22.150;  235.000;  294.000
348.110; -184.625;-1268.000;-1186.000
348.243; -107.250; -679.000; -772.000
348.377;    0.325;  -26.000;   60.000
348.510;   34.600;  403.000;  540.000
348.644;  -52.250;  -37.000; -159.000
348.777;  -13.625;  180.000;  191.000
348.911;  -62.275; -142.000; -112.000
349.044;   69.300;  471.000;  448.000
349.178;  -51.675;-1069.000;-1006.000
349.311;   81.975;  141.000;  255.000
349.444;   40.050; -927.000; -813.000
349.578;  -34.600; -347.000; -200.000
349.711; -136.675; -959.000; -862.000
349.845;  -82.050; -661.000; -591.000
349.978; -175.625;-1224.000;-1137.000
350.111;  -87.525; -546.000; -612.000
350.244;  -92.375; -596.000; -700.000
350.378;  -55.675; -392.000; -393.000
350.511;  -80.475; -393.000; -426.000
350.644; -100.250; -808.000; -806.000
350.778;    4.650;  168.000;  104.000
350.911;  -11.625;  134.000;  140.000
351.044; -100.950; -685.000; -615.000
351.177;  -44.150; -321.000; -281.000
351.310;  -29.025;    3.000; -131.000
351.444; -108.375; -888.000; -788.000
351.577;   34.800;  140.000;   90.000
351.710;   62.950;  593.000;  417.000
351.843;  -49.875; -165.000;  -77.000
351.976;   -6.300;  149.000;  -79.000
352.109; -114.650; -621.000; -612.000
352.242;  -61.400; -464.000; -419.000
352.376;  -93.800; -580.000; -636.000
352.509;   15.075; -437.000; -356.000
352.642;  -91.750; -654.000; -604.000
352.775;   -6.550; -141.000;  -98.000
352.908; -122.025; -933.000; -904.000
353.041; -112.750; -814.000; -824.000
353.174;  -64.725; -551.000; -424.000
353.307;  -98.200; -753.000; -764.000
353.440;   49.750;  541.000;  453.000
353.573; -100.675; -957.000;-1008.000
353.706;  -53.575; -384.000; -558.000
353.839;  -43.150; -264.000; -220.000
353.971;  -89.000; -657.000; -512.000
354.104; -115.650; -896.000; -835.000
354.237;  -78.300; -627.000; -662.000
354.370; -106.925; -846.000; -879.000
354.503; -170.650;-1231.000;-1308.000
354.636;  -46.025; -529.000; -348.000
354.769; -138.750; -937.000; -860.000
354.902;  -21.650; -230.000; -139.000
355.034;  -17.450; -164.000; -220.000
355.167;  -15.475; -262.000; -162.000
355.300;  -81.400;-1061.000; -880.000
355.433; 1435.625;  -71.000;  -14.000
355.565; 2207.400; -402.000; -384.000
355.698;  569.850; -356.000; -296.000
355.831;    6.150; -882.000; -801.000
355.964;   21.500; -285.000; -170.000
356.096;  -90.275; -856.000; -843.000
356.229;   -7.525; -523.000; -530.000
356.362;  504.300; -373.000; -266.000
356.494;  934.100; -229.000; -162.000
356.627;  313.825;  269.000;  377.000
356.760;  875.500;  120.000;   53.000
356.892; 1471.775; -286.000; -601.000
357.025;  330.525;  403.000;  389.000
357.157;  232.900; -167.000; -179.000
357.290; 1223.025; -856.000; -713.000
357.423;  373.500; -667.000; -556.000
357.555;   92.375; -217.000; -228.000
357.688;  111.525; -483.000; -364.000
357.820;  159.650; -870.000; -877.000
357.953; 1455.175; -563.000; -589.000
358.085;  220.575; -632.000; -612.000
358.218;   89.950;-1131.000; -932.000
358.350;   41.575;  -58.000;  312.000
358.483; -171.175;-1300.000;-1187.000
358.615; -133.500;-1182.000;-1078.000
358.747; -154.775;-1187.000;-1058.000
358.880;  -47.550; -810.000; -744.000
359.012;  -34.475; -376.000; -202.000
359.145;  -69.225; -480.000; -511.000
359.277;  -56.450; -962.000; -913.000
359.409; 1214.925;  536.000;  231.000
359.542;  257.050; -738.000; -688.000
359.674;   20.950;   46.000;   13.000
359.806;  -75.825; -565.000; -438.000
359.939;  -48.350; -617.000; -516.000
360.071;   37.850; -583.000; -579.000
360.203;  -34.200; -411.000; -364.000
360.335;   20.875;  164.000;  -16.000
360.468;   79.325; -249.000; -307.000
360.600; 1298.400; -547.000; -454.000
360.732; 4273.200; -546.000; -423.000
360.864;  666.550;-1216.000;-1044.000
360.996;   59.200; -516.000; -554.000
361.129;  -39.100; -389.000; -598.000
361.261;  -22.800;  110.000; -113.000
361.393;  -58.100; -252.000; -214.000
361.525;  -11.850;   94.000;  244.000
361.657; -104.100; -821.000; -703.000
361.789;  -41.225; -139.000; -155.000
361.921;  -48.125; -642.000; -593.000
362.053;   59.600;  524.000;  541.000
362.185;  -11.250;  288.000;   72.000
362.318; -115.450; -709.000; -705.000
362.450;   21.825;  294.000;  444.000
362.582;  -93.150; -913.000; -870.000
362.714;  -60.500; -353.000; -332.000
362.846;  -96.300; -606.000; -490.000
362.978; -147.500; -941.000; -811.000
363.109;  -45.825; -161.000; -260.000
363.241;  147.425; -739.000; -749.000
363.373;  619.825; -649.000; -564.000
363.505; 1052.650; -186.000;  -91.000
363.637;  240.475; -787.000; -601.000
363.769; -138.275;-1067.000;-1080.000
363.901;  -75.000; -596.000; -654.000
364.033; -157.950;-1103.000;-1062.000
364.165;  -25.550; -283.000; -283.000
364.296;  104.250; -316.000; -177.000
364.428;  190.200;-1344.000;-1220.000
364.560;  -78.050; -679.000; -661.000
364.692;  -86.975; -738.000; -835.000
364.824;   -6.175; -588.000; -456.000
364.955;  498.950; -402.000; -564.000
365.087; 1728.125;-1097.000; -852.000
365.219;   93.275; -686.000; -816.000
365.351;  -77.675; -526.000; -572.000
365.482;    9.650;  300.000;  240.000
365.614;  -67.100; -402.000; -314.000
365.746; -107.175; -729.000; -752.000
365.877; -100.750; -706.000; -672.000
366.009;  419.525;  -35.000;  -62.000
366.141;  -33.075;-1249.000;-1134.000
366.272; -115.625; -803.000; -719.000
366.404; -122.625;-1005.000; -874.000
366.535;  -36.150; -139.000;  -12.000
366.667; -115.500; -644.000; -649.000
366.799;   28.700;  353.000;  203.000
366.930; -133.225; -862.000; -996.000
367.062;  191.125; -639.000; -613.000
367.193;  338.850; -872.000; -842.000
367.325;  -54.400; -580.000; -684.000
367.456;  -17.450; -246.000;   31.000
367.588;  266.575; -371.000; -318.000
367.719;   53.875;  -44.000;  -45.000
367.851;  -50.700; -222.000; -241.000
367.982; -128.750; -875.000; -732.000
368.113;  -36.700; -475.000; -358.000
368.245; -148.875; -960.000; -841.000
368.376;  -62.775; -254.000; -302.000
368.508;  -53.125; -188.000; -263.000
368.639; -156.650;-1166.000;-1034.000
368.770;  -87.300; -670.000; -589.000
368.902; -119.525; -836.000; -926.000
369.033; -130.750; -906.000; -855.000
369.164;  -44.225; -720.000; -653.000
369.296; -100.350; -452.000; -601.000
369.427;  -44.075; -209.000; -144.000
369.558;  -96.325; -593.000; -377.000
369.689;  -91.325; -721.000; -569.000
369.821; -137.525; -951.000; -845.000
369.952;  -36.375;   42.000; -108.000
370.083;  -56.700; -229.000; -108.000
370.214;  -98.625; -735.000; -650.000
370.345;  -37.525;   65.000;   81.000
370.477; -112.975; -810.000; -790.000
370.608;   16.875; -328.000; -264.000
370.739; -143.950;-1233.000;-1292.000
370.870; -136.025;-1102.000; -923.000
371.001;  -32.675; -378.000; -467.000
371.132; -107.525; -754.000; -735.000
371.263;  -40.825;  -42.000; -148.000
371.394; -150.575; -841.000; -748.000
371.525;   22.675;  345.000;  225.000
371.657; -131.475; -808.000; -670.000
371.788;   10.150;  103.000;  199.000
371.919;   -5.900; -384.000; -304.000
372.050; 1233.275;  -91.000; -156.000
372.181;  368.925; -188.000; -294.000
372.311;   78.525;   42.000; -127.000
372.442;  -52.600; -457.000; -451.000
372.573;  -67.525; -444.000; -340.000
372.704; -162.300;-1008.000; -980.000
372.835;  -35.950; -228.000; -289.000
372.966;  -89.025; -646.000; -554.000
373.097; -106.750; -575.000; -711.000
373.228; -100.250; -717.000; -542.000
373.359;  -42.225; -824.000; -536.000
373.490;  145.950; -881.000; -727.000
373.620;  225.025;-1001.000; -803.000
373.751;  500.100; -332.000; -396.000
373.882;  205.050; -663.000; -733.000
374.013;  -36.375; -449.000; -262.000
374.143;  -84.200; -581.000; -659.000
374.274; -113.400; -987.000; -908.000
374.405;   49.300; -388.000; -276.000
374.536;   87.250; -526.000; -387.000
374.666;  249.175; -759.000; -807.000
374.797;  -21.525; -817.000; -868.000
374.928;  163.750; -710.000; -560.000
375.058;  169.775; -535.000; -500.000
375.189;   -2.175;  -59.000;  -93.000
375.320; -142.675; -928.000;-1034.000
375.450;  -68.150; -625.000; -616.000
375.581;  -55.225; -526.000; -436.000
375.712;  -55.400; -574.000; -250.000
375.842;    3.300; -438.000; -415.000
375.973;  -26.000; -554.000; -513.000
376.103; -112.450; -665.000; -648.000
376.234;  -99.350; -531.000; -552.000
376.364; -124.000; -944.000; -867.000
376.495;  124.775;  925.000;  529.000
376.625;  -72.575; -472.000; -485.000
376.756;  -64.400; -709.000; -678.000
376.886; -144.000;-1178.000;-1026.000
377.017;  149.400;-1048.000;-1061.000
377.147;  661.800; -786.000; -782.000
377.278;   70.725;  174.000;  228.000
377.408; -120.050; -801.000; -815.000
377.538; -109.125; -707.000; -693.000
377.669;  -97.275; -537.000; -613.000
377.799; -116.100; -645.000; -635.000
377.929;  -89.450; -610.000; -428.000
378.060; -124.650; -781.000; -847.000
378.190;  -51.775; -726.000; -531.000
378.320;  -50.525; -401.000; -406.000
378.451;  -32.900; -131.000;  -22.000
378.581;  -21.475;  -67.000; -110.000
378.711;   88.200; 1035.000;  866.000
378.841;  -85.875; -533.000; -675.000
378.972; -122.800; -871.000; -751.000
379.102;  -78.250; -652.000; -579.000
379.232;  -57.200; -126.000;  -73.000
379.362; -130.225;-1001.000; -885.000
379.492;  -74.975; -373.000; -424.000
379.623;   31.050;    0.000;  111.000
379.753; -122.175;-1107.000; -974.000
379.883;   65.425;   59.000;  156.000
380.013;  -97.300;-1081.000;-1017.000
380.143; -129.475;-1097.000;-1056.000
380.273; -116.300; -985.000; -861.000
380.403;    0.875; -344.000; -257.000
380.533;  -49.250; -651.000; -664.000
380.663;   10.850;  173.000;  128.000
380.793; -160.275;-1027.000;-1074.000
380.923;  -47.975; -103.000;  -34.000
381.053; -112.675; -613.000; -623.000
381.183;  -56.975; -106.000; -248.000
381.313;  -81.100; -656.000; -470.000
381.443;  -62.950; -692.000; -473.000
381.573;  -39.575; -402.000; -409.000
381.703; -111.325;-1249.000;-1095.000
381.833; -198.875;-1454.000;-1336.000
381.963;   26.450; -134.000;  -87.000
382.093;  376.875; -925.000; -909.000
382.223;   96.175; -713.000; -602.000
382.353;  -90.525; -801.000; -608.000
382.482;   -2.800;-1091.000; -964.000
382.612;  163.250; -872.000; -644.000
382.742;   61.000; -695.000; -622.000
382.872;  -25.700; -565.000; -551.000
383.002;   19.950;  347.000; -132.000
383.131;  -57.225; -226.000; -160.000
383.261;  -44.175; -706.000; -768.000
383.391;  312.025; -552.000; -377.000
383.521; 5074.400;  451.000;  263.000
383.650; 1508.500; -947.000; -904.000
383.780;   29.725; -783.000; -656.000
383.910;   93.375;  880.000;  802.000
384.039;  -78.600; -794.000; -656.000
384.169;  -95.025;-1205.000;-1017.000
384.299;  -94.575; -650.000; -662.000
384.428; -128.500; -764.000; -680.000
384.558;  -76.975; -308.000; -275.000
384.687;  -78.225; -414.000; -334.000
384.817;  -26.625;   75.000;   -2.000
384.947;  -52.650; -234.000; -141.000
385.076;  149.050;  982.000;  912.000
385.206;   39.775;  369.000;  480.000
385.335;  -71.225; -549.000; -417.000
385.465; -106.375; -655.000; -663.000
385.594;   -3.525;  -53.000;  -44.000
385.724;   18.150; -868.000; -838.000
385.853;   -8.800; -296.000; -270.000
385.982;  326.725; -743.000; -787.000
386.112;  605.675;-1052.000; -871.000
386.241;    6.475; -307.000; -312.000
386.371;  -43.425; -174.000;  -87.000
386.500;  -76.425; -825.000; -789.000
386.629;   -5.900; -874.000; -817.000
386.759;   58.175;  -43.000;   68.000
386.888;  -42.900; -170.000; -250.000
387.017;  -96.900; -648.000; -620.000
387.147; -110.000; -771.000; -798.000
387.276;  -79.800; -410.000; -397.000
387.405;  -50.800; -398.000; -342.000
387.535;  -76.150; -452.000; -361.000
387.664;  -79.875; -692.000; -620.000
387.793;  -18.325; -198.000; -113.000
387.922;  129.675;  255.000;  200.000
388.052;  -80.150; -576.000; -423.000
388.181;  -71.975; -342.000; -472.000
388.310; -114.425; -889.000; -710.000
388.439; -127.600; -749.000; -742.000
388.568;   21.625;  365.000;  244.000
388.697;  223.475; -756.000; -653.000
388.826;  -16.700; -768.000; -666.000
388.956;  -39.575; -285.000; -307.000
389.085;  -73.425; -347.000; -287.000
389.214; -125.250; -842.000; -872.000
389.343;  -82.200; -645.000; -413.000
389.472;  543.825;  126.000;  149.000
389.601;  626.500;   91.000;    0.000
389.730;  -40.475; -568.000; -687.000
389.859;    4.100;  226.000;   46.000
389.988;   12.225; -423.000; -408.000
390.117;   32.550; -168.000; -146.000
390.246;  -52.850; -331.000; -320.000
390.375;  -63.850; -673.000; -626.000
390.504;  -91.575; -703.000; -621.000
390.633; -129.725; -672.000; -726.000
390.761; -115.575; -732.000; -645.000
390.890;  -39.875;   -4.000; -130.000
391.019;  -81.050; -421.000; -441.000
391.148; -128.600; -826.000; -855.000
391.277; -102.700; -576.000; -493.000
391.406; -117.800; -821.000; -805.000
391.534;    0.350;  574.000; -301.000
391.663;  -92.950; -583.000; -645.000
391.792; -116.350; -673.000; -701.000
391.921;  -19.950;   -3.000;   15.000
392.050;   -6.500; -287.000; -228.000
392.178; -150.775;-1206.000;-1061.000
392.307;  -47.550; -758.000; -712.000
392.436;  -55.450; -427.000; -641.000
392.564;  -14.525;  166.000;   -6.000
392.693; -115.275; -860.000; -682.000
392.822;  -19.625; -529.000; -534.000
392.950;  -54.475; -880.000; -714.000
393.079;   39.150; -188.000; -328.000
393.208;  -64.125; -488.000; -511.000
393.336;  -37.325; -170.000; -145.000
393.465;  -49.875; -317.000; -199.000
393.593;   -9.025;   62.000;   79.000
393.722; -157.900;-1121.000; -916.000
393.850;  -54.525; -188.000;  -61.000
393.979; -146.125; -926.000; -805.000
394.107;  -71.725; -517.000; -537.000
394.236;  -50.500; -570.000; -507.000
394.364;   94.600;  383.000;  206.000
394.493;   51.900; -911.000; -767.000
394.621;   -3.500; -955.000; -916.000
394.750; 1132.350; -873.000; -923.000
394.878; 4410.550; -247.000; -149.000
395.007; 6434.175; -721.000; -807.000
395.135;  551.750; -790.000; -721.000
395.263;  -76.500;-1038.000;-1040.000
395.392;  -10.550;  -25.000; -107.000
395.520; -137.475; -818.000; -679.000
395.648; -132.625; -865.000; -915.000
395.777;  -63.350; -366.000; -405.000
395.905;  -83.475; -449.000; -564.000
396.033;  -28.800;  217.000;  172.000
396.162;   85.400; -399.000; -453.000
396.290;  100.475;  -17.000;   -2.000
396.418;  -54.650; -555.000; -514.000
396.546; -101.425; -571.000; -466.000
396.674; -139.850; -850.000; -878.000
396.803;  -34.000;  -72.000;  -23.000
396.931;  -37.775; -179.000; -199.000
397.059; -128.225;-1026.000; -989.000
397.187; -149.675;-1026.000; -975.000
397.315; -140.725; -884.000; -649.000
397.443; -112.850; -592.000; -443.000
397.572; -104.150; -578.000; -424.000
397.700; -104.100; -607.000; -614.000
397.828;  -44.875;  120.000;  -90.000
397.956;  -45.700; -508.000; -478.000
398.084;  -42.600; -767.000; -626.000
398.212;   -1.125;  137.000;  124.000
398.340;  -23.375;  -56.000;  159.000
398.468;  -53.675; -390.000; -169.000
398.596; -146.600; -993.000; -953.000
398.724; -143.000; -762.000; -767.000
398.852; -162.575;-1024.000; -976.000
398.980;  -97.800; -560.000; -560.000
399.108; -104.350; -982.000; -735.000
399.236;  -32.100;   13.000;    8.000
399.363;  -18.125;  222.000;  196.000
399.491;  -74.825; -404.000; -398.000
399.619; -110.150; -829.000; -800.000
399.747; -111.850; -859.000; -771.000
399.875;   29.725;  220.000;  234.000
400.003;  -83.975; -359.000; -284.000
400.130; -106.350; -421.000; -341.000
400.258;  -43.425;  -83.000;   38.000
400.386;  -55.175; -352.000; -168.000
400.514;  -97.225; -526.000; -587.000
400.641; -148.175; -928.000; -802.000
400.769; -158.600; -979.000; -888.000
400.897; -131.650; -838.000; -793.000
401.025;  -45.000; -166.000; -152.000
401.152;  -13.975;  220.000;   38.000
401.280;  -87.775; -430.000; -429.000
401.408; -127.775; -712.000; -576.000
401.535; -113.325; -735.000; -758.000
401.663; -190.450;-1134.000;-1054.000
401.790; -104.300; -514.000; -525.000
401.918;   33.150;  436.000;  405.000
402.046;  -21.075;  134.000;  122.000
402.173;  -41.175;  -18.000;    7.000
402.301;  -79.775; -519.000; -397.000
402.428;   27.100;  528.000;  383.000
402.556; -155.025;-1188.000; -913.000
402.683;  -43.700;  -20.000;   -1.000
402.811;  -31.325;  -37.000; -206.000
402.938;  -19.000;   20.000;   27.000
403.066;   -6.000; -574.000; -558.000
403.193;   90.600;  299.000;  239.000
403.321;   48.675; -396.000; -574.000
403.448;  106.950;   83.000;   27.000
403.575;   35.425;  -90.000;  -46.000
403.703; -108.475; -732.000; -557.000
403.830;  -59.825; -531.000; -496.000
403.957; -133.375;-1117.000;-1023.000
404.085;    3.675;  -61.000; -172.000
404.212;   97.275;  -50.000;   63.000
404.339;  400.400; -566.000; -306.000
404.467; 8946.475; -612.000; -524.000
404.594; 5401.475; -287.000; -227.000
404.721;  941.975; -869.000; -764.000
404.848;   97.425; -113.000; -202.000
404.976; -107.725; -856.000; -783.000
405.103;  -17.075;  -14.000;  -82.000
405.230;  -10.225;  190.000;  226.000
405.357;   26.400;  117.000;   44.000
405.484;  420.775;  -49.000;    5.000
405.612;  106.075; -548.000; -563.000
405.739;  -68.625; -488.000; -243.000
405.866;   71.300;  669.000;  385.000
405.993;  -53.325; -398.000; -102.000
406.120; -149.075; -801.000; -887.000
406.247;  -83.700; -323.000; -342.000
406.374;  103.725;  540.000;  629.000
406.501;  -90.750; -632.000; -702.000
406.628;  -97.975; -621.000; -589.000
406.755; -134.250; -803.000; -620.000
406.882;  -64.550; -228.000; -277.000
407.009; -117.450; -719.000; -628.000
407.136;  -50.025; -480.000; -401.000
407.263;  -88.750; -939.000; -829.000
407.390; -117.850; -692.000; -614.000
407.517; -191.125;-1139.000;-1187.000
407.644;  -89.000; -332.000; -256.000
407.771;  -93.150; -249.000; -287.000
407.898;  -13.350;  168.000;  328.000
408.025;  -95.500; -421.000; -313.000
408.151;  -23.775;   82.000;  153.000
408.278;  -86.550; -267.000; -216.000
408.405; -138.100; -931.000; -899.000
408.532; -102.075; -549.000; -542.000
408.659; -112.975; -677.000; -648.000
408.785; -198.350;-1298.000;-1170.000
408.912;  -68.250; -412.000; -296.000
409.039; -114.850; -610.000; -686.000
409.166; -111.000; -591.000; -555.000
409.292; -115.725; -571.000; -534.000
409.419; -122.075; -665.000; -649.000
409.546;  -97.425; -431.000; -192.000
409.672; -111.450; -713.000; -545.000
409.799;  -38.225;  -36.000;   34.000
409.926;  -61.325; -180.000; -179.000
410.052; -186.850;-1127.000;-1091.000
410.179;  -93.900; -368.000; -392.000
410.305;  -87.450; -375.000; -493.000
410.432;  -45.350; -220.000; -333.000
410.558;  -89.200; -305.000; -380.000
410.685; -103.375; -688.000; -431.000
410.812; -113.200; -409.000; -588.000
410.938; -145.575; -964.000; -808.000
411.065; -125.050; -671.000; -645.000
411.191;  -49.900; -189.000; -174.000
411.317; -131.350; -823.000; -742.000
411.444;  -74.825; -317.000; -246.000
411.570;  -76.200; -339.000; -294.000
411.697; -129.125; -758.000; -752.000
411.823; -181.425; -989.000; -999.000
411.949;  -54.550;  -56.000;   17.000
412.076; -118.275; -539.000; -519.000
412.202; -135.075; -758.000; -757.000
412.329; -145.225; -798.000; -752.000
412.455; -121.175; -821.000; -657.000
412.581;  -38.350;  -15.000;  172.000
412.707;  -85.750; -540.000; -457.000
412.834;  -14.950;  156.000;  219.000
412.960; -108.225; -785.000; -784.000
413.086; -124.325; -743.000; -701.000
413.212;   81.500;  604.000;  578.000
413.339; -111.050; -685.000; -701.000
413.465;  -62.825; -364.000; -310.000
413.591; -119.050; -757.000; -474.000
413.717;  -63.925; -358.000; -366.000
413.843; -137.425; -839.000; -861.000
413.969;  -62.850;  -47.000; -292.000
414.096; -107.375; -679.000; -679.000
414.222;  -21.425;  -33.000;   85.000
414.348;  -94.350; -652.000; -385.000
414.474;    2.175;   38.000;  -52.000
414.600;  -26.950; -126.000; -144.000
414.726;   -4.450;  -96.000;  -55.000
414.852;  -48.850; -365.000; -342.000
414.978;   26.300;  104.000;  -18.000
415.104;   56.375;   38.000;   80.000
415.230;   30.850; -329.000; -330.000
415.356;   62.575; -409.000; -514.000
415.482;  219.425;   13.000;  -35.000
415.608;  408.475; -247.000; -323.000
415.734; 1300.625;   67.000;   38.000
415.860;27144.425; -875.000; -767.000
415.986;22251.900; -685.000; -607.000
416.111; 2060.925; -798.000; -652.000
416.237;  444.550; -424.000; -571.000
416.363; 1657.900; -765.000; -733.000
416.489; 6696.775; -324.000; -251.000
416.615;  915.500; -707.000; -742.000
416.741;   55.000; -677.000; -784.000
416.866;  -68.200; -673.000; -736.000
416.992; -105.450; -801.000; -818.000
417.118;  -30.850;  -41.000;  -80.000
417.244;  -73.150; -798.000; -531.000
417.369;  -89.675; -801.000; -612.000
417.495;  -33.400; -325.000; -254.000
417.621;  -92.775;-1015.000; -803.000
417.746;   -1.050; -579.000; -572.000
417.872;   58.125; -254.000; -144.000
417.998;  103.000; -515.000; -530.000
418.123; 1522.025;-1073.000; -845.000
418.249; 8479.550; -512.000; -601.000
418.374; 1445.825; -916.000; -824.000
418.500;  214.550; -383.000; -482.000
418.626;  166.650;   70.000;  -59.000
418.751;  137.075; -549.000; -448.000
418.877;  282.750; -637.000; -643.000
419.002; 2529.925; -688.000; -560.000
419.128;19289.050; -930.000; -721.000
419.253; 5477.150; -967.000; -837.000
419.379;  760.300; -391.000; -338.000
419.504;  592.850;  325.000;  415.000
419.629;  814.525; -393.000; -212.000
419.755; 5348.400; -317.000; -254.000
419.880;34606.700;  -98.000;   67.000
420.006;17400.900; -280.000; -221.000
420.131;43155.825; -662.000; -775.000
420.256; 6981.600; -315.000; -316.000
420.382;  942.275; -665.000; -687.000
420.507;  162.275; -649.000; -778.000
420.632;   27.775; -337.000; -339.000
420.758;   35.975; -251.000; -425.000
420.883; -117.825; -876.000; -672.000
421.008; -109.275; -775.000; -619.000
421.133;  -90.975; -509.000; -467.000
421.259;  -56.775; -325.000; -259.000
421.384; -141.650; -834.000; -693.000
421.509; -130.050;-1052.000; -862.000
421.634;  131.800; -936.000; -820.000
421.759;   47.675; -359.000; -327.000
421.885; -104.775; -717.000; -656.000
422.010;  -94.450; -673.000; -542.000
422.135; -153.275; -695.000; -727.000
422.260;    9.600;  340.000;  280.000
422.385;  -56.925;   12.000;  -98.000
422.510;    0.000;  151.000;  -26.000
422.635;  -25.350;  -87.000;  -43.000
422.760;  -16.225; -766.000; -791.000
422.885;    6.775;  -57.000;  -80.000
423.010;  -34.550; -112.000; -169.000
423.135;  -90.475; -481.000; -561.000
423.260;  -54.550; -150.000; -245.000
423.385;   12.125;  476.000;  222.000
423.510;  -17.250;   71.000;  -22.000
423.635;    5.350;  133.000;   45.000
423.760;   34.600;  383.000;  328.000
423.885;   27.100;  336.000;  391.000
424.010;  -10.400;  -68.000;  -13.000
424.135;  -30.275;    5.000;  -33.000
424.259;  -89.175; -654.000; -457.000
424.384;  -53.975; -279.000; -272.000
424.509;  -17.825; -260.000; -186.000
424.634;  -91.925; -761.000; -623.000
424.759;  -44.800; -688.000; -544.000
424.883;   -3.350; -506.000; -527.000
425.008;  195.625; -502.000; -410.000
425.133; 2804.125; -679.000; -653.000
425.258; 1523.725; -517.000; -381.000
425.382;  477.550; -867.000; -774.000
425.507; 1107.200; -487.000; -543.000
425.632;  378.575; -802.000; -663.000
425.756;  717.100; -256.000; -146.000
425.881;10096.250; -831.000; -857.000
426.006;31268.775; -604.000; -355.000
426.130; 5093.625; -696.000; -508.000
426.255;  697.975; -611.000; -491.000
426.379;  286.450; -189.000; -577.000
426.504;  481.175;  660.000;  544.000
426.629; 5541.000; -519.000; -466.000
426.753; 4355.550;   64.000;  -46.000
426.878;  536.025; -252.000; -288.000
427.002;  290.525; -651.000; -668.000
427.127; 2039.225;  -35.000; -158.000
427.251;17147.350;  372.000;  401.000
427.375; 5566.800; -191.000; -173.000
427.500; 1297.175; -616.000; -610.000
427.624;  404.825; -234.000; -400.000
427.749;   74.100; -216.000; -225.000
427.873;  -37.325; -499.000; -412.000
427.997;  -61.525; -222.000; -230.000
428.122;   56.075;  795.000;  703.000
428.246;   19.825;  433.000;  434.000
428.371; -150.750; -869.000; -773.000
428.495; -110.500; -624.000; -646.000
428.619;  -45.300; -186.000; -117.000
428.743;  -12.950;   65.000;  132.000
428.868;  -87.675; -732.000; -643.000
428.992;  448.325; -219.000; -326.000
429.116;  157.425; -329.000; -357.000
429.240;  102.700;  419.000;  426.000
429.365;  -54.275; -454.000; -574.000
429.489;  -57.400; -638.000; -647.000
429.613;   21.800; -236.000; -177.000
429.737;   75.525; -563.000; -432.000
429.861;  379.875; -247.000; -133.000
429.985; 7787.925; -425.000; -305.000
430.109; 9988.775; -770.000; -908.000
430.234; 1212.300;   76.000;  -50.000
430.358;  143.375; -250.000; -160.000
430.482;  -54.600; -672.000; -564.000
430.606;  -83.550; -655.000; -375.000
430.730;  -70.600; -437.000; -388.000
430.854;  -85.375; -909.000; -835.000
430.978; -109.450; -795.000; -764.000
431.102;  -94.675; -499.000; -422.000
431.226; -125.925; -874.000; -815.000
431.350;   12.975;  345.000;  422.000
431.474;  -91.750; -661.000; -373.000
431.597; -155.175;-1060.000; -848.000
431.721;  -84.775; -276.000; -267.000
431.845; -137.125; -704.000; -472.000
431.969;  -82.175; -304.000; -349.000
432.093;  -82.150; -395.000; -317.000
432.217;  -27.775;   32.000;   82.000
432.341;  -85.550; -523.000; -518.000
432.464;  -25.150;   96.000;   40.000
432.588;  -27.975; -401.000; -329.000
432.712;   14.975;  -52.000;  -52.000
432.836;   42.650;  213.000;  263.000
432.959;   15.725; -372.000; -311.000
433.083;  155.450;   11.000;    2.000
433.207;  547.625;  285.000;  930.000
433.330; 7582.000; -391.000; -200.000
433.454;10465.875; -654.000; -638.000
433.578; 5774.975;  583.000;  278.000
433.701; 1230.050; -623.000; -675.000
433.825;  141.625; -292.000; -299.000
433.949;   25.250;   28.000;  -72.000
434.072;  -39.375; -410.000; -323.000
434.196;  -16.725; -309.000; -117.000
434.319; 3560.350;25482.000;25124.000
434.443;  862.850; -656.000; -603.000
434.566; 4083.925;  281.000;   62.000
434.690;  873.750; -637.000; -383.000
434.813;  136.425; -251.000; -173.000
434.937;  -46.150; -569.000; -696.000
435.060;  -78.575; -423.000; -332.000
435.184;  -28.400; -492.000; -217.000
435.307;   -5.600;  159.000;  102.000
435.431;  -30.575;  -40.000;   24.000
435.554;  -84.950; -399.000; -240.000
435.677;  -96.600; -350.000; -258.000
435.801;  -36.475;  -25.000;   49.000
435.924;  -48.525;    1.000;  -67.000
436.048; -160.725;-1019.000; -732.000
436.171;  -78.875; -240.000;  -66.000
436.294;  -14.550; -248.000; -229.000
436.417;  217.300; -963.000; -849.000
436.541;  -41.800; -814.000; -840.000
436.664;  -54.525; -242.000; -316.000
436.787;  -38.475;   13.000;  113.000
436.910; -123.400; -792.000; -422.000
437.034;  -20.350;  142.000;  143.000
437.157;   -0.225;  -11.000;    0.000
437.280; -100.500; -392.000; -292.000
437.403; -149.250; -982.000; -869.000
437.526;  -36.975; -903.000; -865.000
437.649;  373.375; -505.000; -332.000
437.772;  -29.675; -692.000; -540.000
437.896;   48.775;  700.000;  544.000
438.019; -104.550; -758.000; -503.000
438.142;  -97.550; -596.000; -506.000
438.265; -133.850; -639.000; -670.000
438.388;    8.250; -520.000; -410.000
438.511;  -75.750; -597.000; -394.000
438.634;  -75.425; -247.000; -125.000
438.757; -144.075; -693.000; -619.000
438.880;  -49.450;  -34.000;  -57.000
439.003; -104.925; -417.000; -437.000
439.126;  -82.325; -287.000; -167.000
439.248;  -81.675;  -98.000; -139.000
439.371;  -47.375;    9.000;  -53.000
439.494;   -5.025;  510.000;  439.000
439.617;  -63.400;   65.000;  -88.000
439.740; -169.525; -968.000; -816.000
439.863; -144.000; -755.000; -595.000
439.986; -117.650; -476.000; -431.000
440.108;  -51.350; -161.000; -112.000
440.231; -162.300; -950.000; -836.000
440.354;  -61.225;  -64.000; -150.000
440.477; -124.575; -566.000; -542.000
440.599;  -85.150; -200.000; -225.000
440.722; -135.325; -709.000; -586.000
440.845;   45.775;  751.000;  928.000
440.968; -126.925; -415.000; -311.000
441.090;  -76.350; -199.000;  -33.000
441.213; -169.150;-1021.000; -825.000
441.336;  -64.325; -159.000;   -5.000
441.458;  -95.675; -549.000; -396.000
441.581; -134.050; -628.000; -629.000
441.703;  -83.750; -152.000;   13.000
441.826; -125.450; -557.000; -400.000
441.948;  -52.225;   56.000;   51.000
442.071;   10.150;  555.000;  424.000
442.193; -118.450; -531.000; -485.000
442.316;   -7.625;  152.000;   97.000
442.438;   59.200; -233.000;  -10.000
442.561;   65.875;  272.000;  262.000
442.683;   22.450; -809.000; -522.000
442.806;  209.325;   -8.000;   74.000
442.928; -114.650; -859.000; -604.000
443.051;  -80.525; -577.000; -373.000
443.173;  -98.175; -341.000; -339.000
443.295;  -92.750; -263.000; -371.000
443.418;  -93.050; -321.000;  -29.000
443.540;  -49.650; -106.000;   -4.000
443.662; -124.275; -563.000; -465.000
443.785;  -37.875;  335.000;  199.000
443.907; -101.675; -362.000; -208.000
444.029; -135.350; -767.000; -494.000
444.152; -153.375; -644.000; -554.000
444.274;  -57.550;  -18.000;  -24.000
444.396; -119.375; -461.000; -221.000
444.518; -127.075; -691.000; -454.000
444.640; -110.075; -268.000; -111.000
444.763;  -25.950;  388.000;  249.000
444.885; -125.800; -432.000; -392.000
445.007;  -45.050;   35.000;   86.000
445.129; -136.600; -610.000; -515.000
445.251; -113.325; -372.000; -439.000
445.373; -140.275; -537.000; -386.000
445.495;  -14.625;  242.000;  350.000
445.617;   26.775;  853.000;  753.000
445.739;  -94.625; -215.000;  -97.000
445.861;  -69.900; -245.000; -112.000
445.984;  -72.100; -267.000; -101.000
446.105;  -46.125; -418.000; -251.000
446.227;   84.525; -176.000;  -19.000
446.349;  -82.325; -358.000; -249.000
446.471; -126.875; -615.000; -448.000
446.593;  -93.425; -316.000;   19.000
446.715;  -59.275;  -67.000;   41.000
446.837;   24.650;  697.000;  832.000
446.959; -116.275; -457.000; -478.000
447.081; -146.275; -628.000; -518.000
447.203;   34.050;  862.000;  834.000
447.325;  -85.675; -270.000;   42.000
447.446;  -26.625;  286.000;  530.000
447.568; -155.475; -921.000; -803.000
447.690;  -91.875; -236.000; -245.000
447.812; -156.000; -798.000; -519.000
447.933;  -44.025;  155.000;  127.000
448.055;  -69.875; -306.000; -261.000
448.177;   18.675;   31.000;   79.000
448.299; -111.500; -935.000; -727.000
448.420;   -6.150;  -25.000;  159.000
448.542;  -54.125;   -3.000;   33.000
448.664;  -32.225;  109.000;  322.000
448.785;  -44.050;  265.000;   83.000
448.907; -114.925; -614.000; -353.000
449.028; -110.225; -771.000; -471.000
449.150;   32.450;  492.000;  589.000
449.272; -180.600;-1044.000; -913.000
449.393;   21.350;  612.000;  694.000
449.515; -141.775; -634.000; -581.000
449.636;  -82.850; -264.000; -155.000
449.758;   50.450;  763.000;  622.000
449.879;  -95.850; -498.000; -396.000
450.001;  -81.700; -149.000;  -49.000
450.122;  -38.500;  -95.000;  162.000
450.244;  -15.225;   37.000;  364.000
450.365;  -77.550; -495.000; -301.000
450.486;  -29.675;   80.000;  268.000
450.608;   28.700;  393.000;  326.000
450.729;   97.750;  578.000;  645.000
450.850;  104.725; -574.000; -466.000
450.972; 1208.575; -552.000; -389.000
451.093; 7935.025;  190.000;  588.000
451.214; 4074.750; -516.000; -337.000
451.336;  687.325;  773.000;  579.000
451.457;  105.600;  264.000;  393.000
451.578;  -23.500; -118.000;  -74.000
451.699; -112.550; -546.000; -540.000
451.821;  -68.400; -284.000;  -50.000
451.942;    8.725;  278.000;  285.000
452.063;   53.175;  228.000;  419.000
452.184;  781.325;  -54.000;  -49.000
452.305; 1718.300;  103.000;  170.000
452.427;  328.800; -549.000; -301.000
452.548;    9.575;   23.000;   79.000
452.669;  -60.200; -257.000;  -89.000
452.790;  -63.200;    3.000;  -18.000
452.911;  -28.625;  195.000;  259.000
453.032;  -72.600; -289.000;  -60.000
453.153;  -63.525;  -29.000;   81.000
453.274;   38.375;  737.000;  868.000
453.395;  -59.000;  -51.000;  175.000
453.516;   92.500; 1317.000; 1388.000
453.637; -102.925; -205.000; -150.000
453.758;  -63.975;   15.000;   69.000
453.879; -126.125; -462.000; -250.000
454.000;   61.500; 1086.000;  948.000
454.121; -135.975; -554.000; -326.000
454.242; -107.650; -599.000; -383.000
454.362;  -38.475;  -99.000;  114.000
454.483;  -18.250; -309.000; -229.000
454.604;   56.125;  512.000;  580.000
454.725; -112.675; -627.000; -555.000
454.846; -130.025; -474.000; -406.000
454.967;  -29.025;  230.000;  539.000
455.087;  -41.075;  179.000;  153.000
455.208;   19.900;  554.000;  856.000
455.329;  -65.450;  -22.000;   82.000
455.450;   51.650;  473.000;  633.000
455.570;  -62.500; -234.000; -211.000
455.691;  -32.350;  201.000;  407.000
455.812; -111.625; -270.000;  -92.000
455.932;  -54.050;  107.000;  -97.000
456.053;  -88.000;   36.000;   24.000
456.173; -112.375; -433.000; -355.000
456.294; -134.200; -476.000; -303.000
456.415;  -66.875;  -73.000;   70.000
456.535;  -48.775;  297.000;  273.000
456.656;  -52.825;  132.000;  240.000
456.776;  -80.050;    3.000;  298.000
456.897;   -4.975;  308.000;  513.000
457.017;  -70.675; -153.000;   -3.000
457.138; -108.975; -402.000; -249.000
457.258;  -38.325;  263.000;  224.000
457.379;  -16.150;  509.000;  521.000
457.499;  -42.425;  443.000;  432.000
457.620; -104.600; -407.000; -231.000
457.740;  -96.250; -132.000;  -11.000
457.860;  -65.975;   87.000;   44.000
457.981;  -49.325;  132.000;  124.000
458.101;  -75.775;  -89.000;   40.000
458.221;  -18.750;  336.000;  402.000
458.342;  -57.750;   -4.000;  -37.000
458.462;   56.975;  617.000;  352.000
458.582;   24.950; -302.000; -294.000
458.703;   68.150;  303.000;  154.000
458.823;    1.100;   22.000;  163.000
458.943;   50.000;  341.000;  467.000
459.063;   12.275; 1124.000;  192.000
459.183;  -30.150;  328.000;  313.000
459.304;   22.925;  315.000;  517.000
459.424;  -60.575; -246.000;  -89.000
459.544;  470.650;  388.000;  764.000
459.664; 1292.900;  499.000;  506.000
459.784;  500.375; 1004.000; 1175.000
459.904;   82.050;  867.000;  744.000
460.024;   49.975;  867.000;  684.000
460.144;  -24.800;  449.000;  554.000
460.264;   -0.425;  515.000;  327.000
460.385;  -95.450; -145.000; -119.000
460.505;   24.850;  905.000;  858.000
460.625;  -88.575;  -17.000;  -68.000
460.745;  -32.875;  396.000;  541.000
460.864;  -40.775;  153.000;  469.000
460.984;   26.675;  499.000;  573.000
461.104;  145.650; 1656.000; 1775.000
461.224;   15.700;  657.000;  650.000
461.344;  -36.900;  431.000;  360.000
461.464;  -35.025;  258.000;  513.000
461.584;  -44.800;  283.000;  466.000
461.704;  -56.625;   58.000;  108.000
461.824;  -54.650;  238.000;  259.000
461.943;  -42.925;  191.000;  130.000
462.063;  -85.250;    2.000;  324.000
462.183;   14.550;  639.000;  717.000
462.303;   83.375; 1678.000; 1230.000
462.422;   29.050;  781.000;  840.000
462.542;  -25.750;  271.000;  391.000
462.662;   22.475;  353.000;  380.000
462.782;  354.125;  833.000;  572.000
462.901;  719.475;  545.000;  717.000
463.021;  407.275; 1702.000; 1638.000
463.141;   16.950;  337.000;  770.000
463.260;  -23.200;  614.000;  474.000
463.380;    7.325;  902.000;  884.000
463.499;  -41.175;  342.000;  332.000
463.619;  -39.150;  581.000;  559.000
463.738;  103.575; 1644.000;  903.000
463.858;    5.975;  657.000;  811.000
463.978;  -26.675;  542.000;  396.000
464.097;   38.925;  921.000; 1114.000
464.217;  155.100; 1196.000; 1143.000
464.336;  156.675; 1068.000; 1130.000
464.455;  -23.975;  328.000;  659.000
464.575;   18.475;  597.000;  602.000
464.694;  133.775; 1204.000; 1179.000
464.814;  155.200; 1190.000; 1138.000
464.933;   78.900; 1095.000; 1027.000
465.052;   84.200; 1412.000; 1054.000
465.172;   69.650;  922.000;  799.000
465.291;  102.450; 1376.000; 1320.000
465.410;   -4.625;  462.000;  735.000
465.530;   68.425; 1355.000; 1310.000
465.649;   46.000; 1209.000; 1273.000
465.768;  135.025; 1673.000; 1508.000
465.888;   57.475;  941.000; 1174.000
466.007;   73.800; 1335.000; 1440.000
466.126;  -18.575;  721.000;  641.000
466.245;   26.500; 1176.000; 1187.000
466.364;   23.750;  950.000; 1060.000
466.484;   33.250; 1024.000; 1213.000
466.603;   15.075; 1101.000; 1222.000
466.722;  107.450; 1490.000; 1769.000
466.841;   65.325; 1151.000; 1401.000
466.960;   37.350; 1069.000;  972.000
467.079;  128.800; 1971.000; 1786.000
467.198;   39.175; 1238.000; 1181.000
467.317;   75.250; 1768.000; 1162.000
467.436;   74.525; 1709.000; 1261.000
467.555;  134.725; 1796.000; 1746.000
467.674;   62.325; 1227.000; 1329.000
467.793;   65.500; 1376.000; 1374.000
467.912;   75.100; 1658.000; 1539.000
468.031;  142.875; 2038.000; 1930.000
468.150;  134.625; 1842.000; 1837.000
468.269;  192.750; 2313.000; 2090.000
468.388;  168.000; 2168.000; 2339.000
468.507;  250.100; 2884.000; 2903.000
468.626;  268.950; 2555.000; 2541.000
468.744;  141.050; 2018.000; 2174.000
468.863;  187.425; 2312.000; 2523.000
468.982;   93.150; 1503.000; 1555.000
469.101;  217.175; 2788.000; 2692.000
469.220;  149.375; 2333.000; 2176.000
469.338;  261.700; 2935.000; 3051.000
469.457;  186.475; 2719.000; 2545.000
469.576;  339.775; 3953.000; 3784.000
469.695;  227.800; 2877.000; 3066.000
469.813;  410.400; 4148.000; 4192.000
469.932;  407.650; 4255.000; 4485.000
470.051;  438.425; 4075.000; 4161.000
470.169; 1005.650; 4470.000; 4338.000
470.288; 1965.375; 4700.000; 4809.000
470.406; 1175.725; 5059.000; 5194.000
470.525;  670.125; 6101.000; 5787.000
470.644;  660.700; 6847.000; 6794.000
470.762;  804.525; 8397.000; 7873.000
470.881;  912.400; 8651.000; 8464.000
470.999; 1101.275; 9685.000; 9151.000
471.118; 1117.525;11174.000;10711.000

