
Integration time [ms]: 100.000
Averaging Nr. [scans]: 40
Smoothing Nr. [pixels]: 0
Data measured with spectrometer [name]: 2101012U2
Wave   ;Sample   ;Dark     ;Reference
[nm]   ;[counts] ;[counts] ;[counts] 

197.733;   56.850;  516.000;  404.000
197.879;  -74.800; -610.000; -634.000
198.025;  -45.825; -475.000; -420.000
198.171;  -66.475; -602.000; -612.000
198.317;  -36.825; -401.000; -316.000
198.463;  -55.400; -655.000; -404.000
198.609;   25.450;  181.000; -137.000
198.755;  -67.600; -644.000; -410.000
198.901;  -65.100; -505.000; -424.000
199.047;  -70.275; -615.000; -488.000
199.193;  -27.275; -230.000; -468.000
199.339;  -47.900; -222.000; -369.000
199.485;   42.350;  330.000;  271.000
199.631;   18.200;  227.000;  310.000
199.777;  -48.075; -466.000; -398.000
199.923;  -56.100; -610.000; -424.000
200.069;  -11.350; -141.000;  -58.000
200.215;   66.200;  128.000;  453.000
200.361;   45.825;  243.000;  477.000
200.507;  -62.950; -600.000; -373.000
200.653;  -28.850; -371.000; -194.000
200.798;  -43.300; -215.000; -125.000
200.944;  -20.950; -146.000;  -41.000
201.090;   18.750;   61.000;  222.000
201.236;    3.950; -116.000; -158.000
201.382;  121.575;  874.000;  903.000
201.528;   -4.225;  -58.000;  -48.000
201.674;  -54.375; -386.000; -293.000
201.819;  -75.275; -540.000; -439.000
201.965;  -75.475; -699.000; -447.000
202.111;  -22.600; -273.000; -226.000
202.257;  -43.675; -250.000; -238.000
202.402;   10.975;   13.000;  -36.000
202.548;  -34.300; -169.000; -116.000
202.694;   77.225;  410.000; -183.000
202.840;  -72.975; -603.000; -531.000
202.985;  -64.825; -681.000; -639.000
203.131;  -89.250; -832.000; -666.000
203.277;  -17.450; -199.000; -262.000
203.423;  -61.025; -434.000; -520.000
203.568;  -47.875; -462.000; -237.000
203.714;  -65.450; -535.000; -542.000
203.860;  -79.300; -682.000; -641.000
204.005;    5.475;  112.000;  167.000
204.151;   60.200;  561.000;  556.000
204.296;  -41.150; -354.000; -221.000
204.442;  -69.550; -600.000; -547.000
204.588;  -70.925; -592.000; -579.000
204.733;    5.475;  178.000;  168.000
204.879; -122.875;-1018.000; -822.000
205.025;    3.250;  -99.000;  126.000
205.170;   -7.050;  -17.000;   94.000
205.316;   70.225;  438.000;  661.000
205.461;  -89.750; -698.000; -554.000
205.607;   81.600;  609.000;  665.000
205.752;  -73.400; -626.000; -551.000
205.898;  -54.050; -501.000; -391.000
206.043;  -57.500; -578.000; -506.000
206.189;  -42.725; -243.000; -285.000
206.334;   73.175;  554.000;  606.000
206.480;   78.575;  409.000;  239.000
206.625;  -76.200; -529.000; -552.000
206.771;  -45.625; -451.000; -373.000
206.916;  -27.250; -210.000; -537.000
207.062;  -74.025; -545.000; -591.000
207.207;  -63.700; -546.000; -443.000
207.353;   43.850;  185.000;  460.000
207.498;    9.600;  196.000;   85.000
207.643;  -38.025; -501.000; -370.000
207.789; -128.275;-1069.000; -910.000
207.934; -100.275; -665.000; -713.000
208.080;  -19.975; -154.000;   66.000
208.225;  -20.725;  -22.000;  -57.000
208.370;  -86.125; -727.000; -619.000
208.516;  -79.900; -741.000; -487.000
208.661;  -33.150; -127.000;  -69.000
208.806;  -11.450; -165.000; -171.000
208.952; -126.175;-1044.000; -731.000
209.097;   62.800;  378.000;  349.000
209.242;  -47.200; -307.000; -382.000
209.387;   56.275;  392.000;  350.000
209.533;  -42.175; -321.000; -350.000
209.678;   68.825;  472.000;  543.000
209.823;  -43.175; -408.000; -310.000
209.969; -101.050; -860.000; -757.000
210.114; -120.575; -907.000; -719.000
210.259; -114.775; -939.000; -889.000
210.404;   -1.975; -171.000;  103.000
210.549;    4.850;  108.000;    3.000
210.695;  -18.675;   -3.000;  -95.000
210.840;   18.825;   94.000;   67.000
210.985;  -65.425; -484.000; -303.000
211.130;   63.025;  268.000;  406.000
211.275;   24.400;  207.000;  199.000
211.420;  -60.950; -300.000; -289.000
211.566;  -74.150; -536.000; -489.000
211.711;   15.375;  218.000;  157.000
211.856;  -76.725; -545.000; -519.000
212.001;   10.625;  151.000;   44.000
212.146;   26.825;  153.000;   49.000
212.291;  -15.300; -210.000; -186.000
212.436;  -40.800; -280.000;   -6.000
212.581;  -87.950; -685.000; -653.000
212.726;  -65.475; -487.000; -538.000
212.871;  -44.975; -552.000; -217.000
213.016; -145.450;-1172.000;-1029.000
213.161;   58.125;  406.000;  291.000
213.306;  -74.600; -435.000; -577.000
213.451;  -99.000; -778.000; -689.000
213.596;  -46.675; -455.000; -347.000
213.741;  -52.525; -448.000; -538.000
213.886;  -75.150; -498.000; -517.000
214.031;  -20.200; -294.000; -124.000
214.176;  -57.225; -408.000; -341.000
214.321;  -18.750; -296.000; -157.000
214.466;  -24.425; -163.000;  -43.000
214.611;   -8.375;  -61.000;  -10.000
214.756; -121.875; -948.000; -858.000
214.901;  -38.325; -388.000; -226.000
215.046; -128.225; -797.000; -825.000
215.191;    5.875;  128.000;   35.000
215.336;  -21.700; -157.000;  -19.000
215.480;  -72.625; -684.000; -505.000
215.625;   -9.875; -175.000;  -19.000
215.770;  -80.675; -757.000; -662.000
215.915;  -20.325;   -5.000;  -97.000
216.060;  -12.075; -113.000;  -21.000
216.205; -109.700; -731.000; -779.000
216.349;  -70.500; -470.000; -533.000
216.494; -118.175; -939.000; -867.000
216.639; -106.750; -823.000; -888.000
216.784;  -88.400; -577.000; -525.000
216.929;   34.775;  392.000;  281.000
217.073;  -16.150; -244.000;  -31.000
217.218;    7.775;   78.000;  -47.000
217.363;  -81.600; -656.000; -618.000
217.507;  -83.850; -623.000; -588.000
217.652; -126.175; -845.000; -874.000
217.797;  -87.650; -708.000; -659.000
217.942; -121.825; -856.000; -720.000
218.086;   57.100;  608.000;  539.000
218.231;  -14.300; -174.000;  -26.000
218.376;  -45.250; -337.000; -229.000
218.520;    4.875;  -41.000;   96.000
218.665;  -42.350; -338.000; -204.000
218.810;  -38.950; -275.000; -233.000
218.954;   24.475;  201.000;   35.000
219.099;  -98.650; -713.000; -963.000
219.243;  -67.250; -589.000; -554.000
219.388;  -34.675; -264.000; -136.000
219.532;  -16.975; -116.000; -116.000
219.677;  -74.200; -564.000; -521.000
219.822;    6.800;   33.000;   89.000
219.966;    1.250;   17.000;  -99.000
220.111;  -33.950; -328.000;  -40.000
220.255;  -92.750; -797.000; -750.000
220.400;  -18.975; -180.000; -146.000
220.544;  -68.775; -516.000; -450.000
220.689;  -59.800; -422.000; -451.000
220.833;  -25.900; -123.000;  -58.000
220.978;  -50.900; -393.000; -563.000
221.122;   19.675;  319.000;  307.000
221.267; -113.925; -906.000; -837.000
221.411;  -70.850; -478.000; -394.000
221.555;  -22.875; -104.000;  -23.000
221.700;  -63.275; -329.000; -222.000
221.844;   31.200;  255.000;  272.000
221.989;  -40.000; -328.000; -311.000
222.133;  -27.950; -289.000; -307.000
222.277;  -13.200;    5.000;   78.000
222.422;   25.850;  227.000;  113.000
222.566;  -44.000; -381.000; -214.000
222.711;  -65.825; -414.000; -479.000
222.855;  -90.150; -643.000; -586.000
222.999;  -82.675; -642.000; -717.000
223.144;  -39.725; -195.000; -194.000
223.288;   48.850;  423.000;  251.000
223.432;   15.150;  184.000;  230.000
223.576;   15.475;  152.000;  -21.000
223.721;   41.775;  364.000;  273.000
223.865;  -64.550; -472.000; -475.000
224.009;  240.225; 1673.000; 1631.000
224.153;  -76.375; -660.000; -671.000
224.298;  -69.575; -531.000; -489.000
224.442;   -6.775;  -74.000;  -33.000
224.586;   -8.850; -169.000; -106.000
224.730;  -92.400; -858.000; -670.000
224.875;  -96.250; -739.000; -688.000
225.019;    8.000;  102.000;  188.000
225.163;   51.775;  208.000;  341.000
225.307;    7.025;   97.000;  -91.000
225.451;   50.000;  360.000;  481.000
225.595;   18.300;  264.000;  176.000
225.739;  -20.750; -170.000;  -94.000
225.884;    7.325;   86.000;    5.000
226.028; -102.900; -760.000; -626.000
226.172;  -40.775; -260.000; -273.000
226.316; -123.050; -941.000; -902.000
226.460;  -87.450; -645.000; -493.000
226.604;  -48.775; -406.000; -400.000
226.748; -106.450; -836.000; -733.000
226.892;  -38.575; -227.000; -181.000
227.036;  -45.700; -537.000; -447.000
227.180;  -62.400; -551.000; -375.000
227.324;  -62.900; -561.000; -580.000
227.468; -106.375; -819.000; -717.000
227.612;    3.700;  242.000;  -28.000
227.756; -100.675; -845.000; -698.000
227.900;   48.275;  342.000;  441.000
228.044;  -62.325; -509.000; -290.000
228.188;   57.750;  448.000;  568.000
228.332;  -89.025; -546.000; -472.000
228.476;  -21.975; -223.000; -149.000
228.620;  -27.200; -210.000; -150.000
228.764;   61.875;  431.000;  349.000
228.908;  -21.625; -155.000;   30.000
229.052;  -62.225; -615.000; -528.000
229.195;  -19.050; -172.000;   13.000
229.339;  -28.275; -235.000; -305.000
229.483;  -17.125;    5.000; -162.000
229.627;   -8.350; -156.000;  139.000
229.771;  -40.600; -218.000; -294.000
229.915;    3.950;  230.000;   79.000
230.059; -102.425; -648.000; -663.000
230.202;  -57.125; -370.000; -317.000
230.346;  -22.650; -107.000;  107.000
230.490;  -57.275; -489.000; -521.000
230.634; -112.625; -736.000; -553.000
230.777;   70.500;  478.000;  509.000
230.921;  -66.925; -450.000; -359.000
231.065;  -51.250; -246.000; -286.000
231.209;   31.975;  261.000;  265.000
231.352;   13.675;   54.000;   40.000
231.496;    9.950;  568.000;  188.000
231.640;  -87.100; -693.000; -621.000
231.783;   61.650;  546.000;  525.000
231.927;  -29.850; -294.000; -365.000
232.071; -114.800; -962.000; -736.000
232.214; -113.025; -980.000; -764.000
232.358;  -88.325; -683.000; -599.000
232.502;   -0.600;  -19.000;    7.000
232.645; -140.450;-1090.000; -927.000
232.789;  -24.050; -257.000; -218.000
232.933;  -37.725; -407.000; -224.000
233.076; -117.075;-1038.000; -897.000
233.220; -103.475; -752.000; -777.000
233.363;  -85.925; -669.000; -477.000
233.507;   62.350;  371.000;  129.000
233.650; -106.500; -764.000; -834.000
233.794;   41.950;  438.000;  461.000
233.938;  -59.700; -530.000; -362.000
234.081;  -17.350;  -93.000;   31.000
234.225;  -74.625; -631.000; -539.000
234.368; -117.575; -773.000; -723.000
234.512;  -39.300; -385.000; -299.000
234.655;  -87.450; -582.000; -555.000
234.798;  -88.175; -493.000; -466.000
234.942; -133.425; -884.000;-1002.000
235.085;  -70.550; -651.000; -443.000
235.229;  -85.550; -405.000; -410.000
235.372;  -56.225; -247.000; -191.000
235.516;  -65.025; -397.000; -321.000
235.659;   22.500;   92.000;  121.000
235.802;  -11.325;  -38.000;  -22.000
235.946;   21.525;  335.000;  215.000
236.089;   36.825;  126.000;  250.000
236.233;   43.125;  275.000;  298.000
236.376;  -47.025; -235.000; -378.000
236.519;  -48.000; -297.000; -319.000
236.663;  -28.175; -215.000; -117.000
236.806; -136.025;-1029.000; -999.000
236.949;   54.325;  543.000;  431.000
237.092;   61.150;  412.000;  391.000
237.236; -100.750; -589.000; -502.000
237.379;   59.875;  352.000;  428.000
237.522; -121.425; -879.000; -768.000
237.666;  -20.000; -271.000;   18.000
237.809; -117.625; -851.000; -823.000
237.952;   41.550;  469.000;  271.000
238.095;  -62.275; -447.000; -442.000
238.238;   76.850;  688.000;  700.000
238.382;   -8.675;  166.000;  103.000
238.525;  -71.100; -598.000; -511.000
238.668; -132.325;-1060.000; -985.000
238.811;  -85.700; -638.000; -643.000
238.954;  -69.150; -483.000; -334.000
239.097;   99.950;  617.000;  664.000
239.241;   37.025;  394.000;  326.000
239.384;  -41.650; -254.000; -214.000
239.527;  -57.150; -424.000; -224.000
239.670; -144.725; -994.000;-1091.000
239.813; -123.100; -696.000; -658.000
239.956;   74.550;  579.000;  473.000
240.099; -111.575; -778.000; -725.000
240.242;   50.525;  428.000;  432.000
240.385;   39.575;  466.000;  450.000
240.528;  -64.950; -706.000; -473.000
240.671;   -1.625;  189.000;  134.000
240.814;  -34.000; -441.000; -158.000
240.957; -116.000; -767.000; -578.000
241.100;  -97.275; -779.000; -755.000
241.243; -135.225;-1234.000; -893.000
241.386;  -61.475; -508.000; -379.000
241.529;  -88.625; -735.000; -547.000
241.672;  -62.225; -566.000; -495.000
241.815; -116.725; -832.000; -808.000
241.958;  -33.325; -125.000; -182.000
242.101;  -73.150; -545.000; -390.000
242.244;  -47.675; -270.000; -325.000
242.387;  -33.275; -304.000; -246.000
242.530;   47.250;  470.000;  134.000
242.673;  -41.250; -381.000; -309.000
242.815; -124.750; -925.000; -899.000
242.958;  -62.650; -482.000; -381.000
243.101;   13.550;  132.000;  187.000
243.244;  -89.600; -564.000; -521.000
243.387;  -55.775; -313.000; -316.000
243.530;  -94.825; -657.000; -674.000
243.672;   -3.775;   43.000;  -92.000
243.815;  -55.850; -355.000; -283.000
243.958;   -6.575;   98.000;  -26.000
244.101;    2.550;   59.000;  -16.000
244.243;  -25.200;  -47.000;  101.000
244.386; -118.075; -761.000; -630.000
244.529;  -29.925; -132.000; -139.000
244.672; -155.400;-1154.000; -951.000
244.814;  -94.500; -621.000; -794.000
244.957;  -66.000; -380.000; -304.000
245.100;  -75.200; -489.000; -489.000
245.242;  -62.275; -387.000; -374.000
245.385;  -12.800;  -59.000;  -39.000
245.528; -111.450; -871.000; -705.000
245.670;   88.900;  612.000;  634.000
245.813;  -89.075; -599.000; -547.000
245.956;  -32.375; -324.000; -275.000
246.098;  -79.750; -508.000; -650.000
246.241;   -4.450;  194.000;   48.000
246.383;   -9.800; -119.000;  -73.000
246.526;  -77.925; -454.000; -525.000
246.669; -113.975; -889.000; -780.000
246.811;   10.475;  172.000;   -1.000
246.954;  -59.525; -512.000; -426.000
247.096;  -19.600;  -84.000;   -6.000
247.239;  -58.025; -482.000; -445.000
247.381;  -74.600; -647.000; -488.000
247.524;   68.950;  645.000;  679.000
247.666;   -5.875;   58.000;   11.000
247.809; -105.250; -887.000; -691.000
247.951;   -9.475;  -75.000;  138.000
248.094;   31.375;  432.000;  308.000
248.236; -168.600;-1262.000;-1238.000
248.378;    7.275; -356.000;  -81.000
248.521;  -25.450; -334.000; -337.000
248.663;  -43.600; -236.000; -267.000
248.806;  -22.725; -300.000; -266.000
248.948; -103.275; -886.000; -763.000
249.090;  -41.175; -428.000; -398.000
249.233;  -50.100; -344.000; -381.000
249.375;  -58.875; -474.000; -451.000
249.518;  -18.625;  -83.000; -133.000
249.660;  -18.925; -103.000;    3.000
249.802; -172.375;-1303.000;-1189.000
249.945;  -79.675; -612.000; -540.000
250.087; -109.250; -834.000; -768.000
250.229;  -56.525; -362.000; -480.000
250.371;  -68.000; -494.000; -439.000
250.514;  -47.625; -310.000; -244.000
250.656;  -20.350;   69.000;  102.000
250.798; -115.900; -849.000; -800.000
250.940;  -68.600; -322.000; -322.000
251.083;  -24.575; -335.000; -111.000
251.225;   52.450;  338.000;  310.000
251.367;  -56.500; -274.000; -373.000
251.509;  -36.900; -265.000; -210.000
251.651;  -95.975; -731.000; -671.000
251.794;   53.050;  538.000;  632.000
251.936; -109.450; -821.000; -747.000
252.078;  -80.025; -540.000; -461.000
252.220;  -69.375; -645.000; -477.000
252.362;   73.925;  344.000;  462.000
252.504;  -76.550; -677.000; -584.000
252.646; -104.900; -875.000; -722.000
252.788;   -1.775;   14.000; -128.000
252.931;  -42.950; -257.000; -253.000
253.073;  -36.400; -376.000; -317.000
253.215;  -15.825;  141.000;  122.000
253.357;  -17.850;   82.000; -153.000
253.499;  -56.275; -374.000; -234.000
253.641;  -86.075; -749.000; -594.000
253.783;  -97.025; -609.000; -527.000
253.925;  -88.000; -586.000; -591.000
254.067; -109.675; -744.000; -667.000
254.209;  -24.425; -391.000; -259.000
254.351; -137.550; -865.000; -883.000
254.493;  -53.250; -441.000; -417.000
254.635; -119.025; -936.000; -818.000
254.777;  -86.925; -752.000; -687.000
254.918;  -78.300; -512.000; -430.000
255.060;  -60.650; -551.000; -395.000
255.202;  -68.650; -473.000; -261.000
255.344;  -79.725; -658.000; -455.000
255.486;  -72.975; -471.000; -406.000
255.628; -115.425; -780.000; -781.000
255.770;  -93.325; -676.000; -536.000
255.912;  -72.100; -559.000; -468.000
256.053;  -85.850; -730.000; -508.000
256.195;  147.600; 1008.000;  903.000
256.337; -100.500; -861.000; -595.000
256.479;   60.850;  532.000;  416.000
256.621;  -62.875; -394.000; -212.000
256.762;  -99.000; -789.000; -742.000
256.904;   47.425;  485.000;  487.000
257.046;  -43.375; -381.000; -271.000
257.188;  -47.400; -351.000; -264.000
257.329;  -67.850; -525.000; -464.000
257.471; -104.450; -939.000; -807.000
257.613;  -59.475; -584.000; -498.000
257.755; -150.250;-1073.000; -982.000
257.896;   29.775;  286.000;  392.000
258.038;  -67.500; -403.000; -352.000
258.180;  -40.375; -354.000; -279.000
258.321;  -85.475; -581.000; -457.000
258.463;  -15.325;  -71.000;  133.000
258.605;  -80.675; -562.000; -570.000
258.746;  -99.475; -886.000; -772.000
258.888; -152.800;-1026.000;-1020.000
259.029;   13.825;  121.000;   -8.000
259.171;  -94.775; -614.000; -550.000
259.313;    0.975;  -49.000;  -47.000
259.454;  -80.500; -536.000; -414.000
259.596;  -63.750; -483.000; -390.000
259.737;  -73.175; -590.000; -474.000
259.879;   34.400;  217.000;  311.000
260.020;   80.625;  901.000;  636.000
260.162;  -35.200; -146.000; -253.000
260.303; -108.850; -768.000; -687.000
260.445; -100.625; -609.000; -613.000
260.586;   21.225;  392.000;  157.000
260.728;  -32.225; -360.000; -248.000
260.869; -110.250; -350.000; -343.000
261.011;   56.525;  706.000;  537.000
261.152;  -71.475; -479.000; -319.000
261.293;  -75.625; -576.000; -595.000
261.435;  -45.700; -219.000; -184.000
261.576;  -52.775; -455.000; -325.000
261.718;   36.650;  420.000;  470.000
261.859; -139.700; -940.000; -949.000
262.000; -137.775; -951.000;-1016.000
262.142;  -28.450;  -52.000;  -60.000
262.283; -131.700; -808.000; -691.000
262.424;  -86.775; -666.000; -625.000
262.566; -142.625;-1161.000; -983.000
262.707; -119.825; -840.000; -830.000
262.848; -122.000; -769.000; -726.000
262.990;  -49.250; -362.000; -345.000
263.131;   72.475;  650.000;  681.000
263.272;  -10.625;  -61.000;  -41.000
263.413;  -96.850; -589.000; -561.000
263.555;  -68.350; -669.000; -143.000
263.696;  -90.575; -550.000; -641.000
263.837;  -66.025; -449.000; -551.000
263.978;   -4.775;   -5.000;  -77.000
264.119;  -56.100; -283.000; -264.000
264.261; -108.100; -847.000; -630.000
264.402;   -8.975;   33.000;   40.000
264.543;  -82.575; -509.000; -524.000
264.684;   -3.000;   61.000;  -50.000
264.825;  -83.625; -816.000; -538.000
264.966;  -12.750;  -84.000;  -67.000
265.107; -112.700; -646.000; -670.000
265.248; -118.350; -825.000; -812.000
265.390;   -7.900;  152.000;   -9.000
265.531;  -30.500; -238.000; -107.000
265.672;  -90.125; -557.000; -630.000
265.813;   65.575;  563.000;  439.000
265.954; -155.075; -959.000; -940.000
266.095;  -31.075; -372.000; -322.000
266.236;  -93.100; -686.000; -548.000
266.377;  -50.275; -243.000; -297.000
266.518;  -83.800; -619.000; -547.000
266.659;   18.125;  170.000;  268.000
266.800;    5.950;   83.000;   85.000
266.941;  -88.025; -487.000; -478.000
267.082;    3.275;  354.000;   99.000
267.223;  -59.525; -344.000; -273.000
267.364; -105.925; -892.000; -686.000
267.504;  -22.400;    3.000;  135.000
267.645;   -9.225;  160.000;   67.000
267.786;  -31.850; -147.000;  -86.000
267.927;  -71.950; -473.000; -379.000
268.068;  -19.375; -186.000;  -61.000
268.209;  -47.600; -175.000; -413.000
268.350;  -67.575; -388.000; -532.000
268.490;  -96.600; -648.000; -521.000
268.631;   29.500;  127.000;  225.000
268.772; -115.425; -874.000; -647.000
268.913;  -53.575; -328.000; -476.000
269.054;  -14.875; -117.000;   12.000
269.194;  -68.200; -418.000; -402.000
269.335; -166.425;-1137.000;-1074.000
269.476;  -23.000;   33.000;  -35.000
269.617;  -36.125; -347.000; -392.000
269.757;  -89.225; -713.000; -646.000
269.898; -106.475; -856.000; -613.000
270.039;  -66.875; -415.000; -405.000
270.180; -140.950; -952.000; -816.000
270.320;  -32.425; -190.000; -250.000
270.461;  -31.100; -277.000; -249.000
270.602;  -21.225; -186.000; -156.000
270.742; -118.000; -868.000; -943.000
270.883;  -57.025; -442.000; -390.000
271.023;  -54.850; -358.000; -357.000
271.164;  -73.600; -607.000; -528.000
271.305;  -93.950; -666.000; -654.000
271.445;  -94.275; -722.000; -683.000
271.586;  -84.575; -462.000; -283.000
271.726;  -50.350; -397.000; -322.000
271.867;  -59.850; -594.000; -534.000
272.008;  183.325; -473.000; -285.000
272.148;  131.375;  462.000;  468.000
272.289;   22.225; -113.000; -181.000
272.429;   19.850;   19.000;  185.000
272.570; -106.775; -633.000; -737.000
272.710;  -87.475; -825.000; -775.000
272.851;  -30.100;  113.000; -130.000
272.991; -167.475;-1173.000;-1077.000
273.131;  -72.000; -419.000; -459.000
273.272;  -97.375; -683.000; -723.000
273.412;   -0.150; -143.000;  -31.000
273.553;  -50.675; -488.000; -507.000
273.693;  126.325;  913.000;  858.000
273.834;  -89.775; -894.000; -692.000
273.974;  -86.725; -664.000; -615.000
274.114;  -87.825; -772.000; -560.000
274.255;   71.700;  414.000;  373.000
274.395;    7.525; -180.000; -125.000
274.535;   37.125;  199.000;  350.000
274.676;   14.975;  225.000;   94.000
274.816;    0.050;  110.000;   34.000
274.956;  -82.025; -624.000; -690.000
275.097;  -47.200;-1014.000; -922.000
275.237; -101.625; -913.000; -803.000
275.377;  -99.175; -778.000; -689.000
275.517; -158.425; -878.000; -937.000
275.658;  -72.800; -590.000; -555.000
275.798;  -72.950; -606.000; -413.000
275.938;   -0.800;  215.000;  323.000
276.078; -106.650; -626.000; -395.000
276.218;    7.125;   99.000;  104.000
276.359; -133.875;-1026.000;-1024.000
276.499;  -68.225; -605.000; -446.000
276.639;  -33.375; -305.000; -151.000
276.779;  -53.850; -475.000; -357.000
276.919; -100.925; -783.000; -624.000
277.059;  -31.500; -261.000; -212.000
277.199;  -36.950; -357.000; -259.000
277.340;   36.175;  287.000;  175.000
277.480; -106.600; -840.000; -693.000
277.620;   15.600;  192.000;   16.000
277.760; -203.775;-1533.000;-1294.000
277.900;   19.725;  113.000;   33.000
278.040;    6.800;  137.000;  159.000
278.180;   28.775;  270.000;  170.000
278.320;   -8.825;   21.000;   56.000
278.460;  -73.200; -443.000; -469.000
278.600;  -92.075; -708.000; -598.000
278.740;   48.225;  448.000;  224.000
278.880;  -56.625; -768.000; -791.000
279.020;   -6.125; -194.000; -144.000
279.160;  -94.000; -672.000; -595.000
279.300; -113.925; -926.000; -873.000
279.440;  -98.975; -709.000; -622.000
279.579;   -2.575;-1014.000; -929.000
279.719;  -56.500; -410.000; -394.000
279.859;   54.375;   -4.000;   41.000
279.999;   18.950; -208.000;  101.000
280.139;  -12.575; -435.000; -387.000
280.279;  -77.350; -708.000; -745.000
280.419;  -31.250; -229.000; -147.000
280.559;  -20.200; -259.000; -180.000
280.698;  -91.800; -790.000; -639.000
280.838;  -91.000; -778.000; -800.000
280.978; -111.525; -846.000; -790.000
281.118; -117.350; -811.000; -704.000
281.257;   -9.000;   24.000;    6.000
281.397; -114.300;-1094.000; -960.000
281.537;  -82.800; -599.000; -712.000
281.677;  -31.300; -150.000; -101.000
281.816; -101.650; -700.000; -630.000
281.956;  -38.725; -193.000; -257.000
282.096;  -67.800; -539.000; -396.000
282.235; -102.625; -672.000; -638.000
282.375;  -24.700; -243.000;  -98.000
282.515;  -99.450; -715.000; -707.000
282.654;   20.175;   29.000;  106.000
282.794;   10.975;  388.000;  244.000
282.934;  -65.450; -530.000; -491.000
283.073; -121.825;-1030.000; -857.000
283.213;  -54.375; -460.000; -467.000
283.353;  -33.175; -408.000; -349.000
283.492;  -30.900; -264.000; -296.000
283.632;  -39.925; -254.000; -168.000
283.771; -105.150; -859.000; -730.000
283.911;  -61.450; -369.000; -260.000
284.050;  -99.125; -794.000; -748.000
284.190; -154.600;-1229.000;-1096.000
284.329; -136.550;-1055.000; -964.000
284.469;  -68.025; -516.000; -591.000
284.608;  -66.900; -559.000; -598.000
284.748;  -73.050; -614.000; -570.000
284.887;  -12.700;  -87.000;  -20.000
285.027; -128.075; -844.000; -892.000
285.166;  -21.250; -192.000; -249.000
285.306;    9.425; -116.000;  -33.000
285.445;  -48.025; -229.000; -343.000
285.584;  -98.700; -630.000; -494.000
285.724;  -45.700; -282.000; -322.000
285.863; -102.825; -857.000; -507.000
286.002;  -54.950; -366.000; -276.000
286.142; -101.650; -715.000; -622.000
286.281;  -63.350; -525.000; -493.000
286.420;  -80.425; -554.000; -417.000
286.560;   87.525;  653.000;  623.000
286.699; -146.950; -958.000; -912.000
286.838;  -82.375; -590.000; -591.000
286.978;  -93.350; -533.000; -537.000
287.117; -136.050;-1085.000; -950.000
287.256;  -37.800; -228.000; -211.000
287.395;  -58.750; -197.000; -378.000
287.535;  -42.000; -370.000; -298.000
287.674;  -82.400; -509.000; -484.000
287.813;   42.250;  661.000;  533.000
287.952; -130.325;-1010.000; -871.000
288.091; -140.775;-1049.000; -915.000
288.231;    5.650;   13.000;   15.000
288.370; -178.325;-1217.000;-1200.000
288.509;  -92.250; -728.000; -645.000
288.648;  -80.300; -770.000; -548.000
288.787;  -39.525; -243.000;  -87.000
288.926;  -55.000; -454.000; -475.000
289.065;  108.100;  859.000;  672.000
289.204;  -61.250; -377.000; -217.000
289.344;  -96.525; -791.000; -690.000
289.483;   18.775;  416.000;  304.000
289.622;  -13.575; -291.000; -149.000
289.761;  -33.650; -309.000; -166.000
289.900;  -99.300; -785.000; -626.000
290.039;  -21.175;  -12.000;  -95.000
290.178;  -46.900; -274.000; -180.000
290.317;  -86.275; -618.000; -479.000
290.456;  -72.750; -463.000; -451.000
290.595; -122.150; -961.000; -833.000
290.734; -128.550; -904.000; -891.000
290.873;  -68.800; -456.000; -420.000
291.011; -111.175; -833.000; -843.000
291.150;  -89.825; -770.000; -682.000
291.289;  -30.750; -343.000; -110.000
291.428;  -93.750; -599.000; -480.000
291.567;  -62.075; -370.000; -442.000
291.706;  -14.200;  109.000;  154.000
291.845;  -91.000; -597.000; -505.000
291.984; -154.100;-1234.000;-1061.000
292.122;   55.750;  602.000;  582.000
292.261;   38.525;  620.000;  463.000
292.400;    5.125; -144.000;  211.000
292.539; -112.525; -959.000; -813.000
292.678;  -35.475; -325.000; -300.000
292.816; -170.075;-1136.000; -965.000
292.955;  -83.875; -844.000; -684.000
293.094;  -10.700; -173.000; -337.000
293.233;  -56.200; -556.000; -400.000
293.371;  -39.425; -225.000;  -84.000
293.510; -104.375; -866.000; -780.000
293.649; -131.200; -959.000; -924.000
293.787;  -43.475;-1083.000;-1012.000
293.926;    1.450; -113.000;  -32.000
294.065;  -47.575; -379.000; -290.000
294.203;   39.125;  298.000;  406.000
294.342;   25.550;   74.000;  156.000
294.481; 6286.475;51180.000; -836.000
294.619;  -32.300; -425.000; -582.000
294.758; -140.300;-1230.000;-1137.000
294.896;   65.550; -125.000;    5.000
295.035; -118.725;-1040.000;-1006.000
295.174; -130.300;-1082.000; -954.000
295.312;  -45.275; -323.000; -203.000
295.451;   -1.775; -307.000; -428.000
295.589;  -49.475; -389.000; -518.000
295.728;   23.200; -292.000; -165.000
295.866;   14.000;  -36.000;  -51.000
296.005;  -67.150; -584.000; -341.000
296.143;  -62.575; -558.000; -596.000
296.282; -105.525; -957.000; -881.000
296.420;  -78.600; -657.000; -557.000
296.559;  -75.025; -892.000; -633.000
296.697;   42.100; -847.000; -665.000
296.835;   74.800;-1141.000;-1002.000
296.974;   38.375;  -23.000;   39.000
297.112;   18.175; -443.000; -504.000
297.251;  -73.300; -815.000; -755.000
297.389;  100.600; -576.000; -438.000
297.527;   40.450; -145.000;  -83.000
297.666;  -41.125; -486.000; -438.000
297.804;  -57.100; -404.000; -264.000
297.942;    6.475; -136.000; -161.000
298.081;   -4.775; -183.000;   63.000
298.219;   72.150;  -17.000;  -19.000
298.357;   58.075; -144.000;  -71.000
298.495;   31.050; -810.000; -812.000
298.634;   90.825;  245.000;  219.000
298.772;   46.675; -220.000; -338.000
298.910;  -31.925; -309.000; -182.000
299.048;  -19.775; -130.000; -153.000
299.187;  -35.025; -350.000; -250.000
299.325;   13.125;   52.000;  122.000
299.463;   70.250; -389.000; -299.000
299.601;  117.000; -327.000; -271.000
299.739;  -87.475; -908.000; -883.000
299.877;  -73.350; -791.000; -703.000
300.016;  -38.350;-1095.000; -935.000
300.154;  174.125;  -19.000; -161.000
300.292;   75.250; -428.000; -348.000
300.430;   33.725; -408.000; -291.000
300.568;  -92.275; -940.000; -874.000
300.706;  -45.975; -366.000; -469.000
300.844;  -74.200;-1108.000; -979.000
300.982;  127.725;  246.000;  282.000
301.120; -104.700; -965.000; -866.000
301.258;  -58.000; -812.000; -705.000
301.396;   21.600;  104.000;  -41.000
301.534;   85.325; -218.000; -293.000
301.672;   -6.925; -664.000; -521.000
301.810;   48.700; -613.000; -545.000
301.948;  129.825;   53.000;  149.000
302.086;  678.150; -250.000;  -32.000
302.224; 1007.250; -610.000; -585.000
302.362;   48.200; -558.000; -622.000
302.500;   -4.975; -923.000; -893.000
302.638;  115.225;  128.000;  245.000
302.776;   -9.000; -352.000; -408.000
302.913;   42.800;  447.000;  236.000
303.051;    0.300;  -86.000;  -23.000
303.189;   45.900;   90.000;  118.000
303.327;  -38.850; -341.000; -256.000
303.465;  -71.825; -832.000; -588.000
303.603; -103.600; -805.000; -604.000
303.740;   88.075;  417.000;  241.000
303.878;   31.725; -800.000; -759.000
304.016;  -86.900; -915.000; -790.000
304.154; -115.775;-1123.000;-1152.000
304.291;  -32.300; -505.000; -554.000
304.429;    9.225;  102.000;   74.000
304.567; -125.275; -908.000; -893.000
304.705;  -45.425; -408.000; -515.000
304.842;  111.400; -616.000; -540.000
304.980;   33.650;  215.000;   35.000
305.118;   55.025; -367.000; -365.000
305.255;  -75.000; -945.000; -927.000
305.393;   63.075;  178.000;  239.000
305.531;  -98.525;-1173.000; -956.000
305.668;  -67.325; -663.000; -582.000
305.806;  126.300; -358.000; -439.000
305.943;  123.775; -629.000; -637.000
306.081;   59.775; -378.000; -267.000
306.219; -103.000; -863.000; -748.000
306.356;    5.250;  158.000;   27.000
306.494;   90.275;  981.000;  761.000
306.631;  -11.600;  -11.000;  -55.000
306.769;    5.625; -613.000; -485.000
306.906;  -16.500; -284.000; -258.000
307.044;  -74.950; -473.000; -488.000
307.181;  -70.500; -410.000; -332.000
307.319;   15.175;  112.000;   87.000
307.456; -173.225;-1191.000;-1153.000
307.594;  -98.000; -980.000; -727.000
307.731;   -4.975; -371.000; -164.000
307.868;   -4.275;  -15.000;   20.000
308.006; -134.825; -961.000; -847.000
308.143;  -64.000; -618.000; -330.000
308.281;  203.150;  -37.000; -254.000
308.418;    8.075; -748.000; -640.000
308.555;  -72.350; -400.000; -250.000
308.693;  -78.225; -577.000; -573.000
308.830; -108.425; -712.000; -657.000
308.967;  -23.600; -215.000;  -95.000
309.105;  -38.200; -507.000; -396.000
309.242;   62.250; -468.000; -367.000
309.379;  374.275; -577.000; -655.000
309.517;  -52.700; -936.000; -948.000
309.654; -113.250; -910.000; -734.000
309.791;  -78.125; -662.000; -580.000
309.928; -111.975; -977.000; -914.000
310.065;  182.650;  819.000;  697.000
310.203;    4.475; -825.000; -850.000
310.340;   -9.475; -465.000; -321.000
310.477;  -72.375; -412.000; -516.000
310.614;  -72.400; -383.000; -473.000
310.751;  -85.400; -427.000; -518.000
310.889;  -26.400;    1.000;   11.000
311.026; -153.525;-1161.000; -939.000
311.163;  -47.925; -386.000; -380.000
311.300;  -76.325; -512.000; -479.000
311.437;  -73.250; -658.000; -619.000
311.574; -157.700;-1226.000; -985.000
311.711;  -69.225; -595.000; -433.000
311.848;  -35.500; -380.000; -388.000
311.985;    7.350;  270.000;   93.000
312.122; -118.175; -932.000; -762.000
312.259; -128.775; -941.000; -994.000
312.396;  -79.075; -508.000; -551.000
312.533;  -97.650; -812.000; -790.000
312.670; -139.900;-1070.000; -898.000
312.807;  -32.850; -352.000; -367.000
312.944;  -80.175; -513.000; -611.000
313.081;  -38.950; -150.000; -415.000
313.218; -106.450;-1111.000; -867.000
313.355;   14.300; -531.000; -449.000
313.492;    5.875; -455.000; -292.000
313.629;  133.475;  815.000;  735.000
313.766; -162.475;-1176.000;-1008.000
313.902;   -5.975; -186.000;   21.000
314.039;  -44.075; -372.000; -289.000
314.176;    9.375;  286.000;  192.000
314.313;  -60.875; -569.000; -473.000
314.450;  -74.875; -788.000; -684.000
314.587;  -55.375; -468.000; -480.000
314.723;    3.200;  -78.000;  130.000
314.860;   31.850;  318.000;  332.000
314.997;   22.700;  223.000;  142.000
315.134;  -41.450; -385.000; -368.000
315.270;  -31.725; -480.000; -496.000
315.407; -112.125;-1094.000; -967.000
315.544;  -51.625; -657.000; -538.000
315.681;  -59.625; -681.000; -565.000
315.817;   34.675; -133.000; -176.000
315.954;   33.175; -613.000; -392.000
316.091; -131.750;-1045.000;-1023.000
316.227;  -27.400;  -71.000; -179.000
316.364;   -2.275;   23.000;    6.000
316.500;  -41.675; -113.000; -300.000
316.637;  -47.275; -181.000; -302.000
316.774; -101.675; -625.000; -358.000
316.910;  -79.850; -598.000; -629.000
317.047;  -63.950; -487.000; -351.000
317.183;  -47.800; -435.000; -566.000
317.320;   -3.350; -367.000; -321.000
317.456;  -70.000; -733.000; -805.000
317.593;  -95.300; -598.000; -641.000
317.729;  -11.125;  168.000;  -67.000
317.866; -199.325;-1434.000;-1285.000
318.002;  -97.175; -708.000; -948.000
318.139;  -95.200; -883.000; -867.000
318.275; -111.625;-1003.000; -738.000
318.412;  -66.775; -517.000; -336.000
318.548;  -35.575; -751.000; -720.000
318.685; -107.500; -985.000; -888.000
318.821; -103.800; -762.000; -735.000
318.957;  -10.700;   34.000;  -23.000
319.094;   26.675;  297.000;  154.000
319.230;  -48.375; -756.000; -742.000
319.367;  146.500; -471.000; -520.000
319.503;   58.975; -538.000; -436.000
319.639;  -96.125; -877.000; -793.000
319.775;  -51.000; -750.000; -685.000
319.912;  -56.625; -424.000; -519.000
320.048;  -94.025;-1184.000;-1184.000
320.184;   65.825;   59.000;   70.000
320.321;  -67.650; -497.000; -467.000
320.457;   62.150;  475.000;  662.000
320.593;  -68.800; -375.000; -382.000
320.729; -115.125; -732.000; -734.000
320.866;  -66.725; -577.000; -635.000
321.002;  -74.375; -759.000; -809.000
321.138;   -5.825; -135.000; -211.000
321.274;   78.250; -148.000; -115.000
321.410;  -31.450; -585.000; -353.000
321.546;  -28.025;-1011.000; -911.000
321.683;   41.675;  400.000;  185.000
321.819;   -0.575;  -48.000; -117.000
321.955;  -96.575; -743.000; -722.000
322.091;  -37.375; -585.000; -540.000
322.227;   -5.125; -382.000; -202.000
322.363;  -12.500; -320.000; -215.000
322.499;  -41.000; -343.000; -331.000
322.635;  167.250;  636.000;  443.000
322.771;   42.750; -139.000;   12.000
322.907;   79.500;  129.000;  327.000
323.043;  -17.950; -115.000; -206.000
323.179;  -26.725; -394.000; -363.000
323.315;   46.525; -401.000; -371.000
323.451;   94.625; -328.000; -236.000
323.587;   64.425;  -60.000;  -77.000
323.723;   19.725; -682.000; -601.000
323.859;  -10.875; -258.000;  -76.000
323.995;  -35.275; -467.000; -409.000
324.131; -124.100; -967.000; -892.000
324.267;  -32.275; -254.000; -276.000
324.402; -120.375; -960.000; -983.000
324.538;  -19.050; -279.000; -104.000
324.674;   18.475;  164.000;   77.000
324.810;  133.525;  226.000;  308.000
324.946;   19.200; -810.000; -658.000
325.082;  -64.750; -568.000; -475.000
325.217;   -5.850;  -62.000;   16.000
325.353;  -93.225; -764.000; -659.000
325.489; -109.825; -540.000; -506.000
325.625;  -67.075; -579.000; -525.000
325.760;   57.350;  517.000;  376.000
325.896;  -35.850; -515.000; -702.000
326.032;  -47.100; -403.000; -352.000
326.168;  -63.275; -462.000; -369.000
326.303;  -55.275; -352.000; -461.000
326.439;  -28.125; -336.000; -276.000
326.575;    1.300; -190.000;  -29.000
326.710;   -0.700; -156.000;  -30.000
326.846;  -19.750;  146.000;  103.000
326.982;  -83.250; -530.000; -548.000
327.117;  -79.475; -481.000; -442.000
327.253;  -84.000; -745.000; -742.000
327.388; -151.150;-1137.000;-1153.000
327.524;  -55.600; -811.000; -578.000
327.659;  -35.200;  -58.000;  -22.000
327.795;  -33.000;   69.000;   45.000
327.931;  -91.400; -723.000; -499.000
328.066;  -29.675; -417.000; -276.000
328.202;  -21.075;   12.000; -129.000
328.337;   86.125;  957.000;  713.000
328.473;   39.475;  -12.000;  -74.000
328.608;  -30.925; -256.000; -267.000
328.743;  -70.525; -799.000; -664.000
328.879;   28.625;  214.000;  114.000
329.014;  -33.325; -102.000; -122.000
329.150;  -79.775; -358.000; -483.000
329.285;  -87.525; -465.000; -466.000
329.421;  -60.525; -548.000; -246.000
329.556;  -10.775;  -36.000;   85.000
329.691; -103.875; -633.000; -615.000
329.827;  -78.825; -626.000; -480.000
329.962;  -51.100;  131.000; -301.000
330.097;  -85.175; -673.000; -585.000
330.233;  -59.750; -410.000; -223.000
330.368; -122.100; -839.000; -628.000
330.503;  -17.925;    3.000;   98.000
330.638;   -0.750;  -93.000; -125.000
330.774;  -55.850; -609.000; -530.000
330.909;  -45.550; -434.000; -244.000
331.044;  -82.925; -714.000; -708.000
331.179; -170.225;-1217.000;-1109.000
331.315;    4.075;   77.000;   20.000
331.450;   11.800;  157.000;  285.000
331.585;  -82.150; -805.000; -706.000
331.720;  -85.400; -510.000; -460.000
331.855;  -12.050;  -35.000; -102.000
331.990;  241.650;   62.000;  138.000
332.126;  134.800; -110.000;   71.000
332.261;  -23.650; -379.000; -265.000
332.396;   -3.300; -135.000; -242.000
332.531;  -85.450;-1074.000;-1031.000
332.666;   28.800; -519.000; -363.000
332.801;  -99.450; -726.000; -807.000
332.936;  -26.925; -192.000; -122.000
333.071; -140.900; -870.000; -817.000
333.206;    5.175;  307.000;  379.000
333.341;   14.000;  344.000;  418.000
333.476;  -90.300; -627.000; -623.000
333.611;  -40.500; -251.000; -173.000
333.746;  -55.900; -381.000; -464.000
333.881; -121.475; -973.000; -935.000
334.016; -135.375; -936.000; -917.000
334.151; -117.725; -746.000; -702.000
334.286;   16.425;  152.000;  186.000
334.421;  -21.175; -125.000; -178.000
334.556;  -73.425; -611.000; -567.000
334.690;  -82.275; -631.000; -577.000
334.825;   59.850;  381.000;   83.000
334.960;  -57.950; -285.000; -413.000
335.095;    0.700;  135.000;  -91.000
335.230; -101.400; -722.000; -738.000
335.365; -132.150;-1084.000; -990.000
335.499; -125.400;-1108.000;-1037.000
335.634;   12.600;    9.000;  534.000
335.769;  -91.650; -755.000; -720.000
335.904;  -61.425; -603.000; -561.000
336.038;  -52.050; -735.000; -657.000
336.173; -112.425;-1206.000;-1194.000
336.308;    5.625; -116.000; -189.000
336.443;    8.400; -544.000; -634.000
336.577;  -76.575; -936.000; -787.000
336.712;   49.650;   -4.000;  -12.000
336.847;  -43.075; -724.000; -607.000
336.981;   78.625; -272.000; -208.000
337.116;  276.025;  615.000;  501.000
337.250;  162.400; -434.000; -421.000
337.385;  237.900; -297.000; -208.000
337.520;   76.500; -632.000; -603.000
337.654;  -46.750; -215.000; -126.000
337.789; -120.575; -989.000; -933.000
337.923;  -39.175; -104.000; -205.000
338.058;  -90.925; -673.000; -738.000
338.192;  -33.100; -611.000; -488.000
338.327;  -15.200;  -18.000; -155.000
338.461;  -67.650; -299.000; -469.000
338.596;  -97.600; -780.000; -638.000
338.730;  -95.800; -767.000; -803.000
338.865;   81.825;  -46.000; -140.000
338.999;  -63.700; -846.000; -702.000
339.134;   -9.425; -634.000; -536.000
339.268;   19.300; -741.000; -603.000
339.403;  349.600; -740.000; -775.000
339.537;  122.700; -894.000; -820.000
339.671; -112.425; -829.000; -813.000
339.806;  -69.875; -556.000; -512.000
339.940;    2.400; -261.000; -235.000
340.074;  -92.875; -685.000; -510.000
340.209;  -52.275; -351.000; -230.000
340.343;  -91.875; -517.000; -573.000
340.477;  144.625;  998.000; 1036.000
340.612;  -58.200;-1033.000; -900.000
340.746;  113.075; -199.000; -243.000
340.880;  -70.525; -924.000; -785.000
341.014;  -25.875;  -45.000; -154.000
341.149; -118.725; -756.000; -718.000
341.283; -109.325; -839.000; -754.000
341.417;  -87.425;-1124.000; -938.000
341.551;  173.400; -768.000; -708.000
341.685;  -31.650; -633.000; -611.000
341.820;  -55.725; -562.000; -493.000
341.954;  -51.850; -218.000; -349.000
342.088; -157.275;-1102.000;-1019.000
342.222;   39.425;  565.000;  618.000
342.356;  -71.550; -395.000; -335.000
342.490;  -94.875; -880.000; -841.000
342.624;  -58.225; -339.000; -242.000
342.758;   18.325; -364.000; -312.000
342.892;  -61.600; -710.000; -585.000
343.026;  -48.000;  -58.000; -116.000
343.160;  -72.950; -426.000; -376.000
343.294;  -74.125; -474.000; -337.000
343.428;  -20.000; -488.000; -448.000
343.562;  -24.975; -172.000;  -23.000
343.696;  -23.100; -385.000; -314.000
343.830;  -12.400; -362.000; -356.000
343.964;   28.225; -231.000; -168.000
344.098; 1009.450;  199.000;   70.000
344.232;  810.300; -266.000; -127.000
344.366;   76.200; -567.000; -453.000
344.500;   80.675; -665.000; -744.000
344.634;   33.825; -324.000; -164.000
344.768;  -13.750; -531.000; -341.000
344.902;   18.350;  278.000;  256.000
345.035;  -78.025; -556.000; -496.000
345.169; -125.250; -933.000; -656.000
345.303;  -30.700; -308.000; -482.000
345.437;  -69.800; -826.000; -717.000
345.571;  -89.500; -675.000; -594.000
345.704;  -56.675; -309.000; -532.000
345.838;  -17.775; -331.000; -284.000
345.972;  -41.875; -543.000; -495.000
346.106;  166.575; -179.000; -190.000
346.239;  422.425; -312.000; -243.000
346.373;   18.400; -343.000; -302.000
346.507; -151.675; -950.000; -962.000
346.640;  156.475;  -30.000;   13.000
346.774;  -37.950; -650.000; -797.000
346.908;  -30.500; -138.000;  -11.000
347.041;  -94.250; -646.000; -593.000
347.175;   -8.450;  259.000;   27.000
347.309;  -71.875; -698.000; -628.000
347.442;  -93.075; -883.000; -732.000
347.576;  300.975;  670.000;  668.000
347.709;  215.550; -123.000;  -52.000
347.843;  -81.675; -933.000; -825.000
347.976;   26.350;  235.000;  294.000
348.110; -181.050;-1268.000;-1186.000
348.243;  -94.950; -679.000; -772.000
348.377;    9.125;  -26.000;   60.000
348.510;   41.850;  403.000;  540.000
348.644;  -42.025;  -37.000; -159.000
348.777;   -9.875;  180.000;  191.000
348.911;  -50.275; -142.000; -112.000
349.044;  168.250;  471.000;  448.000
349.178;  169.750;-1069.000;-1006.000
349.311;  115.725;  141.000;  255.000
349.444;    5.800; -927.000; -813.000
349.578;  -25.500; -347.000; -200.000
349.711;  -97.650; -959.000; -862.000
349.845;    5.975; -661.000; -591.000
349.978; -148.775;-1224.000;-1137.000
350.111;  -78.250; -546.000; -612.000
350.244;  -78.125; -596.000; -700.000
350.378;   18.325; -392.000; -393.000
350.511;  -65.175; -393.000; -426.000
350.644; -121.875; -808.000; -806.000
350.778;   18.950;  168.000;  104.000
350.911;   -3.425;  134.000;  140.000
351.044;  -84.700; -685.000; -615.000
351.177;  -24.375; -321.000; -281.000
351.310;  -16.625;    3.000; -131.000
351.444;  -75.850; -888.000; -788.000
351.577;  126.575;  140.000;   90.000
351.710;   99.250;  593.000;  417.000
351.843;  -35.775; -165.000;  -77.000
351.976;   -3.975;  149.000;  -79.000
352.109;  -86.425; -621.000; -612.000
352.242;  -25.400; -464.000; -419.000
352.376;  -66.350; -580.000; -636.000
352.509;  181.050; -437.000; -356.000
352.642;   24.375; -654.000; -604.000
352.775;   77.125; -141.000;  -98.000
352.908; -112.825; -933.000; -904.000
353.041; -100.350; -814.000; -824.000
353.174;  -62.000; -551.000; -424.000
353.307;  -87.950; -753.000; -764.000
353.440;   72.925;  541.000;  453.000
353.573; -117.550; -957.000;-1008.000
353.706;  -60.175; -384.000; -558.000
353.839;  -16.500; -264.000; -220.000
353.971;  -96.125; -657.000; -512.000
354.104;  -81.025; -896.000; -835.000
354.237;  -37.900; -627.000; -662.000
354.370;  -94.600; -846.000; -879.000
354.503; -168.450;-1231.000;-1308.000
354.636;  -40.975; -529.000; -348.000
354.769; -125.975; -937.000; -860.000
354.902;  -12.500; -230.000; -139.000
355.034;  -24.225; -164.000; -220.000
355.167;  -15.025; -262.000; -162.000
355.300;  -97.825;-1061.000; -880.000
355.433;  955.125;  -71.000;  -14.000
355.565; 1504.075; -402.000; -384.000
355.698;  399.675; -356.000; -296.000
355.831;   17.475; -882.000; -801.000
355.964;   87.175; -285.000; -170.000
356.096;  -75.425; -856.000; -843.000
356.229;   10.425; -523.000; -530.000
356.362;  319.275; -373.000; -266.000
356.494;  614.250; -229.000; -162.000
356.627;  527.075;  269.000;  377.000
356.760;  675.575;  120.000;   53.000
356.892;  943.375; -286.000; -601.000
357.025;  700.400;  403.000;  389.000
357.157;  669.950; -167.000; -179.000
357.290;  657.025; -856.000; -713.000
357.423;  206.375; -667.000; -556.000
357.555;  126.425; -217.000; -228.000
357.688;  145.825; -483.000; -364.000
357.820;  515.550; -870.000; -877.000
357.953; 3982.900; -563.000; -589.000
358.085;  889.550; -632.000; -612.000
358.218; 1276.525;-1131.000; -932.000
358.350;  237.650;  -58.000;  312.000
358.483; -115.950;-1300.000;-1187.000
358.615;   -6.150;-1182.000;-1078.000
358.747;  -46.050;-1187.000;-1058.000
358.880;   29.050; -810.000; -744.000
359.012;   -6.200; -376.000; -202.000
359.145;  -25.000; -480.000; -511.000
359.277;   84.850; -962.000; -913.000
359.409; 3248.575;  536.000;  231.000
359.542;  905.550; -738.000; -688.000
359.674;   78.850;   46.000;   13.000
359.806;  -61.025; -565.000; -438.000
359.939;  -52.175; -617.000; -516.000
360.071;  -18.525; -583.000; -579.000
360.203;  -18.100; -411.000; -364.000
360.335;   56.475;  164.000;  -16.000
360.468;  201.425; -249.000; -307.000
360.600; 2601.350; -547.000; -454.000
360.732; 2820.475; -546.000; -423.000
360.864;  412.975;-1216.000;-1044.000
360.996;  310.975; -516.000; -554.000
361.129;   55.975; -389.000; -598.000
361.261;   29.450;  110.000; -113.000
361.393;  -38.000; -252.000; -214.000
361.525;   31.725;   94.000;  244.000
361.657;  -33.200; -821.000; -703.000
361.789;    7.550; -139.000; -155.000
361.921;  275.650; -642.000; -593.000
362.053;  256.750;  524.000;  541.000
362.185;   59.950;  288.000;   72.000
362.318;  -69.325; -709.000; -705.000
362.450;  116.400;  294.000;  444.000
362.582;  128.900; -913.000; -870.000
362.714;  -35.500; -353.000; -332.000
362.846;  -79.825; -606.000; -490.000
362.978; -133.775; -941.000; -811.000
363.109;   60.625; -161.000; -260.000
363.241;  486.600; -739.000; -749.000
363.373;  445.950; -649.000; -564.000
363.505;  628.700; -186.000;  -91.000
363.637;  167.450; -787.000; -601.000
363.769; -109.900;-1067.000;-1080.000
363.901;  -69.725; -596.000; -654.000
364.033; -105.050;-1103.000;-1062.000
364.165;   -3.125; -283.000; -283.000
364.296;   81.025; -316.000; -177.000
364.428;   84.250;-1344.000;-1220.000
364.560;  -80.000; -679.000; -661.000
364.692;  -70.550; -738.000; -835.000
364.824;  300.375; -588.000; -456.000
364.955;  440.700; -402.000; -564.000
365.087;  904.600;-1097.000; -852.000
365.219;   30.625; -686.000; -816.000
365.351;  -62.100; -526.000; -572.000
365.482;   50.300;  300.000;  240.000
365.614;  -40.075; -402.000; -314.000
365.746;  -81.675; -729.000; -752.000
365.877;  -93.475; -706.000; -672.000
366.009;  255.725;  -35.000;  -62.000
366.141;  -79.675;-1249.000;-1134.000
366.272; -101.825; -803.000; -719.000
366.404; -102.075;-1005.000; -874.000
366.535;   -6.900; -139.000;  -12.000
366.667;  -97.100; -644.000; -649.000
366.799;   41.025;  353.000;  203.000
366.930; -122.400; -862.000; -996.000
367.062;  122.275; -639.000; -613.000
367.193;  146.550; -872.000; -842.000
367.325;  -57.150; -580.000; -684.000
367.456;   51.775; -246.000;   31.000
367.588;  162.825; -371.000; -318.000
367.719;   23.425;  -44.000;  -45.000
367.851;  -22.850; -222.000; -241.000
367.982;  -38.100; -875.000; -732.000
368.113;  117.600; -475.000; -358.000
368.245; -112.800; -960.000; -841.000
368.376;  -37.500; -254.000; -302.000
368.508;  -32.000; -188.000; -263.000
368.639; -136.075;-1166.000;-1034.000
368.770;  -16.325; -670.000; -589.000
368.902;  -61.750; -836.000; -926.000
369.033;  -99.250; -906.000; -855.000
369.164;  -52.600; -720.000; -653.000
369.296; -110.400; -452.000; -601.000
369.427;   -2.225; -209.000; -144.000
369.558;  -44.325; -593.000; -377.000
369.689;  -86.300; -721.000; -569.000
369.821; -122.250; -951.000; -845.000
369.952;  -13.875;   42.000; -108.000
370.083;  -34.125; -229.000; -108.000
370.214;  -79.750; -735.000; -650.000
370.345;   -7.750;   65.000;   81.000
370.477;  -78.825; -810.000; -790.000
370.608;  255.425; -328.000; -264.000
370.739;  -34.925;-1233.000;-1292.000
370.870;  -34.325;-1102.000; -923.000
371.001;   96.125; -378.000; -467.000
371.132;  -63.950; -754.000; -735.000
371.263;  -16.350;  -42.000; -148.000
371.394; -133.350; -841.000; -748.000
371.525;   30.275;  345.000;  225.000
371.657;  -82.275; -808.000; -670.000
371.788;   87.200;  103.000;  199.000
371.919;  206.375; -384.000; -304.000
372.050; 3885.025;  -91.000; -156.000
372.181; 1196.050; -188.000; -294.000
372.311;  405.725;   42.000; -127.000
372.442;   39.275; -457.000; -451.000
372.573;  -30.300; -444.000; -340.000
372.704; -123.475;-1008.000; -980.000
372.835;   83.700; -228.000; -289.000
372.966;  -56.575; -646.000; -554.000
373.097;  -64.500; -575.000; -711.000
373.228;  -32.825; -717.000; -542.000
373.359;  150.450; -824.000; -536.000
373.490; 1022.525; -881.000; -727.000
373.620; 1297.025;-1001.000; -803.000
373.751; 1919.900; -332.000; -396.000
373.882;  891.150; -663.000; -733.000
374.013;   79.225; -449.000; -262.000
374.143;  -29.125; -581.000; -659.000
374.274;  -98.625; -987.000; -908.000
374.405;  188.275; -388.000; -276.000
374.536;  453.325; -526.000; -387.000
374.666; 1238.850; -759.000; -807.000
374.797;  264.500; -817.000; -868.000
374.928;  958.600; -710.000; -560.000
375.058;  988.050; -535.000; -500.000
375.189;   87.750;  -59.000;  -93.000
375.320;  -90.850; -928.000;-1034.000
375.450;  -36.900; -625.000; -616.000
375.581;  -43.300; -526.000; -436.000
375.712;  -31.925; -574.000; -250.000
375.842;  313.725; -438.000; -415.000
375.973;  256.325; -554.000; -513.000
376.103;  -25.925; -665.000; -648.000
376.234;  -73.725; -531.000; -552.000
376.364;  -28.775; -944.000; -867.000
376.495;  347.050;  925.000;  529.000
376.625;   10.150; -472.000; -485.000
376.756;   68.325; -709.000; -678.000
376.886;  -68.300;-1178.000;-1026.000
377.017;   59.925;-1048.000;-1061.000
377.147;  361.025; -786.000; -782.000
377.278;   59.900;  174.000;  228.000
377.408; -111.900; -801.000; -815.000
377.538; -106.475; -707.000; -693.000
377.669;  -84.475; -537.000; -613.000
377.799;  -84.825; -645.000; -635.000
377.929;  -45.600; -610.000; -428.000
378.060; -131.200; -781.000; -847.000
378.190;  -66.100; -726.000; -531.000
378.320;  -47.650; -401.000; -406.000
378.451;   -7.850; -131.000;  -22.000
378.581;   -2.725;  -67.000; -110.000
378.711;  135.275; 1035.000;  866.000
378.841;   -6.575; -533.000; -675.000
378.972;  -62.300; -871.000; -751.000
379.102;   16.500; -652.000; -579.000
379.232;  -16.750; -126.000;  -73.000
379.362; -106.875;-1001.000; -885.000
379.492;   17.575; -373.000; -424.000
379.623;  124.550;    0.000;  111.000
379.753;  -88.150;-1107.000; -974.000
379.883;  211.125;   59.000;  156.000
380.013;   21.650;-1081.000;-1017.000
380.143; -111.400;-1097.000;-1056.000
380.273; -105.875; -985.000; -861.000
380.403;   -1.050; -344.000; -257.000
380.533;  -16.525; -651.000; -664.000
380.663;   73.925;  173.000;  128.000
380.793; -103.575;-1027.000;-1074.000
380.923;  -21.775; -103.000;  -34.000
381.053;  -88.625; -613.000; -623.000
381.183;  -34.200; -106.000; -248.000
381.313;   47.150; -656.000; -470.000
381.443;   57.275; -692.000; -473.000
381.573;  224.175; -402.000; -409.000
381.703;  332.425;-1249.000;-1095.000
381.833; -113.675;-1454.000;-1336.000
381.963;  111.775; -134.000;  -87.000
382.093; 1516.975; -925.000; -909.000
382.223;  510.875; -713.000; -602.000
382.353;   -0.725; -801.000; -608.000
382.482;  415.850;-1091.000; -964.000
382.612;  860.425; -872.000; -644.000
382.742;  485.050; -695.000; -622.000
382.872;  307.550; -565.000; -551.000
383.002;   80.300;  347.000; -132.000
383.131;   -9.000; -226.000; -160.000
383.261;  -35.650; -706.000; -768.000
383.391;  295.725; -552.000; -377.000
383.521; 3126.700;  451.000;  263.000
383.650;  792.225; -947.000; -904.000
383.780;   -0.500; -783.000; -656.000
383.910;  109.000;  880.000;  802.000
384.039;   31.825; -794.000; -656.000
384.169;  251.575;-1205.000;-1017.000
384.299;   -9.350; -650.000; -662.000
384.428;  -92.575; -764.000; -680.000
384.558;  -39.225; -308.000; -275.000
384.687;  -50.450; -414.000; -334.000
384.817;    4.900;   75.000;   -2.000
384.947;   29.400; -234.000; -141.000
385.076;  297.450;  982.000;  912.000
385.206;  115.850;  369.000;  480.000
385.335;  -34.325; -549.000; -417.000
385.465;  -80.050; -655.000; -663.000
385.594;  145.425;  -53.000;  -44.000
385.724;  471.100; -868.000; -838.000
385.853;  129.225; -296.000; -270.000
385.982; 1425.700; -743.000; -787.000
386.112; 2357.700;-1052.000; -871.000
386.241;  174.775; -307.000; -312.000
386.371;   30.900; -174.000;  -87.000
386.500;   17.825; -825.000; -789.000
386.629;   29.325; -874.000; -817.000
386.759;   68.650;  -43.000;   68.000
386.888;   -8.350; -170.000; -250.000
387.017;  -76.675; -648.000; -620.000
387.147;  -69.150; -771.000; -798.000
387.276;   -3.550; -410.000; -397.000
387.405;    7.350; -398.000; -342.000
387.535;  -27.950; -452.000; -361.000
387.664;  -65.575; -692.000; -620.000
387.793;   69.675; -198.000; -113.000
387.922;  541.350;  255.000;  200.000
388.052;   43.500; -576.000; -423.000
388.181;   17.725; -342.000; -472.000
388.310;   10.650; -889.000; -710.000
388.439;  -31.675; -749.000; -742.000
388.568;  180.775;  365.000;  244.000
388.697; 1124.475; -756.000; -653.000
388.826;  254.925; -768.000; -666.000
388.956;   57.950; -285.000; -307.000
389.085;  -30.900; -347.000; -287.000
389.214; -119.300; -842.000; -872.000
389.343;  -58.475; -645.000; -413.000
389.472;  380.150;  126.000;  149.000
389.601;  517.000;   91.000;    0.000
389.730;   27.375; -568.000; -687.000
389.859;   73.750;  226.000;   46.000
389.988;  201.500; -423.000; -408.000
390.117;  163.550; -168.000; -146.000
390.246;  -17.925; -331.000; -320.000
390.375;  132.500; -673.000; -626.000
390.504;  -53.425; -703.000; -621.000
390.633;  -99.775; -672.000; -726.000
390.761;  -72.400; -732.000; -645.000
390.890;    8.725;   -4.000; -130.000
391.019;  -29.300; -421.000; -441.000
391.148; -129.000; -826.000; -855.000
391.277;  -72.625; -576.000; -493.000
391.406;  -73.400; -821.000; -805.000
391.534;   22.275;  574.000; -301.000
391.663;  -63.000; -583.000; -645.000
391.792;  -95.275; -673.000; -701.000
391.921;   99.925;   -3.000;   15.000
392.050;  205.025; -287.000; -228.000
392.178;  -27.525;-1206.000;-1061.000
392.307;  150.450; -758.000; -712.000
392.436;   98.650; -427.000; -641.000
392.564;   23.250;  166.000;   -6.000
392.693;  -87.900; -860.000; -682.000
392.822;  204.950; -529.000; -534.000
392.950;  118.175; -880.000; -714.000
393.079;  359.675; -188.000; -328.000
393.208;   29.250; -488.000; -511.000
393.336;   -0.375; -170.000; -145.000
393.465;  -45.850; -317.000; -199.000
393.593;   -6.900;   62.000;   79.000
393.722; -145.300;-1121.000; -916.000
393.850;  -29.025; -188.000;  -61.000
393.979; -150.850; -926.000; -805.000
394.107;  -48.600; -517.000; -537.000
394.236;  -16.000; -570.000; -507.000
394.364;  226.525;  383.000;  206.000
394.493;  430.875; -911.000; -767.000
394.621;   -4.075; -955.000; -916.000
394.750;  697.300; -873.000; -923.000
394.878; 2870.925; -247.000; -149.000
395.007; 4089.300; -721.000; -807.000
395.135;  320.625; -790.000; -721.000
395.263;  -83.025;-1038.000;-1040.000
395.392;   10.375;  -25.000; -107.000
395.520; -143.750; -818.000; -679.000
395.648;  -84.750; -865.000; -915.000
395.777;   -8.675; -366.000; -405.000
395.905;  -49.325; -449.000; -564.000
396.033;   21.150;  217.000;  172.000
396.162;  622.100; -399.000; -453.000
396.290;  611.425;  -17.000;   -2.000
396.418;  113.950; -555.000; -514.000
396.546;  -62.075; -571.000; -466.000
396.674; -105.275; -850.000; -878.000
396.803;   10.600;  -72.000;  -23.000
396.931;   97.500; -179.000; -199.000
397.059;   63.525;-1026.000; -989.000
397.187;  -98.125;-1026.000; -975.000
397.315; -139.225; -884.000; -649.000
397.443;  -91.225; -592.000; -443.000
397.572;  -81.075; -578.000; -424.000
397.700;  -13.100; -607.000; -614.000
397.828;    2.225;  120.000;  -90.000
397.956;  -57.875; -508.000; -478.000
398.084;  -61.700; -767.000; -626.000
398.212;   32.975;  137.000;  124.000
398.340;    0.825;  -56.000;  159.000
398.468;   39.175; -390.000; -169.000
398.596; -129.550; -993.000; -953.000
398.724; -120.075; -762.000; -767.000
398.852; -159.500;-1024.000; -976.000
398.980;  -66.225; -560.000; -560.000
399.108;  -45.050; -982.000; -735.000
399.236;   39.000;   13.000;    8.000
399.363;    5.025;  222.000;  196.000
399.491;  -71.550; -404.000; -398.000
399.619; -126.000; -829.000; -800.000
399.747;  -94.575; -859.000; -771.000
399.875;   77.700;  220.000;  234.000
400.003;  -46.225; -359.000; -284.000
400.130; -101.675; -421.000; -341.000
400.258;  -31.850;  -83.000;   38.000
400.386;  -63.900; -352.000; -168.000
400.514;  -45.825; -526.000; -587.000
400.641;  -75.200; -928.000; -802.000
400.769; -131.600; -979.000; -888.000
400.897; -109.800; -838.000; -793.000
401.025;  -27.200; -166.000; -152.000
401.152;   -9.850;  220.000;   38.000
401.280;  -89.325; -430.000; -429.000
401.408; -121.375; -712.000; -576.000
401.535;  -95.000; -735.000; -758.000
401.663; -188.525;-1134.000;-1054.000
401.790;  -77.825; -514.000; -525.000
401.918;   33.475;  436.000;  405.000
402.046;  -25.350;  134.000;  122.000
402.173;  -43.750;  -18.000;    7.000
402.301;  -75.500; -519.000; -397.000
402.428;   31.350;  528.000;  383.000
402.556; -143.100;-1188.000; -913.000
402.683;  -23.150;  -20.000;   -1.000
402.811;  -35.325;  -37.000; -206.000
402.938;  -10.350;   20.000;   27.000
403.066;  207.650; -574.000; -558.000
403.193;  389.475;  299.000;  239.000
403.321;  287.500; -396.000; -574.000
403.448;  346.050;   83.000;   27.000
403.575;  175.000;  -90.000;  -46.000
403.703;  -99.225; -732.000; -557.000
403.830;  -79.700; -531.000; -496.000
403.957; -135.100;-1117.000;-1023.000
404.085;    3.075;  -61.000; -172.000
404.212;  106.575;  -50.000;   63.000
404.339;  254.950; -566.000; -306.000
404.467; 5602.950; -612.000; -524.000
404.594; 4002.000; -287.000; -227.000
404.721; 1017.175; -869.000; -764.000
404.848;   89.575; -113.000; -202.000
404.976;  -91.575; -856.000; -783.000
405.103;   -2.975;  -14.000;  -82.000
405.230;   -9.150;  190.000;  226.000
405.357;   17.050;  117.000;   44.000
405.484;  251.650;  -49.000;    5.000
405.612;   53.675; -548.000; -563.000
405.739;  -61.050; -488.000; -243.000
405.866;   82.500;  669.000;  385.000
405.993;  -42.450; -398.000; -102.000
406.120; -137.200; -801.000; -887.000
406.247;  -60.850; -323.000; -342.000
406.374;  461.525;  540.000;  629.000
406.501;  140.325; -632.000; -702.000
406.628;  -78.300; -621.000; -589.000
406.755; -104.200; -803.000; -620.000
406.882;  -52.950; -228.000; -277.000
407.009;  -98.775; -719.000; -628.000
407.136;   46.400; -480.000; -401.000
407.263;  154.475; -939.000; -829.000
407.390;  -65.475; -692.000; -614.000
407.517; -168.325;-1139.000;-1187.000
407.644;  -53.575; -332.000; -256.000
407.771;  -74.175; -249.000; -287.000
407.898;   -5.900;  168.000;  328.000
408.025;  -68.325; -421.000; -313.000
408.151;  -10.225;   82.000;  153.000
408.278;  -67.025; -267.000; -216.000
408.405; -102.325; -931.000; -899.000
408.532;  -65.550; -549.000; -542.000
408.659; -120.900; -677.000; -648.000
408.785; -197.875;-1298.000;-1170.000
408.912;  -65.750; -412.000; -296.000
409.039; -119.250; -610.000; -686.000
409.166; -105.375; -591.000; -555.000
409.292; -119.375; -571.000; -534.000
409.419; -110.850; -665.000; -649.000
409.546;  -74.475; -431.000; -192.000
409.672; -112.575; -713.000; -545.000
409.799;  -29.075;  -36.000;   34.000
409.926;  -40.200; -180.000; -179.000
410.052; -175.325;-1127.000;-1091.000
410.179;  -42.550; -368.000; -392.000
410.305;  -85.425; -375.000; -493.000
410.432;  -52.200; -220.000; -333.000
410.558;  -89.600; -305.000; -380.000
410.685; -113.725; -688.000; -431.000
410.812;  -99.500; -409.000; -588.000
410.938; -135.650; -964.000; -808.000
411.065;  -97.375; -671.000; -645.000
411.191;  -13.600; -189.000; -174.000
411.317; -116.225; -823.000; -742.000
411.444;  -50.975; -317.000; -246.000
411.570;  -70.250; -339.000; -294.000
411.697; -148.500; -758.000; -752.000
411.823; -172.500; -989.000; -999.000
411.949;  -28.200;  -56.000;   17.000
412.076; -119.375; -539.000; -519.000
412.202; -123.400; -758.000; -757.000
412.329; -132.200; -798.000; -752.000
412.455; -119.950; -821.000; -657.000
412.581;  -16.475;  -15.000;  172.000
412.707;  -64.625; -540.000; -457.000
412.834;    4.350;  156.000;  219.000
412.960;  -90.025; -785.000; -784.000
413.086; -107.425; -743.000; -701.000
413.212;  144.925;  604.000;  578.000
413.339;  -58.350; -685.000; -701.000
413.465;    6.100; -364.000; -310.000
413.591;  -82.700; -757.000; -474.000
413.717;  -61.550; -358.000; -366.000
413.843; -140.600; -839.000; -861.000
413.969;  -70.350;  -47.000; -292.000
414.096;  -97.475; -679.000; -679.000
414.222;  -15.050;  -33.000;   85.000
414.348;  -31.700; -652.000; -385.000
414.474;  110.875;   38.000;  -52.000
414.600;  -20.625; -126.000; -144.000
414.726;  -13.650;  -96.000;  -55.000
414.852;  -72.225; -365.000; -342.000
414.978;   29.550;  104.000;  -18.000
415.104;   40.450;   38.000;   80.000
415.230;   25.375; -329.000; -330.000
415.356;   40.625; -409.000; -514.000
415.482;  211.975;   13.000;  -35.000
415.608;  260.850; -247.000; -323.000
415.734;  955.350;   67.000;   38.000
415.860;19704.950; -875.000; -767.000
415.986;15403.875; -685.000; -607.000
416.111; 1362.275; -798.000; -652.000
416.237;  273.275; -424.000; -571.000
416.363; 1075.825; -765.000; -733.000
416.489; 4251.450; -324.000; -251.000
416.615;  507.950; -707.000; -742.000
416.741;  -20.950; -677.000; -784.000
416.866;  -88.375; -673.000; -736.000
416.992; -123.800; -801.000; -818.000
417.118;  -10.100;  -41.000;  -80.000
417.244;  -68.800; -798.000; -531.000
417.369;  -87.425; -801.000; -612.000
417.495;  -14.500; -325.000; -254.000
417.621;  -82.800;-1015.000; -803.000
417.746;   -4.675; -579.000; -572.000
417.872;   38.850; -254.000; -144.000
417.998;   40.100; -515.000; -530.000
418.123;  982.725;-1073.000; -845.000
418.249; 5448.375; -512.000; -601.000
418.374;  840.075; -916.000; -824.000
418.500;  114.575; -383.000; -482.000
418.626;  119.525;   70.000;  -59.000
418.751;  125.025; -549.000; -448.000
418.877;  199.025; -637.000; -643.000
419.002; 1704.025; -688.000; -560.000
419.128;12578.650; -930.000; -721.000
419.253; 3357.625; -967.000; -837.000
419.379;  432.175; -391.000; -338.000
419.504;  378.225;  325.000;  415.000
419.629;  540.325; -393.000; -212.000
419.755; 3331.300; -317.000; -254.000
419.880;20979.600;  -98.000;   67.000
420.006;11346.425; -280.000; -221.000
420.131;30150.775; -662.000; -775.000
420.256; 4693.400; -315.000; -316.000
420.382;  606.950; -665.000; -687.000
420.507;   85.900; -649.000; -778.000
420.632;  134.950; -337.000; -339.000
420.758;  264.450; -251.000; -425.000
420.883;  -77.350; -876.000; -672.000
421.008;  -96.575; -775.000; -619.000
421.133;  -81.475; -509.000; -467.000
421.259;  -48.450; -325.000; -259.000
421.384; -112.250; -834.000; -693.000
421.509;  -40.000;-1052.000; -862.000
421.634; 1222.850; -936.000; -820.000
421.759;  594.600; -359.000; -327.000
421.885;  -56.825; -717.000; -656.000
422.010;  -77.350; -673.000; -542.000
422.135; -152.000; -695.000; -727.000
422.260;   26.625;  340.000;  280.000
422.385;  -51.650;   12.000;  -98.000
422.510;   17.275;  151.000;  -26.000
422.635;   18.275;  -87.000;  -43.000
422.760;  119.200; -766.000; -791.000
422.885;   76.925;  -57.000;  -80.000
423.010;  -27.650; -112.000; -169.000
423.135;  -88.875; -481.000; -561.000
423.260;  -18.575; -150.000; -245.000
423.385;   73.200;  476.000;  222.000
423.510;   31.250;   71.000;  -22.000
423.635;   85.700;  133.000;   45.000
423.760;   55.775;  383.000;  328.000
423.885;   53.125;  336.000;  391.000
424.010;    9.150;  -68.000;  -13.000
424.135;  -32.225;    5.000;  -33.000
424.259;  -95.075; -654.000; -457.000
424.384;  -64.900; -279.000; -272.000
424.509;  -35.650; -260.000; -186.000
424.634;  -90.975; -761.000; -623.000
424.759;  -23.950; -688.000; -544.000
424.883;  -13.200; -506.000; -527.000
425.008;  173.150; -502.000; -410.000
425.133; 1990.400; -679.000; -653.000
425.258; 1011.675; -517.000; -381.000
425.382; 1043.150; -867.000; -774.000
425.507; 2862.100; -487.000; -543.000
425.632;  483.350; -802.000; -663.000
425.756;  461.125; -256.000; -146.000
425.881; 6083.525; -831.000; -857.000
426.006;17767.050; -604.000; -355.000
426.130; 2975.650; -696.000; -508.000
426.255;  386.775; -611.000; -491.000
426.379;  170.925; -189.000; -577.000
426.504;  367.575;  660.000;  544.000
426.629; 3946.175; -519.000; -466.000
426.753; 2954.500;   64.000;  -46.000
426.878;  351.950; -252.000; -288.000
427.002;  149.350; -651.000; -668.000
427.127; 1519.600;  -35.000; -158.000
427.251;11337.275;  372.000;  401.000
427.375; 3538.550; -191.000; -173.000
427.500; 2455.300; -616.000; -610.000
427.624;  892.900; -234.000; -400.000
427.749;  102.125; -216.000; -225.000
427.873;  -44.850; -499.000; -412.000
427.997;  -53.125; -222.000; -230.000
428.122;   82.450;  795.000;  703.000
428.246;   60.450;  433.000;  434.000
428.371; -122.625; -869.000; -773.000
428.495; -114.425; -624.000; -646.000
428.619;  -39.375; -186.000; -117.000
428.743;   21.800;   65.000;  132.000
428.868;    1.775; -732.000; -643.000
428.992; 1460.950; -219.000; -326.000
429.116;  632.525; -329.000; -357.000
429.240;  309.675;  419.000;  426.000
429.365;  -12.450; -454.000; -574.000
429.489;  -32.525; -638.000; -647.000
429.613;   15.775; -236.000; -177.000
429.737;   31.425; -563.000; -432.000
429.861;  258.150; -247.000; -133.000
429.985; 5395.025; -425.000; -305.000
430.109; 6425.750; -770.000; -908.000
430.234;  772.450;   76.000;  -50.000
430.358;   75.575; -250.000; -160.000
430.482;  -70.925; -672.000; -564.000
430.606;  -65.450; -655.000; -375.000
430.730;   11.375; -437.000; -388.000
430.854;  144.175; -909.000; -835.000
430.978;  -71.500; -795.000; -764.000
431.102;  -83.600; -499.000; -422.000
431.226; -114.075; -874.000; -815.000
431.350;   22.075;  345.000;  422.000
431.474;  -83.725; -661.000; -373.000
431.597; -141.750;-1060.000; -848.000
431.721;  -91.625; -276.000; -267.000
431.845; -137.225; -704.000; -472.000
431.969;  -76.450; -304.000; -349.000
432.093;  -95.300; -395.000; -317.000
432.217;  -33.100;   32.000;   82.000
432.341; -100.150; -523.000; -518.000
432.464;    3.175;   96.000;   40.000
432.588;  216.525; -401.000; -329.000
432.712;  123.450;  -52.000;  -52.000
432.836;   49.625;  213.000;  263.000
432.959;  -28.550; -372.000; -311.000
433.083;   82.550;   11.000;    2.000
433.207;  360.125;  285.000;  930.000
433.330; 4856.200; -391.000; -200.000
433.454; 6416.600; -654.000; -638.000
433.578; 3661.800;  583.000;  278.000
433.701;  756.550; -623.000; -675.000
433.825;  147.625; -292.000; -299.000
433.949;  184.650;   28.000;  -72.000
434.072;   62.125; -410.000; -323.000
434.196;  -13.575; -309.000; -117.000
434.319; 3547.475;25482.000;25124.000
434.443;  690.550; -656.000; -603.000
434.566; 2707.750;  281.000;   62.000
434.690;  498.600; -637.000; -383.000
434.813;   43.375; -251.000; -173.000
434.937;  -65.825; -569.000; -696.000
435.060;  -44.000; -423.000; -332.000
435.184;  307.325; -492.000; -217.000
435.307;  188.975;  159.000;  102.000
435.431;   -3.200;  -40.000;   24.000
435.554;  -88.900; -399.000; -240.000
435.677;  -79.575; -350.000; -258.000
435.801;  -46.900;  -25.000;   49.000
435.924;  -15.500;    1.000;  -67.000
436.048; -109.300;-1019.000; -732.000
436.171;  -70.600; -240.000;  -66.000
436.294;  -27.025; -248.000; -229.000
436.417;   97.000; -963.000; -849.000
436.541;  -70.875; -814.000; -840.000
436.664;  -57.500; -242.000; -316.000
436.787;  -26.675;   13.000;  113.000
436.910; -109.350; -792.000; -422.000
437.034;   -1.075;  142.000;  143.000
437.157;   42.275;  -11.000;    0.000
437.280;  -51.875; -392.000; -292.000
437.403;  -85.825; -982.000; -869.000
437.526;  633.825; -903.000; -865.000
437.649; 2420.675; -505.000; -332.000
437.772;  419.650; -692.000; -540.000
437.896;  129.500;  700.000;  544.000
438.019;  -99.450; -758.000; -503.000
438.142;  -81.800; -596.000; -506.000
438.265;   -8.125; -639.000; -670.000
438.388;  607.500; -520.000; -410.000
438.511;  139.350; -597.000; -394.000
438.634;  -38.600; -247.000; -125.000
438.757; -141.725; -693.000; -619.000
438.880;  -27.350;  -34.000;  -57.000
439.003;  -73.675; -417.000; -437.000
439.126;  -80.050; -287.000; -167.000
439.248;  -70.075;  -98.000; -139.000
439.371;  -60.525;    9.000;  -53.000
439.494;   36.725;  510.000;  439.000
439.617;  -55.725;   65.000;  -88.000
439.740; -181.725; -968.000; -816.000
439.863; -154.450; -755.000; -595.000
439.986; -125.375; -476.000; -431.000
440.108;  -60.050; -161.000; -112.000
440.231; -158.000; -950.000; -836.000
440.354;  -44.800;  -64.000; -150.000
440.477;   32.525; -566.000; -542.000
440.599;   11.175; -200.000; -225.000
440.722; -115.825; -709.000; -586.000
440.845;   61.350;  751.000;  928.000
440.968; -117.025; -415.000; -311.000
441.090;  -73.250; -199.000;  -33.000
441.213; -164.200;-1021.000; -825.000
441.336;  -59.675; -159.000;   -5.000
441.458;  -74.275; -549.000; -396.000
441.581;  -78.100; -628.000; -629.000
441.703;  -74.225; -152.000;   13.000
441.826; -126.075; -557.000; -400.000
441.948;  -50.325;   56.000;   51.000
442.071;    8.550;  555.000;  424.000
442.193; -120.325; -531.000; -485.000
442.316;   -1.050;  152.000;   97.000
442.438;   29.600; -233.000;  -10.000
442.561;   77.125;  272.000;  262.000
442.683;  544.550; -809.000; -522.000
442.806; 1266.425;   -8.000;   74.000
442.928;   65.250; -859.000; -604.000
443.051;  -69.175; -577.000; -373.000
443.173;  -90.025; -341.000; -339.000
443.295;  -86.825; -263.000; -371.000
443.418;  -72.975; -321.000;  -29.000
443.540;   -5.325; -106.000;   -4.000
443.662; -120.550; -563.000; -465.000
443.785;  -24.375;  335.000;  199.000
443.907;  -94.500; -362.000; -208.000
444.029; -134.050; -767.000; -494.000
444.152; -144.925; -644.000; -554.000
444.274;  -47.750;  -18.000;  -24.000
444.396; -113.250; -461.000; -221.000
444.518; -136.000; -691.000; -454.000
444.640; -105.125; -268.000; -111.000
444.763;  -21.625;  388.000;  249.000
444.885; -109.700; -432.000; -392.000
445.007;  -43.025;   35.000;   86.000
445.129; -119.150; -610.000; -515.000
445.251; -111.550; -372.000; -439.000
445.373; -126.650; -537.000; -386.000
445.495;   -8.475;  242.000;  350.000
445.617;   46.825;  853.000;  753.000
445.739;  -70.825; -215.000;  -97.000
445.861;  -43.300; -245.000; -112.000
445.984;  -42.675; -267.000; -101.000
446.105;  203.900; -418.000; -251.000
446.227;  656.800; -176.000;  -19.000
446.349;   25.275; -358.000; -249.000
446.471;  -98.900; -615.000; -448.000
446.593;  -67.425; -316.000;   19.000
446.715;    1.450;  -67.000;   41.000
446.837;   51.250;  697.000;  832.000
446.959;  -89.400; -457.000; -478.000
447.081; -132.650; -628.000; -518.000
447.203;   46.675;  862.000;  834.000
447.325; -102.775; -270.000;   42.000
447.446;   -8.175;  286.000;  530.000
447.568; -153.150; -921.000; -803.000
447.690;  -82.800; -236.000; -245.000
447.812; -154.475; -798.000; -519.000
447.933;  -31.950;  155.000;  127.000
448.055;  -67.775; -306.000; -261.000
448.177;  135.925;   31.000;   79.000
448.299;  132.525; -935.000; -727.000
448.420;   33.925;  -25.000;  159.000
448.542;  -51.425;   -3.000;   33.000
448.664;  -36.400;  109.000;  322.000
448.785;  -52.425;  265.000;   83.000
448.907;  -78.450; -614.000; -353.000
449.028;  -25.700; -771.000; -471.000
449.150;   59.350;  492.000;  589.000
449.272; -170.425;-1044.000; -913.000
449.393;   25.975;  612.000;  694.000
449.515; -134.450; -634.000; -581.000
449.636;  -69.775; -264.000; -155.000
449.758;   63.300;  763.000;  622.000
449.879;  -90.125; -498.000; -396.000
450.001;  -80.775; -149.000;  -49.000
450.122;  -26.575;  -95.000;  162.000
450.244;  -25.725;   37.000;  364.000
450.365;  -88.975; -495.000; -301.000
450.486;  -36.950;   80.000;  268.000
450.608;    5.650;  393.000;  326.000
450.729;   55.475;  578.000;  645.000
450.850;    6.500; -574.000; -466.000
450.972;  704.375; -552.000; -389.000
451.093; 4789.000;  190.000;  588.000
451.214; 2283.600; -516.000; -337.000
451.336;  400.275;  773.000;  579.000
451.457;   58.400;  264.000;  393.000
451.578;  -34.825; -118.000;  -74.000
451.699; -115.850; -546.000; -540.000
451.821;  -67.175; -284.000;  -50.000
451.942;    2.975;  278.000;  285.000
452.063;   20.225;  228.000;  419.000
452.184;  512.150;  -54.000;  -49.000
452.305; 1130.700;  103.000;  170.000
452.427;  159.425; -549.000; -301.000
452.548;  -15.475;   23.000;   79.000
452.669;  -43.550; -257.000;  -89.000
452.790;  -42.875;    3.000;  -18.000
452.911;  -14.650;  195.000;  259.000
453.032;  -68.650; -289.000;  -60.000
453.153;  -47.275;  -29.000;   81.000
453.274;   63.025;  737.000;  868.000
453.395;  -48.950;  -51.000;  175.000
453.516;  124.800; 1317.000; 1388.000
453.637;  -69.675; -205.000; -150.000
453.758;  -58.975;   15.000;   69.000
453.879; -109.550; -462.000; -250.000
454.000;   59.550; 1086.000;  948.000
454.121; -129.150; -554.000; -326.000
454.242; -112.975; -599.000; -383.000
454.362;  -59.675;  -99.000;  114.000
454.483;  -19.275; -309.000; -229.000
454.604;   63.050;  512.000;  580.000
454.725; -119.375; -627.000; -555.000
454.846; -118.425; -474.000; -406.000
454.967;  -27.475;  230.000;  539.000
455.087;  -32.150;  179.000;  153.000
455.208;    8.825;  554.000;  856.000
455.329;  -67.050;  -22.000;   82.000
455.450;   48.700;  473.000;  633.000
455.570;  -76.925; -234.000; -211.000
455.691;  -47.250;  201.000;  407.000
455.812; -111.500; -270.000;  -92.000
455.932;  -70.375;  107.000;  -97.000
456.053;  -85.050;   36.000;   24.000
456.173; -118.275; -433.000; -355.000
456.294; -131.550; -476.000; -303.000
456.415;  -59.675;  -73.000;   70.000
456.535;  -46.150;  297.000;  273.000
456.656;  -54.825;  132.000;  240.000
456.776;  -88.375;    3.000;  298.000
456.897;   -9.175;  308.000;  513.000
457.017;  -65.325; -153.000;   -3.000
457.138; -109.925; -402.000; -249.000
457.258;  -30.625;  263.000;  224.000
457.379;   -6.900;  509.000;  521.000
457.499;  -19.200;  443.000;  432.000
457.620; -122.275; -407.000; -231.000
457.740;  -88.175; -132.000;  -11.000
457.860;  -53.800;   87.000;   44.000
457.981;  -58.025;  132.000;  124.000
458.101;  -76.900;  -89.000;   40.000
458.221;  -13.300;  336.000;  402.000
458.342;  -52.600;   -4.000;  -37.000
458.462;   22.400;  617.000;  352.000
458.582;  -36.500; -302.000; -294.000
458.703;   15.400;  303.000;  154.000
458.823;  -31.875;   22.000;  163.000
458.943;   29.525;  341.000;  467.000
459.063;  -13.325; 1124.000;  192.000
459.183;  -30.575;  328.000;  313.000
459.304;    0.725;  315.000;  517.000
459.424;  -55.350; -246.000;  -89.000
459.544;  313.725;  388.000;  764.000
459.664;  827.650;  499.000;  506.000
459.784;  336.300; 1004.000; 1175.000
459.904;   60.200;  867.000;  744.000
460.024;   60.475;  867.000;  684.000
460.144;    6.775;  449.000;  554.000
460.264;  -19.250;  515.000;  327.000
460.385;  -99.725; -145.000; -119.000
460.505;   27.100;  905.000;  858.000
460.625;  -93.900;  -17.000;  -68.000
460.745;  -29.325;  396.000;  541.000
460.864;  -56.000;  153.000;  469.000
460.984;   12.875;  499.000;  573.000
461.104;  134.500; 1656.000; 1775.000
461.224;   14.300;  657.000;  650.000
461.344;  -31.100;  431.000;  360.000
461.464;  -49.025;  258.000;  513.000
461.584;  -15.475;  283.000;  466.000
461.704;  -49.675;   58.000;  108.000
461.824;  -51.450;  238.000;  259.000
461.943;  -38.750;  191.000;  130.000
462.063;  -80.975;    2.000;  324.000
462.183;   28.650;  639.000;  717.000
462.303;   97.425; 1678.000; 1230.000
462.422;   12.850;  781.000;  840.000
462.542;  -35.675;  271.000;  391.000
462.662;   28.925;  353.000;  380.000
462.782;  231.025;  833.000;  572.000
462.901;  496.750;  545.000;  717.000
463.021;  288.700; 1702.000; 1638.000
463.141;   -9.475;  337.000;  770.000
463.260;  -18.700;  614.000;  474.000
463.380;    8.750;  902.000;  884.000
463.499;  -46.350;  342.000;  332.000
463.619;  -34.125;  581.000;  559.000
463.738;   99.625; 1644.000;  903.000
463.858;   23.550;  657.000;  811.000
463.978;  -51.875;  542.000;  396.000
464.097;   36.775;  921.000; 1114.000
464.217;  111.925; 1196.000; 1143.000
464.336;  112.225; 1068.000; 1130.000
464.455;  -33.475;  328.000;  659.000
464.575;   37.775;  597.000;  602.000
464.694;  163.700; 1204.000; 1179.000
464.814;  128.300; 1190.000; 1138.000
464.933;   66.325; 1095.000; 1027.000
465.052;   86.625; 1412.000; 1054.000
465.172;   81.175;  922.000;  799.000
465.291;  142.000; 1376.000; 1320.000
465.410;    8.175;  462.000;  735.000
465.530;   74.575; 1355.000; 1310.000
465.649;   53.525; 1209.000; 1273.000
465.768;  138.700; 1673.000; 1508.000
465.888;   32.100;  941.000; 1174.000
466.007;   99.000; 1335.000; 1440.000
466.126;   -4.175;  721.000;  641.000
466.245;   23.925; 1176.000; 1187.000
466.364;   20.725;  950.000; 1060.000
466.484;   63.350; 1024.000; 1213.000
466.603;   45.450; 1101.000; 1222.000
466.722;  116.750; 1490.000; 1769.000
466.841;   79.175; 1151.000; 1401.000
466.960;   41.000; 1069.000;  972.000
467.079;  136.700; 1971.000; 1786.000
467.198;   51.000; 1238.000; 1181.000
467.317;   86.725; 1768.000; 1162.000
467.436;   71.225; 1709.000; 1261.000
467.555;  126.100; 1796.000; 1746.000
467.674;   73.325; 1227.000; 1329.000
467.793;   36.375; 1376.000; 1374.000
467.912;   81.775; 1658.000; 1539.000
468.031;  126.550; 2038.000; 1930.000
468.150;  128.100; 1842.000; 1837.000
468.269;  198.625; 2313.000; 2090.000
468.388;  186.075; 2168.000; 2339.000
468.507;  234.375; 2884.000; 2903.000
468.626;  269.075; 2555.000; 2541.000
468.744;  137.825; 2018.000; 2174.000
468.863;  180.725; 2312.000; 2523.000
468.982;   97.975; 1503.000; 1555.000
469.101;  216.975; 2788.000; 2692.000
469.220;  158.025; 2333.000; 2176.000
469.338;  231.775; 2935.000; 3051.000
469.457;  194.075; 2719.000; 2545.000
469.576;  315.300; 3953.000; 3784.000
469.695;  243.750; 2877.000; 3066.000
469.813;  418.025; 4148.000; 4192.000
469.932;  404.975; 4255.000; 4485.000
470.051;  419.725; 4075.000; 4161.000
470.169;  839.550; 4470.000; 4338.000
470.288; 1478.250; 4700.000; 4809.000
470.406;  906.150; 5059.000; 5194.000
470.525;  621.875; 6101.000; 5787.000
470.644;  651.325; 6847.000; 6794.000
470.762;  816.225; 8397.000; 7873.000
470.881;  896.400; 8651.000; 8464.000
470.999; 1040.875; 9685.000; 9151.000
471.118; 1080.575;11174.000;10711.000

