
Integration time [ms]: 100.000
Averaging Nr. [scans]: 40
Smoothing Nr. [pixels]: 0
Data measured with spectrometer [name]: 2101012U2
Wave   ;Sample   ;Dark     ;Reference
[nm]   ;[counts] ;[counts] ;[counts] 

197.733;   67.600;  516.000;  404.000
197.879;  -72.500; -610.000; -634.000
198.025;  -43.375; -475.000; -420.000
198.171;  -71.475; -602.000; -612.000
198.317;  -49.700; -401.000; -316.000
198.463;  -64.225; -655.000; -404.000
198.609;   28.000;  181.000; -137.000
198.755;  -74.450; -644.000; -410.000
198.901;  -72.325; -505.000; -424.000
199.047;  -65.825; -615.000; -488.000
199.193;  -40.875; -230.000; -468.000
199.339;  -32.425; -222.000; -369.000
199.485;   32.225;  330.000;  271.000
199.631;   18.200;  227.000;  310.000
199.777;  -57.175; -466.000; -398.000
199.923;  -72.125; -610.000; -424.000
200.069;  -11.175; -141.000;  -58.000
200.215;   55.875;  128.000;  453.000
200.361;   40.450;  243.000;  477.000
200.507;  -54.075; -600.000; -373.000
200.653;  -30.950; -371.000; -194.000
200.798;  -39.800; -215.000; -125.000
200.944;  -14.750; -146.000;  -41.000
201.090;   41.125;   61.000;  222.000
201.236;  -13.600; -116.000; -158.000
201.382;  130.125;  874.000;  903.000
201.528;  -14.450;  -58.000;  -48.000
201.674;  -33.850; -386.000; -293.000
201.819;  -70.725; -540.000; -439.000
201.965;  -92.300; -699.000; -447.000
202.111;  -18.100; -273.000; -226.000
202.257;  -40.025; -250.000; -238.000
202.402;    1.925;   13.000;  -36.000
202.548;  -32.650; -169.000; -116.000
202.694;   91.400;  410.000; -183.000
202.840;  -82.375; -603.000; -531.000
202.985;  -83.650; -681.000; -639.000
203.131; -101.450; -832.000; -666.000
203.277;  -31.275; -199.000; -262.000
203.423;  -54.950; -434.000; -520.000
203.568;  -47.825; -462.000; -237.000
203.714;  -69.050; -535.000; -542.000
203.860;  -84.325; -682.000; -641.000
204.005;   17.650;  112.000;  167.000
204.151;   69.525;  561.000;  556.000
204.296;  -61.125; -354.000; -221.000
204.442;  -80.300; -600.000; -547.000
204.588;  -89.675; -592.000; -579.000
204.733;   12.125;  178.000;  168.000
204.879; -125.550;-1018.000; -822.000
205.025;   14.400;  -99.000;  126.000
205.170;    5.500;  -17.000;   94.000
205.316;   80.450;  438.000;  661.000
205.461;  -83.650; -698.000; -554.000
205.607;   77.175;  609.000;  665.000
205.752;  -75.700; -626.000; -551.000
205.898;  -42.775; -501.000; -391.000
206.043;  -59.850; -578.000; -506.000
206.189;  -45.550; -243.000; -285.000
206.334;   69.400;  554.000;  606.000
206.480;   73.300;  409.000;  239.000
206.625;  -80.750; -529.000; -552.000
206.771;  -44.075; -451.000; -373.000
206.916;  -31.375; -210.000; -537.000
207.062;  -63.775; -545.000; -591.000
207.207;  -53.425; -546.000; -443.000
207.353;   44.525;  185.000;  460.000
207.498;    8.100;  196.000;   85.000
207.643;  -53.350; -501.000; -370.000
207.789; -120.850;-1069.000; -910.000
207.934;  -87.750; -665.000; -713.000
208.080;  -30.200; -154.000;   66.000
208.225;  -10.925;  -22.000;  -57.000
208.370;  -80.975; -727.000; -619.000
208.516;  -71.900; -741.000; -487.000
208.661;  -33.000; -127.000;  -69.000
208.806;  -38.525; -165.000; -171.000
208.952; -125.250;-1044.000; -731.000
209.097;   68.325;  378.000;  349.000
209.242;  -51.025; -307.000; -382.000
209.387;   55.200;  392.000;  350.000
209.533;  -46.025; -321.000; -350.000
209.678;   75.450;  472.000;  543.000
209.823;  -60.350; -408.000; -310.000
209.969; -105.375; -860.000; -757.000
210.114;  -95.525; -907.000; -719.000
210.259; -106.125; -939.000; -889.000
210.404;    3.950; -171.000;  103.000
210.549;   18.250;  108.000;    3.000
210.695;   -6.975;   -3.000;  -95.000
210.840;   34.275;   94.000;   67.000
210.985;  -57.625; -484.000; -303.000
211.130;   71.950;  268.000;  406.000
211.275;   23.000;  207.000;  199.000
211.420;  -46.625; -300.000; -289.000
211.566;  -65.125; -536.000; -489.000
211.711;   31.250;  218.000;  157.000
211.856;  -62.375; -545.000; -519.000
212.001;   13.100;  151.000;   44.000
212.146;   29.200;  153.000;   49.000
212.291;  -41.825; -210.000; -186.000
212.436;  -27.550; -280.000;   -6.000
212.581;  -89.550; -685.000; -653.000
212.726;  -75.500; -487.000; -538.000
212.871;  -61.625; -552.000; -217.000
213.016; -149.350;-1172.000;-1029.000
213.161;   64.900;  406.000;  291.000
213.306;  -71.075; -435.000; -577.000
213.451;  -93.775; -778.000; -689.000
213.596;  -41.625; -455.000; -347.000
213.741;  -53.625; -448.000; -538.000
213.886;  -68.900; -498.000; -517.000
214.031;  -16.525; -294.000; -124.000
214.176;  -58.525; -408.000; -341.000
214.321;  -19.825; -296.000; -157.000
214.466;  -17.475; -163.000;  -43.000
214.611;  -10.200;  -61.000;  -10.000
214.756; -120.425; -948.000; -858.000
214.901;  -17.950; -388.000; -226.000
215.046; -123.050; -797.000; -825.000
215.191;   12.225;  128.000;   35.000
215.336;  -16.000; -157.000;  -19.000
215.480;  -75.550; -684.000; -505.000
215.625;  -12.750; -175.000;  -19.000
215.770;  -88.650; -757.000; -662.000
215.915;   -4.325;   -5.000;  -97.000
216.060;  -16.425; -113.000;  -21.000
216.205; -105.100; -731.000; -779.000
216.349;  -67.750; -470.000; -533.000
216.494; -133.900; -939.000; -867.000
216.639; -118.775; -823.000; -888.000
216.784;  -93.275; -577.000; -525.000
216.929;   36.400;  392.000;  281.000
217.073;   -6.675; -244.000;  -31.000
217.218;   14.300;   78.000;  -47.000
217.363;  -84.350; -656.000; -618.000
217.507;  -75.075; -623.000; -588.000
217.652; -123.150; -845.000; -874.000
217.797;  -89.275; -708.000; -659.000
217.942; -115.750; -856.000; -720.000
218.086;   70.225;  608.000;  539.000
218.231;  -23.050; -174.000;  -26.000
218.376;  -40.500; -337.000; -229.000
218.520;    2.150;  -41.000;   96.000
218.665;  -28.500; -338.000; -204.000
218.810;  -45.475; -275.000; -233.000
218.954;    2.400;  201.000;   35.000
219.099; -115.825; -713.000; -963.000
219.243;  -70.675; -589.000; -554.000
219.388;  -30.200; -264.000; -136.000
219.532;  -11.475; -116.000; -116.000
219.677;  -75.625; -564.000; -521.000
219.822;   10.725;   33.000;   89.000
219.966;   17.075;   17.000;  -99.000
220.111;  -39.950; -328.000;  -40.000
220.255;  -94.550; -797.000; -750.000
220.400;  -13.875; -180.000; -146.000
220.544;  -77.550; -516.000; -450.000
220.689;  -64.700; -422.000; -451.000
220.833;  -21.450; -123.000;  -58.000
220.978;  -47.525; -393.000; -563.000
221.122;   25.775;  319.000;  307.000
221.267; -117.825; -906.000; -837.000
221.411;  -54.825; -478.000; -394.000
221.555;   -7.200; -104.000;  -23.000
221.700;  -37.675; -329.000; -222.000
221.844;   29.600;  255.000;  272.000
221.989;  -40.675; -328.000; -311.000
222.133;  -45.750; -289.000; -307.000
222.277;   -8.175;    5.000;   78.000
222.422;   19.000;  227.000;  113.000
222.566;  -41.950; -381.000; -214.000
222.711;  -58.050; -414.000; -479.000
222.855;  -74.850; -643.000; -586.000
222.999;  -74.375; -642.000; -717.000
223.144;  -34.600; -195.000; -194.000
223.288;   68.625;  423.000;  251.000
223.432;   46.175;  184.000;  230.000
223.576;    9.250;  152.000;  -21.000
223.721;   42.200;  364.000;  273.000
223.865;  -62.650; -472.000; -475.000
224.009;  261.975; 1673.000; 1631.000
224.153;  -87.725; -660.000; -671.000
224.298;  -82.075; -531.000; -489.000
224.442;  -13.825;  -74.000;  -33.000
224.586;  -13.550; -169.000; -106.000
224.730; -109.025; -858.000; -670.000
224.875;  -96.400; -739.000; -688.000
225.019;   12.225;  102.000;  188.000
225.163;   57.675;  208.000;  341.000
225.307;   22.025;   97.000;  -91.000
225.451;   55.125;  360.000;  481.000
225.595;   13.475;  264.000;  176.000
225.739;   -8.800; -170.000;  -94.000
225.884;    6.125;   86.000;    5.000
226.028;  -93.450; -760.000; -626.000
226.172;  -26.225; -260.000; -273.000
226.316; -120.750; -941.000; -902.000
226.460;  -63.125; -645.000; -493.000
226.604;  -37.750; -406.000; -400.000
226.748;  -94.800; -836.000; -733.000
226.892;  -38.175; -227.000; -181.000
227.036;  -44.425; -537.000; -447.000
227.180;  -57.575; -551.000; -375.000
227.324;  -71.375; -561.000; -580.000
227.468; -104.925; -819.000; -717.000
227.612;    8.600;  242.000;  -28.000
227.756;  -98.925; -845.000; -698.000
227.900;   54.650;  342.000;  441.000
228.044;  -64.175; -509.000; -290.000
228.188;   50.675;  448.000;  568.000
228.332;  -86.400; -546.000; -472.000
228.476;  -21.975; -223.000; -149.000
228.620;  -38.900; -210.000; -150.000
228.764;   64.600;  431.000;  349.000
228.908;  -29.425; -155.000;   30.000
229.052;  -58.050; -615.000; -528.000
229.195;  -26.625; -172.000;   13.000
229.339;  -32.025; -235.000; -305.000
229.483;  -13.375;    5.000; -162.000
229.627;   -5.525; -156.000;  139.000
229.771;  -39.225; -218.000; -294.000
229.915;    7.400;  230.000;   79.000
230.059;  -88.200; -648.000; -663.000
230.202;  -35.075; -370.000; -317.000
230.346;  -14.075; -107.000;  107.000
230.490;  -64.400; -489.000; -521.000
230.634; -104.200; -736.000; -553.000
230.777;   66.425;  478.000;  509.000
230.921;  -44.500; -450.000; -359.000
231.065;  -56.375; -246.000; -286.000
231.209;   25.825;  261.000;  265.000
231.352;   21.050;   54.000;   40.000
231.496;   22.700;  568.000;  188.000
231.640;  -76.400; -693.000; -621.000
231.783;   63.425;  546.000;  525.000
231.927;  -41.250; -294.000; -365.000
232.071; -125.100; -962.000; -736.000
232.214; -124.050; -980.000; -764.000
232.358; -101.725; -683.000; -599.000
232.502;   12.850;  -19.000;    7.000
232.645; -127.775;-1090.000; -927.000
232.789;  -21.300; -257.000; -218.000
232.933;  -43.400; -407.000; -224.000
233.076; -121.225;-1038.000; -897.000
233.220; -108.125; -752.000; -777.000
233.363;  -69.100; -669.000; -477.000
233.507;   49.825;  371.000;  129.000
233.650;  -89.650; -764.000; -834.000
233.794;   46.325;  438.000;  461.000
233.938;  -76.350; -530.000; -362.000
234.081;  -23.300;  -93.000;   31.000
234.225;  -67.125; -631.000; -539.000
234.368; -119.550; -773.000; -723.000
234.512;  -36.550; -385.000; -299.000
234.655;  -91.875; -582.000; -555.000
234.798;  -61.725; -493.000; -466.000
234.942; -132.975; -884.000;-1002.000
235.085;  -84.450; -651.000; -443.000
235.229;  -73.650; -405.000; -410.000
235.372;  -50.075; -247.000; -191.000
235.516;  -66.875; -397.000; -321.000
235.659;   19.400;   92.000;  121.000
235.802;  -14.625;  -38.000;  -22.000
235.946;   27.025;  335.000;  215.000
236.089;   14.950;  126.000;  250.000
236.233;   57.200;  275.000;  298.000
236.376;  -41.575; -235.000; -378.000
236.519;  -37.850; -297.000; -319.000
236.663;  -26.800; -215.000; -117.000
236.806; -139.325;-1029.000; -999.000
236.949;   61.925;  543.000;  431.000
237.092;   51.225;  412.000;  391.000
237.236;  -82.200; -589.000; -502.000
237.379;   67.450;  352.000;  428.000
237.522; -117.750; -879.000; -768.000
237.666;  -26.450; -271.000;   18.000
237.809; -132.000; -851.000; -823.000
237.952;   30.075;  469.000;  271.000
238.095;  -72.225; -447.000; -442.000
238.238;   78.375;  688.000;  700.000
238.382;    1.325;  166.000;  103.000
238.525;  -81.900; -598.000; -511.000
238.668; -132.875;-1060.000; -985.000
238.811;  -94.650; -638.000; -643.000
238.954;  -66.250; -483.000; -334.000
239.097;   84.300;  617.000;  664.000
239.241;   12.800;  394.000;  326.000
239.384;  -36.375; -254.000; -214.000
239.527;  -61.450; -424.000; -224.000
239.670; -139.600; -994.000;-1091.000
239.813;  -93.000; -696.000; -658.000
239.956;   60.600;  579.000;  473.000
240.099;  -99.375; -778.000; -725.000
240.242;   58.925;  428.000;  432.000
240.385;   43.725;  466.000;  450.000
240.528;  -69.875; -706.000; -473.000
240.671;   -1.525;  189.000;  134.000
240.814;  -46.550; -441.000; -158.000
240.957;  -94.200; -767.000; -578.000
241.100;  -99.425; -779.000; -755.000
241.243; -142.925;-1234.000; -893.000
241.386;  -65.625; -508.000; -379.000
241.529;  -76.450; -735.000; -547.000
241.672;  -69.575; -566.000; -495.000
241.815; -112.050; -832.000; -808.000
241.958;  -34.375; -125.000; -182.000
242.101;  -72.000; -545.000; -390.000
242.244;  -34.275; -270.000; -325.000
242.387;  -44.750; -304.000; -246.000
242.530;   38.325;  470.000;  134.000
242.673;  -36.950; -381.000; -309.000
242.815; -121.300; -925.000; -899.000
242.958;  -76.325; -482.000; -381.000
243.101;   26.000;  132.000;  187.000
243.244;  -71.775; -564.000; -521.000
243.387;  -46.175; -313.000; -316.000
243.530;  -98.425; -657.000; -674.000
243.672;    5.500;   43.000;  -92.000
243.815;  -57.200; -355.000; -283.000
243.958;   -5.175;   98.000;  -26.000
244.101;   -6.075;   59.000;  -16.000
244.243;  -21.300;  -47.000;  101.000
244.386; -114.625; -761.000; -630.000
244.529;  -29.025; -132.000; -139.000
244.672; -150.025;-1154.000; -951.000
244.814; -107.000; -621.000; -794.000
244.957;  -34.525; -380.000; -304.000
245.100;  -72.525; -489.000; -489.000
245.242;  -60.825; -387.000; -374.000
245.385;  -16.275;  -59.000;  -39.000
245.528; -115.675; -871.000; -705.000
245.670;   70.925;  612.000;  634.000
245.813;  -81.175; -599.000; -547.000
245.956;  -34.350; -324.000; -275.000
246.098;  -61.650; -508.000; -650.000
246.241;    5.050;  194.000;   48.000
246.383;  -19.725; -119.000;  -73.000
246.526;  -71.700; -454.000; -525.000
246.669; -114.325; -889.000; -780.000
246.811;   23.675;  172.000;   -1.000
246.954;  -62.725; -512.000; -426.000
247.096;  -24.550;  -84.000;   -6.000
247.239;  -67.375; -482.000; -445.000
247.381;  -77.450; -647.000; -488.000
247.524;   77.800;  645.000;  679.000
247.666;   -3.150;   58.000;   11.000
247.809; -117.775; -887.000; -691.000
247.951;  -22.175;  -75.000;  138.000
248.094;   35.350;  432.000;  308.000
248.236; -156.900;-1262.000;-1238.000
248.378;   13.075; -356.000;  -81.000
248.521;  -20.600; -334.000; -337.000
248.663;  -38.650; -236.000; -267.000
248.806;  -20.450; -300.000; -266.000
248.948;  -90.300; -886.000; -763.000
249.090;  -32.675; -428.000; -398.000
249.233;  -47.075; -344.000; -381.000
249.375;  -73.425; -474.000; -451.000
249.518;  -13.375;  -83.000; -133.000
249.660;   -3.600; -103.000;    3.000
249.802; -150.225;-1303.000;-1189.000
249.945;  -77.050; -612.000; -540.000
250.087; -107.925; -834.000; -768.000
250.229;  -50.175; -362.000; -480.000
250.371;  -79.600; -494.000; -439.000
250.514;  -44.225; -310.000; -244.000
250.656;  -32.350;   69.000;  102.000
250.798; -118.925; -849.000; -800.000
250.940;  -73.825; -322.000; -322.000
251.083;  -23.125; -335.000; -111.000
251.225;   70.950;  338.000;  310.000
251.367;  -42.075; -274.000; -373.000
251.509;  -36.250; -265.000; -210.000
251.651;  -83.950; -731.000; -671.000
251.794;   52.350;  538.000;  632.000
251.936; -110.975; -821.000; -747.000
252.078;  -67.800; -540.000; -461.000
252.220;  -63.025; -645.000; -477.000
252.362;   85.025;  344.000;  462.000
252.504;  -61.475; -677.000; -584.000
252.646; -119.650; -875.000; -722.000
252.788;   -5.825;   14.000; -128.000
252.931;  -29.200; -257.000; -253.000
253.073;  -49.625; -376.000; -317.000
253.215;   -9.725;  141.000;  122.000
253.357;  -13.600;   82.000; -153.000
253.499;  -38.650; -374.000; -234.000
253.641;  -88.700; -749.000; -594.000
253.783;  -85.175; -609.000; -527.000
253.925;  -83.075; -586.000; -591.000
254.067; -109.950; -744.000; -667.000
254.209;  -30.425; -391.000; -259.000
254.351; -123.425; -865.000; -883.000
254.493;  -72.100; -441.000; -417.000
254.635; -129.675; -936.000; -818.000
254.777; -100.150; -752.000; -687.000
254.918;  -58.775; -512.000; -430.000
255.060;  -54.425; -551.000; -395.000
255.202;  -50.350; -473.000; -261.000
255.344;  -82.225; -658.000; -455.000
255.486;  -76.850; -471.000; -406.000
255.628; -112.625; -780.000; -781.000
255.770;  -98.175; -676.000; -536.000
255.912;  -54.250; -559.000; -468.000
256.053;  -98.325; -730.000; -508.000
256.195;  143.375; 1008.000;  903.000
256.337;  -98.600; -861.000; -595.000
256.479;   53.800;  532.000;  416.000
256.621;  -47.625; -394.000; -212.000
256.762; -106.975; -789.000; -742.000
256.904;   65.775;  485.000;  487.000
257.046;  -54.425; -381.000; -271.000
257.188;  -47.100; -351.000; -264.000
257.329;  -68.850; -525.000; -464.000
257.471; -111.100; -939.000; -807.000
257.613;  -65.300; -584.000; -498.000
257.755; -140.150;-1073.000; -982.000
257.896;   27.975;  286.000;  392.000
258.038;  -72.175; -403.000; -352.000
258.180;  -48.300; -354.000; -279.000
258.321;  -77.950; -581.000; -457.000
258.463;  -13.900;  -71.000;  133.000
258.605;  -79.125; -562.000; -570.000
258.746; -108.425; -886.000; -772.000
258.888; -155.200;-1026.000;-1020.000
259.029;    9.950;  121.000;   -8.000
259.171;  -88.800; -614.000; -550.000
259.313;  -11.950;  -49.000;  -47.000
259.454;  -77.150; -536.000; -414.000
259.596;  -64.275; -483.000; -390.000
259.737;  -74.600; -590.000; -474.000
259.879;   36.375;  217.000;  311.000
260.020;   92.425;  901.000;  636.000
260.162;  -28.400; -146.000; -253.000
260.303; -104.575; -768.000; -687.000
260.445;  -90.725; -609.000; -613.000
260.586;   21.825;  392.000;  157.000
260.728;  -42.050; -360.000; -248.000
260.869; -128.850; -350.000; -343.000
261.011;   84.525;  706.000;  537.000
261.152;  -71.575; -479.000; -319.000
261.293;  -74.250; -576.000; -595.000
261.435;  -36.825; -219.000; -184.000
261.576;  -54.875; -455.000; -325.000
261.718;   55.525;  420.000;  470.000
261.859; -126.525; -940.000; -949.000
262.000; -128.750; -951.000;-1016.000
262.142;  -28.175;  -52.000;  -60.000
262.283; -110.575; -808.000; -691.000
262.424;  -85.950; -666.000; -625.000
262.566; -144.000;-1161.000; -983.000
262.707; -120.025; -840.000; -830.000
262.848; -124.400; -769.000; -726.000
262.990;  -61.725; -362.000; -345.000
263.131;   74.850;  650.000;  681.000
263.272;  -16.250;  -61.000;  -41.000
263.413; -100.850; -589.000; -561.000
263.555;  -73.500; -669.000; -143.000
263.696;  -93.475; -550.000; -641.000
263.837;  -51.625; -449.000; -551.000
263.978;   -2.125;   -5.000;  -77.000
264.119;  -49.100; -283.000; -264.000
264.261; -109.175; -847.000; -630.000
264.402;   -4.050;   33.000;   40.000
264.543;  -73.000; -509.000; -524.000
264.684;  -13.400;   61.000;  -50.000
264.825;  -78.475; -816.000; -538.000
264.966;  -13.500;  -84.000;  -67.000
265.107; -107.925; -646.000; -670.000
265.248; -124.950; -825.000; -812.000
265.390;    1.100;  152.000;   -9.000
265.531;  -29.200; -238.000; -107.000
265.672;  -97.725; -557.000; -630.000
265.813;   61.050;  563.000;  439.000
265.954; -135.500; -959.000; -940.000
266.095;  -17.125; -372.000; -322.000
266.236;  -93.275; -686.000; -548.000
266.377;  -44.300; -243.000; -297.000
266.518;  -70.025; -619.000; -547.000
266.659;   27.700;  170.000;  268.000
266.800;    7.125;   83.000;   85.000
266.941;  -81.175; -487.000; -478.000
267.082;   11.475;  354.000;   99.000
267.223;  -58.675; -344.000; -273.000
267.364; -125.400; -892.000; -686.000
267.504;  -23.475;    3.000;  135.000
267.645;   -0.600;  160.000;   67.000
267.786;  -38.425; -147.000;  -86.000
267.927;  -69.625; -473.000; -379.000
268.068;  -22.800; -186.000;  -61.000
268.209;  -46.625; -175.000; -413.000
268.350;  -65.275; -388.000; -532.000
268.490;  -90.300; -648.000; -521.000
268.631;   33.475;  127.000;  225.000
268.772; -104.575; -874.000; -647.000
268.913;  -44.800; -328.000; -476.000
269.054;  -14.650; -117.000;   12.000
269.194;  -58.600; -418.000; -402.000
269.335; -159.175;-1137.000;-1074.000
269.476;  -25.450;   33.000;  -35.000
269.617;  -40.500; -347.000; -392.000
269.757;  -93.875; -713.000; -646.000
269.898; -108.625; -856.000; -613.000
270.039;  -67.400; -415.000; -405.000
270.180; -133.825; -952.000; -816.000
270.320;  -38.100; -190.000; -250.000
270.461;  -50.525; -277.000; -249.000
270.602;   -9.750; -186.000; -156.000
270.742; -106.425; -868.000; -943.000
270.883;  -62.825; -442.000; -390.000
271.023;  -55.400; -358.000; -357.000
271.164;  -81.050; -607.000; -528.000
271.305;  -90.200; -666.000; -654.000
271.445;  -91.100; -722.000; -683.000
271.586;  -76.700; -462.000; -283.000
271.726;  -34.300; -397.000; -322.000
271.867;  -39.100; -594.000; -534.000
272.008;  203.850; -473.000; -285.000
272.148;  147.175;  462.000;  468.000
272.289;   21.775; -113.000; -181.000
272.429;   25.325;   19.000;  185.000
272.570;  -85.550; -633.000; -737.000
272.710; -101.150; -825.000; -775.000
272.851;  -22.750;  113.000; -130.000
272.991; -157.175;-1173.000;-1077.000
273.131;  -65.100; -419.000; -459.000
273.272; -102.700; -683.000; -723.000
273.412;   15.625; -143.000;  -31.000
273.553;  -49.575; -488.000; -507.000
273.693;  137.125;  913.000;  858.000
273.834;  -71.575; -894.000; -692.000
273.974;  -67.750; -664.000; -615.000
274.114;  -94.500; -772.000; -560.000
274.255;   77.625;  414.000;  373.000
274.395;   21.875; -180.000; -125.000
274.535;   34.100;  199.000;  350.000
274.676;   31.000;  225.000;   94.000
274.816;    6.400;  110.000;   34.000
274.956;  -79.850; -624.000; -690.000
275.097;  -44.500;-1014.000; -922.000
275.237; -125.625; -913.000; -803.000
275.377;  -97.625; -778.000; -689.000
275.517; -149.625; -878.000; -937.000
275.658;  -43.175; -590.000; -555.000
275.798;  -76.025; -606.000; -413.000
275.938;   19.025;  215.000;  323.000
276.078;  -92.475; -626.000; -395.000
276.218;    8.850;   99.000;  104.000
276.359; -119.400;-1026.000;-1024.000
276.499;  -66.200; -605.000; -446.000
276.639;  -30.475; -305.000; -151.000
276.779;  -37.425; -475.000; -357.000
276.919; -107.500; -783.000; -624.000
277.059;  -16.075; -261.000; -212.000
277.199;  -33.975; -357.000; -259.000
277.340;   45.750;  287.000;  175.000
277.480; -100.925; -840.000; -693.000
277.620;   15.900;  192.000;   16.000
277.760; -194.225;-1533.000;-1294.000
277.900;   20.325;  113.000;   33.000
278.040;   20.050;  137.000;  159.000
278.180;   41.650;  270.000;  170.000
278.320;    2.875;   21.000;   56.000
278.460;  -64.325; -443.000; -469.000
278.600;  -83.525; -708.000; -598.000
278.740;   50.050;  448.000;  224.000
278.880;  -19.050; -768.000; -791.000
279.020;    4.150; -194.000; -144.000
279.160;  -99.300; -672.000; -595.000
279.300; -116.975; -926.000; -873.000
279.440;  -90.725; -709.000; -622.000
279.579;   -1.325;-1014.000; -929.000
279.719;  -41.525; -410.000; -394.000
279.859;   80.425;   -4.000;   41.000
279.999;   41.700; -208.000;  101.000
280.139;  -11.750; -435.000; -387.000
280.279;  -69.350; -708.000; -745.000
280.419;  -14.850; -229.000; -147.000
280.559;  -28.650; -259.000; -180.000
280.698;  -89.725; -790.000; -639.000
280.838;  -90.625; -778.000; -800.000
280.978;  -92.250; -846.000; -790.000
281.118; -118.450; -811.000; -704.000
281.257;    9.575;   24.000;    6.000
281.397;  -96.200;-1094.000; -960.000
281.537;  -88.425; -599.000; -712.000
281.677;  -16.275; -150.000; -101.000
281.816;  -86.725; -700.000; -630.000
281.956;  -45.175; -193.000; -257.000
282.096;  -58.725; -539.000; -396.000
282.235; -106.050; -672.000; -638.000
282.375;   -6.025; -243.000;  -98.000
282.515;  -92.225; -715.000; -707.000
282.654;   18.425;   29.000;  106.000
282.794;   28.250;  388.000;  244.000
282.934;  -61.600; -530.000; -491.000
283.073; -131.175;-1030.000; -857.000
283.213;  -45.375; -460.000; -467.000
283.353;  -28.675; -408.000; -349.000
283.492;  -38.450; -264.000; -296.000
283.632;  -37.200; -254.000; -168.000
283.771;  -93.525; -859.000; -730.000
283.911;  -52.275; -369.000; -260.000
284.050; -101.300; -794.000; -748.000
284.190; -149.825;-1229.000;-1096.000
284.329; -158.800;-1055.000; -964.000
284.469;  -42.000; -516.000; -591.000
284.608;  -49.325; -559.000; -598.000
284.748;  -83.850; -614.000; -570.000
284.887;   -5.325;  -87.000;  -20.000
285.027; -117.550; -844.000; -892.000
285.166;  -34.400; -192.000; -249.000
285.306;   21.225; -116.000;  -33.000
285.445;  -40.900; -229.000; -343.000
285.584;  -91.700; -630.000; -494.000
285.724;  -24.775; -282.000; -322.000
285.863; -116.425; -857.000; -507.000
286.002;  -55.425; -366.000; -276.000
286.142; -106.200; -715.000; -622.000
286.281;  -72.975; -525.000; -493.000
286.420;  -74.025; -554.000; -417.000
286.560;   76.925;  653.000;  623.000
286.699; -137.625; -958.000; -912.000
286.838;  -79.400; -590.000; -591.000
286.978;  -90.175; -533.000; -537.000
287.117; -148.300;-1085.000; -950.000
287.256;  -31.600; -228.000; -211.000
287.395;  -55.875; -197.000; -378.000
287.535;  -40.550; -370.000; -298.000
287.674;  -75.550; -509.000; -484.000
287.813;   57.950;  661.000;  533.000
287.952; -130.675;-1010.000; -871.000
288.091; -137.625;-1049.000; -915.000
288.231;   27.650;   13.000;   15.000
288.370; -172.050;-1217.000;-1200.000
288.509;  -94.050; -728.000; -645.000
288.648;  -81.850; -770.000; -548.000
288.787;  -33.100; -243.000;  -87.000
288.926;  -67.575; -454.000; -475.000
289.065;  112.525;  859.000;  672.000
289.204;  -56.825; -377.000; -217.000
289.344;  -95.200; -791.000; -690.000
289.483;   26.500;  416.000;  304.000
289.622;  -22.875; -291.000; -149.000
289.761;  -16.250; -309.000; -166.000
289.900;  -97.375; -785.000; -626.000
290.039;  -15.900;  -12.000;  -95.000
290.178;  -41.225; -274.000; -180.000
290.317;  -67.200; -618.000; -479.000
290.456;  -74.200; -463.000; -451.000
290.595; -131.250; -961.000; -833.000
290.734; -126.350; -904.000; -891.000
290.873;  -73.675; -456.000; -420.000
291.011; -102.875; -833.000; -843.000
291.150;  -91.275; -770.000; -682.000
291.289;  -10.850; -343.000; -110.000
291.428;  -84.675; -599.000; -480.000
291.567;  -55.275; -370.000; -442.000
291.706;   -0.300;  109.000;  154.000
291.845;  -90.850; -597.000; -505.000
291.984; -174.425;-1234.000;-1061.000
292.122;   47.275;  602.000;  582.000
292.261;   55.025;  620.000;  463.000
292.400;    9.075; -144.000;  211.000
292.539; -124.725; -959.000; -813.000
292.678;  -35.350; -325.000; -300.000
292.816; -151.300;-1136.000; -965.000
292.955;  -76.325; -844.000; -684.000
293.094;  -24.075; -173.000; -337.000
293.233;  -60.325; -556.000; -400.000
293.371;  -37.225; -225.000;  -84.000
293.510; -109.400; -866.000; -780.000
293.649; -113.425; -959.000; -924.000
293.787;  -37.050;-1083.000;-1012.000
293.926;   -5.175; -113.000;  -32.000
294.065;  -41.875; -379.000; -290.000
294.203;   60.275;  298.000;  406.000
294.342;   18.625;   74.000;  156.000
294.481; 6037.100;51180.000; -836.000
294.619;  -30.800; -425.000; -582.000
294.758; -138.500;-1230.000;-1137.000
294.896;   86.925; -125.000;    5.000
295.035; -115.700;-1040.000;-1006.000
295.174; -113.425;-1082.000; -954.000
295.312;  -46.275; -323.000; -203.000
295.451;   -6.050; -307.000; -428.000
295.589;  -36.300; -389.000; -518.000
295.728;   16.925; -292.000; -165.000
295.866;   -2.025;  -36.000;  -51.000
296.005;  -57.150; -584.000; -341.000
296.143;  -57.775; -558.000; -596.000
296.282; -110.425; -957.000; -881.000
296.420;  -83.350; -657.000; -557.000
296.559;  -74.225; -892.000; -633.000
296.697;   56.850; -847.000; -665.000
296.835;  107.725;-1141.000;-1002.000
296.974;   82.025;  -23.000;   39.000
297.112;   25.500; -443.000; -504.000
297.251;  -64.075; -815.000; -755.000
297.389;  129.100; -576.000; -438.000
297.527;   43.275; -145.000;  -83.000
297.666;  -41.075; -486.000; -438.000
297.804;  -44.775; -404.000; -264.000
297.942;  -21.075; -136.000; -161.000
298.081;    5.400; -183.000;   63.000
298.219;   81.025;  -17.000;  -19.000
298.357;   71.300; -144.000;  -71.000
298.495;   73.400; -810.000; -812.000
298.634;  101.125;  245.000;  219.000
298.772;   88.100; -220.000; -338.000
298.910;  -24.225; -309.000; -182.000
299.048;  -11.700; -130.000; -153.000
299.187;  -32.950; -350.000; -250.000
299.325;   17.250;   52.000;  122.000
299.463;   85.750; -389.000; -299.000
299.601;  153.900; -327.000; -271.000
299.739;  -82.275; -908.000; -883.000
299.877;  -84.575; -791.000; -703.000
300.016;  -20.850;-1095.000; -935.000
300.154;  214.800;  -19.000; -161.000
300.292;   83.650; -428.000; -348.000
300.430;   47.875; -408.000; -291.000
300.568;  -87.625; -940.000; -874.000
300.706;  -45.250; -366.000; -469.000
300.844;  -45.375;-1108.000; -979.000
300.982;  130.150;  246.000;  282.000
301.120; -108.925; -965.000; -866.000
301.258;  -53.700; -812.000; -705.000
301.396;   43.475;  104.000;  -41.000
301.534;  128.100; -218.000; -293.000
301.672;   13.850; -664.000; -521.000
301.810;   75.750; -613.000; -545.000
301.948;  153.125;   53.000;  149.000
302.086;  783.775; -250.000;  -32.000
302.224; 1208.250; -610.000; -585.000
302.362;   83.675; -558.000; -622.000
302.500;   19.000; -923.000; -893.000
302.638;  125.700;  128.000;  245.000
302.776;    7.125; -352.000; -408.000
302.913;   42.225;  447.000;  236.000
303.051;    4.100;  -86.000;  -23.000
303.189;   67.575;   90.000;  118.000
303.327;  -32.325; -341.000; -256.000
303.465;  -73.275; -832.000; -588.000
303.603;  -89.225; -805.000; -604.000
303.740;  106.900;  417.000;  241.000
303.878;   57.500; -800.000; -759.000
304.016;  -84.925; -915.000; -790.000
304.154; -115.175;-1123.000;-1152.000
304.291;  -29.175; -505.000; -554.000
304.429;    7.875;  102.000;   74.000
304.567; -117.425; -908.000; -893.000
304.705;  -52.400; -408.000; -515.000
304.842;  136.825; -616.000; -540.000
304.980;   60.725;  215.000;   35.000
305.118;   74.375; -367.000; -365.000
305.255;  -53.300; -945.000; -927.000
305.393;   59.450;  178.000;  239.000
305.531;  -88.575;-1173.000; -956.000
305.668;  -58.850; -663.000; -582.000
305.806;  149.900; -358.000; -439.000
305.943;  145.575; -629.000; -637.000
306.081;   78.950; -378.000; -267.000
306.219;  -97.800; -863.000; -748.000
306.356;   16.600;  158.000;   27.000
306.494;  113.975;  981.000;  761.000
306.631;    0.400;  -11.000;  -55.000
306.769;   11.025; -613.000; -485.000
306.906;   -6.975; -284.000; -258.000
307.044;  -61.650; -473.000; -488.000
307.181;  -57.875; -410.000; -332.000
307.319;    3.225;  112.000;   87.000
307.456; -165.250;-1191.000;-1153.000
307.594;  -84.300; -980.000; -727.000
307.731;  -13.175; -371.000; -164.000
307.868;    3.150;  -15.000;   20.000
308.006; -125.900; -961.000; -847.000
308.143;  -63.725; -618.000; -330.000
308.281;  209.125;  -37.000; -254.000
308.418;    1.175; -748.000; -640.000
308.555;  -71.050; -400.000; -250.000
308.693;  -72.500; -577.000; -573.000
308.830; -100.750; -712.000; -657.000
308.967;  -13.350; -215.000;  -95.000
309.105;  -35.050; -507.000; -396.000
309.242;   60.400; -468.000; -367.000
309.379;  407.425; -577.000; -655.000
309.517;  -60.725; -936.000; -948.000
309.654; -102.550; -910.000; -734.000
309.791;  -75.025; -662.000; -580.000
309.928; -107.950; -977.000; -914.000
310.065;  195.450;  819.000;  697.000
310.203;   31.200; -825.000; -850.000
310.340;    3.850; -465.000; -321.000
310.477;  -77.800; -412.000; -516.000
310.614;  -61.025; -383.000; -473.000
310.751;  -71.150; -427.000; -518.000
310.889;  -21.050;    1.000;   11.000
311.026; -150.950;-1161.000; -939.000
311.163;  -49.600; -386.000; -380.000
311.300;  -73.875; -512.000; -479.000
311.437;  -82.875; -658.000; -619.000
311.574; -139.825;-1226.000; -985.000
311.711;  -56.575; -595.000; -433.000
311.848;  -37.525; -380.000; -388.000
311.985;    6.900;  270.000;   93.000
312.122; -116.300; -932.000; -762.000
312.259; -124.550; -941.000; -994.000
312.396;  -77.825; -508.000; -551.000
312.533;  -87.275; -812.000; -790.000
312.670; -114.350;-1070.000; -898.000
312.807;  -20.700; -352.000; -367.000
312.944;  -73.975; -513.000; -611.000
313.081;  -43.250; -150.000; -415.000
313.218;  -93.375;-1111.000; -867.000
313.355;   42.050; -531.000; -449.000
313.492;   34.450; -455.000; -292.000
313.629;  141.525;  815.000;  735.000
313.766; -146.800;-1176.000;-1008.000
313.902;  -22.600; -186.000;   21.000
314.039;  -48.875; -372.000; -289.000
314.176;   28.800;  286.000;  192.000
314.313;  -78.025; -569.000; -473.000
314.450;  -67.625; -788.000; -684.000
314.587;  -48.525; -468.000; -480.000
314.723;   15.500;  -78.000;  130.000
314.860;   28.650;  318.000;  332.000
314.997;   42.775;  223.000;  142.000
315.134;  -37.325; -385.000; -368.000
315.270;  -30.325; -480.000; -496.000
315.407; -117.925;-1094.000; -967.000
315.544;  -55.475; -657.000; -538.000
315.681;  -59.550; -681.000; -565.000
315.817;   40.325; -133.000; -176.000
315.954;   38.700; -613.000; -392.000
316.091; -118.150;-1045.000;-1023.000
316.227;  -24.425;  -71.000; -179.000
316.364;   -3.125;   23.000;    6.000
316.500;  -42.700; -113.000; -300.000
316.637;  -42.150; -181.000; -302.000
316.774;  -63.800; -625.000; -358.000
316.910;  -89.200; -598.000; -629.000
317.047;  -64.600; -487.000; -351.000
317.183;  -53.150; -435.000; -566.000
317.320;  -12.375; -367.000; -321.000
317.456;  -82.150; -733.000; -805.000
317.593;  -85.025; -598.000; -641.000
317.729;   -3.075;  168.000;  -67.000
317.866; -193.575;-1434.000;-1285.000
318.002;  -85.500; -708.000; -948.000
318.139;  -74.225; -883.000; -867.000
318.275;  -94.525;-1003.000; -738.000
318.412;  -41.050; -517.000; -336.000
318.548;   -8.600; -751.000; -720.000
318.685;  -86.325; -985.000; -888.000
318.821; -102.750; -762.000; -735.000
318.957;   -2.825;   34.000;  -23.000
319.094;   41.200;  297.000;  154.000
319.230;  -48.550; -756.000; -742.000
319.367;  168.675; -471.000; -520.000
319.503;   98.900; -538.000; -436.000
319.639;  -94.725; -877.000; -793.000
319.775;  -47.975; -750.000; -685.000
319.912;  -42.400; -424.000; -519.000
320.048;  -79.900;-1184.000;-1184.000
320.184;   59.800;   59.000;   70.000
320.321;  -61.275; -497.000; -467.000
320.457;   65.300;  475.000;  662.000
320.593;  -69.525; -375.000; -382.000
320.729; -114.100; -732.000; -734.000
320.866;  -68.775; -577.000; -635.000
321.002;  -71.875; -759.000; -809.000
321.138;    3.750; -135.000; -211.000
321.274;   93.350; -148.000; -115.000
321.410;  -12.700; -585.000; -353.000
321.546;    0.575;-1011.000; -911.000
321.683;   73.600;  400.000;  185.000
321.819;   13.700;  -48.000; -117.000
321.955;  -97.175; -743.000; -722.000
322.091;  -42.525; -585.000; -540.000
322.227;   12.800; -382.000; -202.000
322.363;   -1.900; -320.000; -215.000
322.499;  -33.500; -343.000; -331.000
322.635;  180.525;  636.000;  443.000
322.771;   50.150; -139.000;   12.000
322.907;   89.250;  129.000;  327.000
323.043;   -8.775; -115.000; -206.000
323.179;  -30.625; -394.000; -363.000
323.315;   59.775; -401.000; -371.000
323.451;  143.450; -328.000; -236.000
323.587;   83.025;  -60.000;  -77.000
323.723;   52.125; -682.000; -601.000
323.859;   -5.525; -258.000;  -76.000
323.995;  -23.450; -467.000; -409.000
324.131; -115.650; -967.000; -892.000
324.267;  -42.825; -254.000; -276.000
324.402; -124.725; -960.000; -983.000
324.538;  -13.075; -279.000; -104.000
324.674;   31.700;  164.000;   77.000
324.810;  179.900;  226.000;  308.000
324.946;   29.500; -810.000; -658.000
325.082;  -63.875; -568.000; -475.000
325.217;  -14.950;  -62.000;   16.000
325.353;  -93.325; -764.000; -659.000
325.489;  -90.275; -540.000; -506.000
325.625;  -88.725; -579.000; -525.000
325.760;   60.350;  517.000;  376.000
325.896;  -37.900; -515.000; -702.000
326.032;  -47.850; -403.000; -352.000
326.168;  -65.375; -462.000; -369.000
326.303;  -52.275; -352.000; -461.000
326.439;  -18.875; -336.000; -276.000
326.575;   12.100; -190.000;  -29.000
326.710;  -12.850; -156.000;  -30.000
326.846;   -4.125;  146.000;  103.000
326.982;  -88.325; -530.000; -548.000
327.117;  -72.925; -481.000; -442.000
327.253;  -77.500; -745.000; -742.000
327.388; -149.825;-1137.000;-1153.000
327.524;  -38.575; -811.000; -578.000
327.659;  -32.825;  -58.000;  -22.000
327.795;  -18.475;   69.000;   45.000
327.931;  -87.775; -723.000; -499.000
328.066;  -16.925; -417.000; -276.000
328.202;   -7.900;   12.000; -129.000
328.337;  102.925;  957.000;  713.000
328.473;   45.500;  -12.000;  -74.000
328.608;  -26.125; -256.000; -267.000
328.743;  -80.325; -799.000; -664.000
328.879;   18.075;  214.000;  114.000
329.014;  -33.675; -102.000; -122.000
329.150;  -80.625; -358.000; -483.000
329.285;  -76.525; -465.000; -466.000
329.421;  -60.575; -548.000; -246.000
329.556;  -28.725;  -36.000;   85.000
329.691;  -90.875; -633.000; -615.000
329.827;  -76.550; -626.000; -480.000
329.962;  -59.175;  131.000; -301.000
330.097;  -93.575; -673.000; -585.000
330.233;  -47.125; -410.000; -223.000
330.368; -124.750; -839.000; -628.000
330.503;   -6.500;    3.000;   98.000
330.638;   21.625;  -93.000; -125.000
330.774;  -43.400; -609.000; -530.000
330.909;  -39.850; -434.000; -244.000
331.044; -103.450; -714.000; -708.000
331.179; -169.375;-1217.000;-1109.000
331.315;   -3.550;   77.000;   20.000
331.450;    9.625;  157.000;  285.000
331.585;  -72.075; -805.000; -706.000
331.720;  -76.800; -510.000; -460.000
331.855;  -14.325;  -35.000; -102.000
331.990;  212.300;   62.000;  138.000
332.126;  111.350; -110.000;   71.000
332.261;  -36.750; -379.000; -265.000
332.396;   -2.650; -135.000; -242.000
332.531;  -97.050;-1074.000;-1031.000
332.666;   24.700; -519.000; -363.000
332.801;  -86.875; -726.000; -807.000
332.936;  -26.400; -192.000; -122.000
333.071; -147.950; -870.000; -817.000
333.206;   15.475;  307.000;  379.000
333.341;   27.275;  344.000;  418.000
333.476;  -95.525; -627.000; -623.000
333.611;  -37.050; -251.000; -173.000
333.746;  -43.850; -381.000; -464.000
333.881; -113.950; -973.000; -935.000
334.016; -114.575; -936.000; -917.000
334.151; -116.075; -746.000; -702.000
334.286;   35.300;  152.000;  186.000
334.421;   -9.925; -125.000; -178.000
334.556;  -71.900; -611.000; -567.000
334.690;  -75.000; -631.000; -577.000
334.825;   55.150;  381.000;   83.000
334.960;  -34.125; -285.000; -413.000
335.095;   19.950;  135.000;  -91.000
335.230;  -86.525; -722.000; -738.000
335.365; -127.300;-1084.000; -990.000
335.499; -111.100;-1108.000;-1037.000
335.634;   45.600;    9.000;  534.000
335.769;  -87.975; -755.000; -720.000
335.904;  -43.050; -603.000; -561.000
336.038;  -44.600; -735.000; -657.000
336.173; -109.000;-1206.000;-1194.000
336.308;   21.725; -116.000; -189.000
336.443;    3.575; -544.000; -634.000
336.577;  -62.375; -936.000; -787.000
336.712;   96.825;   -4.000;  -12.000
336.847;  -14.575; -724.000; -607.000
336.981;  108.425; -272.000; -208.000
337.116;  345.575;  615.000;  501.000
337.250;  204.550; -434.000; -421.000
337.385;  226.250; -297.000; -208.000
337.520;   50.775; -632.000; -603.000
337.654;  -29.400; -215.000; -126.000
337.789; -126.575; -989.000; -933.000
337.923;  -23.325; -104.000; -205.000
338.058;  -69.100; -673.000; -738.000
338.192;  -12.125; -611.000; -488.000
338.327;   -0.875;  -18.000; -155.000
338.461;  -63.850; -299.000; -469.000
338.596;  -90.325; -780.000; -638.000
338.730;  -97.775; -767.000; -803.000
338.865;   63.500;  -46.000; -140.000
338.999;  -51.600; -846.000; -702.000
339.134;  -30.125; -634.000; -536.000
339.268;   15.125; -741.000; -603.000
339.403;  344.875; -740.000; -775.000
339.537;  105.975; -894.000; -820.000
339.671; -112.050; -829.000; -813.000
339.806;  -68.050; -556.000; -512.000
339.940;   20.400; -261.000; -235.000
340.074; -101.750; -685.000; -510.000
340.209;  -45.125; -351.000; -230.000
340.343;  -97.775; -517.000; -573.000
340.477;  135.500;  998.000; 1036.000
340.612;  -71.200;-1033.000; -900.000
340.746;  119.825; -199.000; -243.000
340.880;  -56.050; -924.000; -785.000
341.014;  -25.000;  -45.000; -154.000
341.149; -116.150; -756.000; -718.000
341.283; -102.300; -839.000; -754.000
341.417;  -77.900;-1124.000; -938.000
341.551;  210.300; -768.000; -708.000
341.685;  -11.650; -633.000; -611.000
341.820;  -53.300; -562.000; -493.000
341.954;  -32.575; -218.000; -349.000
342.088; -155.600;-1102.000;-1019.000
342.222;   56.175;  565.000;  618.000
342.356;  -55.275; -395.000; -335.000
342.490;  -86.350; -880.000; -841.000
342.624;  -50.225; -339.000; -242.000
342.758;   21.775; -364.000; -312.000
342.892;  -60.325; -710.000; -585.000
343.026;  -32.900;  -58.000; -116.000
343.160;  -60.675; -426.000; -376.000
343.294;  -67.075; -474.000; -337.000
343.428;   -7.000; -488.000; -448.000
343.562;   -6.075; -172.000;  -23.000
343.696;  -18.600; -385.000; -314.000
343.830;    1.050; -362.000; -356.000
343.964;   28.350; -231.000; -168.000
344.098; 1161.825;  199.000;   70.000
344.232;  990.800; -266.000; -127.000
344.366;  121.800; -567.000; -453.000
344.500;   93.550; -665.000; -744.000
344.634;   62.500; -324.000; -164.000
344.768;   -6.900; -531.000; -341.000
344.902;   24.975;  278.000;  256.000
345.035;  -77.750; -556.000; -496.000
345.169; -135.475; -933.000; -656.000
345.303;   -0.550; -308.000; -482.000
345.437;  -44.850; -826.000; -717.000
345.571;  -71.250; -675.000; -594.000
345.704;  -48.650; -309.000; -532.000
345.838;  -21.375; -331.000; -284.000
345.972;  -33.375; -543.000; -495.000
346.106;  147.300; -179.000; -190.000
346.239;  436.500; -312.000; -243.000
346.373;   26.450; -343.000; -302.000
346.507; -121.250; -950.000; -962.000
346.640;  192.825;  -30.000;   13.000
346.774;  -16.000; -650.000; -797.000
346.908;  -18.075; -138.000;  -11.000
347.041;  -97.325; -646.000; -593.000
347.175;   16.900;  259.000;   27.000
347.309;  -66.850; -698.000; -628.000
347.442;  -85.225; -883.000; -732.000
347.576;  337.100;  670.000;  668.000
347.709;  258.700; -123.000;  -52.000
347.843;  -70.525; -933.000; -825.000
347.976;   37.400;  235.000;  294.000
348.110; -162.475;-1268.000;-1186.000
348.243; -107.225; -679.000; -772.000
348.377;    5.300;  -26.000;   60.000
348.510;   57.625;  403.000;  540.000
348.644;  -32.550;  -37.000; -159.000
348.777;    3.625;  180.000;  191.000
348.911;  -38.675; -142.000; -112.000
349.044;  204.100;  471.000;  448.000
349.178;  248.175;-1069.000;-1006.000
349.311;  118.025;  141.000;  255.000
349.444;    0.700; -927.000; -813.000
349.578;  -13.125; -347.000; -200.000
349.711;  -88.750; -959.000; -862.000
349.845;   18.275; -661.000; -591.000
349.978; -127.700;-1224.000;-1137.000
350.111;  -91.300; -546.000; -612.000
350.244;  -61.475; -596.000; -700.000
350.378;   17.550; -392.000; -393.000
350.511;  -65.900; -393.000; -426.000
350.644; -111.600; -808.000; -806.000
350.778;   -0.650;  168.000;  104.000
350.911;   18.750;  134.000;  140.000
351.044;  -79.025; -685.000; -615.000
351.177;  -23.200; -321.000; -281.000
351.310;  -20.000;    3.000; -131.000
351.444;  -62.450; -888.000; -788.000
351.577;  156.275;  140.000;   90.000
351.710;  114.425;  593.000;  417.000
351.843;  -31.150; -165.000;  -77.000
351.976;   -8.100;  149.000;  -79.000
352.109;  -76.900; -621.000; -612.000
352.242;   -6.450; -464.000; -419.000
352.376;  -44.850; -580.000; -636.000
352.509;  234.100; -437.000; -356.000
352.642;   62.975; -654.000; -604.000
352.775;   86.925; -141.000;  -98.000
352.908; -115.475; -933.000; -904.000
353.041; -108.750; -814.000; -824.000
353.174;  -60.350; -551.000; -424.000
353.307;  -89.450; -753.000; -764.000
353.440;   83.850;  541.000;  453.000
353.573; -104.475; -957.000;-1008.000
353.706;  -43.550; -384.000; -558.000
353.839;  -18.000; -264.000; -220.000
353.971;  -88.075; -657.000; -512.000
354.104;  -68.850; -896.000; -835.000
354.237;  -15.650; -627.000; -662.000
354.370;  -75.825; -846.000; -879.000
354.503; -174.175;-1231.000;-1308.000
354.636;  -39.175; -529.000; -348.000
354.769; -122.050; -937.000; -860.000
354.902;   -4.425; -230.000; -139.000
355.034;   -5.525; -164.000; -220.000
355.167;  -11.600; -262.000; -162.000
355.300;  -80.900;-1061.000; -880.000
355.433;  884.650;  -71.000;  -14.000
355.565; 1425.425; -402.000; -384.000
355.698;  357.275; -356.000; -296.000
355.831;   29.575; -882.000; -801.000
355.964;  108.875; -285.000; -170.000
356.096;  -68.625; -856.000; -843.000
356.229;   31.225; -523.000; -530.000
356.362;  291.650; -373.000; -266.000
356.494;  553.075; -229.000; -162.000
356.627;  576.200;  269.000;  377.000
356.760;  647.000;  120.000;   53.000
356.892;  872.300; -286.000; -601.000
357.025;  811.200;  403.000;  389.000
357.157;  789.350; -167.000; -179.000
357.290;  584.450; -856.000; -713.000
357.423;  198.675; -667.000; -556.000
357.555;  152.825; -217.000; -228.000
357.688;  169.925; -483.000; -364.000
357.820;  566.450; -870.000; -877.000
357.953; 4474.050; -563.000; -589.000
358.085; 1031.600; -632.000; -612.000
358.218; 1605.125;-1131.000; -932.000
358.350;  316.125;  -58.000;  312.000
358.483; -102.625;-1300.000;-1187.000
358.615;   25.875;-1182.000;-1078.000
358.747;   -5.925;-1187.000;-1058.000
358.880;   64.900; -810.000; -744.000
359.012;    6.700; -376.000; -202.000
359.145;  -28.600; -480.000; -511.000
359.277;  122.925; -962.000; -913.000
359.409; 3733.550;  536.000;  231.000
359.542; 1024.775; -738.000; -688.000
359.674;   95.850;   46.000;   13.000
359.806;  -58.275; -565.000; -438.000
359.939;  -34.750; -617.000; -516.000
360.071;   -9.250; -583.000; -579.000
360.203;  -26.250; -411.000; -364.000
360.335;   64.925;  164.000;  -16.000
360.468;  236.675; -249.000; -307.000
360.600; 2923.525; -547.000; -454.000
360.732; 2639.175; -546.000; -423.000
360.864;  384.575;-1216.000;-1044.000
360.996;  391.075; -516.000; -554.000
361.129;  102.225; -389.000; -598.000
361.261;   34.475;  110.000; -113.000
361.393;  -15.725; -252.000; -214.000
361.525;   37.600;   94.000;  244.000
361.657;  -16.350; -821.000; -703.000
361.789;   19.025; -139.000; -155.000
361.921;  358.175; -642.000; -593.000
362.053;  314.325;  524.000;  541.000
362.185;   79.475;  288.000;   72.000
362.318;  -68.500; -709.000; -705.000
362.450;  170.775;  294.000;  444.000
362.582;  219.625; -913.000; -870.000
362.714;   -3.475; -353.000; -332.000
362.846;  -80.125; -606.000; -490.000
362.978; -134.900; -941.000; -811.000
363.109;   76.625; -161.000; -260.000
363.241;  578.125; -739.000; -749.000
363.373;  429.025; -649.000; -564.000
363.505;  607.875; -186.000;  -91.000
363.637;  154.750; -787.000; -601.000
363.769; -109.650;-1067.000;-1080.000
363.901;  -48.400; -596.000; -654.000
364.033;  -94.200;-1103.000;-1062.000
364.165;    9.500; -283.000; -283.000
364.296;   82.350; -316.000; -177.000
364.428;   62.325;-1344.000;-1220.000
364.560;  -68.125; -679.000; -661.000
364.692;  -55.750; -738.000; -835.000
364.824;  371.475; -588.000; -456.000
364.955;  463.325; -402.000; -564.000
365.087;  793.350;-1097.000; -852.000
365.219;   19.325; -686.000; -816.000
365.351;  -53.400; -526.000; -572.000
365.482;   55.050;  300.000;  240.000
365.614;  -40.875; -402.000; -314.000
365.746;  -81.600; -729.000; -752.000
365.877;  -91.675; -706.000; -672.000
366.009;  223.750;  -35.000;  -62.000
366.141;  -86.200;-1249.000;-1134.000
366.272; -104.325; -803.000; -719.000
366.404; -116.950;-1005.000; -874.000
366.535;  -12.925; -139.000;  -12.000
366.667;  -93.225; -644.000; -649.000
366.799;   23.525;  353.000;  203.000
366.930; -107.450; -862.000; -996.000
367.062;  125.750; -639.000; -613.000
367.193;  118.650; -872.000; -842.000
367.325;  -50.025; -580.000; -684.000
367.456;  111.875; -246.000;   31.000
367.588;  153.650; -371.000; -318.000
367.719;   29.900;  -44.000;  -45.000
367.851;   -4.600; -222.000; -241.000
367.982;  -18.400; -875.000; -732.000
368.113;  154.350; -475.000; -358.000
368.245;  -98.875; -960.000; -841.000
368.376;  -10.150; -254.000; -302.000
368.508;  -21.850; -188.000; -263.000
368.639; -143.750;-1166.000;-1034.000
368.770;   20.125; -670.000; -589.000
368.902;  -37.575; -836.000; -926.000
369.033;  -94.300; -906.000; -855.000
369.164;  -52.300; -720.000; -653.000
369.296; -120.700; -452.000; -601.000
369.427;    3.925; -209.000; -144.000
369.558;  -29.300; -593.000; -377.000
369.689;  -79.025; -721.000; -569.000
369.821; -129.775; -951.000; -845.000
369.952;  -20.125;   42.000; -108.000
370.083;  -32.325; -229.000; -108.000
370.214;  -66.725; -735.000; -650.000
370.345;    2.725;   65.000;   81.000
370.477;  -72.800; -810.000; -790.000
370.608;  324.425; -328.000; -264.000
370.739;   -7.175;-1233.000;-1292.000
370.870;    4.350;-1102.000; -923.000
371.001;  122.150; -378.000; -467.000
371.132;  -52.825; -754.000; -735.000
371.263;  -23.800;  -42.000; -148.000
371.394; -122.300; -841.000; -748.000
371.525;   24.625;  345.000;  225.000
371.657;  -83.375; -808.000; -670.000
371.788;  100.675;  103.000;  199.000
371.919;  231.250; -384.000; -304.000
372.050; 4552.275;  -91.000; -156.000
372.181; 1419.325; -188.000; -294.000
372.311;  487.375;   42.000; -127.000
372.442;   86.550; -457.000; -451.000
372.573;   -3.875; -444.000; -340.000
372.704; -108.200;-1008.000; -980.000
372.835;  138.925; -228.000; -289.000
372.966;  -45.900; -646.000; -554.000
373.097;  -51.600; -575.000; -711.000
373.228;  -10.850; -717.000; -542.000
373.359;  208.025; -824.000; -536.000
373.490; 1231.600; -881.000; -727.000
373.620; 1565.000;-1001.000; -803.000
373.751; 2326.300; -332.000; -396.000
373.882; 1045.025; -663.000; -733.000
374.013;  121.800; -449.000; -262.000
374.143;  -15.850; -581.000; -659.000
374.274;  -63.550; -987.000; -908.000
374.405;  229.300; -388.000; -276.000
374.536;  589.625; -526.000; -387.000
374.666; 1514.475; -759.000; -807.000
374.797;  340.425; -817.000; -868.000
374.928; 1169.750; -710.000; -560.000
375.058; 1194.250; -535.000; -500.000
375.189;  104.025;  -59.000;  -93.000
375.320;  -90.225; -928.000;-1034.000
375.450;  -20.000; -625.000; -616.000
375.581;  -42.875; -526.000; -436.000
375.712;  -28.475; -574.000; -250.000
375.842;  428.575; -438.000; -415.000
375.973;  322.200; -554.000; -513.000
376.103;   -7.375; -665.000; -648.000
376.234;  -67.925; -531.000; -552.000
376.364;  -12.400; -944.000; -867.000
376.495;  393.500;  925.000;  529.000
376.625;   30.075; -472.000; -485.000
376.756;  111.375; -709.000; -678.000
376.886;  -33.900;-1178.000;-1026.000
377.017;   39.750;-1048.000;-1061.000
377.147;  311.725; -786.000; -782.000
377.278;   60.100;  174.000;  228.000
377.408; -121.375; -801.000; -815.000
377.538; -101.625; -707.000; -693.000
377.669;  -78.625; -537.000; -613.000
377.799;  -67.975; -645.000; -635.000
377.929;  -42.325; -610.000; -428.000
378.060; -110.250; -781.000; -847.000
378.190;  -58.225; -726.000; -531.000
378.320;  -47.700; -401.000; -406.000
378.451;    5.200; -131.000;  -22.000
378.581;  -16.200;  -67.000; -110.000
378.711;  166.675; 1035.000;  866.000
378.841;    4.925; -533.000; -675.000
378.972;  -49.200; -871.000; -751.000
379.102;   29.800; -652.000; -579.000
379.232;   -5.650; -126.000;  -73.000
379.362;  -85.075;-1001.000; -885.000
379.492;   33.750; -373.000; -424.000
379.623;  138.575;    0.000;  111.000
379.753;  -76.100;-1107.000; -974.000
379.883;  256.275;   59.000;  156.000
380.013;   53.450;-1081.000;-1017.000
380.143;  -88.550;-1097.000;-1056.000
380.273;  -85.525; -985.000; -861.000
380.403;    0.550; -344.000; -257.000
380.533;   -0.725; -651.000; -664.000
380.663;   91.200;  173.000;  128.000
380.793;  -69.300;-1027.000;-1074.000
380.923;  -12.325; -103.000;  -34.000
381.053;  -91.450; -613.000; -623.000
381.183;  -30.825; -106.000; -248.000
381.313;   78.350; -656.000; -470.000
381.443;   95.375; -692.000; -473.000
381.573;  293.325; -402.000; -409.000
381.703;  446.575;-1249.000;-1095.000
381.833;  -93.700;-1454.000;-1336.000
381.963;  125.225; -134.000;  -87.000
382.093; 1752.375; -925.000; -909.000
382.223;  568.825; -713.000; -602.000
382.353;   25.500; -801.000; -608.000
382.482;  523.725;-1091.000; -964.000
382.612;  989.875; -872.000; -644.000
382.742;  589.825; -695.000; -622.000
382.872;  386.775; -565.000; -551.000
383.002;   87.800;  347.000; -132.000
383.131;   -7.300; -226.000; -160.000
383.261;  -31.050; -706.000; -768.000
383.391;  309.175; -552.000; -377.000
383.521; 2859.625;  451.000;  263.000
383.650;  668.300; -947.000; -904.000
383.780;  -24.700; -783.000; -656.000
383.910;  123.950;  880.000;  802.000
384.039;   57.525; -794.000; -656.000
384.169;  342.725;-1205.000;-1017.000
384.299;   12.625; -650.000; -662.000
384.428;  -71.150; -764.000; -680.000
384.558;  -41.525; -308.000; -275.000
384.687;  -25.825; -414.000; -334.000
384.817;   19.900;   75.000;   -2.000
384.947;   40.250; -234.000; -141.000
385.076;  338.925;  982.000;  912.000
385.206;  111.425;  369.000;  480.000
385.335;  -20.000; -549.000; -417.000
385.465;  -56.000; -655.000; -663.000
385.594;  196.325;  -53.000;  -44.000
385.724;  592.400; -868.000; -838.000
385.853;  171.375; -296.000; -270.000
385.982; 1747.875; -743.000; -787.000
386.112; 2844.725;-1052.000; -871.000
386.241;  205.925; -307.000; -312.000
386.371;   33.575; -174.000;  -87.000
386.500;   35.950; -825.000; -789.000
386.629;   45.725; -874.000; -817.000
386.759;   79.275;  -43.000;   68.000
386.888;    6.475; -170.000; -250.000
387.017;  -77.575; -648.000; -620.000
387.147;  -78.475; -771.000; -798.000
387.276;   27.875; -410.000; -397.000
387.405;   35.000; -398.000; -342.000
387.535;  -35.850; -452.000; -361.000
387.664;  -60.300; -692.000; -620.000
387.793;   88.825; -198.000; -113.000
387.922;  675.000;  255.000;  200.000
388.052;   45.425; -576.000; -423.000
388.181;   42.000; -342.000; -472.000
388.310;   49.725; -889.000; -710.000
388.439;   -8.300; -749.000; -742.000
388.568;  244.400;  365.000;  244.000
388.697; 1394.975; -756.000; -653.000
388.826;  304.000; -768.000; -666.000
388.956;   96.975; -285.000; -307.000
389.085;  -29.000; -347.000; -287.000
389.214;  -94.950; -842.000; -872.000
389.343;  -59.375; -645.000; -413.000
389.472;  366.450;  126.000;  149.000
389.601;  534.950;   91.000;    0.000
389.730;   38.025; -568.000; -687.000
389.859;   79.800;  226.000;   46.000
389.988;  261.150; -423.000; -408.000
390.117;  195.250; -168.000; -146.000
390.246;   13.725; -331.000; -320.000
390.375;  182.675; -673.000; -626.000
390.504;  -49.375; -703.000; -621.000
390.633;  -66.275; -672.000; -726.000
390.761;  -46.700; -732.000; -645.000
390.890;   40.425;   -4.000; -130.000
391.019;   -6.025; -421.000; -441.000
391.148; -119.725; -826.000; -855.000
391.277;  -54.025; -576.000; -493.000
391.406;  -55.000; -821.000; -805.000
391.534;   39.800;  574.000; -301.000
391.663;  -42.900; -583.000; -645.000
391.792;  -79.975; -673.000; -701.000
391.921;  152.775;   -3.000;   15.000
392.050;  280.800; -287.000; -228.000
392.178;   23.350;-1206.000;-1061.000
392.307;  207.600; -758.000; -712.000
392.436;  143.800; -427.000; -641.000
392.564;   35.450;  166.000;   -6.000
392.693;  -76.650; -860.000; -682.000
392.822;  310.850; -529.000; -534.000
392.950;  162.075; -880.000; -714.000
393.079;  419.275; -188.000; -328.000
393.208;   78.975; -488.000; -511.000
393.336;   -6.175; -170.000; -145.000
393.465;  -38.100; -317.000; -199.000
393.593;   -1.725;   62.000;   79.000
393.722; -148.450;-1121.000; -916.000
393.850;  -45.500; -188.000;  -61.000
393.979; -164.775; -926.000; -805.000
394.107;  -55.050; -517.000; -537.000
394.236;   -2.925; -570.000; -507.000
394.364;  248.325;  383.000;  206.000
394.493;  464.625; -911.000; -767.000
394.621;    7.875; -955.000; -916.000
394.750;  644.325; -873.000; -923.000
394.878; 2683.050; -247.000; -149.000
395.007; 3701.125; -721.000; -807.000
395.135;  280.275; -790.000; -721.000
395.263;  -74.050;-1038.000;-1040.000
395.392;    2.400;  -25.000; -107.000
395.520; -129.800; -818.000; -679.000
395.648;  -63.400; -865.000; -915.000
395.777;   10.975; -366.000; -405.000
395.905;  -41.275; -449.000; -564.000
396.033;   11.875;  217.000;  172.000
396.162;  740.600; -399.000; -453.000
396.290;  645.625;  -17.000;   -2.000
396.418;  167.700; -555.000; -514.000
396.546;  -43.275; -571.000; -466.000
396.674;  -84.900; -850.000; -878.000
396.803;   19.200;  -72.000;  -23.000
396.931;  130.150; -179.000; -199.000
397.059;  131.725;-1026.000; -989.000
397.187;  -93.650;-1026.000; -975.000
397.315; -125.325; -884.000; -649.000
397.443;  -98.700; -592.000; -443.000
397.572;  -84.350; -578.000; -424.000
397.700;   27.575; -607.000; -614.000
397.828;   38.950;  120.000;  -90.000
397.956;  -59.200; -508.000; -478.000
398.084;  -44.150; -767.000; -626.000
398.212;   37.025;  137.000;  124.000
398.340;   23.275;  -56.000;  159.000
398.468;   77.700; -390.000; -169.000
398.596; -118.875; -993.000; -953.000
398.724; -107.575; -762.000; -767.000
398.852; -162.925;-1024.000; -976.000
398.980;  -70.725; -560.000; -560.000
399.108;  -30.500; -982.000; -735.000
399.236;   55.875;   13.000;    8.000
399.363;   26.625;  222.000;  196.000
399.491;  -63.275; -404.000; -398.000
399.619; -122.000; -829.000; -800.000
399.747;  -90.425; -859.000; -771.000
399.875;  113.475;  220.000;  234.000
400.003;  -56.350; -359.000; -284.000
400.130;  -89.125; -421.000; -341.000
400.258;  -27.475;  -83.000;   38.000
400.386;  -60.250; -352.000; -168.000
400.514;  -25.600; -526.000; -587.000
400.641;  -60.250; -928.000; -802.000
400.769; -130.200; -979.000; -888.000
400.897;  -96.175; -838.000; -793.000
401.025;  -23.525; -166.000; -152.000
401.152;  -16.475;  220.000;   38.000
401.280;  -93.200; -430.000; -429.000
401.408; -125.200; -712.000; -576.000
401.535;  -99.600; -735.000; -758.000
401.663; -175.825;-1134.000;-1054.000
401.790;  -85.450; -514.000; -525.000
401.918;   49.225;  436.000;  405.000
402.046;  -17.950;  134.000;  122.000
402.173;  -36.500;  -18.000;    7.000
402.301;  -74.175; -519.000; -397.000
402.428;   33.875;  528.000;  383.000
402.556; -139.850;-1188.000; -913.000
402.683;  -21.350;  -20.000;   -1.000
402.811;  -19.400;  -37.000; -206.000
402.938;   -0.200;   20.000;   27.000
403.066;  293.750; -574.000; -558.000
403.193;  454.700;  299.000;  239.000
403.321;  342.525; -396.000; -574.000
403.448;  435.275;   83.000;   27.000
403.575;  196.750;  -90.000;  -46.000
403.703;  -83.575; -732.000; -557.000
403.830;  -62.025; -531.000; -496.000
403.957; -133.725;-1117.000;-1023.000
404.085;    4.575;  -61.000; -172.000
404.212;  109.225;  -50.000;   63.000
404.339;  248.675; -566.000; -306.000
404.467; 5259.175; -612.000; -524.000
404.594; 3863.500; -287.000; -227.000
404.721; 1048.825; -869.000; -764.000
404.848;   89.875; -113.000; -202.000
404.976; -100.950; -856.000; -783.000
405.103;  -17.000;  -14.000;  -82.000
405.230;  -15.275;  190.000;  226.000
405.357;   29.950;  117.000;   44.000
405.484;  240.875;  -49.000;    5.000
405.612;   46.325; -548.000; -563.000
405.739;  -61.900; -488.000; -243.000
405.866;   89.450;  669.000;  385.000
405.993;  -32.800; -398.000; -102.000
406.120; -139.825; -801.000; -887.000
406.247;  -40.925; -323.000; -342.000
406.374;  555.700;  540.000;  629.000
406.501;  208.850; -632.000; -702.000
406.628;  -59.750; -621.000; -589.000
406.755;  -79.525; -803.000; -620.000
406.882;  -36.300; -228.000; -277.000
407.009;  -98.500; -719.000; -628.000
407.136;   75.250; -480.000; -401.000
407.263;  239.500; -939.000; -829.000
407.390;  -56.575; -692.000; -614.000
407.517; -162.700;-1139.000;-1187.000
407.644;  -55.000; -332.000; -256.000
407.771;  -57.050; -249.000; -287.000
407.898;   17.075;  168.000;  328.000
408.025;  -59.050; -421.000; -313.000
408.151;  -13.600;   82.000;  153.000
408.278;  -64.325; -267.000; -216.000
408.405; -102.050; -931.000; -899.000
408.532;  -61.100; -549.000; -542.000
408.659; -110.275; -677.000; -648.000
408.785; -191.375;-1298.000;-1170.000
408.912;  -61.975; -412.000; -296.000
409.039; -109.125; -610.000; -686.000
409.166; -111.100; -591.000; -555.000
409.292; -104.775; -571.000; -534.000
409.419; -114.475; -665.000; -649.000
409.546;  -86.725; -431.000; -192.000
409.672; -104.950; -713.000; -545.000
409.799;  -31.100;  -36.000;   34.000
409.926;  -42.675; -180.000; -179.000
410.052; -157.400;-1127.000;-1091.000
410.179;  -54.025; -368.000; -392.000
410.305;  -97.200; -375.000; -493.000
410.432;  -44.400; -220.000; -333.000
410.558;  -97.975; -305.000; -380.000
410.685; -106.525; -688.000; -431.000
410.812;  -86.350; -409.000; -588.000
410.938; -139.400; -964.000; -808.000
411.065;  -95.000; -671.000; -645.000
411.191;  -13.150; -189.000; -174.000
411.317;  -99.450; -823.000; -742.000
411.444;  -71.900; -317.000; -246.000
411.570;  -64.525; -339.000; -294.000
411.697; -133.775; -758.000; -752.000
411.823; -169.150; -989.000; -999.000
411.949;  -30.325;  -56.000;   17.000
412.076; -114.350; -539.000; -519.000
412.202; -102.750; -758.000; -757.000
412.329; -122.775; -798.000; -752.000
412.455; -116.125; -821.000; -657.000
412.581;  -12.975;  -15.000;  172.000
412.707;  -51.350; -540.000; -457.000
412.834;   25.050;  156.000;  219.000
412.960;  -82.175; -785.000; -784.000
413.086;  -91.825; -743.000; -701.000
413.212;  164.100;  604.000;  578.000
413.339;  -25.450; -685.000; -701.000
413.465;   29.575; -364.000; -310.000
413.591;  -65.200; -757.000; -474.000
413.717;  -51.725; -358.000; -366.000
413.843; -142.725; -839.000; -861.000
413.969;  -61.350;  -47.000; -292.000
414.096; -107.350; -679.000; -679.000
414.222;    0.600;  -33.000;   85.000
414.348;   -5.975; -652.000; -385.000
414.474;  129.175;   38.000;  -52.000
414.600;   -6.050; -126.000; -144.000
414.726;  -20.000;  -96.000;  -55.000
414.852;  -45.675; -365.000; -342.000
414.978;   31.600;  104.000;  -18.000
415.104;   45.000;   38.000;   80.000
415.230;   41.975; -329.000; -330.000
415.356;   50.075; -409.000; -514.000
415.482;  226.075;   13.000;  -35.000
415.608;  258.125; -247.000; -323.000
415.734;  912.550;   67.000;   38.000
415.860;18706.475; -875.000; -767.000
415.986;14285.750; -685.000; -607.000
416.111; 1236.125; -798.000; -652.000
416.237;  242.600; -424.000; -571.000
416.363;  987.850; -765.000; -733.000
416.489; 3891.525; -324.000; -251.000
416.615;  435.400; -707.000; -742.000
416.741;  -21.950; -677.000; -784.000
416.866;  -93.875; -673.000; -736.000
416.992; -127.225; -801.000; -818.000
417.118;  -32.925;  -41.000;  -80.000
417.244;  -60.725; -798.000; -531.000
417.369;  -72.800; -801.000; -612.000
417.495;    9.175; -325.000; -254.000
417.621;  -72.200;-1015.000; -803.000
417.746;    0.650; -579.000; -572.000
417.872;   53.000; -254.000; -144.000
417.998;   40.350; -515.000; -530.000
418.123;  912.075;-1073.000; -845.000
418.249; 5060.375; -512.000; -601.000
418.374;  747.300; -916.000; -824.000
418.500;  108.875; -383.000; -482.000
418.626;  105.600;   70.000;  -59.000
418.751;  126.375; -549.000; -448.000
418.877;  205.425; -637.000; -643.000
419.002; 1605.225; -688.000; -560.000
419.128;11629.000; -930.000; -721.000
419.253; 2967.550; -967.000; -837.000
419.379;  401.050; -391.000; -338.000
419.504;  369.900;  325.000;  415.000
419.629;  491.250; -393.000; -212.000
419.755; 3077.925; -317.000; -254.000
419.880;19031.225;  -98.000;   67.000
420.006;10516.350; -280.000; -221.000
420.131;27866.475; -662.000; -775.000
420.256; 4235.100; -315.000; -316.000
420.382;  555.225; -665.000; -687.000
420.507;   71.900; -649.000; -778.000
420.632;  179.625; -337.000; -339.000
420.758;  353.250; -251.000; -425.000
420.883;  -55.725; -876.000; -672.000
421.008; -109.175; -775.000; -619.000
421.133;  -72.800; -509.000; -467.000
421.259;  -61.650; -325.000; -259.000
421.384;  -89.625; -834.000; -693.000
421.509;   -7.725;-1052.000; -862.000
421.634; 1595.150; -936.000; -820.000
421.759;  747.075; -359.000; -327.000
421.885;  -23.525; -717.000; -656.000
422.010;  -57.975; -673.000; -542.000
422.135; -136.575; -695.000; -727.000
422.260;   39.300;  340.000;  280.000
422.385;  -44.050;   12.000;  -98.000
422.510;   14.425;  151.000;  -26.000
422.635;   27.625;  -87.000;  -43.000
422.760;  132.450; -766.000; -791.000
422.885;   73.050;  -57.000;  -80.000
423.010;  -29.375; -112.000; -169.000
423.135;  -89.025; -481.000; -561.000
423.260;  -14.025; -150.000; -245.000
423.385;   85.875;  476.000;  222.000
423.510;   27.075;   71.000;  -22.000
423.635;  115.375;  133.000;   45.000
423.760;   55.400;  383.000;  328.000
423.885;   42.250;  336.000;  391.000
424.010;   17.375;  -68.000;  -13.000
424.135;  -24.750;    5.000;  -33.000
424.259;  -90.775; -654.000; -457.000
424.384;  -56.550; -279.000; -272.000
424.509;  -32.950; -260.000; -186.000
424.634;  -99.550; -761.000; -623.000
424.759;  -30.675; -688.000; -544.000
424.883;  -18.250; -506.000; -527.000
425.008;  168.025; -502.000; -410.000
425.133; 1844.725; -679.000; -653.000
425.258;  924.950; -517.000; -381.000
425.382; 1239.875; -867.000; -774.000
425.507; 3366.150; -487.000; -543.000
425.632;  530.275; -802.000; -663.000
425.756;  427.050; -256.000; -146.000
425.881; 5543.875; -831.000; -857.000
426.006;15742.275; -604.000; -355.000
426.130; 2695.050; -696.000; -508.000
426.255;  335.150; -611.000; -491.000
426.379;  140.900; -189.000; -577.000
426.504;  361.425;  660.000;  544.000
426.629; 3788.425; -519.000; -466.000
426.753; 2762.450;   64.000;  -46.000
426.878;  328.150; -252.000; -288.000
427.002;  145.775; -651.000; -668.000
427.127; 1459.525;  -35.000; -158.000
427.251;10551.100;  372.000;  401.000
427.375; 3226.325; -191.000; -173.000
427.500; 2841.625; -616.000; -610.000
427.624; 1035.700; -234.000; -400.000
427.749;  117.525; -216.000; -225.000
427.873;  -18.850; -499.000; -412.000
427.997;  -39.550; -222.000; -230.000
428.122;   72.500;  795.000;  703.000
428.246;   83.325;  433.000;  434.000
428.371; -111.075; -869.000; -773.000
428.495;  -96.725; -624.000; -646.000
428.619;  -31.925; -186.000; -117.000
428.743;   19.200;   65.000;  132.000
428.868;   40.600; -732.000; -643.000
428.992; 1765.425; -219.000; -326.000
429.116;  799.075; -329.000; -357.000
429.240;  367.475;  419.000;  426.000
429.365;   -8.975; -454.000; -574.000
429.489;  -20.900; -638.000; -647.000
429.613;   11.675; -236.000; -177.000
429.737;   23.600; -563.000; -432.000
429.861;  257.925; -247.000; -133.000
429.985; 5088.200; -425.000; -305.000
430.109; 5905.850; -770.000; -908.000
430.234;  685.200;   76.000;  -50.000
430.358;   70.000; -250.000; -160.000
430.482;  -62.350; -672.000; -564.000
430.606;  -54.575; -655.000; -375.000
430.730;   40.900; -437.000; -388.000
430.854;  218.225; -909.000; -835.000
430.978;  -59.825; -795.000; -764.000
431.102;  -91.625; -499.000; -422.000
431.226; -129.875; -874.000; -815.000
431.350;   33.000;  345.000;  422.000
431.474;  -83.125; -661.000; -373.000
431.597; -123.775;-1060.000; -848.000
431.721;  -73.150; -276.000; -267.000
431.845; -130.825; -704.000; -472.000
431.969;  -88.275; -304.000; -349.000
432.093;  -86.150; -395.000; -317.000
432.217;  -14.525;   32.000;   82.000
432.341;  -92.600; -523.000; -518.000
432.464;    8.175;   96.000;   40.000
432.588;  279.875; -401.000; -329.000
432.712;  146.875;  -52.000;  -52.000
432.836;   45.350;  213.000;  263.000
432.959;  -27.975; -372.000; -311.000
433.083;   78.550;   11.000;    2.000
433.207;  340.400;  285.000;  930.000
433.330; 4536.875; -391.000; -200.000
433.454; 5849.200; -654.000; -638.000
433.578; 3388.475;  583.000;  278.000
433.701;  679.350; -623.000; -675.000
433.825;  201.375; -292.000; -299.000
433.949;  263.200;   28.000;  -72.000
434.072;  118.575; -410.000; -323.000
434.196;   -7.350; -309.000; -117.000
434.319; 3623.150;25482.000;25124.000
434.443;  730.050; -656.000; -603.000
434.566; 2537.650;  281.000;   62.000
434.690;  459.950; -637.000; -383.000
434.813;   45.150; -251.000; -173.000
434.937;  -71.100; -569.000; -696.000
435.060;  -16.425; -423.000; -332.000
435.184;  479.175; -492.000; -217.000
435.307;  282.750;  159.000;  102.000
435.431;   -9.675;  -40.000;   24.000
435.554;  -85.225; -399.000; -240.000
435.677;  -81.450; -350.000; -258.000
435.801;  -36.625;  -25.000;   49.000
435.924;   -3.950;    1.000;  -67.000
436.048;  -84.650;-1019.000; -732.000
436.171;  -59.650; -240.000;  -66.000
436.294;  -24.075; -248.000; -229.000
436.417;   69.975; -963.000; -849.000
436.541;  -87.075; -814.000; -840.000
436.664;  -56.375; -242.000; -316.000
436.787;  -16.575;   13.000;  113.000
436.910; -102.175; -792.000; -422.000
437.034;   23.650;  142.000;  143.000
437.157;   79.225;  -11.000;    0.000
437.280;  -26.500; -392.000; -292.000
437.403;  -69.150; -982.000; -869.000
437.526;  879.300; -903.000; -865.000
437.649; 3265.500; -505.000; -332.000
437.772;  549.975; -692.000; -540.000
437.896;  140.125;  700.000;  544.000
438.019;  -75.250; -758.000; -503.000
438.142;  -78.950; -596.000; -506.000
438.265;   18.850; -639.000; -670.000
438.388;  769.750; -520.000; -410.000
438.511;  193.950; -597.000; -394.000
438.634;  -24.775; -247.000; -125.000
438.757; -121.300; -693.000; -619.000
438.880;  -19.575;  -34.000;  -57.000
439.003;  -66.425; -417.000; -437.000
439.126;  -78.225; -287.000; -167.000
439.248;  -62.875;  -98.000; -139.000
439.371;  -63.200;    9.000;  -53.000
439.494;   31.450;  510.000;  439.000
439.617;  -50.550;   65.000;  -88.000
439.740; -182.075; -968.000; -816.000
439.863; -145.300; -755.000; -595.000
439.986; -129.175; -476.000; -431.000
440.108;  -38.750; -161.000; -112.000
440.231; -162.075; -950.000; -836.000
440.354;  -44.150;  -64.000; -150.000
440.477;   86.875; -566.000; -542.000
440.599;   52.275; -200.000; -225.000
440.722; -115.900; -709.000; -586.000
440.845;   66.225;  751.000;  928.000
440.968; -103.375; -415.000; -311.000
441.090;  -63.400; -199.000;  -33.000
441.213; -166.350;-1021.000; -825.000
441.336;  -46.625; -159.000;   -5.000
441.458;  -73.700; -549.000; -396.000
441.581;  -65.625; -628.000; -629.000
441.703;  -58.900; -152.000;   13.000
441.826; -119.075; -557.000; -400.000
441.948;  -50.500;   56.000;   51.000
442.071;   36.625;  555.000;  424.000
442.193; -112.975; -531.000; -485.000
442.316;   23.925;  152.000;   97.000
442.438;   37.825; -233.000;  -10.000
442.561;   91.250;  272.000;  262.000
442.683;  749.825; -809.000; -522.000
442.806; 1647.775;   -8.000;   74.000
442.928;  107.125; -859.000; -604.000
443.051;  -56.925; -577.000; -373.000
443.173;  -89.025; -341.000; -339.000
443.295;  -86.800; -263.000; -371.000
443.418;  -68.000; -321.000;  -29.000
443.540;   -3.050; -106.000;   -4.000
443.662; -120.850; -563.000; -465.000
443.785;   -9.600;  335.000;  199.000
443.907;  -92.275; -362.000; -208.000
444.029; -132.650; -767.000; -494.000
444.152; -137.250; -644.000; -554.000
444.274;  -32.925;  -18.000;  -24.000
444.396; -107.475; -461.000; -221.000
444.518; -139.325; -691.000; -454.000
444.640;  -94.275; -268.000; -111.000
444.763;  -24.175;  388.000;  249.000
444.885; -122.200; -432.000; -392.000
445.007;  -32.925;   35.000;   86.000
445.129; -122.500; -610.000; -515.000
445.251; -105.575; -372.000; -439.000
445.373; -127.000; -537.000; -386.000
445.495;   -7.600;  242.000;  350.000
445.617;   62.625;  853.000;  753.000
445.739;  -61.050; -215.000;  -97.000
445.861;  -38.100; -245.000; -112.000
445.984;  -23.025; -267.000; -101.000
446.105;  286.025; -418.000; -251.000
446.227;  836.075; -176.000;  -19.000
446.349;   54.050; -358.000; -249.000
446.471;  -87.450; -615.000; -448.000
446.593;  -60.025; -316.000;   19.000
446.715;    7.800;  -67.000;   41.000
446.837;   67.800;  697.000;  832.000
446.959;  -96.750; -457.000; -478.000
447.081; -125.625; -628.000; -518.000
447.203;   38.025;  862.000;  834.000
447.325;  -87.200; -270.000;   42.000
447.446;  -15.550;  286.000;  530.000
447.568; -141.975; -921.000; -803.000
447.690;  -68.250; -236.000; -245.000
447.812; -150.625; -798.000; -519.000
447.933;  -38.425;  155.000;  127.000
448.055;  -58.375; -306.000; -261.000
448.177;  191.250;   31.000;   79.000
448.299;  170.150; -935.000; -727.000
448.420;   43.750;  -25.000;  159.000
448.542;  -42.950;   -3.000;   33.000
448.664;  -41.750;  109.000;  322.000
448.785;  -43.825;  265.000;   83.000
448.907;  -63.575; -614.000; -353.000
449.028;   -5.025; -771.000; -471.000
449.150;   60.225;  492.000;  589.000
449.272; -165.000;-1044.000; -913.000
449.393;   26.200;  612.000;  694.000
449.515; -129.000; -634.000; -581.000
449.636;  -48.325; -264.000; -155.000
449.758;   78.925;  763.000;  622.000
449.879;  -84.025; -498.000; -396.000
450.001;  -76.350; -149.000;  -49.000
450.122;  -41.525;  -95.000;  162.000
450.244;  -22.250;   37.000;  364.000
450.365; -103.450; -495.000; -301.000
450.486;  -46.325;   80.000;  268.000
450.608;    0.500;  393.000;  326.000
450.729;   66.525;  578.000;  645.000
450.850;   -2.125; -574.000; -466.000
450.972;  639.725; -552.000; -389.000
451.093; 4346.125;  190.000;  588.000
451.214; 2006.350; -516.000; -337.000
451.336;  376.850;  773.000;  579.000
451.457;   65.175;  264.000;  393.000
451.578;  -44.825; -118.000;  -74.000
451.699; -128.325; -546.000; -540.000
451.821;  -77.000; -284.000;  -50.000
451.942;  -21.275;  278.000;  285.000
452.063;    8.775;  228.000;  419.000
452.184;  477.325;  -54.000;  -49.000
452.305; 1013.825;  103.000;  170.000
452.427;  119.625; -549.000; -301.000
452.548;  -17.675;   23.000;   79.000
452.669;  -61.825; -257.000;  -89.000
452.790;  -37.850;    3.000;  -18.000
452.911;    6.375;  195.000;  259.000
453.032;  -64.800; -289.000;  -60.000
453.153;  -22.400;  -29.000;   81.000
453.274;   62.450;  737.000;  868.000
453.395;  -21.975;  -51.000;  175.000
453.516;  133.800; 1317.000; 1388.000
453.637;  -58.475; -205.000; -150.000
453.758;  -51.050;   15.000;   69.000
453.879; -116.175; -462.000; -250.000
454.000;   74.775; 1086.000;  948.000
454.121; -104.150; -554.000; -326.000
454.242; -130.525; -599.000; -383.000
454.362;  -59.875;  -99.000;  114.000
454.483;  -24.975; -309.000; -229.000
454.604;   62.100;  512.000;  580.000
454.725; -121.600; -627.000; -555.000
454.846; -125.625; -474.000; -406.000
454.967;  -20.550;  230.000;  539.000
455.087;  -37.150;  179.000;  153.000
455.208;   30.400;  554.000;  856.000
455.329;  -50.100;  -22.000;   82.000
455.450;   25.225;  473.000;  633.000
455.570;  -90.850; -234.000; -211.000
455.691;  -59.175;  201.000;  407.000
455.812; -111.750; -270.000;  -92.000
455.932;  -74.025;  107.000;  -97.000
456.053;  -87.075;   36.000;   24.000
456.173;  -98.750; -433.000; -355.000
456.294; -143.025; -476.000; -303.000
456.415;  -68.375;  -73.000;   70.000
456.535;  -38.575;  297.000;  273.000
456.656;  -58.950;  132.000;  240.000
456.776;  -71.750;    3.000;  298.000
456.897;  -17.500;  308.000;  513.000
457.017;  -75.050; -153.000;   -3.000
457.138;  -98.675; -402.000; -249.000
457.258;  -12.225;  263.000;  224.000
457.379;  -18.175;  509.000;  521.000
457.499;  -34.250;  443.000;  432.000
457.620; -109.250; -407.000; -231.000
457.740;  -97.750; -132.000;  -11.000
457.860;  -69.175;   87.000;   44.000
457.981;  -41.900;  132.000;  124.000
458.101;  -73.275;  -89.000;   40.000
458.221;  -21.550;  336.000;  402.000
458.342;  -60.225;   -4.000;  -37.000
458.462;   19.125;  617.000;  352.000
458.582;  -47.425; -302.000; -294.000
458.703;   -7.350;  303.000;  154.000
458.823;  -30.600;   22.000;  163.000
458.943;   10.950;  341.000;  467.000
459.063;  -18.600; 1124.000;  192.000
459.183;  -27.625;  328.000;  313.000
459.304;   -8.575;  315.000;  517.000
459.424;  -83.375; -246.000;  -89.000
459.544;  279.825;  388.000;  764.000
459.664;  792.650;  499.000;  506.000
459.784;  305.325; 1004.000; 1175.000
459.904;   63.275;  867.000;  744.000
460.024;   56.475;  867.000;  684.000
460.144;   13.675;  449.000;  554.000
460.264;  -12.075;  515.000;  327.000
460.385; -100.175; -145.000; -119.000
460.505;   28.325;  905.000;  858.000
460.625;  -93.950;  -17.000;  -68.000
460.745;  -23.875;  396.000;  541.000
460.864;  -51.075;  153.000;  469.000
460.984;   21.475;  499.000;  573.000
461.104;  125.450; 1656.000; 1775.000
461.224;   16.125;  657.000;  650.000
461.344;  -29.875;  431.000;  360.000
461.464;  -25.325;  258.000;  513.000
461.584;  -17.775;  283.000;  466.000
461.704;  -30.650;   58.000;  108.000
461.824;  -42.175;  238.000;  259.000
461.943;  -40.875;  191.000;  130.000
462.063;  -60.625;    2.000;  324.000
462.183;   23.200;  639.000;  717.000
462.303;  108.025; 1678.000; 1230.000
462.422;   20.000;  781.000;  840.000
462.542;  -37.100;  271.000;  391.000
462.662;   50.525;  353.000;  380.000
462.782;  222.450;  833.000;  572.000
462.901;  437.050;  545.000;  717.000
463.021;  285.750; 1702.000; 1638.000
463.141;   -6.200;  337.000;  770.000
463.260;  -26.525;  614.000;  474.000
463.380;   11.400;  902.000;  884.000
463.499;  -36.450;  342.000;  332.000
463.619;  -29.675;  581.000;  559.000
463.738;  106.475; 1644.000;  903.000
463.858;   17.350;  657.000;  811.000
463.978;  -38.950;  542.000;  396.000
464.097;   48.925;  921.000; 1114.000
464.217;  100.700; 1196.000; 1143.000
464.336;  115.125; 1068.000; 1130.000
464.455;  -41.150;  328.000;  659.000
464.575;   55.700;  597.000;  602.000
464.694;  171.225; 1204.000; 1179.000
464.814;  138.425; 1190.000; 1138.000
464.933;   83.200; 1095.000; 1027.000
465.052;   89.875; 1412.000; 1054.000
465.172;   94.850;  922.000;  799.000
465.291;  172.800; 1376.000; 1320.000
465.410;   22.250;  462.000;  735.000
465.530;   80.800; 1355.000; 1310.000
465.649;   61.475; 1209.000; 1273.000
465.768;  149.950; 1673.000; 1508.000
465.888;   48.925;  941.000; 1174.000
466.007;   89.350; 1335.000; 1440.000
466.126;    0.350;  721.000;  641.000
466.245;   37.400; 1176.000; 1187.000
466.364;   18.375;  950.000; 1060.000
466.484;   54.300; 1024.000; 1213.000
466.603;   37.825; 1101.000; 1222.000
466.722;  125.200; 1490.000; 1769.000
466.841;   92.900; 1151.000; 1401.000
466.960;   37.125; 1069.000;  972.000
467.079;  120.725; 1971.000; 1786.000
467.198;   51.700; 1238.000; 1181.000
467.317;   85.950; 1768.000; 1162.000
467.436;   68.625; 1709.000; 1261.000
467.555;  130.300; 1796.000; 1746.000
467.674;   54.600; 1227.000; 1329.000
467.793;   58.775; 1376.000; 1374.000
467.912;   75.850; 1658.000; 1539.000
468.031;  140.925; 2038.000; 1930.000
468.150;  125.800; 1842.000; 1837.000
468.269;  193.175; 2313.000; 2090.000
468.388;  186.050; 2168.000; 2339.000
468.507;  252.925; 2884.000; 2903.000
468.626;  275.575; 2555.000; 2541.000
468.744;  132.000; 2018.000; 2174.000
468.863;  184.225; 2312.000; 2523.000
468.982;  105.225; 1503.000; 1555.000
469.101;  211.150; 2788.000; 2692.000
469.220;  148.775; 2333.000; 2176.000
469.338;  260.575; 2935.000; 3051.000
469.457;  186.900; 2719.000; 2545.000
469.576;  325.200; 3953.000; 3784.000
469.695;  234.475; 2877.000; 3066.000
469.813;  413.100; 4148.000; 4192.000
469.932;  403.375; 4255.000; 4485.000
470.051;  421.850; 4075.000; 4161.000
470.169;  800.050; 4470.000; 4338.000
470.288; 1390.150; 4700.000; 4809.000
470.406;  838.800; 5059.000; 5194.000
470.525;  613.000; 6101.000; 5787.000
470.644;  658.325; 6847.000; 6794.000
470.762;  829.025; 8397.000; 7873.000
470.881;  887.925; 8651.000; 8464.000
470.999; 1031.975; 9685.000; 9151.000
471.118; 1115.475;11174.000;10711.000

