
Integration time [ms]: 100.000
Averaging Nr. [scans]: 40
Smoothing Nr. [pixels]: 0
Data measured with spectrometer [name]: 2101012U2
Wave   ;Sample   ;Dark     ;Reference
[nm]   ;[counts] ;[counts] ;[counts] 

197.733;   49.075;  516.000;  404.000
197.879;  -90.250; -610.000; -634.000
198.025;  -41.475; -475.000; -420.000
198.171;  -79.150; -602.000; -612.000
198.317;  -33.875; -401.000; -316.000
198.463;  -63.525; -655.000; -404.000
198.609;   38.350;  181.000; -137.000
198.755;  -72.225; -644.000; -410.000
198.901;  -69.775; -505.000; -424.000
199.047;  -63.725; -615.000; -488.000
199.193;  -27.075; -230.000; -468.000
199.339;  -38.200; -222.000; -369.000
199.485;   35.125;  330.000;  271.000
199.631;    7.400;  227.000;  310.000
199.777;  -54.700; -466.000; -398.000
199.923;  -62.450; -610.000; -424.000
200.069;    8.450; -141.000;  -58.000
200.215;   47.100;  128.000;  453.000
200.361;   34.725;  243.000;  477.000
200.507;  -63.275; -600.000; -373.000
200.653;  -20.550; -371.000; -194.000
200.798;  -35.825; -215.000; -125.000
200.944;  -12.125; -146.000;  -41.000
201.090;   30.525;   61.000;  222.000
201.236;   -0.300; -116.000; -158.000
201.382;  123.725;  874.000;  903.000
201.528;    5.125;  -58.000;  -48.000
201.674;  -41.000; -386.000; -293.000
201.819;  -48.750; -540.000; -439.000
201.965;  -85.150; -699.000; -447.000
202.111;  -22.400; -273.000; -226.000
202.257;  -35.675; -250.000; -238.000
202.402;   10.300;   13.000;  -36.000
202.548;  -25.475; -169.000; -116.000
202.694;   68.300;  410.000; -183.000
202.840;  -73.575; -603.000; -531.000
202.985;  -63.250; -681.000; -639.000
203.131; -114.425; -832.000; -666.000
203.277;  -21.650; -199.000; -262.000
203.423;  -54.750; -434.000; -520.000
203.568;  -41.375; -462.000; -237.000
203.714;  -65.375; -535.000; -542.000
203.860;  -81.200; -682.000; -641.000
204.005;   13.150;  112.000;  167.000
204.151;   75.300;  561.000;  556.000
204.296;  -36.425; -354.000; -221.000
204.442;  -64.975; -600.000; -547.000
204.588;  -74.550; -592.000; -579.000
204.733;   12.600;  178.000;  168.000
204.879; -126.900;-1018.000; -822.000
205.025;    7.375;  -99.000;  126.000
205.170;   -5.025;  -17.000;   94.000
205.316;   79.600;  438.000;  661.000
205.461;  -81.425; -698.000; -554.000
205.607;   89.000;  609.000;  665.000
205.752;  -70.625; -626.000; -551.000
205.898;  -38.675; -501.000; -391.000
206.043;  -66.475; -578.000; -506.000
206.189;  -48.975; -243.000; -285.000
206.334;   69.325;  554.000;  606.000
206.480;   78.775;  409.000;  239.000
206.625;  -76.700; -529.000; -552.000
206.771;  -41.650; -451.000; -373.000
206.916;  -38.625; -210.000; -537.000
207.062;  -68.500; -545.000; -591.000
207.207;  -55.225; -546.000; -443.000
207.353;   52.225;  185.000;  460.000
207.498;   16.725;  196.000;   85.000
207.643;  -45.875; -501.000; -370.000
207.789; -132.450;-1069.000; -910.000
207.934;  -79.775; -665.000; -713.000
208.080;  -27.875; -154.000;   66.000
208.225;   -7.675;  -22.000;  -57.000
208.370;  -72.525; -727.000; -619.000
208.516;  -80.400; -741.000; -487.000
208.661;  -17.200; -127.000;  -69.000
208.806;  -18.875; -165.000; -171.000
208.952; -114.875;-1044.000; -731.000
209.097;   70.250;  378.000;  349.000
209.242;  -36.575; -307.000; -382.000
209.387;   63.400;  392.000;  350.000
209.533;  -52.150; -321.000; -350.000
209.678;   70.100;  472.000;  543.000
209.823;  -50.525; -408.000; -310.000
209.969; -103.925; -860.000; -757.000
210.114;  -99.300; -907.000; -719.000
210.259; -118.500; -939.000; -889.000
210.404;  -16.725; -171.000;  103.000
210.549;    7.300;  108.000;    3.000
210.695;  -17.125;   -3.000;  -95.000
210.840;   27.400;   94.000;   67.000
210.985;  -65.875; -484.000; -303.000
211.130;   75.500;  268.000;  406.000
211.275;   15.650;  207.000;  199.000
211.420;  -49.675; -300.000; -289.000
211.566;  -71.750; -536.000; -489.000
211.711;   12.875;  218.000;  157.000
211.856;  -52.925; -545.000; -519.000
212.001;    4.500;  151.000;   44.000
212.146;   38.725;  153.000;   49.000
212.291;  -32.200; -210.000; -186.000
212.436;  -21.150; -280.000;   -6.000
212.581;  -89.975; -685.000; -653.000
212.726;  -58.450; -487.000; -538.000
212.871;  -41.925; -552.000; -217.000
213.016; -151.575;-1172.000;-1029.000
213.161;   59.075;  406.000;  291.000
213.306;  -74.650; -435.000; -577.000
213.451;  -82.025; -778.000; -689.000
213.596;  -46.100; -455.000; -347.000
213.741;  -52.000; -448.000; -538.000
213.886;  -80.375; -498.000; -517.000
214.031;  -18.925; -294.000; -124.000
214.176;  -49.325; -408.000; -341.000
214.321;  -20.125; -296.000; -157.000
214.466;  -27.100; -163.000;  -43.000
214.611;   -3.400;  -61.000;  -10.000
214.756; -121.200; -948.000; -858.000
214.901;  -16.675; -388.000; -226.000
215.046; -107.300; -797.000; -825.000
215.191;   21.250;  128.000;   35.000
215.336;   -9.650; -157.000;  -19.000
215.480;  -77.725; -684.000; -505.000
215.625;  -15.850; -175.000;  -19.000
215.770;  -78.350; -757.000; -662.000
215.915;   -0.350;   -5.000;  -97.000
216.060;   -6.425; -113.000;  -21.000
216.205;  -93.250; -731.000; -779.000
216.349;  -62.525; -470.000; -533.000
216.494; -122.125; -939.000; -867.000
216.639; -104.700; -823.000; -888.000
216.784;  -84.725; -577.000; -525.000
216.929;   42.450;  392.000;  281.000
217.073;   -4.400; -244.000;  -31.000
217.218;   20.075;   78.000;  -47.000
217.363;  -94.875; -656.000; -618.000
217.507;  -71.950; -623.000; -588.000
217.652; -116.225; -845.000; -874.000
217.797;  -80.425; -708.000; -659.000
217.942; -104.625; -856.000; -720.000
218.086;   57.275;  608.000;  539.000
218.231;  -26.850; -174.000;  -26.000
218.376;  -24.200; -337.000; -229.000
218.520;   -8.425;  -41.000;   96.000
218.665;  -17.175; -338.000; -204.000
218.810;  -33.400; -275.000; -233.000
218.954;   25.750;  201.000;   35.000
219.099; -111.125; -713.000; -963.000
219.243;  -63.325; -589.000; -554.000
219.388;  -28.600; -264.000; -136.000
219.532;  -17.275; -116.000; -116.000
219.677;  -68.650; -564.000; -521.000
219.822;   -2.850;   33.000;   89.000
219.966;    3.100;   17.000;  -99.000
220.111;  -24.075; -328.000;  -40.000
220.255;  -87.900; -797.000; -750.000
220.400;  -25.600; -180.000; -146.000
220.544;  -69.475; -516.000; -450.000
220.689;  -44.250; -422.000; -451.000
220.833;  -29.250; -123.000;  -58.000
220.978;  -46.000; -393.000; -563.000
221.122;   16.825;  319.000;  307.000
221.267; -100.900; -906.000; -837.000
221.411;  -60.025; -478.000; -394.000
221.555;   -3.425; -104.000;  -23.000
221.700;  -52.600; -329.000; -222.000
221.844;   30.825;  255.000;  272.000
221.989;  -45.200; -328.000; -311.000
222.133;  -43.625; -289.000; -307.000
222.277;   -6.300;    5.000;   78.000
222.422;    9.475;  227.000;  113.000
222.566;  -42.100; -381.000; -214.000
222.711;  -54.500; -414.000; -479.000
222.855;  -67.675; -643.000; -586.000
222.999;  -76.350; -642.000; -717.000
223.144;  -31.675; -195.000; -194.000
223.288;   48.725;  423.000;  251.000
223.432;   30.700;  184.000;  230.000
223.576;    9.750;  152.000;  -21.000
223.721;   40.650;  364.000;  273.000
223.865;  -59.250; -472.000; -475.000
224.009;  225.750; 1673.000; 1631.000
224.153;  -79.725; -660.000; -671.000
224.298;  -60.025; -531.000; -489.000
224.442;  -18.900;  -74.000;  -33.000
224.586;  -13.025; -169.000; -106.000
224.730;  -87.850; -858.000; -670.000
224.875; -101.050; -739.000; -688.000
225.019;   11.100;  102.000;  188.000
225.163;   52.575;  208.000;  341.000
225.307;   15.575;   97.000;  -91.000
225.451;   41.475;  360.000;  481.000
225.595;   28.425;  264.000;  176.000
225.739;  -13.575; -170.000;  -94.000
225.884;   -4.500;   86.000;    5.000
226.028;  -99.450; -760.000; -626.000
226.172;  -24.800; -260.000; -273.000
226.316; -111.325; -941.000; -902.000
226.460;  -59.550; -645.000; -493.000
226.604;  -45.400; -406.000; -400.000
226.748;  -82.825; -836.000; -733.000
226.892;  -40.375; -227.000; -181.000
227.036;  -48.400; -537.000; -447.000
227.180;  -63.750; -551.000; -375.000
227.324;  -60.025; -561.000; -580.000
227.468; -118.525; -819.000; -717.000
227.612;   10.900;  242.000;  -28.000
227.756; -103.100; -845.000; -698.000
227.900;   40.825;  342.000;  441.000
228.044;  -66.400; -509.000; -290.000
228.188;   54.575;  448.000;  568.000
228.332;  -90.075; -546.000; -472.000
228.476;  -32.925; -223.000; -149.000
228.620;  -30.375; -210.000; -150.000
228.764;   57.500;  431.000;  349.000
228.908;  -17.100; -155.000;   30.000
229.052;  -69.875; -615.000; -528.000
229.195;  -25.225; -172.000;   13.000
229.339;  -35.575; -235.000; -305.000
229.483;  -17.625;    5.000; -162.000
229.627;    1.150; -156.000;  139.000
229.771;  -44.850; -218.000; -294.000
229.915;   20.500;  230.000;   79.000
230.059;  -85.725; -648.000; -663.000
230.202;  -38.600; -370.000; -317.000
230.346;  -11.925; -107.000;  107.000
230.490;  -64.050; -489.000; -521.000
230.634;  -97.375; -736.000; -553.000
230.777;   75.750;  478.000;  509.000
230.921;  -46.825; -450.000; -359.000
231.065;  -31.150; -246.000; -286.000
231.209;   22.400;  261.000;  265.000
231.352;   23.925;   54.000;   40.000
231.496;    1.100;  568.000;  188.000
231.640;  -73.175; -693.000; -621.000
231.783;   58.900;  546.000;  525.000
231.927;  -41.775; -294.000; -365.000
232.071; -123.575; -962.000; -736.000
232.214;  -97.700; -980.000; -764.000
232.358;  -84.225; -683.000; -599.000
232.502;   -4.175;  -19.000;    7.000
232.645; -138.350;-1090.000; -927.000
232.789;  -22.225; -257.000; -218.000
232.933;  -44.275; -407.000; -224.000
233.076; -124.175;-1038.000; -897.000
233.220; -101.325; -752.000; -777.000
233.363;  -74.900; -669.000; -477.000
233.507;   41.875;  371.000;  129.000
233.650;  -90.325; -764.000; -834.000
233.794;   51.125;  438.000;  461.000
233.938;  -59.575; -530.000; -362.000
234.081;  -17.875;  -93.000;   31.000
234.225;  -72.825; -631.000; -539.000
234.368; -110.450; -773.000; -723.000
234.512;  -39.650; -385.000; -299.000
234.655;  -86.850; -582.000; -555.000
234.798;  -63.825; -493.000; -466.000
234.942; -125.825; -884.000;-1002.000
235.085;  -77.525; -651.000; -443.000
235.229;  -64.500; -405.000; -410.000
235.372;  -50.800; -247.000; -191.000
235.516;  -63.750; -397.000; -321.000
235.659;   21.350;   92.000;  121.000
235.802;  -14.450;  -38.000;  -22.000
235.946;   14.600;  335.000;  215.000
236.089;    8.500;  126.000;  250.000
236.233;   56.225;  275.000;  298.000
236.376;  -45.950; -235.000; -378.000
236.519;  -47.325; -297.000; -319.000
236.663;  -20.400; -215.000; -117.000
236.806; -125.450;-1029.000; -999.000
236.949;   48.675;  543.000;  431.000
237.092;   45.200;  412.000;  391.000
237.236;  -89.650; -589.000; -502.000
237.379;   63.450;  352.000;  428.000
237.522; -119.675; -879.000; -768.000
237.666;  -18.575; -271.000;   18.000
237.809; -115.825; -851.000; -823.000
237.952;   42.775;  469.000;  271.000
238.095;  -69.325; -447.000; -442.000
238.238;   90.925;  688.000;  700.000
238.382;   -5.675;  166.000;  103.000
238.525;  -60.325; -598.000; -511.000
238.668; -140.725;-1060.000; -985.000
238.811;  -84.700; -638.000; -643.000
238.954;  -58.300; -483.000; -334.000
239.097;  100.750;  617.000;  664.000
239.241;   18.050;  394.000;  326.000
239.384;  -40.825; -254.000; -214.000
239.527;  -61.800; -424.000; -224.000
239.670; -145.875; -994.000;-1091.000
239.813; -111.975; -696.000; -658.000
239.956;   82.350;  579.000;  473.000
240.099; -109.950; -778.000; -725.000
240.242;   60.600;  428.000;  432.000
240.385;   44.200;  466.000;  450.000
240.528;  -64.325; -706.000; -473.000
240.671;    9.125;  189.000;  134.000
240.814;  -52.225; -441.000; -158.000
240.957;  -96.725; -767.000; -578.000
241.100;  -93.550; -779.000; -755.000
241.243; -131.500;-1234.000; -893.000
241.386;  -66.600; -508.000; -379.000
241.529;  -89.600; -735.000; -547.000
241.672;  -60.700; -566.000; -495.000
241.815; -114.250; -832.000; -808.000
241.958;  -20.825; -125.000; -182.000
242.101;  -74.425; -545.000; -390.000
242.244;  -36.625; -270.000; -325.000
242.387;  -46.000; -304.000; -246.000
242.530;   64.425;  470.000;  134.000
242.673;  -47.450; -381.000; -309.000
242.815; -106.475; -925.000; -899.000
242.958;  -76.350; -482.000; -381.000
243.101;    6.350;  132.000;  187.000
243.244;  -73.775; -564.000; -521.000
243.387;  -47.725; -313.000; -316.000
243.530; -102.700; -657.000; -674.000
243.672;    2.925;   43.000;  -92.000
243.815;  -59.975; -355.000; -283.000
243.958;  -11.375;   98.000;  -26.000
244.101;    2.650;   59.000;  -16.000
244.243;  -18.675;  -47.000;  101.000
244.386; -105.175; -761.000; -630.000
244.529;  -36.025; -132.000; -139.000
244.672; -146.100;-1154.000; -951.000
244.814; -101.500; -621.000; -794.000
244.957;  -56.250; -380.000; -304.000
245.100;  -78.775; -489.000; -489.000
245.242;  -65.425; -387.000; -374.000
245.385;   -2.225;  -59.000;  -39.000
245.528; -115.875; -871.000; -705.000
245.670;   80.800;  612.000;  634.000
245.813;  -71.425; -599.000; -547.000
245.956;  -33.375; -324.000; -275.000
246.098;  -74.175; -508.000; -650.000
246.241;    9.600;  194.000;   48.000
246.383;   -8.400; -119.000;  -73.000
246.526;  -64.775; -454.000; -525.000
246.669; -114.700; -889.000; -780.000
246.811;   14.950;  172.000;   -1.000
246.954;  -41.200; -512.000; -426.000
247.096;  -17.875;  -84.000;   -6.000
247.239;  -69.125; -482.000; -445.000
247.381;  -87.400; -647.000; -488.000
247.524;   66.650;  645.000;  679.000
247.666;   -6.225;   58.000;   11.000
247.809; -111.925; -887.000; -691.000
247.951;  -13.725;  -75.000;  138.000
248.094;   17.525;  432.000;  308.000
248.236; -146.675;-1262.000;-1238.000
248.378;   13.825; -356.000;  -81.000
248.521;  -26.475; -334.000; -337.000
248.663;  -21.800; -236.000; -267.000
248.806;   -7.425; -300.000; -266.000
248.948;  -88.250; -886.000; -763.000
249.090;  -41.450; -428.000; -398.000
249.233;  -57.975; -344.000; -381.000
249.375;  -64.425; -474.000; -451.000
249.518;  -27.775;  -83.000; -133.000
249.660;  -13.700; -103.000;    3.000
249.802; -161.950;-1303.000;-1189.000
249.945;  -77.650; -612.000; -540.000
250.087; -113.975; -834.000; -768.000
250.229;  -52.925; -362.000; -480.000
250.371;  -77.125; -494.000; -439.000
250.514;  -37.350; -310.000; -244.000
250.656;  -60.625;   69.000;  102.000
250.798; -111.500; -849.000; -800.000
250.940;  -63.625; -322.000; -322.000
251.083;  -24.525; -335.000; -111.000
251.225;   43.700;  338.000;  310.000
251.367;  -26.350; -274.000; -373.000
251.509;  -38.100; -265.000; -210.000
251.651; -102.800; -731.000; -671.000
251.794;   58.475;  538.000;  632.000
251.936;  -99.050; -821.000; -747.000
252.078;  -76.225; -540.000; -461.000
252.220;  -78.950; -645.000; -477.000
252.362;   82.900;  344.000;  462.000
252.504;  -63.575; -677.000; -584.000
252.646; -106.825; -875.000; -722.000
252.788;    4.725;   14.000; -128.000
252.931;  -36.075; -257.000; -253.000
253.073;  -53.375; -376.000; -317.000
253.215;   -7.275;  141.000;  122.000
253.357;  -16.075;   82.000; -153.000
253.499;  -54.975; -374.000; -234.000
253.641;  -81.025; -749.000; -594.000
253.783; -100.900; -609.000; -527.000
253.925;  -85.175; -586.000; -591.000
254.067; -103.925; -744.000; -667.000
254.209;  -26.100; -391.000; -259.000
254.351; -125.000; -865.000; -883.000
254.493;  -64.325; -441.000; -417.000
254.635; -127.425; -936.000; -818.000
254.777;  -87.150; -752.000; -687.000
254.918;  -62.025; -512.000; -430.000
255.060;  -56.350; -551.000; -395.000
255.202;  -61.575; -473.000; -261.000
255.344;  -76.225; -658.000; -455.000
255.486;  -80.550; -471.000; -406.000
255.628; -107.600; -780.000; -781.000
255.770;  -92.425; -676.000; -536.000
255.912;  -62.925; -559.000; -468.000
256.053;  -95.250; -730.000; -508.000
256.195;  152.350; 1008.000;  903.000
256.337;  -99.500; -861.000; -595.000
256.479;   53.500;  532.000;  416.000
256.621;  -59.400; -394.000; -212.000
256.762;  -91.150; -789.000; -742.000
256.904;   54.725;  485.000;  487.000
257.046;  -42.950; -381.000; -271.000
257.188;  -44.250; -351.000; -264.000
257.329;  -87.250; -525.000; -464.000
257.471; -112.975; -939.000; -807.000
257.613;  -63.050; -584.000; -498.000
257.755; -142.075;-1073.000; -982.000
257.896;   28.150;  286.000;  392.000
258.038;  -72.250; -403.000; -352.000
258.180;  -44.975; -354.000; -279.000
258.321;  -75.625; -581.000; -457.000
258.463;   -3.700;  -71.000;  133.000
258.605;  -80.800; -562.000; -570.000
258.746; -100.075; -886.000; -772.000
258.888; -163.500;-1026.000;-1020.000
259.029;    2.025;  121.000;   -8.000
259.171;  -88.400; -614.000; -550.000
259.313;    1.575;  -49.000;  -47.000
259.454;  -68.075; -536.000; -414.000
259.596;  -50.650; -483.000; -390.000
259.737;  -78.150; -590.000; -474.000
259.879;   34.250;  217.000;  311.000
260.020;   93.125;  901.000;  636.000
260.162;  -25.250; -146.000; -253.000
260.303; -112.450; -768.000; -687.000
260.445;  -75.575; -609.000; -613.000
260.586;   18.325;  392.000;  157.000
260.728;  -38.450; -360.000; -248.000
260.869;  -58.075; -350.000; -343.000
261.011;   67.025;  706.000;  537.000
261.152;  -58.500; -479.000; -319.000
261.293;  -75.350; -576.000; -595.000
261.435;  -35.325; -219.000; -184.000
261.576;  -41.600; -455.000; -325.000
261.718;   38.325;  420.000;  470.000
261.859; -131.100; -940.000; -949.000
262.000; -125.800; -951.000;-1016.000
262.142;   -7.525;  -52.000;  -60.000
262.283; -110.025; -808.000; -691.000
262.424;  -89.275; -666.000; -625.000
262.566; -150.300;-1161.000; -983.000
262.707; -100.200; -840.000; -830.000
262.848; -112.025; -769.000; -726.000
262.990;  -32.225; -362.000; -345.000
263.131;   70.575;  650.000;  681.000
263.272;  -20.350;  -61.000;  -41.000
263.413;  -81.550; -589.000; -561.000
263.555;  -61.550; -669.000; -143.000
263.696;  -71.125; -550.000; -641.000
263.837;  -66.250; -449.000; -551.000
263.978;   -6.350;   -5.000;  -77.000
264.119;  -40.000; -283.000; -264.000
264.261; -115.500; -847.000; -630.000
264.402;   -6.625;   33.000;   40.000
264.543;  -82.100; -509.000; -524.000
264.684;  -15.400;   61.000;  -50.000
264.825;  -75.025; -816.000; -538.000
264.966;   -0.125;  -84.000;  -67.000
265.107; -117.100; -646.000; -670.000
265.248; -118.250; -825.000; -812.000
265.390;  -11.325;  152.000;   -9.000
265.531;  -24.675; -238.000; -107.000
265.672;  -86.575; -557.000; -630.000
265.813;   66.725;  563.000;  439.000
265.954; -138.100; -959.000; -940.000
266.095;   -6.275; -372.000; -322.000
266.236; -110.275; -686.000; -548.000
266.377;  -37.425; -243.000; -297.000
266.518;  -76.775; -619.000; -547.000
266.659;   30.325;  170.000;  268.000
266.800;   -8.975;   83.000;   85.000
266.941;  -83.700; -487.000; -478.000
267.082;   13.700;  354.000;   99.000
267.223;  -50.375; -344.000; -273.000
267.364; -106.800; -892.000; -686.000
267.504;  -12.825;    3.000;  135.000
267.645;    5.200;  160.000;   67.000
267.786;  -33.400; -147.000;  -86.000
267.927;  -73.150; -473.000; -379.000
268.068;  -13.175; -186.000;  -61.000
268.209;  -39.850; -175.000; -413.000
268.350;  -57.025; -388.000; -532.000
268.490;  -92.750; -648.000; -521.000
268.631;   27.825;  127.000;  225.000
268.772; -110.525; -874.000; -647.000
268.913;  -55.100; -328.000; -476.000
269.054;  -15.725; -117.000;   12.000
269.194;  -53.700; -418.000; -402.000
269.335; -149.900;-1137.000;-1074.000
269.476;   -4.425;   33.000;  -35.000
269.617;  -34.200; -347.000; -392.000
269.757;  -90.100; -713.000; -646.000
269.898; -107.000; -856.000; -613.000
270.039;  -61.025; -415.000; -405.000
270.180; -140.575; -952.000; -816.000
270.320;  -34.400; -190.000; -250.000
270.461;  -50.750; -277.000; -249.000
270.602;  -17.425; -186.000; -156.000
270.742; -116.025; -868.000; -943.000
270.883;  -42.600; -442.000; -390.000
271.023;  -49.375; -358.000; -357.000
271.164;  -80.625; -607.000; -528.000
271.305;  -89.550; -666.000; -654.000
271.445;  -85.975; -722.000; -683.000
271.586;  -75.925; -462.000; -283.000
271.726;  -42.375; -397.000; -322.000
271.867;  -67.500; -594.000; -534.000
272.008;  198.450; -473.000; -285.000
272.148;  134.950;  462.000;  468.000
272.289;    7.925; -113.000; -181.000
272.429;   16.500;   19.000;  185.000
272.570; -100.750; -633.000; -737.000
272.710;  -96.400; -825.000; -775.000
272.851;  -23.300;  113.000; -130.000
272.991; -147.075;-1173.000;-1077.000
273.131;  -64.775; -419.000; -459.000
273.272;  -95.775; -683.000; -723.000
273.412;    5.500; -143.000;  -31.000
273.553;  -44.475; -488.000; -507.000
273.693;  130.800;  913.000;  858.000
273.834;  -80.625; -894.000; -692.000
273.974;  -76.850; -664.000; -615.000
274.114;  -87.400; -772.000; -560.000
274.255;   75.350;  414.000;  373.000
274.395;    5.700; -180.000; -125.000
274.535;   31.550;  199.000;  350.000
274.676;   30.700;  225.000;   94.000
274.816;    1.475;  110.000;   34.000
274.956;  -83.075; -624.000; -690.000
275.097;  -59.375;-1014.000; -922.000
275.237; -108.075; -913.000; -803.000
275.377;  -91.475; -778.000; -689.000
275.517; -147.450; -878.000; -937.000
275.658;  -58.800; -590.000; -555.000
275.798;  -63.075; -606.000; -413.000
275.938;   28.600;  215.000;  323.000
276.078;  -96.525; -626.000; -395.000
276.218;    3.275;   99.000;  104.000
276.359; -127.725;-1026.000;-1024.000
276.499;  -72.775; -605.000; -446.000
276.639;  -41.200; -305.000; -151.000
276.779;  -39.875; -475.000; -357.000
276.919; -105.775; -783.000; -624.000
277.059;  -24.775; -261.000; -212.000
277.199;  -28.150; -357.000; -259.000
277.340;   42.025;  287.000;  175.000
277.480; -107.600; -840.000; -693.000
277.620;   25.950;  192.000;   16.000
277.760; -185.650;-1533.000;-1294.000
277.900;   34.475;  113.000;   33.000
278.040;   10.025;  137.000;  159.000
278.180;   32.275;  270.000;  170.000
278.320;   -3.750;   21.000;   56.000
278.460;  -61.050; -443.000; -469.000
278.600;  -92.175; -708.000; -598.000
278.740;   55.975;  448.000;  224.000
278.880;  -32.050; -768.000; -791.000
279.020;   -6.550; -194.000; -144.000
279.160;  -86.225; -672.000; -595.000
279.300; -110.900; -926.000; -873.000
279.440;  -82.375; -709.000; -622.000
279.579;   -5.000;-1014.000; -929.000
279.719;  -55.875; -410.000; -394.000
279.859;   72.550;   -4.000;   41.000
279.999;   35.900; -208.000;  101.000
280.139;   -7.725; -435.000; -387.000
280.279;  -70.525; -708.000; -745.000
280.419;  -10.750; -229.000; -147.000
280.559;  -37.525; -259.000; -180.000
280.698;  -77.600; -790.000; -639.000
280.838;  -74.225; -778.000; -800.000
280.978; -104.425; -846.000; -790.000
281.118; -125.775; -811.000; -704.000
281.257;    5.575;   24.000;    6.000
281.397; -110.625;-1094.000; -960.000
281.537;  -79.025; -599.000; -712.000
281.677;  -18.200; -150.000; -101.000
281.816;  -87.475; -700.000; -630.000
281.956;  -41.650; -193.000; -257.000
282.096;  -62.775; -539.000; -396.000
282.235;  -95.400; -672.000; -638.000
282.375;  -14.600; -243.000;  -98.000
282.515;  -91.825; -715.000; -707.000
282.654;   21.725;   29.000;  106.000
282.794;   25.375;  388.000;  244.000
282.934;  -43.575; -530.000; -491.000
283.073; -116.450;-1030.000; -857.000
283.213;  -58.050; -460.000; -467.000
283.353;  -30.475; -408.000; -349.000
283.492;  -31.950; -264.000; -296.000
283.632;  -37.000; -254.000; -168.000
283.771;  -99.675; -859.000; -730.000
283.911;  -41.475; -369.000; -260.000
284.050; -101.400; -794.000; -748.000
284.190; -154.475;-1229.000;-1096.000
284.329; -138.000;-1055.000; -964.000
284.469;  -62.000; -516.000; -591.000
284.608;  -49.650; -559.000; -598.000
284.748;  -84.525; -614.000; -570.000
284.887;  -15.950;  -87.000;  -20.000
285.027; -127.375; -844.000; -892.000
285.166;  -18.225; -192.000; -249.000
285.306;   14.625; -116.000;  -33.000
285.445;  -40.700; -229.000; -343.000
285.584;  -87.250; -630.000; -494.000
285.724;  -44.825; -282.000; -322.000
285.863; -115.375; -857.000; -507.000
286.002;  -53.900; -366.000; -276.000
286.142; -103.475; -715.000; -622.000
286.281;  -62.425; -525.000; -493.000
286.420;  -69.200; -554.000; -417.000
286.560;   80.650;  653.000;  623.000
286.699; -133.750; -958.000; -912.000
286.838;  -77.800; -590.000; -591.000
286.978;  -92.525; -533.000; -537.000
287.117; -125.500;-1085.000; -950.000
287.256;  -31.950; -228.000; -211.000
287.395;  -51.575; -197.000; -378.000
287.535;  -40.450; -370.000; -298.000
287.674;  -78.425; -509.000; -484.000
287.813;   69.025;  661.000;  533.000
287.952; -116.900;-1010.000; -871.000
288.091; -132.625;-1049.000; -915.000
288.231;   21.850;   13.000;   15.000
288.370; -172.225;-1217.000;-1200.000
288.509;  -84.925; -728.000; -645.000
288.648;  -89.275; -770.000; -548.000
288.787;  -24.350; -243.000;  -87.000
288.926;  -47.725; -454.000; -475.000
289.065;  111.250;  859.000;  672.000
289.204;  -42.600; -377.000; -217.000
289.344;  -78.050; -791.000; -690.000
289.483;   20.900;  416.000;  304.000
289.622;  -29.875; -291.000; -149.000
289.761;  -10.325; -309.000; -166.000
289.900; -112.100; -785.000; -626.000
290.039;   -6.575;  -12.000;  -95.000
290.178;  -51.250; -274.000; -180.000
290.317;  -75.150; -618.000; -479.000
290.456;  -53.150; -463.000; -451.000
290.595; -130.750; -961.000; -833.000
290.734; -138.275; -904.000; -891.000
290.873;  -74.600; -456.000; -420.000
291.011; -105.200; -833.000; -843.000
291.150; -102.150; -770.000; -682.000
291.289;  -25.175; -343.000; -110.000
291.428;  -88.375; -599.000; -480.000
291.567;  -56.750; -370.000; -442.000
291.706;   -4.025;  109.000;  154.000
291.845;  -76.175; -597.000; -505.000
291.984; -147.700;-1234.000;-1061.000
292.122;   62.125;  602.000;  582.000
292.261;   33.150;  620.000;  463.000
292.400;    4.875; -144.000;  211.000
292.539; -119.800; -959.000; -813.000
292.678;  -26.275; -325.000; -300.000
292.816; -153.325;-1136.000; -965.000
292.955;  -77.500; -844.000; -684.000
293.094;  -19.100; -173.000; -337.000
293.233;  -54.725; -556.000; -400.000
293.371;  -30.400; -225.000;  -84.000
293.510; -112.425; -866.000; -780.000
293.649; -131.100; -959.000; -924.000
293.787;  -49.625;-1083.000;-1012.000
293.926;  -13.050; -113.000;  -32.000
294.065;  -44.150; -379.000; -290.000
294.203;   40.825;  298.000;  406.000
294.342;    7.825;   74.000;  156.000
294.481; 6012.675;51180.000; -836.000
294.619;  -20.750; -425.000; -582.000
294.758; -127.550;-1230.000;-1137.000
294.896;   80.200; -125.000;    5.000
295.035; -115.100;-1040.000;-1006.000
295.174; -108.500;-1082.000; -954.000
295.312;  -36.475; -323.000; -203.000
295.451;    2.575; -307.000; -428.000
295.589;  -45.875; -389.000; -518.000
295.728;   19.625; -292.000; -165.000
295.866;   11.450;  -36.000;  -51.000
296.005;  -53.400; -584.000; -341.000
296.143;  -74.225; -558.000; -596.000
296.282;  -97.700; -957.000; -881.000
296.420;  -88.350; -657.000; -557.000
296.559;  -82.775; -892.000; -633.000
296.697;   49.125; -847.000; -665.000
296.835;  104.775;-1141.000;-1002.000
296.974;   53.375;  -23.000;   39.000
297.112;   30.800; -443.000; -504.000
297.251;  -56.100; -815.000; -755.000
297.389;  132.475; -576.000; -438.000
297.527;   36.425; -145.000;  -83.000
297.666;  -31.625; -486.000; -438.000
297.804;  -53.725; -404.000; -264.000
297.942;   -7.625; -136.000; -161.000
298.081;    7.550; -183.000;   63.000
298.219;   69.000;  -17.000;  -19.000
298.357;   63.525; -144.000;  -71.000
298.495;   60.775; -810.000; -812.000
298.634;   85.375;  245.000;  219.000
298.772;   80.300; -220.000; -338.000
298.910;  -15.975; -309.000; -182.000
299.048;   -9.775; -130.000; -153.000
299.187;  -18.650; -350.000; -250.000
299.325;   21.700;   52.000;  122.000
299.463;   81.950; -389.000; -299.000
299.601;  145.250; -327.000; -271.000
299.739;  -89.825; -908.000; -883.000
299.877;  -76.075; -791.000; -703.000
300.016;  -21.650;-1095.000; -935.000
300.154;  187.275;  -19.000; -161.000
300.292;   74.225; -428.000; -348.000
300.430;   47.000; -408.000; -291.000
300.568; -106.975; -940.000; -874.000
300.706;  -40.475; -366.000; -469.000
300.844;  -59.450;-1108.000; -979.000
300.982;  124.100;  246.000;  282.000
301.120;  -97.125; -965.000; -866.000
301.258;  -65.975; -812.000; -705.000
301.396;   44.550;  104.000;  -41.000
301.534;   97.975; -218.000; -293.000
301.672;   15.575; -664.000; -521.000
301.810;   64.725; -613.000; -545.000
301.948;  134.900;   53.000;  149.000
302.086;  718.050; -250.000;  -32.000
302.224; 1092.600; -610.000; -585.000
302.362;   55.275; -558.000; -622.000
302.500;   14.575; -923.000; -893.000
302.638;  116.500;  128.000;  245.000
302.776;    4.675; -352.000; -408.000
302.913;   44.075;  447.000;  236.000
303.051;   -3.300;  -86.000;  -23.000
303.189;   47.450;   90.000;  118.000
303.327;  -36.950; -341.000; -256.000
303.465;  -78.250; -832.000; -588.000
303.603;  -86.350; -805.000; -604.000
303.740;  117.400;  417.000;  241.000
303.878;   49.500; -800.000; -759.000
304.016;  -79.275; -915.000; -790.000
304.154; -111.550;-1123.000;-1152.000
304.291;  -32.375; -505.000; -554.000
304.429;    3.900;  102.000;   74.000
304.567; -113.850; -908.000; -893.000
304.705;  -41.500; -408.000; -515.000
304.842;  123.075; -616.000; -540.000
304.980;   59.175;  215.000;   35.000
305.118;   68.125; -367.000; -365.000
305.255;  -62.075; -945.000; -927.000
305.393;   67.725;  178.000;  239.000
305.531;  -74.925;-1173.000; -956.000
305.668;  -53.800; -663.000; -582.000
305.806;  118.650; -358.000; -439.000
305.943;  117.600; -629.000; -637.000
306.081;   54.650; -378.000; -267.000
306.219; -101.025; -863.000; -748.000
306.356;   15.075;  158.000;   27.000
306.494;  116.850;  981.000;  761.000
306.631;    4.450;  -11.000;  -55.000
306.769;   15.800; -613.000; -485.000
306.906;  -12.450; -284.000; -258.000
307.044;  -52.475; -473.000; -488.000
307.181;  -59.650; -410.000; -332.000
307.319;   13.325;  112.000;   87.000
307.456; -160.475;-1191.000;-1153.000
307.594;  -80.300; -980.000; -727.000
307.731;   -4.775; -371.000; -164.000
307.868;    5.675;  -15.000;   20.000
308.006; -124.625; -961.000; -847.000
308.143;  -64.175; -618.000; -330.000
308.281;  224.650;  -37.000; -254.000
308.418;   -0.250; -748.000; -640.000
308.555;  -69.300; -400.000; -250.000
308.693;  -62.125; -577.000; -573.000
308.830; -115.825; -712.000; -657.000
308.967;  -11.425; -215.000;  -95.000
309.105;  -38.050; -507.000; -396.000
309.242;   76.975; -468.000; -367.000
309.379;  422.225; -577.000; -655.000
309.517;  -41.100; -936.000; -948.000
309.654;  -89.825; -910.000; -734.000
309.791;  -63.825; -662.000; -580.000
309.928; -113.700; -977.000; -914.000
310.065;  210.875;  819.000;  697.000
310.203;   14.750; -825.000; -850.000
310.340;  -11.625; -465.000; -321.000
310.477;  -74.700; -412.000; -516.000
310.614;  -56.500; -383.000; -473.000
310.751;  -60.000; -427.000; -518.000
310.889;  -13.650;    1.000;   11.000
311.026; -144.125;-1161.000; -939.000
311.163;  -49.100; -386.000; -380.000
311.300;  -75.225; -512.000; -479.000
311.437;  -65.325; -658.000; -619.000
311.574; -141.425;-1226.000; -985.000
311.711;  -47.375; -595.000; -433.000
311.848;  -37.025; -380.000; -388.000
311.985;   11.475;  270.000;   93.000
312.122; -109.875; -932.000; -762.000
312.259; -124.300; -941.000; -994.000
312.396;  -73.150; -508.000; -551.000
312.533;  -83.200; -812.000; -790.000
312.670; -127.150;-1070.000; -898.000
312.807;  -23.450; -352.000; -367.000
312.944;  -66.700; -513.000; -611.000
313.081;  -36.550; -150.000; -415.000
313.218;  -82.275;-1111.000; -867.000
313.355;   13.375; -531.000; -449.000
313.492;   20.225; -455.000; -292.000
313.629;  129.750;  815.000;  735.000
313.766; -145.975;-1176.000;-1008.000
313.902;  -12.850; -186.000;   21.000
314.039;  -39.625; -372.000; -289.000
314.176;   30.000;  286.000;  192.000
314.313;  -67.325; -569.000; -473.000
314.450;  -71.500; -788.000; -684.000
314.587;  -55.475; -468.000; -480.000
314.723;   15.750;  -78.000;  130.000
314.860;   33.650;  318.000;  332.000
314.997;   18.550;  223.000;  142.000
315.134;  -38.000; -385.000; -368.000
315.270;  -31.275; -480.000; -496.000
315.407; -113.025;-1094.000; -967.000
315.544;  -36.475; -657.000; -538.000
315.681;  -70.150; -681.000; -565.000
315.817;   44.000; -133.000; -176.000
315.954;   12.400; -613.000; -392.000
316.091; -105.500;-1045.000;-1023.000
316.227;  -21.875;  -71.000; -179.000
316.364;    5.125;   23.000;    6.000
316.500;  -35.825; -113.000; -300.000
316.637;  -37.175; -181.000; -302.000
316.774;  -84.750; -625.000; -358.000
316.910;  -81.975; -598.000; -629.000
317.047;  -58.325; -487.000; -351.000
317.183;  -44.525; -435.000; -566.000
317.320;  -21.825; -367.000; -321.000
317.456;  -67.675; -733.000; -805.000
317.593;  -82.675; -598.000; -641.000
317.729;    7.725;  168.000;  -67.000
317.866; -187.900;-1434.000;-1285.000
318.002;  -80.175; -708.000; -948.000
318.139;  -89.650; -883.000; -867.000
318.275;  -96.325;-1003.000; -738.000
318.412;  -64.075; -517.000; -336.000
318.548;  -13.275; -751.000; -720.000
318.685;  -86.275; -985.000; -888.000
318.821;  -83.225; -762.000; -735.000
318.957;  -16.025;   34.000;  -23.000
319.094;   46.350;  297.000;  154.000
319.230;  -38.875; -756.000; -742.000
319.367;  166.075; -471.000; -520.000
319.503;   67.375; -538.000; -436.000
319.639;  -95.100; -877.000; -793.000
319.775;  -55.575; -750.000; -685.000
319.912;  -45.800; -424.000; -519.000
320.048;  -68.700;-1184.000;-1184.000
320.184;   66.775;   59.000;   70.000
320.321;  -42.850; -497.000; -467.000
320.457;   66.500;  475.000;  662.000
320.593;  -65.050; -375.000; -382.000
320.729;  -94.000; -732.000; -734.000
320.866;  -80.125; -577.000; -635.000
321.002;  -63.850; -759.000; -809.000
321.138;   -1.025; -135.000; -211.000
321.274;   68.525; -148.000; -115.000
321.410;  -32.350; -585.000; -353.000
321.546;  -12.075;-1011.000; -911.000
321.683;   41.650;  400.000;  185.000
321.819;   14.850;  -48.000; -117.000
321.955; -101.250; -743.000; -722.000
322.091;  -35.475; -585.000; -540.000
322.227;  -22.800; -382.000; -202.000
322.363;   -4.400; -320.000; -215.000
322.499;  -51.575; -343.000; -331.000
322.635;  176.925;  636.000;  443.000
322.771;   47.900; -139.000;   12.000
322.907;   94.925;  129.000;  327.000
323.043;  -11.500; -115.000; -206.000
323.179;  -29.750; -394.000; -363.000
323.315;   30.200; -401.000; -371.000
323.451;  123.000; -328.000; -236.000
323.587;   76.425;  -60.000;  -77.000
323.723;   48.050; -682.000; -601.000
323.859;    6.525; -258.000;  -76.000
323.995;  -23.900; -467.000; -409.000
324.131; -103.925; -967.000; -892.000
324.267;  -29.300; -254.000; -276.000
324.402; -110.600; -960.000; -983.000
324.538;   -6.750; -279.000; -104.000
324.674;   25.625;  164.000;   77.000
324.810;  154.750;  226.000;  308.000
324.946;   23.375; -810.000; -658.000
325.082;  -64.075; -568.000; -475.000
325.217;  -27.300;  -62.000;   16.000
325.353; -108.300; -764.000; -659.000
325.489;  -84.050; -540.000; -506.000
325.625;  -70.425; -579.000; -525.000
325.760;   62.250;  517.000;  376.000
325.896;  -19.250; -515.000; -702.000
326.032;  -42.925; -403.000; -352.000
326.168;  -67.900; -462.000; -369.000
326.303;  -63.175; -352.000; -461.000
326.439;  -36.050; -336.000; -276.000
326.575;    5.175; -190.000;  -29.000
326.710;   -6.000; -156.000;  -30.000
326.846;  -11.875;  146.000;  103.000
326.982;  -91.275; -530.000; -548.000
327.117;  -80.475; -481.000; -442.000
327.253;  -79.025; -745.000; -742.000
327.388; -114.950;-1137.000;-1153.000
327.524;  -41.025; -811.000; -578.000
327.659;  -28.425;  -58.000;  -22.000
327.795;  -17.700;   69.000;   45.000
327.931;  -78.175; -723.000; -499.000
328.066;  -28.000; -417.000; -276.000
328.202;   -7.550;   12.000; -129.000
328.337;   90.775;  957.000;  713.000
328.473;   31.725;  -12.000;  -74.000
328.608;  -24.775; -256.000; -267.000
328.743;  -70.350; -799.000; -664.000
328.879;   10.600;  214.000;  114.000
329.014;  -34.250; -102.000; -122.000
329.150;  -65.400; -358.000; -483.000
329.285;  -66.275; -465.000; -466.000
329.421;  -41.725; -548.000; -246.000
329.556;  -12.925;  -36.000;   85.000
329.691;  -93.325; -633.000; -615.000
329.827;  -77.425; -626.000; -480.000
329.962;  -47.350;  131.000; -301.000
330.097;  -85.125; -673.000; -585.000
330.233;  -46.000; -410.000; -223.000
330.368; -121.525; -839.000; -628.000
330.503;  -15.800;    3.000;   98.000
330.638;    4.500;  -93.000; -125.000
330.774;  -40.150; -609.000; -530.000
330.909;  -43.850; -434.000; -244.000
331.044;  -91.725; -714.000; -708.000
331.179; -169.200;-1217.000;-1109.000
331.315;    0.250;   77.000;   20.000
331.450;   -3.325;  157.000;  285.000
331.585;  -89.525; -805.000; -706.000
331.720;  -78.325; -510.000; -460.000
331.855;   -2.825;  -35.000; -102.000
331.990;  234.775;   62.000;  138.000
332.126;  121.900; -110.000;   71.000
332.261;  -14.125; -379.000; -265.000
332.396;    2.625; -135.000; -242.000
332.531; -100.525;-1074.000;-1031.000
332.666;   24.650; -519.000; -363.000
332.801; -105.950; -726.000; -807.000
332.936;  -26.525; -192.000; -122.000
333.071; -129.800; -870.000; -817.000
333.206;    2.875;  307.000;  379.000
333.341;   28.725;  344.000;  418.000
333.476;  -84.225; -627.000; -623.000
333.611;  -32.950; -251.000; -173.000
333.746;  -44.525; -381.000; -464.000
333.881; -109.300; -973.000; -935.000
334.016; -118.025; -936.000; -917.000
334.151; -114.650; -746.000; -702.000
334.286;   33.550;  152.000;  186.000
334.421;  -19.550; -125.000; -178.000
334.556;  -88.175; -611.000; -567.000
334.690;  -80.875; -631.000; -577.000
334.825;   63.100;  381.000;   83.000
334.960;  -43.000; -285.000; -413.000
335.095;   23.625;  135.000;  -91.000
335.230;  -89.900; -722.000; -738.000
335.365; -125.150;-1084.000; -990.000
335.499; -121.375;-1108.000;-1037.000
335.634;   24.725;    9.000;  534.000
335.769; -101.025; -755.000; -720.000
335.904;  -50.100; -603.000; -561.000
336.038;  -47.800; -735.000; -657.000
336.173;  -97.725;-1206.000;-1194.000
336.308;    8.750; -116.000; -189.000
336.443;   20.575; -544.000; -634.000
336.577;  -60.025; -936.000; -787.000
336.712;   73.550;   -4.000;  -12.000
336.847;  -27.475; -724.000; -607.000
336.981;   79.675; -272.000; -208.000
337.116;  298.225;  615.000;  501.000
337.250;  183.450; -434.000; -421.000
337.385;  228.125; -297.000; -208.000
337.520;   63.025; -632.000; -603.000
337.654;  -31.525; -215.000; -126.000
337.789; -131.550; -989.000; -933.000
337.923;  -28.075; -104.000; -205.000
338.058;  -80.800; -673.000; -738.000
338.192;  -25.950; -611.000; -488.000
338.327;    0.350;  -18.000; -155.000
338.461;  -55.300; -299.000; -469.000
338.596;  -73.275; -780.000; -638.000
338.730;  -91.525; -767.000; -803.000
338.865;   85.625;  -46.000; -140.000
338.999;  -38.925; -846.000; -702.000
339.134;  -31.100; -634.000; -536.000
339.268;   11.500; -741.000; -603.000
339.403;  354.475; -740.000; -775.000
339.537;  108.500; -894.000; -820.000
339.671; -108.000; -829.000; -813.000
339.806;  -65.600; -556.000; -512.000
339.940;    8.450; -261.000; -235.000
340.074;  -83.375; -685.000; -510.000
340.209;  -44.175; -351.000; -230.000
340.343;  -91.800; -517.000; -573.000
340.477;  143.150;  998.000; 1036.000
340.612;  -44.775;-1033.000; -900.000
340.746;  133.775; -199.000; -243.000
340.880;  -60.550; -924.000; -785.000
341.014;  -17.875;  -45.000; -154.000
341.149; -104.600; -756.000; -718.000
341.283; -100.675; -839.000; -754.000
341.417;  -80.050;-1124.000; -938.000
341.551;  168.275; -768.000; -708.000
341.685;  -35.775; -633.000; -611.000
341.820;  -58.925; -562.000; -493.000
341.954;  -51.800; -218.000; -349.000
342.088; -145.975;-1102.000;-1019.000
342.222;   45.175;  565.000;  618.000
342.356;  -38.500; -395.000; -335.000
342.490;  -86.000; -880.000; -841.000
342.624;  -41.250; -339.000; -242.000
342.758;    2.625; -364.000; -312.000
342.892;  -53.700; -710.000; -585.000
343.026;  -52.775;  -58.000; -116.000
343.160;  -62.325; -426.000; -376.000
343.294;  -76.600; -474.000; -337.000
343.428;  -12.975; -488.000; -448.000
343.562;   -2.900; -172.000;  -23.000
343.696;  -25.575; -385.000; -314.000
343.830;  -25.100; -362.000; -356.000
343.964;   30.900; -231.000; -168.000
344.098; 1039.775;  199.000;   70.000
344.232;  867.575; -266.000; -127.000
344.366;  103.025; -567.000; -453.000
344.500;   94.625; -665.000; -744.000
344.634;   51.150; -324.000; -164.000
344.768;    1.425; -531.000; -341.000
344.902;   31.225;  278.000;  256.000
345.035;  -74.400; -556.000; -496.000
345.169; -129.500; -933.000; -656.000
345.303;  -19.000; -308.000; -482.000
345.437;  -65.825; -826.000; -717.000
345.571;  -68.925; -675.000; -594.000
345.704;  -66.325; -309.000; -532.000
345.838;  -11.600; -331.000; -284.000
345.972;  -23.625; -543.000; -495.000
346.106;  152.500; -179.000; -190.000
346.239;  416.250; -312.000; -243.000
346.373;   11.200; -343.000; -302.000
346.507; -137.825; -950.000; -962.000
346.640;  164.075;  -30.000;   13.000
346.774;  -34.575; -650.000; -797.000
346.908;  -23.800; -138.000;  -11.000
347.041;  -94.800; -646.000; -593.000
347.175;    1.975;  259.000;   27.000
347.309;  -54.725; -698.000; -628.000
347.442;  -88.350; -883.000; -732.000
347.576;  296.525;  670.000;  668.000
347.709;  239.100; -123.000;  -52.000
347.843;  -72.250; -933.000; -825.000
347.976;   24.950;  235.000;  294.000
348.110; -181.425;-1268.000;-1186.000
348.243;  -97.025; -679.000; -772.000
348.377;   -7.225;  -26.000;   60.000
348.510;   49.625;  403.000;  540.000
348.644;  -28.625;  -37.000; -159.000
348.777;   -1.225;  180.000;  191.000
348.911;  -48.700; -142.000; -112.000
349.044;  170.875;  471.000;  448.000
349.178;  199.450;-1069.000;-1006.000
349.311;  122.075;  141.000;  255.000
349.444;  -13.825; -927.000; -813.000
349.578;  -11.675; -347.000; -200.000
349.711;  -81.625; -959.000; -862.000
349.845;   24.075; -661.000; -591.000
349.978; -141.025;-1224.000;-1137.000
350.111;  -70.450; -546.000; -612.000
350.244;  -67.075; -596.000; -700.000
350.378;    5.800; -392.000; -393.000
350.511;  -55.450; -393.000; -426.000
350.644; -103.475; -808.000; -806.000
350.778;    9.200;  168.000;  104.000
350.911;   -8.125;  134.000;  140.000
351.044;  -82.025; -685.000; -615.000
351.177;  -29.925; -321.000; -281.000
351.310;  -20.125;    3.000; -131.000
351.444;  -59.200; -888.000; -788.000
351.577;  126.600;  140.000;   90.000
351.710;  106.600;  593.000;  417.000
351.843;  -28.725; -165.000;  -77.000
351.976;   -5.300;  149.000;  -79.000
352.109;  -83.225; -621.000; -612.000
352.242;   -7.475; -464.000; -419.000
352.376;  -53.700; -580.000; -636.000
352.509;  194.275; -437.000; -356.000
352.642;   49.650; -654.000; -604.000
352.775;   82.350; -141.000;  -98.000
352.908;  -98.250; -933.000; -904.000
353.041;  -93.725; -814.000; -824.000
353.174;  -60.150; -551.000; -424.000
353.307;  -68.925; -753.000; -764.000
353.440;   63.800;  541.000;  453.000
353.573; -109.300; -957.000;-1008.000
353.706;  -50.350; -384.000; -558.000
353.839;   -6.375; -264.000; -220.000
353.971;  -86.600; -657.000; -512.000
354.104;  -68.175; -896.000; -835.000
354.237;  -16.350; -627.000; -662.000
354.370;  -72.575; -846.000; -879.000
354.503; -170.175;-1231.000;-1308.000
354.636;  -34.225; -529.000; -348.000
354.769; -121.775; -937.000; -860.000
354.902;    1.750; -230.000; -139.000
355.034;  -34.525; -164.000; -220.000
355.167;   -8.400; -262.000; -162.000
355.300;  -78.850;-1061.000; -880.000
355.433;  938.350;  -71.000;  -14.000
355.565; 1467.975; -402.000; -384.000
355.698;  376.400; -356.000; -296.000
355.831;   29.825; -882.000; -801.000
355.964;   98.975; -285.000; -170.000
356.096;  -63.650; -856.000; -843.000
356.229;   27.875; -523.000; -530.000
356.362;  322.275; -373.000; -266.000
356.494;  590.450; -229.000; -162.000
356.627;  536.625;  269.000;  377.000
356.760;  670.525;  120.000;   53.000
356.892;  930.750; -286.000; -601.000
357.025;  724.325;  403.000;  389.000
357.157;  703.475; -167.000; -179.000
357.290;  620.975; -856.000; -713.000
357.423;  213.950; -667.000; -556.000
357.555;  146.225; -217.000; -228.000
357.688;  146.150; -483.000; -364.000
357.820;  524.925; -870.000; -877.000
357.953; 4074.350; -563.000; -589.000
358.085;  967.075; -632.000; -612.000
358.218; 1400.550;-1131.000; -932.000
358.350;  255.475;  -58.000;  312.000
358.483; -101.175;-1300.000;-1187.000
358.615;    3.600;-1182.000;-1078.000
358.747;  -25.625;-1187.000;-1058.000
358.880;   44.400; -810.000; -744.000
359.012;    6.700; -376.000; -202.000
359.145;  -39.950; -480.000; -511.000
359.277;  107.550; -962.000; -913.000
359.409; 3379.050;  536.000;  231.000
359.542;  932.400; -738.000; -688.000
359.674;   69.500;   46.000;   13.000
359.806;  -57.800; -565.000; -438.000
359.939;  -45.700; -617.000; -516.000
360.071;  -17.050; -583.000; -579.000
360.203;  -25.475; -411.000; -364.000
360.335;   46.175;  164.000;  -16.000
360.468;  217.350; -249.000; -307.000
360.600; 2666.275; -547.000; -454.000
360.732; 2745.475; -546.000; -423.000
360.864;  408.275;-1216.000;-1044.000
360.996;  339.325; -516.000; -554.000
361.129;   73.625; -389.000; -598.000
361.261;   26.125;  110.000; -113.000
361.393;  -27.900; -252.000; -214.000
361.525;   34.400;   94.000;  244.000
361.657;  -16.850; -821.000; -703.000
361.789;   22.925; -139.000; -155.000
361.921;  286.000; -642.000; -593.000
362.053;  301.975;  524.000;  541.000
362.185;   60.900;  288.000;   72.000
362.318;  -65.450; -709.000; -705.000
362.450;  130.800;  294.000;  444.000
362.582;  156.700; -913.000; -870.000
362.714;  -25.900; -353.000; -332.000
362.846;  -79.800; -606.000; -490.000
362.978; -143.800; -941.000; -811.000
363.109;   57.025; -161.000; -260.000
363.241;  525.325; -739.000; -749.000
363.373;  445.100; -649.000; -564.000
363.505;  623.750; -186.000;  -91.000
363.637;  160.550; -787.000; -601.000
363.769; -102.525;-1067.000;-1080.000
363.901;  -56.850; -596.000; -654.000
364.033; -107.000;-1103.000;-1062.000
364.165;   -3.500; -283.000; -283.000
364.296;   87.425; -316.000; -177.000
364.428;   61.525;-1344.000;-1220.000
364.560;  -75.425; -679.000; -661.000
364.692;  -57.575; -738.000; -835.000
364.824;  335.700; -588.000; -456.000
364.955;  474.875; -402.000; -564.000
365.087;  843.475;-1097.000; -852.000
365.219;   37.600; -686.000; -816.000
365.351;  -62.925; -526.000; -572.000
365.482;   54.250;  300.000;  240.000
365.614;  -32.900; -402.000; -314.000
365.746;  -81.450; -729.000; -752.000
365.877;  -92.650; -706.000; -672.000
366.009;  236.275;  -35.000;  -62.000
366.141;  -71.725;-1249.000;-1134.000
366.272; -112.550; -803.000; -719.000
366.404; -112.425;-1005.000; -874.000
366.535;   -6.825; -139.000;  -12.000
366.667;  -92.725; -644.000; -649.000
366.799;   38.700;  353.000;  203.000
366.930; -106.000; -862.000; -996.000
367.062;  126.525; -639.000; -613.000
367.193;  154.325; -872.000; -842.000
367.325;  -66.925; -580.000; -684.000
367.456;   57.775; -246.000;   31.000
367.588;  157.750; -371.000; -318.000
367.719;   18.425;  -44.000;  -45.000
367.851;  -21.000; -222.000; -241.000
367.982;  -38.950; -875.000; -732.000
368.113;  137.650; -475.000; -358.000
368.245; -102.200; -960.000; -841.000
368.376;   -5.425; -254.000; -302.000
368.508;  -38.350; -188.000; -263.000
368.639; -123.575;-1166.000;-1034.000
368.770;  -15.350; -670.000; -589.000
368.902;  -52.875; -836.000; -926.000
369.033;  -90.425; -906.000; -855.000
369.164;  -32.400; -720.000; -653.000
369.296; -107.600; -452.000; -601.000
369.427;    6.450; -209.000; -144.000
369.558;  -31.925; -593.000; -377.000
369.689;  -77.375; -721.000; -569.000
369.821; -127.125; -951.000; -845.000
369.952;   -2.350;   42.000; -108.000
370.083;  -58.125; -229.000; -108.000
370.214;  -88.225; -735.000; -650.000
370.345;   -7.200;   65.000;   81.000
370.477;  -71.425; -810.000; -790.000
370.608;  279.150; -328.000; -264.000
370.739;  -17.075;-1233.000;-1292.000
370.870;  -22.950;-1102.000; -923.000
371.001;  124.425; -378.000; -467.000
371.132;  -73.150; -754.000; -735.000
371.263;  -12.175;  -42.000; -148.000
371.394; -124.950; -841.000; -748.000
371.525;   27.575;  345.000;  225.000
371.657;  -68.175; -808.000; -670.000
371.788;   82.875;  103.000;  199.000
371.919;  218.800; -384.000; -304.000
372.050; 4029.450;  -91.000; -156.000
372.181; 1287.475; -188.000; -294.000
372.311;  435.325;   42.000; -127.000
372.442;   47.325; -457.000; -451.000
372.573;  -24.175; -444.000; -340.000
372.704; -118.725;-1008.000; -980.000
372.835;   92.175; -228.000; -289.000
372.966;  -68.650; -646.000; -554.000
373.097;  -44.600; -575.000; -711.000
373.228;  -35.950; -717.000; -542.000
373.359;  181.300; -824.000; -536.000
373.490; 1075.025; -881.000; -727.000
373.620; 1395.225;-1001.000; -803.000
373.751; 2037.175; -332.000; -396.000
373.882;  957.075; -663.000; -733.000
374.013;   95.225; -449.000; -262.000
374.143;  -26.175; -581.000; -659.000
374.274;  -89.475; -987.000; -908.000
374.405;  200.675; -388.000; -276.000
374.536;  511.950; -526.000; -387.000
374.666; 1325.225; -759.000; -807.000
374.797;  302.025; -817.000; -868.000
374.928; 1016.425; -710.000; -560.000
375.058; 1040.550; -535.000; -500.000
375.189;  107.775;  -59.000;  -93.000
375.320;  -83.475; -928.000;-1034.000
375.450;  -22.500; -625.000; -616.000
375.581;  -41.700; -526.000; -436.000
375.712;   -9.700; -574.000; -250.000
375.842;  365.875; -438.000; -415.000
375.973;  285.575; -554.000; -513.000
376.103;  -29.225; -665.000; -648.000
376.234;  -73.700; -531.000; -552.000
376.364;  -12.675; -944.000; -867.000
376.495;  348.975;  925.000;  529.000
376.625;   17.625; -472.000; -485.000
376.756;   94.350; -709.000; -678.000
376.886;  -37.500;-1178.000;-1026.000
377.017;   44.350;-1048.000;-1061.000
377.147;  340.600; -786.000; -782.000
377.278;   62.350;  174.000;  228.000
377.408; -120.525; -801.000; -815.000
377.538;  -95.850; -707.000; -693.000
377.669;  -71.500; -537.000; -613.000
377.799;  -80.125; -645.000; -635.000
377.929;  -38.775; -610.000; -428.000
378.060; -126.600; -781.000; -847.000
378.190;  -57.850; -726.000; -531.000
378.320;  -42.700; -401.000; -406.000
378.451;  -12.825; -131.000;  -22.000
378.581;  -15.525;  -67.000; -110.000
378.711;  154.575; 1035.000;  866.000
378.841;   -3.725; -533.000; -675.000
378.972;  -68.125; -871.000; -751.000
379.102;   -0.775; -652.000; -579.000
379.232;   -6.350; -126.000;  -73.000
379.362;  -86.450;-1001.000; -885.000
379.492;   17.125; -373.000; -424.000
379.623;  119.125;    0.000;  111.000
379.753;  -82.725;-1107.000; -974.000
379.883;  230.825;   59.000;  156.000
380.013;   39.650;-1081.000;-1017.000
380.143;  -91.600;-1097.000;-1056.000
380.273;  -84.825; -985.000; -861.000
380.403;   15.550; -344.000; -257.000
380.533;  -16.700; -651.000; -664.000
380.663;   94.950;  173.000;  128.000
380.793;  -67.825;-1027.000;-1074.000
380.923;  -18.550; -103.000;  -34.000
381.053;  -86.775; -613.000; -623.000
381.183;  -15.275; -106.000; -248.000
381.313;   68.625; -656.000; -470.000
381.443;   64.525; -692.000; -473.000
381.573;  247.425; -402.000; -409.000
381.703;  379.350;-1249.000;-1095.000
381.833;  -95.300;-1454.000;-1336.000
381.963;  132.650; -134.000;  -87.000
382.093; 1568.825; -925.000; -909.000
382.223;  543.975; -713.000; -602.000
382.353;   18.050; -801.000; -608.000
382.482;  458.825;-1091.000; -964.000
382.612;  905.175; -872.000; -644.000
382.742;  529.400; -695.000; -622.000
382.872;  351.425; -565.000; -551.000
383.002;   82.475;  347.000; -132.000
383.131;   -3.600; -226.000; -160.000
383.261;  -48.050; -706.000; -768.000
383.391;  282.600; -552.000; -377.000
383.521; 2976.625;  451.000;  263.000
383.650;  762.475; -947.000; -904.000
383.780;  -11.400; -783.000; -656.000
383.910;  104.275;  880.000;  802.000
384.039;   45.350; -794.000; -656.000
384.169;  296.925;-1205.000;-1017.000
384.299;   18.450; -650.000; -662.000
384.428;  -66.000; -764.000; -680.000
384.558;  -22.875; -308.000; -275.000
384.687;  -26.975; -414.000; -334.000
384.817;   16.825;   75.000;   -2.000
384.947;   20.575; -234.000; -141.000
385.076;  321.075;  982.000;  912.000
385.206;  110.450;  369.000;  480.000
385.335;  -12.750; -549.000; -417.000
385.465;  -60.650; -655.000; -663.000
385.594;  149.150;  -53.000;  -44.000
385.724;  526.800; -868.000; -838.000
385.853;  159.750; -296.000; -270.000
385.982; 1509.900; -743.000; -787.000
386.112; 2518.925;-1052.000; -871.000
386.241;  194.025; -307.000; -312.000
386.371;   28.325; -174.000;  -87.000
386.500;   25.925; -825.000; -789.000
386.629;   36.150; -874.000; -817.000
386.759;   91.350;  -43.000;   68.000
386.888;   11.725; -170.000; -250.000
387.017;  -61.175; -648.000; -620.000
387.147;  -75.075; -771.000; -798.000
387.276;   23.000; -410.000; -397.000
387.405;   34.700; -398.000; -342.000
387.535;  -41.425; -452.000; -361.000
387.664;  -65.475; -692.000; -620.000
387.793;   74.200; -198.000; -113.000
387.922;  601.600;  255.000;  200.000
388.052;   57.075; -576.000; -423.000
388.181;   29.425; -342.000; -472.000
388.310;   44.525; -889.000; -710.000
388.439;  -11.600; -749.000; -742.000
388.568;  202.400;  365.000;  244.000
388.697; 1218.250; -756.000; -653.000
388.826;  281.350; -768.000; -666.000
388.956;   71.225; -285.000; -307.000
389.085;  -24.725; -347.000; -287.000
389.214;  -96.225; -842.000; -872.000
389.343;  -74.800; -645.000; -413.000
389.472;  384.275;  126.000;  149.000
389.601;  502.975;   91.000;    0.000
389.730;   36.000; -568.000; -687.000
389.859;   62.875;  226.000;   46.000
389.988;  199.325; -423.000; -408.000
390.117;  180.675; -168.000; -146.000
390.246;    8.775; -331.000; -320.000
390.375;  138.550; -673.000; -626.000
390.504;  -54.375; -703.000; -621.000
390.633;  -85.250; -672.000; -726.000
390.761;  -65.325; -732.000; -645.000
390.890;   29.650;   -4.000; -130.000
391.019;  -28.225; -421.000; -441.000
391.148; -128.125; -826.000; -855.000
391.277;  -59.375; -576.000; -493.000
391.406;  -78.275; -821.000; -805.000
391.534;   18.675;  574.000; -301.000
391.663;  -52.250; -583.000; -645.000
391.792;  -96.525; -673.000; -701.000
391.921;  115.625;   -3.000;   15.000
392.050;  246.425; -287.000; -228.000
392.178;   -9.175;-1206.000;-1061.000
392.307;  170.100; -758.000; -712.000
392.436;  111.250; -427.000; -641.000
392.564;   16.650;  166.000;   -6.000
392.693;  -78.250; -860.000; -682.000
392.822;  246.150; -529.000; -534.000
392.950;  145.475; -880.000; -714.000
393.079;  380.350; -188.000; -328.000
393.208;   52.325; -488.000; -511.000
393.336;   -3.100; -170.000; -145.000
393.465;  -38.675; -317.000; -199.000
393.593;   11.975;   62.000;   79.000
393.722; -131.875;-1121.000; -916.000
393.850;  -29.725; -188.000;  -61.000
393.979; -143.450; -926.000; -805.000
394.107;  -59.925; -517.000; -537.000
394.236;   -7.300; -570.000; -507.000
394.364;  253.650;  383.000;  206.000
394.493;  470.125; -911.000; -767.000
394.621;   13.300; -955.000; -916.000
394.750;  678.950; -873.000; -923.000
394.878; 2813.825; -247.000; -149.000
395.007; 4027.300; -721.000; -807.000
395.135;  339.275; -790.000; -721.000
395.263;  -61.875;-1038.000;-1040.000
395.392;    2.275;  -25.000; -107.000
395.520; -126.450; -818.000; -679.000
395.648;  -79.150; -865.000; -915.000
395.777;   -2.225; -366.000; -405.000
395.905;  -36.750; -449.000; -564.000
396.033;   21.425;  217.000;  172.000
396.162;  739.425; -399.000; -453.000
396.290;  684.525;  -17.000;   -2.000
396.418;  147.800; -555.000; -514.000
396.546;  -48.975; -571.000; -466.000
396.674;  -78.300; -850.000; -878.000
396.803;    8.775;  -72.000;  -23.000
396.931;  113.950; -179.000; -199.000
397.059;   94.875;-1026.000; -989.000
397.187; -104.900;-1026.000; -975.000
397.315; -125.900; -884.000; -649.000
397.443; -101.200; -592.000; -443.000
397.572;  -94.550; -578.000; -424.000
397.700;   22.050; -607.000; -614.000
397.828;   11.750;  120.000;  -90.000
397.956;  -42.825; -508.000; -478.000
398.084;  -64.050; -767.000; -626.000
398.212;   45.175;  137.000;  124.000
398.340;    6.275;  -56.000;  159.000
398.468;   52.325; -390.000; -169.000
398.596; -127.450; -993.000; -953.000
398.724; -119.950; -762.000; -767.000
398.852; -161.675;-1024.000; -976.000
398.980;  -61.050; -560.000; -560.000
399.108;  -40.475; -982.000; -735.000
399.236;   41.225;   13.000;    8.000
399.363;    4.150;  222.000;  196.000
399.491;  -65.775; -404.000; -398.000
399.619; -125.575; -829.000; -800.000
399.747;  -92.725; -859.000; -771.000
399.875;   89.125;  220.000;  234.000
400.003;  -36.025; -359.000; -284.000
400.130;  -85.050; -421.000; -341.000
400.258;  -31.875;  -83.000;   38.000
400.386;  -73.900; -352.000; -168.000
400.514;  -50.100; -526.000; -587.000
400.641;  -58.900; -928.000; -802.000
400.769; -124.525; -979.000; -888.000
400.897;  -90.550; -838.000; -793.000
401.025;   -6.725; -166.000; -152.000
401.152;   -8.950;  220.000;   38.000
401.280;  -68.075; -430.000; -429.000
401.408; -116.475; -712.000; -576.000
401.535;  -81.975; -735.000; -758.000
401.663; -182.000;-1134.000;-1054.000
401.790;  -77.900; -514.000; -525.000
401.918;   35.225;  436.000;  405.000
402.046;   -9.300;  134.000;  122.000
402.173;  -33.400;  -18.000;    7.000
402.301;  -64.350; -519.000; -397.000
402.428;   27.050;  528.000;  383.000
402.556; -138.925;-1188.000; -913.000
402.683;  -18.600;  -20.000;   -1.000
402.811;  -14.700;  -37.000; -206.000
402.938;  -10.525;   20.000;   27.000
403.066;  208.100; -574.000; -558.000
403.193;  388.025;  299.000;  239.000
403.321;  288.550; -396.000; -574.000
403.448;  380.075;   83.000;   27.000
403.575;  166.825;  -90.000;  -46.000
403.703;  -95.500; -732.000; -557.000
403.830;  -57.125; -531.000; -496.000
403.957; -129.125;-1117.000;-1023.000
404.085;   21.525;  -61.000; -172.000
404.212;  114.450;  -50.000;   63.000
404.339;  260.275; -566.000; -306.000
404.467; 5461.125; -612.000; -524.000
404.594; 4040.775; -287.000; -227.000
404.721; 1045.400; -869.000; -764.000
404.848;   92.000; -113.000; -202.000
404.976;  -79.200; -856.000; -783.000
405.103;  -16.975;  -14.000;  -82.000
405.230;    2.700;  190.000;  226.000
405.357;   27.925;  117.000;   44.000
405.484;  241.400;  -49.000;    5.000
405.612;   80.900; -548.000; -563.000
405.739;  -56.850; -488.000; -243.000
405.866;   76.250;  669.000;  385.000
405.993;  -43.475; -398.000; -102.000
406.120; -136.175; -801.000; -887.000
406.247;  -72.225; -323.000; -342.000
406.374;  497.700;  540.000;  629.000
406.501;  186.200; -632.000; -702.000
406.628;  -68.400; -621.000; -589.000
406.755;  -94.400; -803.000; -620.000
406.882;  -30.225; -228.000; -277.000
407.009; -103.325; -719.000; -628.000
407.136;   64.600; -480.000; -401.000
407.263;  210.800; -939.000; -829.000
407.390;  -63.025; -692.000; -614.000
407.517; -169.325;-1139.000;-1187.000
407.644;  -54.775; -332.000; -256.000
407.771;  -72.325; -249.000; -287.000
407.898;   11.675;  168.000;  328.000
408.025;  -71.400; -421.000; -313.000
408.151;   -7.525;   82.000;  153.000
408.278;  -65.475; -267.000; -216.000
408.405; -109.000; -931.000; -899.000
408.532;  -63.325; -549.000; -542.000
408.659; -120.200; -677.000; -648.000
408.785; -187.275;-1298.000;-1170.000
408.912;  -61.825; -412.000; -296.000
409.039; -108.725; -610.000; -686.000
409.166;  -99.825; -591.000; -555.000
409.292; -102.175; -571.000; -534.000
409.419; -119.525; -665.000; -649.000
409.546;  -88.300; -431.000; -192.000
409.672;  -95.225; -713.000; -545.000
409.799;  -21.225;  -36.000;   34.000
409.926;  -37.050; -180.000; -179.000
410.052; -160.725;-1127.000;-1091.000
410.179;  -52.550; -368.000; -392.000
410.305;  -84.725; -375.000; -493.000
410.432;  -50.025; -220.000; -333.000
410.558;  -85.050; -305.000; -380.000
410.685; -108.400; -688.000; -431.000
410.812;  -89.475; -409.000; -588.000
410.938; -138.450; -964.000; -808.000
411.065; -100.050; -671.000; -645.000
411.191;  -12.950; -189.000; -174.000
411.317; -108.050; -823.000; -742.000
411.444;  -67.675; -317.000; -246.000
411.570;  -63.775; -339.000; -294.000
411.697; -131.600; -758.000; -752.000
411.823; -168.475; -989.000; -999.000
411.949;  -30.950;  -56.000;   17.000
412.076; -106.000; -539.000; -519.000
412.202; -112.800; -758.000; -757.000
412.329; -115.675; -798.000; -752.000
412.455; -104.200; -821.000; -657.000
412.581;  -25.550;  -15.000;  172.000
412.707;  -64.300; -540.000; -457.000
412.834;   27.400;  156.000;  219.000
412.960;  -70.475; -785.000; -784.000
413.086;  -95.325; -743.000; -701.000
413.212;  155.450;  604.000;  578.000
413.339;  -40.600; -685.000; -701.000
413.465;   20.825; -364.000; -310.000
413.591;  -78.150; -757.000; -474.000
413.717;  -43.700; -358.000; -366.000
413.843; -128.450; -839.000; -861.000
413.969;  -56.925;  -47.000; -292.000
414.096;  -99.300; -679.000; -679.000
414.222;  -10.225;  -33.000;   85.000
414.348;   -7.675; -652.000; -385.000
414.474;  116.100;   38.000;  -52.000
414.600;  -10.150; -126.000; -144.000
414.726;  -17.475;  -96.000;  -55.000
414.852;  -47.500; -365.000; -342.000
414.978;   26.725;  104.000;  -18.000
415.104;   42.825;   38.000;   80.000
415.230;   18.450; -329.000; -330.000
415.356;   35.250; -409.000; -514.000
415.482;  204.325;   13.000;  -35.000
415.608;  262.650; -247.000; -323.000
415.734;  941.125;   67.000;   38.000
415.860;19191.125; -875.000; -767.000
415.986;15428.150; -685.000; -607.000
416.111; 1372.725; -798.000; -652.000
416.237;  265.300; -424.000; -571.000
416.363; 1008.450; -765.000; -733.000
416.489; 4157.600; -324.000; -251.000
416.615;  509.775; -707.000; -742.000
416.741;   -5.375; -677.000; -784.000
416.866;  -97.600; -673.000; -736.000
416.992; -114.875; -801.000; -818.000
417.118;  -16.350;  -41.000;  -80.000
417.244;  -44.200; -798.000; -531.000
417.369;  -73.825; -801.000; -612.000
417.495;   -3.900; -325.000; -254.000
417.621;  -64.050;-1015.000; -803.000
417.746;   14.725; -579.000; -572.000
417.872;   45.200; -254.000; -144.000
417.998;   43.300; -515.000; -530.000
418.123;  938.475;-1073.000; -845.000
418.249; 5349.150; -512.000; -601.000
418.374;  849.350; -916.000; -824.000
418.500;  134.875; -383.000; -482.000
418.626;  110.050;   70.000;  -59.000
418.751;  132.050; -549.000; -448.000
418.877;  208.150; -637.000; -643.000
419.002; 1619.175; -688.000; -560.000
419.128;12244.050; -930.000; -721.000
419.253; 3350.875; -967.000; -837.000
419.379;  428.275; -391.000; -338.000
419.504;  391.675;  325.000;  415.000
419.629;  512.900; -393.000; -212.000
419.755; 3198.900; -317.000; -254.000
419.880;20155.275;  -98.000;   67.000
420.006;11125.100; -280.000; -221.000
420.131;29449.950; -662.000; -775.000
420.256; 4705.900; -315.000; -316.000
420.382;  612.050; -665.000; -687.000
420.507;   75.000; -649.000; -778.000
420.632;  162.250; -337.000; -339.000
420.758;  303.700; -251.000; -425.000
420.883;  -64.000; -876.000; -672.000
421.008;  -85.250; -775.000; -619.000
421.133;  -76.000; -509.000; -467.000
421.259;  -38.800; -325.000; -259.000
421.384; -101.300; -834.000; -693.000
421.509;  -24.950;-1052.000; -862.000
421.634; 1311.725; -936.000; -820.000
421.759;  660.475; -359.000; -327.000
421.885;  -40.950; -717.000; -656.000
422.010;  -68.375; -673.000; -542.000
422.135; -135.150; -695.000; -727.000
422.260;   42.775;  340.000;  280.000
422.385;  -47.675;   12.000;  -98.000
422.510;    6.525;  151.000;  -26.000
422.635;   18.600;  -87.000;  -43.000
422.760;  123.250; -766.000; -791.000
422.885;   56.000;  -57.000;  -80.000
423.010;  -45.225; -112.000; -169.000
423.135;  -85.500; -481.000; -561.000
423.260;  -10.450; -150.000; -245.000
423.385;   64.750;  476.000;  222.000
423.510;   45.850;   71.000;  -22.000
423.635;   98.450;  133.000;   45.000
423.760;   53.400;  383.000;  328.000
423.885;   54.800;  336.000;  391.000
424.010;   15.950;  -68.000;  -13.000
424.135;  -27.350;    5.000;  -33.000
424.259;  -75.850; -654.000; -457.000
424.384;  -63.375; -279.000; -272.000
424.509;  -32.575; -260.000; -186.000
424.634;  -89.650; -761.000; -623.000
424.759;  -22.950; -688.000; -544.000
424.883;  -11.225; -506.000; -527.000
425.008;  167.375; -502.000; -410.000
425.133; 1907.500; -679.000; -653.000
425.258; 1002.175; -517.000; -381.000
425.382; 1068.025; -867.000; -774.000
425.507; 3004.275; -487.000; -543.000
425.632;  519.025; -802.000; -663.000
425.756;  450.275; -256.000; -146.000
425.881; 5710.450; -831.000; -857.000
426.006;16955.200; -604.000; -355.000
426.130; 2965.625; -696.000; -508.000
426.255;  390.950; -611.000; -491.000
426.379;  154.200; -189.000; -577.000
426.504;  359.800;  660.000;  544.000
426.629; 3902.350; -519.000; -466.000
426.753; 2989.650;   64.000;  -46.000
426.878;  362.050; -252.000; -288.000
427.002;  202.900; -651.000; -668.000
427.127; 1438.175;  -35.000; -158.000
427.251;10995.425;  372.000;  401.000
427.375; 3596.700; -191.000; -173.000
427.500; 2565.425; -616.000; -610.000
427.624;  988.650; -234.000; -400.000
427.749;  136.075; -216.000; -225.000
427.873;  -26.100; -499.000; -412.000
427.997;  -44.050; -222.000; -230.000
428.122;   59.950;  795.000;  703.000
428.246;   82.525;  433.000;  434.000
428.371; -112.250; -869.000; -773.000
428.495; -101.600; -624.000; -646.000
428.619;  -33.675; -186.000; -117.000
428.743;   22.925;   65.000;  132.000
428.868;   33.500; -732.000; -643.000
428.992; 1530.850; -219.000; -326.000
429.116;  707.750; -329.000; -357.000
429.240;  331.975;  419.000;  426.000
429.365;  -14.150; -454.000; -574.000
429.489;  -25.300; -638.000; -647.000
429.613;   34.650; -236.000; -177.000
429.737;   56.400; -563.000; -432.000
429.861;  238.525; -247.000; -133.000
429.985; 5174.875; -425.000; -305.000
430.109; 6333.400; -770.000; -908.000
430.234;  768.100;   76.000;  -50.000
430.358;   81.375; -250.000; -160.000
430.482;  -61.175; -672.000; -564.000
430.606;  -62.825; -655.000; -375.000
430.730;   34.400; -437.000; -388.000
430.854;  181.375; -909.000; -835.000
430.978;  -52.225; -795.000; -764.000
431.102;  -67.750; -499.000; -422.000
431.226; -109.400; -874.000; -815.000
431.350;   36.750;  345.000;  422.000
431.474;  -79.425; -661.000; -373.000
431.597; -128.300;-1060.000; -848.000
431.721;  -87.025; -276.000; -267.000
431.845; -130.625; -704.000; -472.000
431.969;  -80.425; -304.000; -349.000
432.093; -103.000; -395.000; -317.000
432.217;  -16.300;   32.000;   82.000
432.341;  -89.025; -523.000; -518.000
432.464;    3.750;   96.000;   40.000
432.588;  244.925; -401.000; -329.000
432.712;  149.925;  -52.000;  -52.000
432.836;   29.700;  213.000;  263.000
432.959;  -28.775; -372.000; -311.000
433.083;   75.850;   11.000;    2.000
433.207;  357.725;  285.000;  930.000
433.330; 4676.125; -391.000; -200.000
433.454; 6347.425; -654.000; -638.000
433.578; 3580.700;  583.000;  278.000
433.701;  745.600; -623.000; -675.000
433.825;  187.100; -292.000; -299.000
433.949;  226.425;   28.000;  -72.000
434.072;   75.025; -410.000; -323.000
434.196;   -9.225; -309.000; -117.000
434.319; 3564.850;25482.000;25124.000
434.443;  687.825; -656.000; -603.000
434.566; 2636.050;  281.000;   62.000
434.690;  523.075; -637.000; -383.000
434.813;   54.925; -251.000; -173.000
434.937;  -76.975; -569.000; -696.000
435.060;  -17.950; -423.000; -332.000
435.184;  384.500; -492.000; -217.000
435.307;  233.575;  159.000;  102.000
435.431;    2.950;  -40.000;   24.000
435.554;  -69.450; -399.000; -240.000
435.677;  -86.800; -350.000; -258.000
435.801;  -43.275;  -25.000;   49.000
435.924;  -21.825;    1.000;  -67.000
436.048;  -96.250;-1019.000; -732.000
436.171;  -86.225; -240.000;  -66.000
436.294;  -29.125; -248.000; -229.000
436.417;   86.575; -963.000; -849.000
436.541;  -78.775; -814.000; -840.000
436.664;  -44.425; -242.000; -316.000
436.787;  -33.775;   13.000;  113.000
436.910; -115.825; -792.000; -422.000
437.034;   -1.075;  142.000;  143.000
437.157;   56.150;  -11.000;    0.000
437.280;  -42.075; -392.000; -292.000
437.403;  -79.925; -982.000; -869.000
437.526;  681.500; -903.000; -865.000
437.649; 2714.275; -505.000; -332.000
437.772;  494.225; -692.000; -540.000
437.896;  126.925;  700.000;  544.000
438.019;  -86.600; -758.000; -503.000
438.142;  -87.750; -596.000; -506.000
438.265;    6.200; -639.000; -670.000
438.388;  687.325; -520.000; -410.000
438.511;  151.725; -597.000; -394.000
438.634;  -31.525; -247.000; -125.000
438.757; -131.350; -693.000; -619.000
438.880;  -25.950;  -34.000;  -57.000
439.003;  -60.100; -417.000; -437.000
439.126;  -64.475; -287.000; -167.000
439.248;  -56.550;  -98.000; -139.000
439.371;  -52.550;    9.000;  -53.000
439.494;   22.600;  510.000;  439.000
439.617;  -44.900;   65.000;  -88.000
439.740; -176.800; -968.000; -816.000
439.863; -133.275; -755.000; -595.000
439.986; -112.950; -476.000; -431.000
440.108;  -36.300; -161.000; -112.000
440.231; -146.800; -950.000; -836.000
440.354;  -54.100;  -64.000; -150.000
440.477;   53.150; -566.000; -542.000
440.599;   30.125; -200.000; -225.000
440.722; -107.275; -709.000; -586.000
440.845;   56.675;  751.000;  928.000
440.968; -125.075; -415.000; -311.000
441.090;  -70.875; -199.000;  -33.000
441.213; -163.675;-1021.000; -825.000
441.336;  -65.575; -159.000;   -5.000
441.458;  -77.275; -549.000; -396.000
441.581;  -84.625; -628.000; -629.000
441.703;  -71.275; -152.000;   13.000
441.826; -115.575; -557.000; -400.000
441.948;  -45.150;   56.000;   51.000
442.071;   22.850;  555.000;  424.000
442.193; -104.475; -531.000; -485.000
442.316;   19.450;  152.000;   97.000
442.438;   41.150; -233.000;  -10.000
442.561;   74.575;  272.000;  262.000
442.683;  607.750; -809.000; -522.000
442.806; 1394.950;   -8.000;   74.000
442.928;   90.925; -859.000; -604.000
443.051;  -58.250; -577.000; -373.000
443.173;  -89.250; -341.000; -339.000
443.295;  -77.725; -263.000; -371.000
443.418;  -69.475; -321.000;  -29.000
443.540;   -0.025; -106.000;   -4.000
443.662; -116.150; -563.000; -465.000
443.785;  -18.500;  335.000;  199.000
443.907; -100.700; -362.000; -208.000
444.029; -129.550; -767.000; -494.000
444.152; -140.850; -644.000; -554.000
444.274;  -31.650;  -18.000;  -24.000
444.396; -109.500; -461.000; -221.000
444.518; -142.950; -691.000; -454.000
444.640; -105.525; -268.000; -111.000
444.763;  -22.625;  388.000;  249.000
444.885; -110.650; -432.000; -392.000
445.007;  -33.000;   35.000;   86.000
445.129; -114.400; -610.000; -515.000
445.251;  -82.300; -372.000; -439.000
445.373; -142.500; -537.000; -386.000
445.495;   -5.650;  242.000;  350.000
445.617;   34.050;  853.000;  753.000
445.739;  -60.450; -215.000;  -97.000
445.861;  -37.500; -245.000; -112.000
445.984;  -30.900; -267.000; -101.000
446.105;  218.925; -418.000; -251.000
446.227;  711.975; -176.000;  -19.000
446.349;   39.625; -358.000; -249.000
446.471;  -85.425; -615.000; -448.000
446.593;  -48.225; -316.000;   19.000
446.715;    7.650;  -67.000;   41.000
446.837;   68.000;  697.000;  832.000
446.959;  -96.700; -457.000; -478.000
447.081; -133.650; -628.000; -518.000
447.203;   34.250;  862.000;  834.000
447.325;  -77.525; -270.000;   42.000
447.446;  -14.825;  286.000;  530.000
447.568; -151.800; -921.000; -803.000
447.690;  -66.525; -236.000; -245.000
447.812; -154.175; -798.000; -519.000
447.933;  -27.400;  155.000;  127.000
448.055;  -64.150; -306.000; -261.000
448.177;  154.850;   31.000;   79.000
448.299;  140.300; -935.000; -727.000
448.420;   36.200;  -25.000;  159.000
448.542;  -57.550;   -3.000;   33.000
448.664;  -43.000;  109.000;  322.000
448.785;  -32.675;  265.000;   83.000
448.907;  -70.025; -614.000; -353.000
449.028;  -13.475; -771.000; -471.000
449.150;   53.750;  492.000;  589.000
449.272; -165.000;-1044.000; -913.000
449.393;   21.375;  612.000;  694.000
449.515; -137.675; -634.000; -581.000
449.636;  -54.225; -264.000; -155.000
449.758;   94.150;  763.000;  622.000
449.879;  -82.750; -498.000; -396.000
450.001;  -80.425; -149.000;  -49.000
450.122;  -35.125;  -95.000;  162.000
450.244;  -22.850;   37.000;  364.000
450.365;  -88.200; -495.000; -301.000
450.486;  -28.400;   80.000;  268.000
450.608;   13.800;  393.000;  326.000
450.729;   54.325;  578.000;  645.000
450.850;    4.725; -574.000; -466.000
450.972;  636.950; -552.000; -389.000
451.093; 4586.500;  190.000;  588.000
451.214; 2267.750; -516.000; -337.000
451.336;  424.100;  773.000;  579.000
451.457;   55.825;  264.000;  393.000
451.578;  -37.375; -118.000;  -74.000
451.699; -110.025; -546.000; -540.000
451.821;  -57.775; -284.000;  -50.000
451.942;   -9.125;  278.000;  285.000
452.063;   40.550;  228.000;  419.000
452.184;  512.875;  -54.000;  -49.000
452.305; 1103.775;  103.000;  170.000
452.427;  176.925; -549.000; -301.000
452.548;   -5.325;   23.000;   79.000
452.669;  -46.500; -257.000;  -89.000
452.790;  -36.875;    3.000;  -18.000
452.911;   10.150;  195.000;  259.000
453.032;  -65.175; -289.000;  -60.000
453.153;  -37.025;  -29.000;   81.000
453.274;   49.650;  737.000;  868.000
453.395;  -40.975;  -51.000;  175.000
453.516;  118.625; 1317.000; 1388.000
453.637;  -57.250; -205.000; -150.000
453.758;  -61.325;   15.000;   69.000
453.879; -114.825; -462.000; -250.000
454.000;   75.900; 1086.000;  948.000
454.121; -104.325; -554.000; -326.000
454.242; -108.025; -599.000; -383.000
454.362;  -72.025;  -99.000;  114.000
454.483;  -30.950; -309.000; -229.000
454.604;   63.850;  512.000;  580.000
454.725; -124.775; -627.000; -555.000
454.846; -124.500; -474.000; -406.000
454.967;  -18.050;  230.000;  539.000
455.087;  -37.425;  179.000;  153.000
455.208;   13.850;  554.000;  856.000
455.329;  -56.475;  -22.000;   82.000
455.450;   36.250;  473.000;  633.000
455.570;  -71.575; -234.000; -211.000
455.691;  -22.875;  201.000;  407.000
455.812;  -88.200; -270.000;  -92.000
455.932;  -70.800;  107.000;  -97.000
456.053;  -74.050;   36.000;   24.000
456.173; -114.650; -433.000; -355.000
456.294; -129.800; -476.000; -303.000
456.415;  -63.500;  -73.000;   70.000
456.535;  -28.500;  297.000;  273.000
456.656;  -33.750;  132.000;  240.000
456.776;  -65.200;    3.000;  298.000
456.897;   -4.700;  308.000;  513.000
457.017;  -76.425; -153.000;   -3.000
457.138;  -97.875; -402.000; -249.000
457.258;  -30.275;  263.000;  224.000
457.379;   -7.900;  509.000;  521.000
457.499;  -29.550;  443.000;  432.000
457.620; -131.950; -407.000; -231.000
457.740; -106.100; -132.000;  -11.000
457.860;  -58.700;   87.000;   44.000
457.981;  -47.025;  132.000;  124.000
458.101;  -72.675;  -89.000;   40.000
458.221;  -22.875;  336.000;  402.000
458.342;  -64.800;   -4.000;  -37.000
458.462;    9.700;  617.000;  352.000
458.582;  -41.975; -302.000; -294.000
458.703;    0.775;  303.000;  154.000
458.823;  -29.750;   22.000;  163.000
458.943;   36.350;  341.000;  467.000
459.063;   -1.100; 1124.000;  192.000
459.183;  -16.500;  328.000;  313.000
459.304;    9.350;  315.000;  517.000
459.424;  -73.250; -246.000;  -89.000
459.544;  314.650;  388.000;  764.000
459.664;  819.325;  499.000;  506.000
459.784;  330.825; 1004.000; 1175.000
459.904;   48.525;  867.000;  744.000
460.024;   64.375;  867.000;  684.000
460.144;   18.825;  449.000;  554.000
460.264;   -9.075;  515.000;  327.000
460.385;  -92.200; -145.000; -119.000
460.505;   33.550;  905.000;  858.000
460.625;  -89.375;  -17.000;  -68.000
460.745;   -8.925;  396.000;  541.000
460.864;  -50.775;  153.000;  469.000
460.984;   11.175;  499.000;  573.000
461.104;  131.375; 1656.000; 1775.000
461.224;   12.150;  657.000;  650.000
461.344;  -30.525;  431.000;  360.000
461.464;  -19.050;  258.000;  513.000
461.584;  -24.725;  283.000;  466.000
461.704;  -50.825;   58.000;  108.000
461.824;  -61.700;  238.000;  259.000
461.943;  -29.000;  191.000;  130.000
462.063;  -71.200;    2.000;  324.000
462.183;   40.000;  639.000;  717.000
462.303;   87.575; 1678.000; 1230.000
462.422;   20.075;  781.000;  840.000
462.542;  -38.175;  271.000;  391.000
462.662;   40.000;  353.000;  380.000
462.782;  237.150;  833.000;  572.000
462.901;  466.050;  545.000;  717.000
463.021;  289.625; 1702.000; 1638.000
463.141;   -8.725;  337.000;  770.000
463.260;   -2.900;  614.000;  474.000
463.380;    6.075;  902.000;  884.000
463.499;  -37.175;  342.000;  332.000
463.619;  -30.450;  581.000;  559.000
463.738;  111.500; 1644.000;  903.000
463.858;   16.175;  657.000;  811.000
463.978;  -24.900;  542.000;  396.000
464.097;   50.925;  921.000; 1114.000
464.217;   99.375; 1196.000; 1143.000
464.336;  112.950; 1068.000; 1130.000
464.455;  -32.650;  328.000;  659.000
464.575;   50.175;  597.000;  602.000
464.694;  165.975; 1204.000; 1179.000
464.814;  129.950; 1190.000; 1138.000
464.933;   82.125; 1095.000; 1027.000
465.052;  100.875; 1412.000; 1054.000
465.172;   90.375;  922.000;  799.000
465.291;  159.575; 1376.000; 1320.000
465.410;   14.575;  462.000;  735.000
465.530;   79.175; 1355.000; 1310.000
465.649;   67.875; 1209.000; 1273.000
465.768;  137.075; 1673.000; 1508.000
465.888;   38.600;  941.000; 1174.000
466.007;   81.450; 1335.000; 1440.000
466.126;    0.200;  721.000;  641.000
466.245;   40.850; 1176.000; 1187.000
466.364;   24.925;  950.000; 1060.000
466.484;   71.350; 1024.000; 1213.000
466.603;   36.100; 1101.000; 1222.000
466.722;  117.575; 1490.000; 1769.000
466.841;   89.550; 1151.000; 1401.000
466.960;   54.700; 1069.000;  972.000
467.079;  110.225; 1971.000; 1786.000
467.198;   48.000; 1238.000; 1181.000
467.317;   73.525; 1768.000; 1162.000
467.436;   76.400; 1709.000; 1261.000
467.555;  121.550; 1796.000; 1746.000
467.674;   65.750; 1227.000; 1329.000
467.793;   43.225; 1376.000; 1374.000
467.912;   94.050; 1658.000; 1539.000
468.031;  120.250; 2038.000; 1930.000
468.150;  143.850; 1842.000; 1837.000
468.269;  203.600; 2313.000; 2090.000
468.388;  184.300; 2168.000; 2339.000
468.507;  242.375; 2884.000; 2903.000
468.626;  267.775; 2555.000; 2541.000
468.744;  143.775; 2018.000; 2174.000
468.863;  188.950; 2312.000; 2523.000
468.982;  100.925; 1503.000; 1555.000
469.101;  209.450; 2788.000; 2692.000
469.220;  162.050; 2333.000; 2176.000
469.338;  251.700; 2935.000; 3051.000
469.457;  182.800; 2719.000; 2545.000
469.576;  336.300; 3953.000; 3784.000
469.695;  229.900; 2877.000; 3066.000
469.813;  430.050; 4148.000; 4192.000
469.932;  402.425; 4255.000; 4485.000
470.051;  433.575; 4075.000; 4161.000
470.169;  811.200; 4470.000; 4338.000
470.288; 1451.625; 4700.000; 4809.000
470.406;  902.675; 5059.000; 5194.000
470.525;  630.400; 6101.000; 5787.000
470.644;  639.650; 6847.000; 6794.000
470.762;  814.225; 8397.000; 7873.000
470.881;  890.700; 8651.000; 8464.000
470.999; 1035.750; 9685.000; 9151.000
471.118; 1093.675;11174.000;10711.000

