
Integration time [ms]: 200.000
Averaging Nr. [scans]: 10
Smoothing Nr. [pixels]: 0
Data measured with spectrometer [name]: 2101012U2
Wave   ;Sample   ;Dark     ;Reference
[nm]   ;[counts] ;[counts] ;[counts] 

197.733;  132.200;  516.000;  404.000
197.879; -168.000; -610.000; -634.000
198.025; -115.200; -475.000; -420.000
198.171; -164.100; -602.000; -612.000
198.317;  -32.100; -401.000; -316.000
198.463; -110.900; -655.000; -404.000
198.609;   61.600;  181.000; -137.000
198.755; -171.300; -644.000; -410.000
198.901; -142.500; -505.000; -424.000
199.047; -126.800; -615.000; -488.000
199.193;  -79.600; -230.000; -468.000
199.339;  -90.800; -222.000; -369.000
199.485;  105.200;  330.000;  271.000
199.631;   42.200;  227.000;  310.000
199.777;  -77.800; -466.000; -398.000
199.923; -116.600; -610.000; -424.000
200.069;  -14.400; -141.000;  -58.000
200.215;  111.500;  128.000;  453.000
200.361;  111.100;  243.000;  477.000
200.507; -154.100; -600.000; -373.000
200.653;  -67.800; -371.000; -194.000
200.798; -101.500; -215.000; -125.000
200.944;  -18.900; -146.000;  -41.000
201.090;   83.700;   61.000;  222.000
201.236;   11.900; -116.000; -158.000
201.382;  250.000;  874.000;  903.000
201.528;   40.800;  -58.000;  -48.000
201.674; -119.400; -386.000; -293.000
201.819; -120.600; -540.000; -439.000
201.965; -172.900; -699.000; -447.000
202.111;  -24.100; -273.000; -226.000
202.257;  -64.900; -250.000; -238.000
202.402;   34.200;   13.000;  -36.000
202.548;  -45.400; -169.000; -116.000
202.694;  159.500;  410.000; -183.000
202.840; -166.700; -603.000; -531.000
202.985; -137.300; -681.000; -639.000
203.131; -232.900; -832.000; -666.000
203.277;  -40.900; -199.000; -262.000
203.423;  -87.800; -434.000; -520.000
203.568;  -78.200; -462.000; -237.000
203.714; -106.800; -535.000; -542.000
203.860; -134.200; -682.000; -641.000
204.005;   50.700;  112.000;  167.000
204.151;  188.500;  561.000;  556.000
204.296; -101.600; -354.000; -221.000
204.442; -139.500; -600.000; -547.000
204.588; -163.400; -592.000; -579.000
204.733;   35.600;  178.000;  168.000
204.879; -285.800;-1018.000; -822.000
205.025;   52.100;  -99.000;  126.000
205.170;   -3.400;  -17.000;   94.000
205.316;  169.600;  438.000;  661.000
205.461; -153.200; -698.000; -554.000
205.607;  179.800;  609.000;  665.000
205.752; -155.800; -626.000; -551.000
205.898;  -69.700; -501.000; -391.000
206.043; -120.600; -578.000; -506.000
206.189;  -80.200; -243.000; -285.000
206.334;  157.700;  554.000;  606.000
206.480;  172.100;  409.000;  239.000
206.625; -168.400; -529.000; -552.000
206.771;  -52.400; -451.000; -373.000
206.916;  -72.000; -210.000; -537.000
207.062; -115.700; -545.000; -591.000
207.207; -120.000; -546.000; -443.000
207.353;  129.600;  185.000;  460.000
207.498;   26.300;  196.000;   85.000
207.643;  -71.300; -501.000; -370.000
207.789; -270.800;-1069.000; -910.000
207.934; -181.300; -665.000; -713.000
208.080;  -15.200; -154.000;   66.000
208.225;   26.200;  -22.000;  -57.000
208.370; -171.900; -727.000; -619.000
208.516; -158.300; -741.000; -487.000
208.661;  -23.600; -127.000;  -69.000
208.806;  -46.300; -165.000; -171.000
208.952; -234.100;-1044.000; -731.000
209.097;  195.400;  378.000;  349.000
209.242;  -91.700; -307.000; -382.000
209.387;   68.700;  392.000;  350.000
209.533; -111.500; -321.000; -350.000
209.678;  160.800;  472.000;  543.000
209.823; -105.700; -408.000; -310.000
209.969; -195.600; -860.000; -757.000
210.114; -243.800; -907.000; -719.000
210.259; -203.600; -939.000; -889.000
210.404;  -11.700; -171.000;  103.000
210.549;   47.300;  108.000;    3.000
210.695;  -65.900;   -3.000;  -95.000
210.840;   89.600;   94.000;   67.000
210.985; -148.500; -484.000; -303.000
211.130;  147.100;  268.000;  406.000
211.275;   26.400;  207.000;  199.000
211.420;  -82.300; -300.000; -289.000
211.566; -141.700; -536.000; -489.000
211.711;   44.200;  218.000;  157.000
211.856; -143.700; -545.000; -519.000
212.001;   24.500;  151.000;   44.000
212.146;   18.500;  153.000;   49.000
212.291;  -55.900; -210.000; -186.000
212.436;  -66.500; -280.000;   -6.000
212.581; -158.900; -685.000; -653.000
212.726; -148.800; -487.000; -538.000
212.871;  -81.200; -552.000; -217.000
213.016; -312.500;-1172.000;-1029.000
213.161;  116.000;  406.000;  291.000
213.306; -132.900; -435.000; -577.000
213.451; -165.000; -778.000; -689.000
213.596;  -75.400; -455.000; -347.000
213.741; -108.200; -448.000; -538.000
213.886; -198.000; -498.000; -517.000
214.031;  -36.000; -294.000; -124.000
214.176; -107.100; -408.000; -341.000
214.321;  -18.500; -296.000; -157.000
214.466;  -54.900; -163.000;  -43.000
214.611;  -12.300;  -61.000;  -10.000
214.756; -225.500; -948.000; -858.000
214.901;  -24.900; -388.000; -226.000
215.046; -225.100; -797.000; -825.000
215.191;   30.900;  128.000;   35.000
215.336;   -9.400; -157.000;  -19.000
215.480; -113.900; -684.000; -505.000
215.625;    3.100; -175.000;  -19.000
215.770; -155.300; -757.000; -662.000
215.915;  -34.600;   -5.000;  -97.000
216.060;  -31.800; -113.000;  -21.000
216.205; -235.100; -731.000; -779.000
216.349; -132.700; -470.000; -533.000
216.494; -258.800; -939.000; -867.000
216.639; -239.400; -823.000; -888.000
216.784; -164.300; -577.000; -525.000
216.929;  110.800;  392.000;  281.000
217.073;  -13.700; -244.000;  -31.000
217.218;   30.500;   78.000;  -47.000
217.363; -169.200; -656.000; -618.000
217.507; -177.000; -623.000; -588.000
217.652; -257.800; -845.000; -874.000
217.797; -166.300; -708.000; -659.000
217.942; -235.500; -856.000; -720.000
218.086;  177.500;  608.000;  539.000
218.231;  -20.100; -174.000;  -26.000
218.376;  -53.300; -337.000; -229.000
218.520;   28.000;  -41.000;   96.000
218.665;  -94.700; -338.000; -204.000
218.810;  -88.500; -275.000; -233.000
218.954;   39.800;  201.000;   35.000
219.099; -226.600; -713.000; -963.000
219.243; -123.000; -589.000; -554.000
219.388;  -74.700; -264.000; -136.000
219.532;  -26.600; -116.000; -116.000
219.677; -118.100; -564.000; -521.000
219.822;   17.600;   33.000;   89.000
219.966;    8.500;   17.000;  -99.000
220.111;  -47.900; -328.000;  -40.000
220.255; -186.400; -797.000; -750.000
220.400;  -27.300; -180.000; -146.000
220.544; -135.500; -516.000; -450.000
220.689;  -93.000; -422.000; -451.000
220.833;  -49.600; -123.000;  -58.000
220.978;  -92.600; -393.000; -563.000
221.122;   64.000;  319.000;  307.000
221.267; -235.600; -906.000; -837.000
221.411; -138.700; -478.000; -394.000
221.555;   10.100; -104.000;  -23.000
221.700;  -87.000; -329.000; -222.000
221.844;   99.100;  255.000;  272.000
221.989; -109.100; -328.000; -311.000
222.133;  -61.700; -289.000; -307.000
222.277;  -20.200;    5.000;   78.000
222.422;   62.800;  227.000;  113.000
222.566;  -64.000; -381.000; -214.000
222.711; -111.100; -414.000; -479.000
222.855; -190.600; -643.000; -586.000
222.999; -163.200; -642.000; -717.000
223.144;  -41.600; -195.000; -194.000
223.288;  120.500;  423.000;  251.000
223.432;   19.500;  184.000;  230.000
223.576;   32.500;  152.000;  -21.000
223.721;   87.700;  364.000;  273.000
223.865;  -80.700; -472.000; -475.000
224.009;  396.600; 1673.000; 1631.000
224.153; -154.200; -660.000; -671.000
224.298; -131.900; -531.000; -489.000
224.442;  -24.300;  -74.000;  -33.000
224.586;  -12.000; -169.000; -106.000
224.730; -188.000; -858.000; -670.000
224.875; -223.100; -739.000; -688.000
225.019;   38.900;  102.000;  188.000
225.163;   80.700;  208.000;  341.000
225.307;   77.400;   97.000;  -91.000
225.451;  104.000;  360.000;  481.000
225.595;   89.200;  264.000;  176.000
225.739;  -36.400; -170.000;  -94.000
225.884;   19.200;   86.000;    5.000
226.028; -196.100; -760.000; -626.000
226.172;  -56.300; -260.000; -273.000
226.316; -268.200; -941.000; -902.000
226.460;  -99.800; -645.000; -493.000
226.604; -117.200; -406.000; -400.000
226.748; -198.600; -836.000; -733.000
226.892;  -50.300; -227.000; -181.000
227.036;  -89.300; -537.000; -447.000
227.180; -123.800; -551.000; -375.000
227.324; -129.200; -561.000; -580.000
227.468; -248.900; -819.000; -717.000
227.612;   47.600;  242.000;  -28.000
227.756; -227.300; -845.000; -698.000
227.900;  143.600;  342.000;  441.000
228.044; -129.900; -509.000; -290.000
228.188;  155.800;  448.000;  568.000
228.332; -135.600; -546.000; -472.000
228.476;  -35.200; -223.000; -149.000
228.620;  -51.400; -210.000; -150.000
228.764;  130.400;  431.000;  349.000
228.908;  -28.700; -155.000;   30.000
229.052; -135.100; -615.000; -528.000
229.195;  -30.800; -172.000;   13.000
229.339;  -46.200; -235.000; -305.000
229.483;  -69.100;    5.000; -162.000
229.627;    0.200; -156.000;  139.000
229.771;  -68.200; -218.000; -294.000
229.915;   55.300;  230.000;   79.000
230.059; -199.000; -648.000; -663.000
230.202;  -64.400; -370.000; -317.000
230.346;  -54.100; -107.000;  107.000
230.490; -103.000; -489.000; -521.000
230.634; -237.100; -736.000; -553.000
230.777;  181.900;  478.000;  509.000
230.921;  -89.200; -450.000; -359.000
231.065;  -58.800; -246.000; -286.000
231.209;   56.800;  261.000;  265.000
231.352;   46.600;   54.000;   40.000
231.496;   40.300;  568.000;  188.000
231.640; -135.200; -693.000; -621.000
231.783;  126.700;  546.000;  525.000
231.927;  -53.500; -294.000; -365.000
232.071; -260.600; -962.000; -736.000
232.214; -191.800; -980.000; -764.000
232.358; -195.300; -683.000; -599.000
232.502;   22.600;  -19.000;    7.000
232.645; -274.700;-1090.000; -927.000
232.789;  -13.900; -257.000; -218.000
232.933; -107.500; -407.000; -224.000
233.076; -231.300;-1038.000; -897.000
233.220; -207.900; -752.000; -777.000
233.363; -127.300; -669.000; -477.000
233.507;  107.300;  371.000;  129.000
233.650; -170.900; -764.000; -834.000
233.794;  103.200;  438.000;  461.000
233.938; -114.300; -530.000; -362.000
234.081;  -54.100;  -93.000;   31.000
234.225; -130.600; -631.000; -539.000
234.368; -229.800; -773.000; -723.000
234.512;  -78.500; -385.000; -299.000
234.655; -187.800; -582.000; -555.000
234.798; -136.100; -493.000; -466.000
234.942; -266.400; -884.000;-1002.000
235.085; -137.900; -651.000; -443.000
235.229; -142.300; -405.000; -410.000
235.372;  -60.800; -247.000; -191.000
235.516; -114.500; -397.000; -321.000
235.659;   68.300;   92.000;  121.000
235.802;  -10.200;  -38.000;  -22.000
235.946;   57.900;  335.000;  215.000
236.089;   73.400;  126.000;  250.000
236.233;  102.700;  275.000;  298.000
236.376; -109.700; -235.000; -378.000
236.519;  -56.700; -297.000; -319.000
236.663;  -28.700; -215.000; -117.000
236.806; -246.500;-1029.000; -999.000
236.949;  138.200;  543.000;  431.000
237.092;  130.100;  412.000;  391.000
237.236; -195.500; -589.000; -502.000
237.379;  145.900;  352.000;  428.000
237.522; -247.200; -879.000; -768.000
237.666;  -26.700; -271.000;   18.000
237.809; -243.700; -851.000; -823.000
237.952;   75.000;  469.000;  271.000
238.095; -144.200; -447.000; -442.000
238.238;  196.200;  688.000;  700.000
238.382;   18.900;  166.000;  103.000
238.525; -124.900; -598.000; -511.000
238.668; -266.500;-1060.000; -985.000
238.811; -163.500; -638.000; -643.000
238.954; -103.700; -483.000; -334.000
239.097;  236.700;  617.000;  664.000
239.241;   92.200;  394.000;  326.000
239.384;  -50.200; -254.000; -214.000
239.527;  -79.500; -424.000; -224.000
239.670; -290.000; -994.000;-1091.000
239.813; -207.900; -696.000; -658.000
239.956;  168.500;  579.000;  473.000
240.099; -217.600; -778.000; -725.000
240.242;  148.100;  428.000;  432.000
240.385;  150.300;  466.000;  450.000
240.528; -134.400; -706.000; -473.000
240.671;   29.200;  189.000;  134.000
240.814;  -52.900; -441.000; -158.000
240.957; -208.900; -767.000; -578.000
241.100; -159.700; -779.000; -755.000
241.243; -272.000;-1234.000; -893.000
241.386; -127.200; -508.000; -379.000
241.529; -155.800; -735.000; -547.000
241.672; -127.800; -566.000; -495.000
241.815; -252.800; -832.000; -808.000
241.958;  -11.500; -125.000; -182.000
242.101; -160.700; -545.000; -390.000
242.244;  -50.500; -270.000; -325.000
242.387;  -83.600; -304.000; -246.000
242.530;  146.000;  470.000;  134.000
242.673;  -68.700; -381.000; -309.000
242.815; -249.500; -925.000; -899.000
242.958; -113.400; -482.000; -381.000
243.101;   42.700;  132.000;  187.000
243.244; -139.900; -564.000; -521.000
243.387;  -66.100; -313.000; -316.000
243.530; -202.700; -657.000; -674.000
243.672;  -14.500;   43.000;  -92.000
243.815;  -91.200; -355.000; -283.000
243.958;   26.700;   98.000;  -26.000
244.101;   11.200;   59.000;  -16.000
244.243;  -20.600;  -47.000;  101.000
244.386; -225.400; -761.000; -630.000
244.529;  -22.600; -132.000; -139.000
244.672; -310.200;-1154.000; -951.000
244.814; -182.900; -621.000; -794.000
244.957; -100.300; -380.000; -304.000
245.100; -147.800; -489.000; -489.000
245.242; -173.600; -387.000; -374.000
245.385;   18.000;  -59.000;  -39.000
245.528; -247.000; -871.000; -705.000
245.670;  187.200;  612.000;  634.000
245.813; -146.500; -599.000; -547.000
245.956;  -42.800; -324.000; -275.000
246.098; -162.300; -508.000; -650.000
246.241;    2.900;  194.000;   48.000
246.383;  -19.900; -119.000;  -73.000
246.526; -161.200; -454.000; -525.000
246.669; -249.900; -889.000; -780.000
246.811;   55.900;  172.000;   -1.000
246.954; -148.200; -512.000; -426.000
247.096;   11.100;  -84.000;   -6.000
247.239; -160.800; -482.000; -445.000
247.381; -151.100; -647.000; -488.000
247.524;  198.200;  645.000;  679.000
247.666;   27.300;   58.000;   11.000
247.809; -221.100; -887.000; -691.000
247.951;    1.400;  -75.000;  138.000
248.094;   53.800;  432.000;  308.000
248.236; -318.100;-1262.000;-1238.000
248.378;  -43.000; -356.000;  -81.000
248.521;  -36.400; -334.000; -337.000
248.663;  -79.700; -236.000; -267.000
248.806;  -57.100; -300.000; -266.000
248.948; -239.000; -886.000; -763.000
249.090;  -75.300; -428.000; -398.000
249.233;  -94.400; -344.000; -381.000
249.375; -146.700; -474.000; -451.000
249.518;  -32.600;  -83.000; -133.000
249.660;    4.600; -103.000;    3.000
249.802; -355.700;-1303.000;-1189.000
249.945; -150.100; -612.000; -540.000
250.087; -218.100; -834.000; -768.000
250.229;  -87.500; -362.000; -480.000
250.371; -168.400; -494.000; -439.000
250.514;  -64.000; -310.000; -244.000
250.656; -101.800;   69.000;  102.000
250.798; -200.400; -849.000; -800.000
250.940; -137.100; -322.000; -322.000
251.083;  -48.100; -335.000; -111.000
251.225;  122.800;  338.000;  310.000
251.367;  -86.500; -274.000; -373.000
251.509;  -63.300; -265.000; -210.000
251.651; -179.500; -731.000; -671.000
251.794;  140.300;  538.000;  632.000
251.936; -190.400; -821.000; -747.000
252.078; -181.700; -540.000; -461.000
252.220; -152.900; -645.000; -477.000
252.362;  147.000;  344.000;  462.000
252.504; -136.800; -677.000; -584.000
252.646; -221.200; -875.000; -722.000
252.788;    4.300;   14.000; -128.000
252.931;  -96.900; -257.000; -253.000
253.073;  -83.000; -376.000; -317.000
253.215;  -13.600;  141.000;  122.000
253.357;  -34.100;   82.000; -153.000
253.499; -100.000; -374.000; -234.000
253.641; -151.600; -749.000; -594.000
253.783; -186.200; -609.000; -527.000
253.925; -172.300; -586.000; -591.000
254.067; -181.600; -744.000; -667.000
254.209;  -49.800; -391.000; -259.000
254.351; -262.100; -865.000; -883.000
254.493; -100.300; -441.000; -417.000
254.635; -201.700; -936.000; -818.000
254.777; -168.000; -752.000; -687.000
254.918; -156.900; -512.000; -430.000
255.060; -116.000; -551.000; -395.000
255.202;  -85.100; -473.000; -261.000
255.344; -119.900; -658.000; -455.000
255.486; -153.900; -471.000; -406.000
255.628; -190.600; -780.000; -781.000
255.770; -160.400; -676.000; -536.000
255.912; -112.000; -559.000; -468.000
256.053; -171.400; -730.000; -508.000
256.195;  355.700; 1008.000;  903.000
256.337; -177.200; -861.000; -595.000
256.479;  168.100;  532.000;  416.000
256.621;  -98.300; -394.000; -212.000
256.762; -179.300; -789.000; -742.000
256.904;  133.800;  485.000;  487.000
257.046;  -51.600; -381.000; -271.000
257.188;  -68.900; -351.000; -264.000
257.329; -139.300; -525.000; -464.000
257.471; -240.500; -939.000; -807.000
257.613; -144.000; -584.000; -498.000
257.755; -292.200;-1073.000; -982.000
257.896;   88.200;  286.000;  392.000
258.038; -114.100; -403.000; -352.000
258.180;  -56.600; -354.000; -279.000
258.321; -157.000; -581.000; -457.000
258.463;    9.300;  -71.000;  133.000
258.605; -172.200; -562.000; -570.000
258.746; -200.800; -886.000; -772.000
258.888; -309.400;-1026.000;-1020.000
259.029;   52.600;  121.000;   -8.000
259.171; -181.500; -614.000; -550.000
259.313;    1.600;  -49.000;  -47.000
259.454; -131.900; -536.000; -414.000
259.596;  -78.200; -483.000; -390.000
259.737; -123.900; -590.000; -474.000
259.879;   73.000;  217.000;  311.000
260.020;  192.200;  901.000;  636.000
260.162;  -26.600; -146.000; -253.000
260.303; -178.700; -768.000; -687.000
260.445; -136.800; -609.000; -613.000
260.586;   54.200;  392.000;  157.000
260.728;  -73.200; -360.000; -248.000
260.869; -132.800; -350.000; -343.000
261.011;  185.400;  706.000;  537.000
261.152; -113.400; -479.000; -319.000
261.293; -115.900; -576.000; -595.000
261.435;  -54.900; -219.000; -184.000
261.576;  -77.100; -455.000; -325.000
261.718;  113.100;  420.000;  470.000
261.859; -237.900; -940.000; -949.000
262.000; -235.200; -951.000;-1016.000
262.142;  -21.700;  -52.000;  -60.000
262.283; -192.200; -808.000; -691.000
262.424; -180.300; -666.000; -625.000
262.566; -296.400;-1161.000; -983.000
262.707; -240.800; -840.000; -830.000
262.848; -243.600; -769.000; -726.000
262.990;  -80.000; -362.000; -345.000
263.131;  166.900;  650.000;  681.000
263.272;    7.000;  -61.000;  -41.000
263.413; -178.400; -589.000; -561.000
263.555; -119.500; -669.000; -143.000
263.696; -170.500; -550.000; -641.000
263.837; -117.600; -449.000; -551.000
263.978;   11.900;   -5.000;  -77.000
264.119;  -79.900; -283.000; -264.000
264.261; -214.300; -847.000; -630.000
264.402;    3.400;   33.000;   40.000
264.543; -144.600; -509.000; -524.000
264.684;   -6.400;   61.000;  -50.000
264.825; -120.100; -816.000; -538.000
264.966;   35.500;  -84.000;  -67.000
265.107; -223.400; -646.000; -670.000
265.248; -215.300; -825.000; -812.000
265.390;   13.600;  152.000;   -9.000
265.531;   -9.400; -238.000; -107.000
265.672; -188.000; -557.000; -630.000
265.813;  125.300;  563.000;  439.000
265.954; -305.800; -959.000; -940.000
266.095;   -9.300; -372.000; -322.000
266.236; -195.600; -686.000; -548.000
266.377;  -72.100; -243.000; -297.000
266.518; -121.900; -619.000; -547.000
266.659;   85.900;  170.000;  268.000
266.800;   54.200;   83.000;   85.000
266.941; -119.900; -487.000; -478.000
267.082;   68.700;  354.000;   99.000
267.223;  -81.300; -344.000; -273.000
267.364; -213.600; -892.000; -686.000
267.504;    4.200;    3.000;  135.000
267.645;   19.600;  160.000;   67.000
267.786;  -19.200; -147.000;  -86.000
267.927; -110.600; -473.000; -379.000
268.068;    8.600; -186.000;  -61.000
268.209; -102.100; -175.000; -413.000
268.350;  -79.700; -388.000; -532.000
268.490; -171.400; -648.000; -521.000
268.631;  104.900;  127.000;  225.000
268.772; -179.400; -874.000; -647.000
268.913;  -88.600; -328.000; -476.000
269.054;  -33.900; -117.000;   12.000
269.194;  -60.200; -418.000; -402.000
269.335; -299.400;-1137.000;-1074.000
269.476;   11.000;   33.000;  -35.000
269.617; -101.700; -347.000; -392.000
269.757; -167.400; -713.000; -646.000
269.898; -227.400; -856.000; -613.000
270.039;  -77.100; -415.000; -405.000
270.180; -260.300; -952.000; -816.000
270.320;  -11.800; -190.000; -250.000
270.461;  -48.400; -277.000; -249.000
270.602;  -20.400; -186.000; -156.000
270.742; -212.800; -868.000; -943.000
270.883;  -84.900; -442.000; -390.000
271.023;  -80.700; -358.000; -357.000
271.164; -121.900; -607.000; -528.000
271.305; -198.200; -666.000; -654.000
271.445; -163.000; -722.000; -683.000
271.586; -124.900; -462.000; -283.000
271.726;  -41.100; -397.000; -322.000
271.867; -112.000; -594.000; -534.000
272.008;  201.900; -473.000; -285.000
272.148;  189.700;  462.000;  468.000
272.289;   21.300; -113.000; -181.000
272.429;   32.700;   19.000;  185.000
272.570; -210.200; -633.000; -737.000
272.710; -215.800; -825.000; -775.000
272.851;  -32.500;  113.000; -130.000
272.991; -334.900;-1173.000;-1077.000
273.131; -106.500; -419.000; -459.000
273.272; -207.800; -683.000; -723.000
273.412;   18.100; -143.000;  -31.000
273.553;  -93.400; -488.000; -507.000
273.693;  291.000;  913.000;  858.000
273.834; -206.100; -894.000; -692.000
273.974; -104.800; -664.000; -615.000
274.114; -176.200; -772.000; -560.000
274.255;  165.000;  414.000;  373.000
274.395;  -19.800; -180.000; -125.000
274.535;   76.800;  199.000;  350.000
274.676;   51.300;  225.000;   94.000
274.816;   -2.200;  110.000;   34.000
274.956; -152.500; -624.000; -690.000
275.097; -147.900;-1014.000; -922.000
275.237; -232.300; -913.000; -803.000
275.377; -173.600; -778.000; -689.000
275.517; -263.500; -878.000; -937.000
275.658; -113.800; -590.000; -555.000
275.798; -149.400; -606.000; -413.000
275.938;   62.900;  215.000;  323.000
276.078; -194.600; -626.000; -395.000
276.218;   26.800;   99.000;  104.000
276.359; -267.400;-1026.000;-1024.000
276.499; -119.300; -605.000; -446.000
276.639;  -80.600; -305.000; -151.000
276.779;  -81.100; -475.000; -357.000
276.919; -178.700; -783.000; -624.000
277.059;  -28.100; -261.000; -212.000
277.199;  -94.700; -357.000; -259.000
277.340;  142.400;  287.000;  175.000
277.480; -217.700; -840.000; -693.000
277.620;   86.900;  192.000;   16.000
277.760; -403.800;-1533.000;-1294.000
277.900;   57.300;  113.000;   33.000
278.040;   35.000;  137.000;  159.000
278.180;  120.900;  270.000;  170.000
278.320;   19.600;   21.000;   56.000
278.460; -130.200; -443.000; -469.000
278.600; -144.700; -708.000; -598.000
278.740;  126.200;  448.000;  224.000
278.880; -166.300; -768.000; -791.000
279.020;   26.500; -194.000; -144.000
279.160; -139.900; -672.000; -595.000
279.300; -223.500; -926.000; -873.000
279.440; -192.000; -709.000; -622.000
279.579; -119.600;-1014.000; -929.000
279.719; -108.700; -410.000; -394.000
279.859;  117.800;   -4.000;   41.000
279.999;   23.300; -208.000;  101.000
280.139;  -53.400; -435.000; -387.000
280.279; -165.300; -708.000; -745.000
280.419;   -8.800; -229.000; -147.000
280.559;  -49.900; -259.000; -180.000
280.698; -170.100; -790.000; -639.000
280.838; -198.900; -778.000; -800.000
280.978; -183.100; -846.000; -790.000
281.118; -214.000; -811.000; -704.000
281.257;   56.400;   24.000;    6.000
281.397; -242.400;-1094.000; -960.000
281.537; -148.100; -599.000; -712.000
281.677;  -24.100; -150.000; -101.000
281.816; -149.300; -700.000; -630.000
281.956;  -28.800; -193.000; -257.000
282.096;  -80.900; -539.000; -396.000
282.235; -181.000; -672.000; -638.000
282.375;  -33.100; -243.000;  -98.000
282.515; -191.600; -715.000; -707.000
282.654;   74.800;   29.000;  106.000
282.794;   84.100;  388.000;  244.000
282.934;  -94.700; -530.000; -491.000
283.073; -240.800;-1030.000; -857.000
283.213;  -48.200; -460.000; -467.000
283.353;  -62.800; -408.000; -349.000
283.492;  -31.000; -264.000; -296.000
283.632;  -75.800; -254.000; -168.000
283.771; -164.700; -859.000; -730.000
283.911; -106.600; -369.000; -260.000
284.050; -169.700; -794.000; -748.000
284.190; -283.000;-1229.000;-1096.000
284.329; -254.200;-1055.000; -964.000
284.469; -153.000; -516.000; -591.000
284.608;  -82.600; -559.000; -598.000
284.748; -142.000; -614.000; -570.000
284.887;   17.200;  -87.000;  -20.000
285.027; -239.000; -844.000; -892.000
285.166;  -49.500; -192.000; -249.000
285.306;   34.600; -116.000;  -33.000
285.445;  -43.200; -229.000; -343.000
285.584; -153.600; -630.000; -494.000
285.724;  -39.700; -282.000; -322.000
285.863; -210.900; -857.000; -507.000
286.002;  -76.000; -366.000; -276.000
286.142; -193.100; -715.000; -622.000
286.281;  -99.400; -525.000; -493.000
286.420; -145.600; -554.000; -417.000
286.560;  239.300;  653.000;  623.000
286.699; -264.500; -958.000; -912.000
286.838; -115.200; -590.000; -591.000
286.978; -155.300; -533.000; -537.000
287.117; -253.200;-1085.000; -950.000
287.256;  -28.600; -228.000; -211.000
287.395;  -59.300; -197.000; -378.000
287.535;  -93.200; -370.000; -298.000
287.674; -136.500; -509.000; -484.000
287.813;  125.900;  661.000;  533.000
287.952; -241.300;-1010.000; -871.000
288.091; -266.300;-1049.000; -915.000
288.231;   37.200;   13.000;   15.000
288.370; -344.100;-1217.000;-1200.000
288.509; -146.100; -728.000; -645.000
288.648; -169.800; -770.000; -548.000
288.787;    1.600; -243.000;  -87.000
288.926; -129.000; -454.000; -475.000
289.065;  247.100;  859.000;  672.000
289.204;  -91.700; -377.000; -217.000
289.344; -170.000; -791.000; -690.000
289.483;   63.700;  416.000;  304.000
289.622;  -41.700; -291.000; -149.000
289.761;  -21.600; -309.000; -166.000
289.900; -183.900; -785.000; -626.000
290.039;   18.300;  -12.000;  -95.000
290.178;  -35.600; -274.000; -180.000
290.317; -138.300; -618.000; -479.000
290.456; -115.300; -463.000; -451.000
290.595; -260.700; -961.000; -833.000
290.734; -247.400; -904.000; -891.000
290.873;  -95.900; -456.000; -420.000
291.011; -215.800; -833.000; -843.000
291.150; -175.500; -770.000; -682.000
291.289;  -11.600; -343.000; -110.000
291.428; -173.300; -599.000; -480.000
291.567;  -90.900; -370.000; -442.000
291.706;   40.900;  109.000;  154.000
291.845; -150.600; -597.000; -505.000
291.984; -321.000;-1234.000;-1061.000
292.122;  168.200;  602.000;  582.000
292.261;  119.600;  620.000;  463.000
292.400;   37.100; -144.000;  211.000
292.539; -252.900; -959.000; -813.000
292.678;  -34.100; -325.000; -300.000
292.816; -304.900;-1136.000; -965.000
292.955; -160.900; -844.000; -684.000
293.094;  -35.900; -173.000; -337.000
293.233; -101.700; -556.000; -400.000
293.371;  -47.500; -225.000;  -84.000
293.510; -191.700; -866.000; -780.000
293.649; -266.400; -959.000; -924.000
293.787; -183.800;-1083.000;-1012.000
293.926;  -14.700; -113.000;  -32.000
294.065;  -59.600; -379.000; -290.000
294.203;  142.600;  298.000;  406.000
294.342;   45.800;   74.000;  156.000
294.481;11225.000;51180.000; -836.000
294.619;  -12.500; -425.000; -582.000
294.758; -293.600;-1230.000;-1137.000
294.896;   96.200; -125.000;    5.000
295.035; -268.400;-1040.000;-1006.000
295.174; -226.200;-1082.000; -954.000
295.312;  -46.300; -323.000; -203.000
295.451;  -49.600; -307.000; -428.000
295.589; -134.400; -389.000; -518.000
295.728;   62.600; -292.000; -165.000
295.866;  -10.900;  -36.000;  -51.000
296.005;  -89.700; -584.000; -341.000
296.143; -149.300; -558.000; -596.000
296.282; -219.500; -957.000; -881.000
296.420; -170.900; -657.000; -557.000
296.559; -173.500; -892.000; -633.000
296.697;  -56.800; -847.000; -665.000
296.835;   -0.200;-1141.000;-1002.000
296.974;   75.100;  -23.000;   39.000
297.112;   10.500; -443.000; -504.000
297.251; -159.500; -815.000; -755.000
297.389;   85.200; -576.000; -438.000
297.527;   56.900; -145.000;  -83.000
297.666;  -99.800; -486.000; -438.000
297.804;  -82.100; -404.000; -264.000
297.942;   26.900; -136.000; -161.000
298.081;   10.600; -183.000;   63.000
298.219;  114.100;  -17.000;  -19.000
298.357;   43.000; -144.000;  -71.000
298.495;  -24.900; -810.000; -812.000
298.634;   95.500;  245.000;  219.000
298.772;   60.600; -220.000; -338.000
298.910;  -61.800; -309.000; -182.000
299.048;  -21.800; -130.000; -153.000
299.187;  -61.800; -350.000; -250.000
299.325;   82.300;   52.000;  122.000
299.463;   37.900; -389.000; -299.000
299.601;  128.100; -327.000; -271.000
299.739; -227.200; -908.000; -883.000
299.877; -116.600; -791.000; -703.000
300.016; -167.300;-1095.000; -935.000
300.154;  231.600;  -19.000; -161.000
300.292;   30.600; -428.000; -348.000
300.430;   25.000; -408.000; -291.000
300.568; -223.300; -940.000; -874.000
300.706;  -71.800; -366.000; -469.000
300.844; -199.400;-1108.000; -979.000
300.982;  224.900;  246.000;  282.000
301.120; -228.500; -965.000; -866.000
301.258; -163.500; -812.000; -705.000
301.396;   43.200;  104.000;  -41.000
301.534;  124.800; -218.000; -293.000
301.672;  -39.300; -664.000; -521.000
301.810;   -0.300; -613.000; -545.000
301.948;  191.200;   53.000;  149.000
302.086;  759.000; -250.000;  -32.000
302.224; 1140.500; -610.000; -585.000
302.362;    3.400; -558.000; -622.000
302.500;  -97.600; -923.000; -893.000
302.638;  178.400;  128.000;  245.000
302.776;  -11.000; -352.000; -408.000
302.913;  108.800;  447.000;  236.000
303.051;  -17.500;  -86.000;  -23.000
303.189;  121.700;   90.000;  118.000
303.327;  -61.500; -341.000; -256.000
303.465; -153.400; -832.000; -588.000
303.603; -183.600; -805.000; -604.000
303.740;  197.100;  417.000;  241.000
303.878;  -47.100; -800.000; -759.000
304.016; -165.300; -915.000; -790.000
304.154; -271.000;-1123.000;-1152.000
304.291;  -91.600; -505.000; -554.000
304.429;   32.200;  102.000;   74.000
304.567; -229.200; -908.000; -893.000
304.705; -125.900; -408.000; -515.000
304.842;   94.000; -616.000; -540.000
304.980;  118.100;  215.000;   35.000
305.118;   43.200; -367.000; -365.000
305.255; -201.300; -945.000; -927.000
305.393;  133.900;  178.000;  239.000
305.531; -232.900;-1173.000; -956.000
305.668; -130.400; -663.000; -582.000
305.806;   77.900; -358.000; -439.000
305.943;   86.900; -629.000; -637.000
306.081;   77.800; -378.000; -267.000
306.219; -172.200; -863.000; -748.000
306.356;   34.800;  158.000;   27.000
306.494;  253.000;  981.000;  761.000
306.631;   13.400;  -11.000;  -55.000
306.769;   -2.500; -613.000; -485.000
306.906;  -22.800; -284.000; -258.000
307.044;  -69.000; -473.000; -488.000
307.181;  -76.800; -410.000; -332.000
307.319;   89.400;  112.000;   87.000
307.456; -316.200;-1191.000;-1153.000
307.594; -183.100; -980.000; -727.000
307.731;   27.400; -371.000; -164.000
307.868;   19.900;  -15.000;   20.000
308.006; -235.200; -961.000; -847.000
308.143;  -70.600; -618.000; -330.000
308.281;  297.000;  -37.000; -254.000
308.418;  -37.900; -748.000; -640.000
308.555; -132.800; -400.000; -250.000
308.693; -109.600; -577.000; -573.000
308.830; -208.500; -712.000; -657.000
308.967;   37.300; -215.000;  -95.000
309.105;  -15.100; -507.000; -396.000
309.242;   61.000; -468.000; -367.000
309.379;  559.200; -577.000; -655.000
309.517; -117.900; -936.000; -948.000
309.654; -184.300; -910.000; -734.000
309.791;  -85.600; -662.000; -580.000
309.928; -207.500; -977.000; -914.000
310.065;  329.100;  819.000;  697.000
310.203;  -72.800; -825.000; -850.000
310.340;    6.700; -465.000; -321.000
310.477; -119.700; -412.000; -516.000
310.614;  -70.000; -383.000; -473.000
310.751;  -68.700; -427.000; -518.000
310.889;  -29.200;    1.000;   11.000
311.026; -287.800;-1161.000; -939.000
311.163;  -46.100; -386.000; -380.000
311.300; -141.600; -512.000; -479.000
311.437; -118.200; -658.000; -619.000
311.574; -305.700;-1226.000; -985.000
311.711; -113.500; -595.000; -433.000
311.848;  -63.500; -380.000; -388.000
311.985;   74.600;  270.000;   93.000
312.122; -179.800; -932.000; -762.000
312.259; -176.600; -941.000; -994.000
312.396; -105.200; -508.000; -551.000
312.533; -127.300; -812.000; -790.000
312.670; -264.000;-1070.000; -898.000
312.807;  -24.300; -352.000; -367.000
312.944; -132.900; -513.000; -611.000
313.081;   -7.700; -150.000; -415.000
313.218; -233.300;-1111.000; -867.000
313.355;   25.300; -531.000; -449.000
313.492;   26.500; -455.000; -292.000
313.629;  233.500;  815.000;  735.000
313.766; -251.100;-1176.000;-1008.000
313.902;   31.400; -186.000;   21.000
314.039;  -64.900; -372.000; -289.000
314.176;  120.900;  286.000;  192.000
314.313; -137.900; -569.000; -473.000
314.450; -121.700; -788.000; -684.000
314.587;  -76.100; -468.000; -480.000
314.723;   42.600;  -78.000;  130.000
314.860;  110.200;  318.000;  332.000
314.997;  108.600;  223.000;  142.000
315.134;  -76.600; -385.000; -368.000
315.270;  -50.000; -480.000; -496.000
315.407; -249.300;-1094.000; -967.000
315.544;  -93.400; -657.000; -538.000
315.681; -123.300; -681.000; -565.000
315.817;   31.800; -133.000; -176.000
315.954;  -56.900; -613.000; -392.000
316.091; -260.400;-1045.000;-1023.000
316.227;  -25.100;  -71.000; -179.000
316.364;   54.100;   23.000;    6.000
316.500;  -41.500; -113.000; -300.000
316.637;  -32.300; -181.000; -302.000
316.774; -135.700; -625.000; -358.000
316.910; -141.800; -598.000; -629.000
317.047;  -94.300; -487.000; -351.000
317.183;  -62.700; -435.000; -566.000
317.320;  -67.800; -367.000; -321.000
317.456; -158.900; -733.000; -805.000
317.593; -172.100; -598.000; -641.000
317.729;   49.400;  168.000;  -67.000
317.866; -387.600;-1434.000;-1285.000
318.002; -157.800; -708.000; -948.000
318.139; -190.300; -883.000; -867.000
318.275; -192.500;-1003.000; -738.000
318.412;  -87.800; -517.000; -336.000
318.548;  -85.500; -751.000; -720.000
318.685; -207.000; -985.000; -888.000
318.821; -173.000; -762.000; -735.000
318.957;  -12.200;   34.000;  -23.000
319.094;   84.600;  297.000;  154.000
319.230; -155.000; -756.000; -742.000
319.367;  175.500; -471.000; -520.000
319.503;   65.200; -538.000; -436.000
319.639; -194.500; -877.000; -793.000
319.775; -155.700; -750.000; -685.000
319.912;  -77.200; -424.000; -519.000
320.048; -208.500;-1184.000;-1184.000
320.184;   96.300;   59.000;   70.000
320.321; -108.700; -497.000; -467.000
320.457;  156.100;  475.000;  662.000
320.593; -102.300; -375.000; -382.000
320.729; -184.500; -732.000; -734.000
320.866; -140.400; -577.000; -635.000
321.002; -140.800; -759.000; -809.000
321.138;  -44.200; -135.000; -211.000
321.274;   65.600; -148.000; -115.000
321.410;  -70.100; -585.000; -353.000
321.546; -105.900;-1011.000; -911.000
321.683;  110.600;  400.000;  185.000
321.819;   39.500;  -48.000; -117.000
321.955; -219.400; -743.000; -722.000
322.091;  -94.900; -585.000; -540.000
322.227;  -10.900; -382.000; -202.000
322.363;  -12.600; -320.000; -215.000
322.499;  -59.300; -343.000; -331.000
322.635;  281.800;  636.000;  443.000
322.771;   -0.100; -139.000;   12.000
322.907;  204.500;  129.000;  327.000
323.043;  -39.500; -115.000; -206.000
323.179;  -77.300; -394.000; -363.000
323.315;  -32.600; -401.000; -371.000
323.451;  154.900; -328.000; -236.000
323.587;   68.700;  -60.000;  -77.000
323.723;  -20.900; -682.000; -601.000
323.859;  -15.400; -258.000;  -76.000
323.995;  -51.600; -467.000; -409.000
324.131; -228.600; -967.000; -892.000
324.267;  -28.100; -254.000; -276.000
324.402; -244.800; -960.000; -983.000
324.538;  -40.200; -279.000; -104.000
324.674;   39.500;  164.000;   77.000
324.810;  316.500;  226.000;  308.000
324.946;   -8.200; -810.000; -658.000
325.082;  -86.200; -568.000; -475.000
325.217;    1.100;  -62.000;   16.000
325.353; -172.900; -764.000; -659.000
325.489; -143.900; -540.000; -506.000
325.625; -126.000; -579.000; -525.000
325.760;  118.200;  517.000;  376.000
325.896;  -60.100; -515.000; -702.000
326.032;  -79.200; -403.000; -352.000
326.168;  -83.500; -462.000; -369.000
326.303; -129.400; -352.000; -461.000
326.439;    2.300; -336.000; -276.000
326.575;  -19.500; -190.000;  -29.000
326.710;   17.000; -156.000;  -30.000
326.846;   18.600;  146.000;  103.000
326.982; -151.200; -530.000; -548.000
327.117; -130.200; -481.000; -442.000
327.253; -161.800; -745.000; -742.000
327.388; -327.900;-1137.000;-1153.000
327.524;  -63.500; -811.000; -578.000
327.659;   -2.100;  -58.000;  -22.000
327.795;   33.200;   69.000;   45.000
327.931; -157.500; -723.000; -499.000
328.066;  -30.400; -417.000; -276.000
328.202;   16.300;   12.000; -129.000
328.337;  241.600;  957.000;  713.000
328.473;   -1.400;  -12.000;  -74.000
328.608;  -37.200; -256.000; -267.000
328.743; -165.200; -799.000; -664.000
328.879;   78.700;  214.000;  114.000
329.014; -114.700; -102.000; -122.000
329.150;  -79.200; -358.000; -483.000
329.285; -119.600; -465.000; -466.000
329.421;  -76.000; -548.000; -246.000
329.556;   -0.300;  -36.000;   85.000
329.691; -123.300; -633.000; -615.000
329.827; -145.200; -626.000; -480.000
329.962;  -25.200;  131.000; -301.000
330.097; -159.500; -673.000; -585.000
330.233;  -67.100; -410.000; -223.000
330.368; -201.000; -839.000; -628.000
330.503;   28.800;    3.000;   98.000
330.638;  -17.800;  -93.000; -125.000
330.774; -134.600; -609.000; -530.000
330.909;  -66.500; -434.000; -244.000
331.044; -139.200; -714.000; -708.000
331.179; -325.400;-1217.000;-1109.000
331.315;   25.000;   77.000;   20.000
331.450;   40.900;  157.000;  285.000
331.585; -177.800; -805.000; -706.000
331.720; -155.700; -510.000; -460.000
331.855;   15.800;  -35.000; -102.000
331.990;  224.200;   62.000;  138.000
332.126;  134.100; -110.000;   71.000
332.261;  -93.600; -379.000; -265.000
332.396;    3.600; -135.000; -242.000
332.531; -247.800;-1074.000;-1031.000
332.666;  -19.600; -519.000; -363.000
332.801; -209.100; -726.000; -807.000
332.936;  -14.200; -192.000; -122.000
333.071; -287.900; -870.000; -817.000
333.206;   74.600;  307.000;  379.000
333.341;   94.500;  344.000;  418.000
333.476; -168.200; -627.000; -623.000
333.611;  -60.200; -251.000; -173.000
333.746;  -69.300; -381.000; -464.000
333.881; -216.800; -973.000; -935.000
334.016; -229.500; -936.000; -917.000
334.151; -234.300; -746.000; -702.000
334.286;  103.000;  152.000;  186.000
334.421;   10.400; -125.000; -178.000
334.556; -157.300; -611.000; -567.000
334.690; -153.400; -631.000; -577.000
334.825;  136.600;  381.000;   83.000
334.960;  -94.700; -285.000; -413.000
335.095;   39.100;  135.000;  -91.000
335.230; -223.300; -722.000; -738.000
335.365; -239.900;-1084.000; -990.000
335.499; -283.200;-1108.000;-1037.000
335.634;   51.900;    9.000;  534.000
335.769; -177.400; -755.000; -720.000
335.904; -135.300; -603.000; -561.000
336.038; -144.200; -735.000; -657.000
336.173; -257.000;-1206.000;-1194.000
336.308;   14.200; -116.000; -189.000
336.443;  -17.000; -544.000; -634.000
336.577; -181.900; -936.000; -787.000
336.712;  112.100;   -4.000;  -12.000
336.847; -130.300; -724.000; -607.000
336.981;   73.800; -272.000; -208.000
337.116;  326.300;  615.000;  501.000
337.250;  164.100; -434.000; -421.000
337.385;  185.800; -297.000; -208.000
337.520;   -9.100; -632.000; -603.000
337.654;  -64.100; -215.000; -126.000
337.789; -225.500; -989.000; -933.000
337.923;  -34.700; -104.000; -205.000
338.058; -118.400; -673.000; -738.000
338.192;  -90.400; -611.000; -488.000
338.327;   21.700;  -18.000; -155.000
338.461; -127.600; -299.000; -469.000
338.596; -164.300; -780.000; -638.000
338.730; -206.600; -767.000; -803.000
338.865;   92.600;  -46.000; -140.000
338.999; -187.200; -846.000; -702.000
339.134; -115.900; -634.000; -536.000
339.268;  -76.000; -741.000; -603.000
339.403;  208.900; -740.000; -775.000
339.537;  -52.600; -894.000; -820.000
339.671; -208.200; -829.000; -813.000
339.806; -120.200; -556.000; -512.000
339.940;  -13.400; -261.000; -235.000
340.074; -193.300; -685.000; -510.000
340.209;  -76.500; -351.000; -230.000
340.343; -137.500; -517.000; -573.000
340.477;  351.300;  998.000; 1036.000
340.612; -163.900;-1033.000; -900.000
340.746;   79.400; -199.000; -243.000
340.880; -159.500; -924.000; -785.000
341.014;   -1.200;  -45.000; -154.000
341.149; -204.000; -756.000; -718.000
341.283; -208.500; -839.000; -754.000
341.417; -207.300;-1124.000; -938.000
341.551;  123.400; -768.000; -708.000
341.685;  -56.000; -633.000; -611.000
341.820; -117.700; -562.000; -493.000
341.954; -115.400; -218.000; -349.000
342.088; -258.000;-1102.000;-1019.000
342.222;  111.100;  565.000;  618.000
342.356; -100.800; -395.000; -335.000
342.490; -185.200; -880.000; -841.000
342.624;  -16.700; -339.000; -242.000
342.758;  -22.000; -364.000; -312.000
342.892; -108.300; -710.000; -585.000
343.026;  -46.400;  -58.000; -116.000
343.160;  -84.200; -426.000; -376.000
343.294; -140.600; -474.000; -337.000
343.428;  -50.300; -488.000; -448.000
343.562;  -10.500; -172.000;  -23.000
343.696;  -29.000; -385.000; -314.000
343.830;  -47.500; -362.000; -356.000
343.964;   11.200; -231.000; -168.000
344.098; 1265.500;  199.000;   70.000
344.232; 1022.900; -266.000; -127.000
344.366;   40.200; -567.000; -453.000
344.500;   10.100; -665.000; -744.000
344.634;   24.200; -324.000; -164.000
344.768;  -29.900; -531.000; -341.000
344.902;   87.500;  278.000;  256.000
345.035; -102.700; -556.000; -496.000
345.169; -253.900; -933.000; -656.000
345.303;  -36.500; -308.000; -482.000
345.437; -166.700; -826.000; -717.000
345.571; -132.300; -675.000; -594.000
345.704; -128.700; -309.000; -532.000
345.838;  -26.200; -331.000; -284.000
345.972;  -71.200; -543.000; -495.000
346.106;  162.300; -179.000; -190.000
346.239;  361.400; -312.000; -243.000
346.373;  -36.400; -343.000; -302.000
346.507; -283.400; -950.000; -962.000
346.640;  209.700;  -30.000;   13.000
346.774; -113.500; -650.000; -797.000
346.908;  -24.400; -138.000;  -11.000
347.041; -178.600; -646.000; -593.000
347.175;   64.500;  259.000;   27.000
347.309; -147.100; -698.000; -628.000
347.442; -188.300; -883.000; -732.000
347.576;  486.000;  670.000;  668.000
347.709;  290.200; -123.000;  -52.000
347.843; -200.900; -933.000; -825.000
347.976;   94.800;  235.000;  294.000
348.110; -336.700;-1268.000;-1186.000
348.243; -166.500; -679.000; -772.000
348.377;   33.700;  -26.000;   60.000
348.510;  170.500;  403.000;  540.000
348.644;  -56.900;  -37.000; -159.000
348.777;   31.200;  180.000;  191.000
348.911;  -47.200; -142.000; -112.000
349.044;  303.100;  471.000;  448.000
349.178;  126.100;-1069.000;-1006.000
349.311;  195.900;  141.000;  255.000
349.444; -124.200; -927.000; -813.000
349.578;  -25.600; -347.000; -200.000
349.711; -185.000; -959.000; -862.000
349.845;  -30.100; -661.000; -591.000
349.978; -279.800;-1224.000;-1137.000
350.111; -136.900; -546.000; -612.000
350.244; -143.200; -596.000; -700.000
350.378;   14.400; -392.000; -393.000
350.511; -122.600; -393.000; -426.000
350.644; -210.400; -808.000; -806.000
350.778;   42.700;  168.000;  104.000
350.911;   36.100;  134.000;  140.000
351.044; -179.800; -685.000; -615.000
351.177;  -38.300; -321.000; -281.000
351.310;    1.200;    3.000; -131.000
351.444; -176.700; -888.000; -788.000
351.577;  205.700;  140.000;   90.000
351.710;  215.400;  593.000;  417.000
351.843;  -57.800; -165.000;  -77.000
351.976;   44.100;  149.000;  -79.000
352.109; -134.600; -621.000; -612.000
352.242;  -42.200; -464.000; -419.000
352.376; -146.800; -580.000; -636.000
352.509;  157.800; -437.000; -356.000
352.642;  -76.400; -654.000; -604.000
352.775;   46.400; -141.000;  -98.000
352.908; -232.100; -933.000; -904.000
353.041; -181.800; -814.000; -824.000
353.174; -104.200; -551.000; -424.000
353.307; -156.500; -753.000; -764.000
353.440;  137.600;  541.000;  453.000
353.573; -238.900; -957.000;-1008.000
353.706;  -96.800; -384.000; -558.000
353.839;  -32.800; -264.000; -220.000
353.971; -157.900; -657.000; -512.000
354.104; -168.500; -896.000; -835.000
354.237; -105.200; -627.000; -662.000
354.370; -148.400; -846.000; -879.000
354.503; -335.700;-1231.000;-1308.000
354.636;  -35.100; -529.000; -348.000
354.769; -247.200; -937.000; -860.000
354.902;  -12.500; -230.000; -139.000
355.034;  -20.100; -164.000; -220.000
355.167;  -21.100; -262.000; -162.000
355.300; -249.800;-1061.000; -880.000
355.433;  781.100;  -71.000;  -14.000
355.565; 1163.900; -402.000; -384.000
355.698;  287.500; -356.000; -296.000
355.831; -132.400; -882.000; -801.000
355.964;  110.900; -285.000; -170.000
356.096; -221.900; -856.000; -843.000
356.229;  -16.500; -523.000; -530.000
356.362;  240.900; -373.000; -266.000
356.494;  480.000; -229.000; -162.000
356.627;  588.200;  269.000;  377.000
356.760;  586.700;  120.000;   53.000
356.892;  675.900; -286.000; -601.000
357.025;  851.800;  403.000;  389.000
357.157;  706.300; -167.000; -179.000
357.290;  468.600; -856.000; -713.000
357.423;   82.900; -667.000; -556.000
357.555;  111.200; -217.000; -228.000
357.688;   54.900; -483.000; -364.000
357.820;  451.900; -870.000; -877.000
357.953; 4553.100; -563.000; -589.000
358.085;  958.200; -632.000; -612.000
358.218; 1356.600;-1131.000; -932.000
358.350;  280.500;  -58.000;  312.000
358.483; -292.300;-1300.000;-1187.000
358.615;  -96.200;-1182.000;-1078.000
358.747; -185.000;-1187.000;-1058.000
358.880;  -12.300; -810.000; -744.000
359.012;  -30.700; -376.000; -202.000
359.145;  -68.600; -480.000; -511.000
359.277;  -10.700; -962.000; -913.000
359.409; 3840.800;  536.000;  231.000
359.542;  893.800; -738.000; -688.000
359.674;  102.900;   46.000;   13.000
359.806; -105.600; -565.000; -438.000
359.939;  -78.300; -617.000; -516.000
360.071;  -75.900; -583.000; -579.000
360.203;  -51.000; -411.000; -364.000
360.335;   72.800;  164.000;  -16.000
360.468;  207.800; -249.000; -307.000
360.600; 2853.800; -547.000; -454.000
360.732; 2241.100; -546.000; -423.000
360.864;  130.600;-1216.000;-1044.000
360.996;  330.400; -516.000; -554.000
361.129;    3.400; -389.000; -598.000
361.261;   47.300;  110.000; -113.000
361.393;  -27.400; -252.000; -214.000
361.525;   75.900;   94.000;  244.000
361.657; -108.200; -821.000; -703.000
361.789;   31.300; -139.000; -155.000
361.921;  257.200; -642.000; -593.000
362.053;  428.500;  524.000;  541.000
362.185;  116.100;  288.000;   72.000
362.318; -138.800; -709.000; -705.000
362.450;  262.300;  294.000;  444.000
362.582;  129.900; -913.000; -870.000
362.714;  -17.700; -353.000; -332.000
362.846; -131.800; -606.000; -490.000
362.978; -286.500; -941.000; -811.000
363.109;   45.500; -161.000; -260.000
363.241;  443.400; -739.000; -749.000
363.373;  264.800; -649.000; -564.000
363.505;  537.900; -186.000;  -91.000
363.637;   74.000; -787.000; -601.000
363.769; -255.700;-1067.000;-1080.000
363.901; -112.700; -596.000; -654.000
364.033; -250.600;-1103.000;-1062.000
364.165;   -7.400; -283.000; -283.000
364.296;   37.300; -316.000; -177.000
364.428; -140.400;-1344.000;-1220.000
364.560; -153.200; -679.000; -661.000
364.692; -123.000; -738.000; -835.000
364.824;  301.000; -588.000; -456.000
364.955;  391.800; -402.000; -564.000
365.087;  515.300;-1097.000; -852.000
365.219;  -86.100; -686.000; -816.000
365.351; -138.500; -526.000; -572.000
365.482;  119.700;  300.000;  240.000
365.614;  -85.400; -402.000; -314.000
365.746; -184.600; -729.000; -752.000
365.877; -175.700; -706.000; -672.000
366.009;  209.700;  -35.000;  -62.000
366.141; -257.100;-1249.000;-1134.000
366.272; -153.800; -803.000; -719.000
366.404; -235.900;-1005.000; -874.000
366.535;   14.500; -139.000;  -12.000
366.667; -174.800; -644.000; -649.000
366.799;   82.700;  353.000;  203.000
366.930; -215.300; -862.000; -996.000
367.062;   78.200; -639.000; -613.000
367.193;  -16.300; -872.000; -842.000
367.325; -110.500; -580.000; -684.000
367.456;  106.700; -246.000;   31.000
367.588;   90.000; -371.000; -318.000
367.719;    6.500;  -44.000;  -45.000
367.851;  -15.100; -222.000; -241.000
367.982; -138.600; -875.000; -732.000
368.113;  137.400; -475.000; -358.000
368.245; -213.800; -960.000; -841.000
368.376;  -16.500; -254.000; -302.000
368.508;  -31.400; -188.000; -263.000
368.639; -262.200;-1166.000;-1034.000
368.770;  -85.300; -670.000; -589.000
368.902; -132.800; -836.000; -926.000
369.033; -237.400; -906.000; -855.000
369.164; -140.800; -720.000; -653.000
369.296; -222.100; -452.000; -601.000
369.427;   38.100; -209.000; -144.000
369.558; -107.500; -593.000; -377.000
369.689; -167.700; -721.000; -569.000
369.821; -248.500; -951.000; -845.000
369.952;    3.500;   42.000; -108.000
370.083;  -71.500; -229.000; -108.000
370.214; -154.900; -735.000; -650.000
370.345;   26.000;   65.000;   81.000
370.477; -144.800; -810.000; -790.000
370.608;  339.300; -328.000; -264.000
370.739; -136.900;-1233.000;-1292.000
370.870; -134.300;-1102.000; -923.000
371.001;  102.600; -378.000; -467.000
371.132; -180.000; -754.000; -735.000
371.263;   -1.200;  -42.000; -148.000
371.394; -207.900; -841.000; -748.000
371.525;  104.100;  345.000;  225.000
371.657; -179.500; -808.000; -670.000
371.788;  184.300;  103.000;  199.000
371.919;  208.700; -384.000; -304.000
372.050; 5008.600;  -91.000; -156.000
372.181; 1452.600; -188.000; -294.000
372.311;  544.200;   42.000; -127.000
372.442;   30.800; -457.000; -451.000
372.573;  -21.500; -444.000; -340.000
372.704; -236.500;-1008.000; -980.000
372.835;   98.300; -228.000; -289.000
372.966; -145.500; -646.000; -554.000
373.097;  -95.700; -575.000; -711.000
373.228;  -62.000; -717.000; -542.000
373.359;  101.000; -824.000; -536.000
373.490; 1102.900; -881.000; -727.000
373.620; 1373.400;-1001.000; -803.000
373.751; 2469.200; -332.000; -396.000
373.882; 1054.000; -663.000; -733.000
374.013;   82.000; -449.000; -262.000
374.143;  -71.600; -581.000; -659.000
374.274; -204.400; -987.000; -908.000
374.405;  207.000; -388.000; -276.000
374.536;  594.000; -526.000; -387.000
374.666; 1496.300; -759.000; -807.000
374.797;  243.500; -817.000; -868.000
374.928; 1159.600; -710.000; -560.000
375.058; 1043.800; -535.000; -500.000
375.189;  114.400;  -59.000;  -93.000
375.320; -238.100; -928.000;-1034.000
375.450;  -68.600; -625.000; -616.000
375.581;  -94.000; -526.000; -436.000
375.712;  -28.600; -574.000; -250.000
375.842;  368.900; -438.000; -415.000
375.973;  236.700; -554.000; -513.000
376.103; -133.200; -665.000; -648.000
376.234; -124.600; -531.000; -552.000
376.364; -142.700; -944.000; -867.000
376.495;  525.700;  925.000;  529.000
376.625;  -39.100; -472.000; -485.000
376.756;   22.800; -709.000; -678.000
376.886; -211.500;-1178.000;-1026.000
377.017;  -60.300;-1048.000;-1061.000
377.147;  139.100; -786.000; -782.000
377.278;  123.900;  174.000;  228.000
377.408; -227.700; -801.000; -815.000
377.538; -173.600; -707.000; -693.000
377.669; -165.400; -537.000; -613.000
377.799; -129.500; -645.000; -635.000
377.929; -102.600; -610.000; -428.000
378.060; -245.600; -781.000; -847.000
378.190; -135.000; -726.000; -531.000
378.320;  -97.100; -401.000; -406.000
378.451;   -7.700; -131.000;  -22.000
378.581;   18.200;  -67.000; -110.000
378.711;  303.400; 1035.000;  866.000
378.841;  -52.000; -533.000; -675.000
378.972; -173.500; -871.000; -751.000
379.102;  -47.800; -652.000; -579.000
379.232;  -55.500; -126.000;  -73.000
379.362; -250.400;-1001.000; -885.000
379.492;  -17.200; -373.000; -424.000
379.623;  178.000;    0.000;  111.000
379.753; -191.700;-1107.000; -974.000
379.883;  349.100;   59.000;  156.000
380.013; -113.200;-1081.000;-1017.000
380.143; -192.300;-1097.000;-1056.000
380.273; -208.900; -985.000; -861.000
380.403;   -3.600; -344.000; -257.000
380.533; -113.400; -651.000; -664.000
380.663;  139.300;  173.000;  128.000
380.793; -196.700;-1027.000;-1074.000
380.923;    6.700; -103.000;  -34.000
381.053; -173.200; -613.000; -623.000
381.183;  -14.800; -106.000; -248.000
381.313;   25.600; -656.000; -470.000
381.443;   49.700; -692.000; -473.000
381.573;  234.200; -402.000; -409.000
381.703;  244.200;-1249.000;-1095.000
381.833; -265.800;-1454.000;-1336.000
381.963;  180.700; -134.000;  -87.000
382.093; 1688.600; -925.000; -909.000
382.223;  477.800; -713.000; -602.000
382.353;  -55.700; -801.000; -608.000
382.482;  440.200;-1091.000; -964.000
382.612;  937.400; -872.000; -644.000
382.742;  508.800; -695.000; -622.000
382.872;  308.300; -565.000; -551.000
383.002;  125.700;  347.000; -132.000
383.131;  -27.300; -226.000; -160.000
383.261;  -76.700; -706.000; -768.000
383.391;  249.600; -552.000; -377.000
383.521; 2640.100;  451.000;  263.000
383.650;  398.000; -947.000; -904.000
383.780;  -61.600; -783.000; -656.000
383.910;  253.400;  880.000;  802.000
384.039;  -30.200; -794.000; -656.000
384.169;  161.000;-1205.000;-1017.000
384.299;  -63.400; -650.000; -662.000
384.428; -170.100; -764.000; -680.000
384.558;  -77.500; -308.000; -275.000
384.687;  -57.400; -414.000; -334.000
384.817;   70.200;   75.000;   -2.000
384.947;   55.100; -234.000; -141.000
385.076;  513.500;  982.000;  912.000
385.206;  239.900;  369.000;  480.000
385.335;  -26.500; -549.000; -417.000
385.465; -151.900; -655.000; -663.000
385.594;  212.800;  -53.000;  -44.000
385.724;  543.400; -868.000; -838.000
385.853;  182.000; -296.000; -270.000
385.982; 1893.600; -743.000; -787.000
386.112; 2939.500;-1052.000; -871.000
386.241;  174.400; -307.000; -312.000
386.371;   52.100; -174.000;  -87.000
386.500;  -31.200; -825.000; -789.000
386.629;  -43.900; -874.000; -817.000
386.759;   92.800;  -43.000;   68.000
386.888;  -10.300; -170.000; -250.000
387.017; -167.300; -648.000; -620.000
387.147; -151.900; -771.000; -798.000
387.276;  -26.200; -410.000; -397.000
387.405;   26.400; -398.000; -342.000
387.535;  -99.100; -452.000; -361.000
387.664; -126.200; -692.000; -620.000
387.793;   93.500; -198.000; -113.000
387.922;  780.600;  255.000;  200.000
388.052;  -18.800; -576.000; -423.000
388.181;   44.700; -342.000; -472.000
388.310;  -25.900; -889.000; -710.000
388.439;  -93.600; -749.000; -742.000
388.568;  311.600;  365.000;  244.000
388.697; 1474.400; -756.000; -653.000
388.826;  171.700; -768.000; -666.000
388.956;   74.200; -285.000; -307.000
389.085;  -55.900; -347.000; -287.000
389.214; -144.000; -842.000; -872.000
389.343; -118.400; -645.000; -413.000
389.472;  434.400;  126.000;  149.000
389.601;  545.200;   91.000;    0.000
389.730;   -3.400; -568.000; -687.000
389.859;  150.700;  226.000;   46.000
389.988;  266.200; -423.000; -408.000
390.117;  195.800; -168.000; -146.000
390.246;   13.800; -331.000; -320.000
390.375;  134.300; -673.000; -626.000
390.504;  -92.900; -703.000; -621.000
390.633; -158.000; -672.000; -726.000
390.761; -137.200; -732.000; -645.000
390.890;   65.300;   -4.000; -130.000
391.019;  -20.500; -421.000; -441.000
391.148; -212.800; -826.000; -855.000
391.277; -112.300; -576.000; -493.000
391.406; -130.600; -821.000; -805.000
391.534;  121.400;  574.000; -301.000
391.663; -112.200; -583.000; -645.000
391.792; -101.500; -673.000; -701.000
391.921;  205.400;   -3.000;   15.000
392.050;  285.800; -287.000; -228.000
392.178; -116.500;-1206.000;-1061.000
392.307;  175.000; -758.000; -712.000
392.436;   75.900; -427.000; -641.000
392.564;   98.100;  166.000;   -6.000
392.693; -196.200; -860.000; -682.000
392.822;  279.300; -529.000; -534.000
392.950;   79.300; -880.000; -714.000
393.079;  485.000; -188.000; -328.000
393.208;    8.800; -488.000; -511.000
393.336;   26.600; -170.000; -145.000
393.465;  -52.300; -317.000; -199.000
393.593;   40.400;   62.000;   79.000
393.722; -299.700;-1121.000; -916.000
393.850;  -19.200; -188.000;  -61.000
393.979; -262.700; -926.000; -805.000
394.107;  -94.700; -517.000; -537.000
394.236;  -79.600; -570.000; -507.000
394.364;  417.900;  383.000;  206.000
394.493;  516.000; -911.000; -767.000
394.621;  -71.000; -955.000; -916.000
394.750;  424.500; -873.000; -923.000
394.878; 2291.500; -247.000; -149.000
395.007; 2818.700; -721.000; -807.000
395.135;  134.500; -790.000; -721.000
395.263; -240.600;-1038.000;-1040.000
395.392;   64.100;  -25.000; -107.000
395.520; -141.100; -818.000; -679.000
395.648; -154.500; -865.000; -915.000
395.777;   -6.300; -366.000; -405.000
395.905;  -58.700; -449.000; -564.000
396.033;   56.600;  217.000;  172.000
396.162;  988.000; -399.000; -453.000
396.290;  902.000;  -17.000;   -2.000
396.418;   93.900; -555.000; -514.000
396.546; -133.000; -571.000; -466.000
396.674; -147.800; -850.000; -878.000
396.803;   39.200;  -72.000;  -23.000
396.931;  138.300; -179.000; -199.000
397.059;  -44.300;-1026.000; -989.000
397.187; -214.900;-1026.000; -975.000
397.315; -223.000; -884.000; -649.000
397.443; -139.900; -592.000; -443.000
397.572; -151.100; -578.000; -424.000
397.700;  -77.400; -607.000; -614.000
397.828;   22.400;  120.000;  -90.000
397.956; -107.700; -508.000; -478.000
398.084; -170.600; -767.000; -626.000
398.212;  112.100;  137.000;  124.000
398.340;   56.900;  -56.000;  159.000
398.468;   41.800; -390.000; -169.000
398.596; -262.900; -993.000; -953.000
398.724; -180.900; -762.000; -767.000
398.852; -274.200;-1024.000; -976.000
398.980;  -94.000; -560.000; -560.000
399.108; -117.800; -982.000; -735.000
399.236;   84.600;   13.000;    8.000
399.363;   57.300;  222.000;  196.000
399.491;  -94.100; -404.000; -398.000
399.619; -217.800; -829.000; -800.000
399.747; -188.600; -859.000; -771.000
399.875;  185.000;  220.000;  234.000
400.003;  -80.800; -359.000; -284.000
400.130; -138.200; -421.000; -341.000
400.258;   16.500;  -83.000;   38.000
400.386;  -90.700; -352.000; -168.000
400.514;  -64.700; -526.000; -587.000
400.641; -181.000; -928.000; -802.000
400.769; -250.300; -979.000; -888.000
400.897; -187.700; -838.000; -793.000
401.025;   29.800; -166.000; -152.000
401.152;   11.300;  220.000;   38.000
401.280; -116.300; -430.000; -429.000
401.408; -182.900; -712.000; -576.000
401.535; -158.500; -735.000; -758.000
401.663; -342.900;-1134.000;-1054.000
401.790; -136.600; -514.000; -525.000
401.918;  109.200;  436.000;  405.000
402.046;   51.300;  134.000;  122.000
402.173;  -31.200;  -18.000;    7.000
402.301;  -83.000; -519.000; -397.000
402.428;  145.500;  528.000;  383.000
402.556; -240.400;-1188.000; -913.000
402.683;   -7.800;  -20.000;   -1.000
402.811;   -1.700;  -37.000; -206.000
402.938;   19.500;   20.000;   27.000
403.066;  220.400; -574.000; -558.000
403.193;  457.400;  299.000;  239.000
403.321;  292.200; -396.000; -574.000
403.448;  425.800;   83.000;   27.000
403.575;  187.500;  -90.000;  -46.000
403.703; -193.100; -732.000; -557.000
403.830; -100.900; -531.000; -496.000
403.957; -271.500;-1117.000;-1023.000
404.085;   30.700;  -61.000; -172.000
404.212;  119.400;  -50.000;   63.000
404.339;  160.100; -566.000; -306.000
404.467; 4348.300; -612.000; -524.000
404.594; 3089.400; -287.000; -227.000
404.721;  744.800; -869.000; -764.000
404.848;  101.900; -113.000; -202.000
404.976; -204.700; -856.000; -783.000
405.103;    4.500;  -14.000;  -82.000
405.230;   19.100;  190.000;  226.000
405.357;   77.100;  117.000;   44.000
405.484;  193.500;  -49.000;    5.000
405.612;   -3.100; -548.000; -563.000
405.739; -117.000; -488.000; -243.000
405.866;  210.500;  669.000;  385.000
405.993;  -80.400; -398.000; -102.000
406.120; -240.600; -801.000; -887.000
406.247;  -98.900; -323.000; -342.000
406.374;  688.400;  540.000;  629.000
406.501;   81.600; -632.000; -702.000
406.628; -103.800; -621.000; -589.000
406.755; -175.500; -803.000; -620.000
406.882;   -8.500; -228.000; -277.000
407.009; -158.600; -719.000; -628.000
407.136;   83.300; -480.000; -401.000
407.263;   61.300; -939.000; -829.000
407.390; -140.900; -692.000; -614.000
407.517; -284.400;-1139.000;-1187.000
407.644;  -63.700; -332.000; -256.000
407.771; -110.400; -249.000; -287.000
407.898;   83.600;  168.000;  328.000
408.025; -120.700; -421.000; -313.000
408.151;   12.900;   82.000;  153.000
408.278;  -74.100; -267.000; -216.000
408.405; -193.900; -931.000; -899.000
408.532; -142.200; -549.000; -542.000
408.659; -176.100; -677.000; -648.000
408.785; -365.200;-1298.000;-1170.000
408.912;  -62.900; -412.000; -296.000
409.039; -163.500; -610.000; -686.000
409.166; -151.500; -591.000; -555.000
409.292; -172.900; -571.000; -534.000
409.419; -177.000; -665.000; -649.000
409.546; -112.600; -431.000; -192.000
409.672; -158.000; -713.000; -545.000
409.799;  -11.700;  -36.000;   34.000
409.926;  -16.300; -180.000; -179.000
410.052; -293.900;-1127.000;-1091.000
410.179;  -73.800; -368.000; -392.000
410.305; -134.000; -375.000; -493.000
410.432;  -41.300; -220.000; -333.000
410.558; -137.400; -305.000; -380.000
410.685; -164.500; -688.000; -431.000
410.812; -171.700; -409.000; -588.000
410.938; -206.200; -964.000; -808.000
411.065; -158.800; -671.000; -645.000
411.191;   -3.300; -189.000; -174.000
411.317; -229.600; -823.000; -742.000
411.444; -107.700; -317.000; -246.000
411.570; -103.200; -339.000; -294.000
411.697; -185.600; -758.000; -752.000
411.823; -309.500; -989.000; -999.000
411.949;  -19.000;  -56.000;   17.000
412.076; -202.500; -539.000; -519.000
412.202; -197.400; -758.000; -757.000
412.329; -199.000; -798.000; -752.000
412.455; -179.800; -821.000; -657.000
412.581;    1.200;  -15.000;  172.000
412.707;  -66.800; -540.000; -457.000
412.834;   53.400;  156.000;  219.000
412.960; -153.600; -785.000; -784.000
413.086; -185.000; -743.000; -701.000
413.212;  260.100;  604.000;  578.000
413.339; -160.300; -685.000; -701.000
413.465;   11.000; -364.000; -310.000
413.591; -189.700; -757.000; -474.000
413.717;  -70.700; -358.000; -366.000
413.843; -270.600; -839.000; -861.000
413.969;  -70.700;  -47.000; -292.000
414.096; -158.900; -679.000; -679.000
414.222;   40.000;  -33.000;   85.000
414.348;  -64.200; -652.000; -385.000
414.474;  134.700;   38.000;  -52.000
414.600;   -4.100; -126.000; -144.000
414.726;   -6.900;  -96.000;  -55.000
414.852; -128.400; -365.000; -342.000
414.978;   70.600;  104.000;  -18.000
415.104;   34.100;   38.000;   80.000
415.230;   12.000; -329.000; -330.000
415.356;  -17.300; -409.000; -514.000
415.482;  194.100;   13.000;  -35.000
415.608;  167.900; -247.000; -323.000
415.734;  817.900;   67.000;   38.000
415.860;16908.100; -875.000; -767.000
415.986;11026.800; -685.000; -607.000
416.111;  781.800; -798.000; -652.000
416.237;  120.900; -424.000; -571.000
416.363;  822.100; -765.000; -733.000
416.489; 3161.500; -324.000; -251.000
416.615;  169.500; -707.000; -742.000
416.741; -114.500; -677.000; -784.000
416.866; -135.700; -673.000; -736.000
416.992; -224.900; -801.000; -818.000
417.118;   -8.000;  -41.000;  -80.000
417.244; -117.300; -798.000; -531.000
417.369; -176.000; -801.000; -612.000
417.495;   -8.000; -325.000; -254.000
417.621; -198.800;-1015.000; -803.000
417.746;  -58.400; -579.000; -572.000
417.872;   49.900; -254.000; -144.000
417.998;  -24.300; -515.000; -530.000
418.123;  756.200;-1073.000; -845.000
418.249; 3974.700; -512.000; -601.000
418.374;  354.600; -916.000; -824.000
418.500;   41.100; -383.000; -482.000
418.626;   76.100;   70.000;  -59.000
418.751;   54.200; -549.000; -448.000
418.877;   40.600; -637.000; -643.000
419.002; 1495.300; -688.000; -560.000
419.128; 9596.800; -930.000; -721.000
419.253; 2004.200; -967.000; -837.000
419.379;  182.500; -391.000; -338.000
419.504;  393.300;  325.000;  415.000
419.629;  392.300; -393.000; -212.000
419.755; 2861.500; -317.000; -254.000
419.880;15341.000;  -98.000;   67.000
420.006; 9053.100; -280.000; -221.000
420.131;23144.800; -662.000; -775.000
420.256; 3135.900; -315.000; -316.000
420.382;  305.000; -665.000; -687.000
420.507;  -35.700; -649.000; -778.000
420.632;  155.000; -337.000; -339.000
420.758;  386.200; -251.000; -425.000
420.883; -155.500; -876.000; -672.000
421.008; -148.500; -775.000; -619.000
421.133; -110.800; -509.000; -467.000
421.259;  -25.800; -325.000; -259.000
421.384; -199.700; -834.000; -693.000
421.509;  -66.500;-1052.000; -862.000
421.634; 1866.600; -936.000; -820.000
421.759;  730.500; -359.000; -327.000
421.885;  -99.700; -717.000; -656.000
422.010;  -95.500; -673.000; -542.000
422.135; -261.300; -695.000; -727.000
422.260;  114.000;  340.000;  280.000
422.385;  -54.200;   12.000;  -98.000
422.510;   31.300;  151.000;  -26.000
422.635;   59.400;  -87.000;  -43.000
422.760;   80.900; -766.000; -791.000
422.885;   82.600;  -57.000;  -80.000
423.010;  -51.400; -112.000; -169.000
423.135; -146.200; -481.000; -561.000
423.260;   28.400; -150.000; -245.000
423.385;  123.800;  476.000;  222.000
423.510;   87.300;   71.000;  -22.000
423.635;   80.700;  133.000;   45.000
423.760;  147.400;  383.000;  328.000
423.885;  129.500;  336.000;  391.000
424.010;   30.000;  -68.000;  -13.000
424.135;  -31.900;    5.000;  -33.000
424.259; -132.600; -654.000; -457.000
424.384;  -74.300; -279.000; -272.000
424.509;  -25.300; -260.000; -186.000
424.634; -207.900; -761.000; -623.000
424.759;  -76.400; -688.000; -544.000
424.883;  -92.900; -506.000; -527.000
425.008;   88.000; -502.000; -410.000
425.133; 1549.400; -679.000; -653.000
425.258;  623.500; -517.000; -381.000
425.382; 1305.500; -867.000; -774.000
425.507; 3314.800; -487.000; -543.000
425.632;  365.800; -802.000; -663.000
425.756;  342.900; -256.000; -146.000
425.881; 5034.200; -831.000; -857.000
426.006;11964.100; -604.000; -355.000
426.130; 1798.700; -696.000; -508.000
426.255;  202.200; -611.000; -491.000
426.379;  118.800; -189.000; -577.000
426.504;  424.500;  660.000;  544.000
426.629; 3291.900; -519.000; -466.000
426.753; 2093.800;   64.000;  -46.000
426.878;  241.400; -252.000; -288.000
427.002;   32.400; -651.000; -668.000
427.127; 1480.000;  -35.000; -158.000
427.251; 9204.100;  372.000;  401.000
427.375; 2406.000; -191.000; -173.000
427.500; 2880.000; -616.000; -610.000
427.624;  884.100; -234.000; -400.000
427.749;  112.600; -216.000; -225.000
427.873;  -86.700; -499.000; -412.000
427.997;  -26.900; -222.000; -230.000
428.122;  175.800;  795.000;  703.000
428.246;  170.300;  433.000;  434.000
428.371; -212.600; -869.000; -773.000
428.495; -187.100; -624.000; -646.000
428.619;  -31.100; -186.000; -117.000
428.743;   64.000;   65.000;  132.000
428.868;  -40.100; -732.000; -643.000
428.992; 1968.100; -219.000; -326.000
429.116;  773.200; -329.000; -357.000
429.240;  475.500;  419.000;  426.000
429.365;  -34.800; -454.000; -574.000
429.489;  -79.700; -638.000; -647.000
429.613;   18.000; -236.000; -177.000
429.737;    4.600; -563.000; -432.000
429.861;  214.500; -247.000; -133.000
429.985; 4590.600; -425.000; -305.000
430.109; 4445.500; -770.000; -908.000
430.234;  553.300;   76.000;  -50.000
430.358;   33.900; -250.000; -160.000
430.482; -109.900; -672.000; -564.000
430.606; -103.600; -655.000; -375.000
430.730;   61.100; -437.000; -388.000
430.854;  115.500; -909.000; -835.000
430.978; -106.700; -795.000; -764.000
431.102; -123.400; -499.000; -422.000
431.226; -153.000; -874.000; -815.000
431.350;  149.700;  345.000;  422.000
431.474;  -95.100; -661.000; -373.000
431.597; -280.700;-1060.000; -848.000
431.721; -124.900; -276.000; -267.000
431.845; -216.500; -704.000; -472.000
431.969; -101.500; -304.000; -349.000
432.093; -142.000; -395.000; -317.000
432.217;    8.600;   32.000;   82.000
432.341; -129.800; -523.000; -518.000
432.464;   42.700;   96.000;   40.000
432.588;  234.500; -401.000; -329.000
432.712;  143.300;  -52.000;  -52.000
432.836;   82.200;  213.000;  263.000
432.959;  -29.500; -372.000; -311.000
433.083;   64.800;   11.000;    2.000
433.207;  414.900;  285.000;  930.000
433.330; 4004.800; -391.000; -200.000
433.454; 4433.100; -654.000; -638.000
433.578; 2752.300;  583.000;  278.000
433.701;  366.400; -623.000; -675.000
433.825;  126.200; -292.000; -299.000
433.949;  272.000;   28.000;  -72.000
434.072;   55.700; -410.000; -323.000
434.196;   -5.400; -309.000; -117.000
434.319; 7726.000;25482.000;25124.000
434.443;  659.100; -656.000; -603.000
434.566; 2072.100;  281.000;   62.000
434.690;  202.300; -637.000; -383.000
434.813;    1.000; -251.000; -173.000
434.937; -146.800; -569.000; -696.000
435.060;  -62.800; -423.000; -332.000
435.184;  530.200; -492.000; -217.000
435.307;  270.400;  159.000;  102.000
435.431;   35.000;  -40.000;   24.000
435.554; -113.800; -399.000; -240.000
435.677; -113.500; -350.000; -258.000
435.801;  -12.800;  -25.000;   49.000
435.924;   29.200;    1.000;  -67.000
436.048; -206.800;-1019.000; -732.000
436.171;  -79.400; -240.000;  -66.000
436.294;  -29.100; -248.000; -229.000
436.417;  -54.700; -963.000; -849.000
436.541; -196.800; -814.000; -840.000
436.664;  -49.800; -242.000; -316.000
436.787;   18.200;   13.000;  113.000
436.910; -159.700; -792.000; -422.000
437.034;   75.700;  142.000;  143.000
437.157;  144.900;  -11.000;    0.000
437.280;  -68.200; -392.000; -292.000
437.403; -148.400; -982.000; -869.000
437.526; 1077.400; -903.000; -865.000
437.649; 3551.800; -505.000; -332.000
437.772;  415.000; -692.000; -540.000
437.896;  260.300;  700.000;  544.000
438.019; -203.500; -758.000; -503.000
438.142; -134.100; -596.000; -506.000
438.265;  -49.300; -639.000; -670.000
438.388;  748.800; -520.000; -410.000
438.511;   99.700; -597.000; -394.000
438.634;  -66.900; -247.000; -125.000
438.757; -235.000; -693.000; -619.000
438.880;  -25.500;  -34.000;  -57.000
439.003; -108.200; -417.000; -437.000
439.126;  -59.000; -287.000; -167.000
439.248;  -62.500;  -98.000; -139.000
439.371;  -25.000;    9.000;  -53.000
439.494;  116.800;  510.000;  439.000
439.617;  -37.000;   65.000;  -88.000
439.740; -306.600; -968.000; -816.000
439.863; -227.200; -755.000; -595.000
439.986; -178.600; -476.000; -431.000
440.108;  -56.200; -161.000; -112.000
440.231; -289.400; -950.000; -836.000
440.354;  -12.100;  -64.000; -150.000
440.477;   26.100; -566.000; -542.000
440.599;    2.600; -200.000; -225.000
440.722; -169.400; -709.000; -586.000
440.845;  202.600;  751.000;  928.000
440.968; -144.900; -415.000; -311.000
441.090;  -65.000; -199.000;  -33.000
441.213; -295.900;-1021.000; -825.000
441.336;  -72.100; -159.000;   -5.000
441.458;  -71.900; -549.000; -396.000
441.581; -140.100; -628.000; -629.000
441.703;  -71.200; -152.000;   13.000
441.826; -111.500; -557.000; -400.000
441.948;  -45.900;   56.000;   51.000
442.071;  113.700;  555.000;  424.000
442.193; -189.900; -531.000; -485.000
442.316;   56.000;  152.000;   97.000
442.438;   32.900; -233.000;  -10.000
442.561;  142.300;  272.000;  262.000
442.683;  913.500; -809.000; -522.000
442.806; 1832.900;   -8.000;   74.000
442.928;  -32.700; -859.000; -604.000
443.051; -120.600; -577.000; -373.000
443.173; -133.200; -341.000; -339.000
443.295;  -95.700; -263.000; -371.000
443.418;  -96.800; -321.000;  -29.000
443.540;   40.600; -106.000;   -4.000
443.662; -193.200; -563.000; -465.000
443.785;   68.100;  335.000;  199.000
443.907; -166.600; -362.000; -208.000
444.029; -203.100; -767.000; -494.000
444.152; -240.000; -644.000; -554.000
444.274;  -10.700;  -18.000;  -24.000
444.396; -166.800; -461.000; -221.000
444.518; -219.500; -691.000; -454.000
444.640; -157.700; -268.000; -111.000
444.763;   48.600;  388.000;  249.000
444.885; -188.100; -432.000; -392.000
445.007;   17.200;   35.000;   86.000
445.129; -172.300; -610.000; -515.000
445.251; -129.100; -372.000; -439.000
445.373; -214.800; -537.000; -386.000
445.495;   70.500;  242.000;  350.000
445.617;  149.700;  853.000;  753.000
445.739;  -63.000; -215.000;  -97.000
445.861;  -33.400; -245.000; -112.000
445.984;  -23.500; -267.000; -101.000
446.105;  359.300; -418.000; -251.000
446.227;  947.900; -176.000;  -19.000
446.349;  -12.600; -358.000; -249.000
446.471; -167.600; -615.000; -448.000
446.593;  -95.700; -316.000;   19.000
446.715;   22.600;  -67.000;   41.000
446.837;  183.400;  697.000;  832.000
446.959; -127.000; -457.000; -478.000
447.081; -257.200; -628.000; -518.000
447.203;  236.600;  862.000;  834.000
447.325;  -90.700; -270.000;   42.000
447.446;   48.900;  286.000;  530.000
447.568; -252.300; -921.000; -803.000
447.690; -114.800; -236.000; -245.000
447.812; -244.400; -798.000; -519.000
447.933;   26.300;  155.000;  127.000
448.055; -104.900; -306.000; -261.000
448.177;  241.300;   31.000;   79.000
448.299;   81.700; -935.000; -727.000
448.420;   80.900;  -25.000;  159.000
448.542;  -27.400;   -3.000;   33.000
448.664;   -1.500;  109.000;  322.000
448.785;   -1.800;  265.000;   83.000
448.907; -126.400; -614.000; -353.000
449.028;  -69.400; -771.000; -471.000
449.150;  150.800;  492.000;  589.000
449.272; -321.300;-1044.000; -913.000
449.393;  117.900;  612.000;  694.000
449.515; -238.700; -634.000; -581.000
449.636;  -49.000; -264.000; -155.000
449.758;  178.500;  763.000;  622.000
449.879; -144.300; -498.000; -396.000
450.001; -107.400; -149.000;  -49.000
450.122;  -22.600;  -95.000;  162.000
450.244;   -1.200;   37.000;  364.000
450.365; -130.000; -495.000; -301.000
450.486;  -50.600;   80.000;  268.000
450.608;   84.100;  393.000;  326.000
450.729;  113.800;  578.000;  645.000
450.850;  -69.600; -574.000; -466.000
450.972;  459.900; -552.000; -389.000
451.093; 3754.700;  190.000;  588.000
451.214; 1276.000; -516.000; -337.000
451.336;  332.700;  773.000;  579.000
451.457;   89.000;  264.000;  393.000
451.578;  -33.700; -118.000;  -74.000
451.699; -200.800; -546.000; -540.000
451.821; -106.100; -284.000;  -50.000
451.942;    7.200;  278.000;  285.000
452.063;   94.400;  228.000;  419.000
452.184;  458.000;  -54.000;  -49.000
452.305;  889.800;  103.000;  170.000
452.427;   -0.500; -549.000; -301.000
452.548;  -29.100;   23.000;   79.000
452.669;  -56.900; -257.000;  -89.000
452.790;  -29.000;    3.000;  -18.000
452.911;   25.600;  195.000;  259.000
453.032;  -32.100; -289.000;  -60.000
453.153;  -40.900;  -29.000;   81.000
453.274;  199.400;  737.000;  868.000
453.395;  -68.900;  -51.000;  175.000
453.516;  319.100; 1317.000; 1388.000
453.637; -109.900; -205.000; -150.000
453.758;  -31.200;   15.000;   69.000
453.879; -172.300; -462.000; -250.000
454.000;  267.300; 1086.000;  948.000
454.121; -190.600; -554.000; -326.000
454.242; -168.600; -599.000; -383.000
454.362;  -72.200;  -99.000;  114.000
454.483;  -46.600; -309.000; -229.000
454.604;   87.400;  512.000;  580.000
454.725; -215.500; -627.000; -555.000
454.846; -212.000; -474.000; -406.000
454.967;   24.300;  230.000;  539.000
455.087;   -0.400;  179.000;  153.000
455.208;  108.000;  554.000;  856.000
455.329;  -95.400;  -22.000;   82.000
455.450;  149.400;  473.000;  633.000
455.570; -139.400; -234.000; -211.000
455.691;  -23.700;  201.000;  407.000
455.812; -145.000; -270.000;  -92.000
455.932;  -77.900;  107.000;  -97.000
456.053; -101.500;   36.000;   24.000
456.173; -142.500; -433.000; -355.000
456.294; -204.600; -476.000; -303.000
456.415;  -48.200;  -73.000;   70.000
456.535;  -25.900;  297.000;  273.000
456.656;    6.500;  132.000;  240.000
456.776; -102.700;    3.000;  298.000
456.897;   62.400;  308.000;  513.000
457.017;  -86.400; -153.000;   -3.000
457.138; -146.700; -402.000; -249.000
457.258;   -3.500;  263.000;  224.000
457.379;   57.000;  509.000;  521.000
457.499;    7.300;  443.000;  432.000
457.620; -191.400; -407.000; -231.000
457.740; -159.800; -132.000;  -11.000
457.860;  -53.100;   87.000;   44.000
457.981;  -68.800;  132.000;  124.000
458.101;  -80.500;  -89.000;   40.000
458.221;   23.500;  336.000;  402.000
458.342;  -66.000;   -4.000;  -37.000
458.462;   91.100;  617.000;  352.000
458.582;  -81.200; -302.000; -294.000
458.703;    1.700;  303.000;  154.000
458.823;  -29.000;   22.000;  163.000
458.943;   45.000;  341.000;  467.000
459.063;  -10.400; 1124.000;  192.000
459.183;   26.700;  328.000;  313.000
459.304;   70.400;  315.000;  517.000
459.424; -120.600; -246.000;  -89.000
459.544;  350.000;  388.000;  764.000
459.664;  737.800;  499.000;  506.000
459.784;  389.100; 1004.000; 1175.000
459.904;  121.600;  867.000;  744.000
460.024;  198.300;  867.000;  684.000
460.144;   87.100;  449.000;  554.000
460.264;   84.600;  515.000;  327.000
460.385; -114.100; -145.000; -119.000
460.505;  145.500;  905.000;  858.000
460.625; -137.500;  -17.000;  -68.000
460.745;   14.400;  396.000;  541.000
460.864;  -32.300;  153.000;  469.000
460.984;   49.900;  499.000;  573.000
461.104;  344.500; 1656.000; 1775.000
461.224;  115.200;  657.000;  650.000
461.344;  -10.200;  431.000;  360.000
461.464;    8.000;  258.000;  513.000
461.584;   42.500;  283.000;  466.000
461.704;  -59.600;   58.000;  108.000
461.824;  -33.600;  238.000;  259.000
461.943;  -52.300;  191.000;  130.000
462.063;  -82.300;    2.000;  324.000
462.183;  113.400;  639.000;  717.000
462.303;  244.500; 1678.000; 1230.000
462.422;  111.200;  781.000;  840.000
462.542;  -68.700;  271.000;  391.000
462.662;   79.000;  353.000;  380.000
462.782;  235.700;  833.000;  572.000
462.901;  443.100;  545.000;  717.000
463.021;  423.500; 1702.000; 1638.000
463.141;   58.300;  337.000;  770.000
463.260;   20.600;  614.000;  474.000
463.380;   68.800;  902.000;  884.000
463.499;   -3.900;  342.000;  332.000
463.619;    9.500;  581.000;  559.000
463.738;  266.000; 1644.000;  903.000
463.858;  105.800;  657.000;  811.000
463.978;   10.600;  542.000;  396.000
464.097;  167.000;  921.000; 1114.000
464.217;  224.000; 1196.000; 1143.000
464.336;  233.700; 1068.000; 1130.000
464.455;   -7.300;  328.000;  659.000
464.575;  146.300;  597.000;  602.000
464.694;  323.800; 1204.000; 1179.000
464.814;  258.300; 1190.000; 1138.000
464.933;  236.900; 1095.000; 1027.000
465.052;  262.800; 1412.000; 1054.000
465.172;  185.800;  922.000;  799.000
465.291;  321.400; 1376.000; 1320.000
465.410;   65.000;  462.000;  735.000
465.530;  294.700; 1355.000; 1310.000
465.649;  183.000; 1209.000; 1273.000
465.768;  327.300; 1673.000; 1508.000
465.888;  122.600;  941.000; 1174.000
466.007;  265.600; 1335.000; 1440.000
466.126;   67.700;  721.000;  641.000
466.245;  147.000; 1176.000; 1187.000
466.364;  112.100;  950.000; 1060.000
466.484;  202.400; 1024.000; 1213.000
466.603;  114.000; 1101.000; 1222.000
466.722;  310.100; 1490.000; 1769.000
466.841;  235.900; 1151.000; 1401.000
466.960;  128.200; 1069.000;  972.000
467.079;  317.600; 1971.000; 1786.000
467.198;  204.800; 1238.000; 1181.000
467.317;  246.200; 1768.000; 1162.000
467.436;  200.100; 1709.000; 1261.000
467.555;  287.100; 1796.000; 1746.000
467.674;  220.300; 1227.000; 1329.000
467.793;  151.800; 1376.000; 1374.000
467.912;  244.800; 1658.000; 1539.000
468.031;  361.700; 2038.000; 1930.000
468.150;  357.800; 1842.000; 1837.000
468.269;  486.100; 2313.000; 2090.000
468.388;  478.000; 2168.000; 2339.000
468.507;  596.400; 2884.000; 2903.000
468.626;  631.500; 2555.000; 2541.000
468.744;  368.900; 2018.000; 2174.000
468.863;  475.700; 2312.000; 2523.000
468.982;  238.000; 1503.000; 1555.000
469.101;  584.000; 2788.000; 2692.000
469.220;  369.500; 2333.000; 2176.000
469.338;  602.300; 2935.000; 3051.000
469.457;  469.800; 2719.000; 2545.000
469.576;  734.300; 3953.000; 3784.000
469.695;  567.000; 2877.000; 3066.000
469.813;  936.800; 4148.000; 4192.000
469.932;  866.300; 4255.000; 4485.000
470.051;  888.800; 4075.000; 4161.000
470.169; 1310.600; 4470.000; 4338.000
470.288; 1792.400; 4700.000; 4809.000
470.406; 1305.000; 5059.000; 5194.000
470.525; 1285.000; 6101.000; 5787.000
470.644; 1396.300; 6847.000; 6794.000
470.762; 1733.900; 8397.000; 7873.000
470.881; 1859.000; 8651.000; 8464.000
470.999; 2097.200; 9685.000; 9151.000
471.118; 2211.500;11174.000;10711.000

