
Integration time [ms]: 100.000
Averaging Nr. [scans]: 40
Smoothing Nr. [pixels]: 0
Data measured with spectrometer [name]: 2101012U2
Wave   ;Sample   ;Dark     ;Reference
[nm]   ;[counts] ;[counts] ;[counts] 

197.733;   67.675;  516.000;  404.000
197.879;  -71.350; -610.000; -634.000
198.025;  -39.950; -475.000; -420.000
198.171;  -78.300; -602.000; -612.000
198.317;  -41.975; -401.000; -316.000
198.463;  -70.300; -655.000; -404.000
198.609;   29.625;  181.000; -137.000
198.755;  -65.450; -644.000; -410.000
198.901;  -62.750; -505.000; -424.000
199.047;  -52.750; -615.000; -488.000
199.193;  -26.800; -230.000; -468.000
199.339;  -29.900; -222.000; -369.000
199.485;   33.300;  330.000;  271.000
199.631;   19.500;  227.000;  310.000
199.777;  -50.650; -466.000; -398.000
199.923;  -66.475; -610.000; -424.000
200.069;   -1.250; -141.000;  -58.000
200.215;   60.700;  128.000;  453.000
200.361;   56.725;  243.000;  477.000
200.507;  -52.450; -600.000; -373.000
200.653;  -39.775; -371.000; -194.000
200.798;  -21.475; -215.000; -125.000
200.944;    2.925; -146.000;  -41.000
201.090;   47.925;   61.000;  222.000
201.236;   -9.225; -116.000; -158.000
201.382;  137.275;  874.000;  903.000
201.528;   18.000;  -58.000;  -48.000
201.674;  -43.100; -386.000; -293.000
201.819;  -65.600; -540.000; -439.000
201.965;  -79.025; -699.000; -447.000
202.111;  -19.075; -273.000; -226.000
202.257;  -39.675; -250.000; -238.000
202.402;   10.175;   13.000;  -36.000
202.548;  -24.950; -169.000; -116.000
202.694;   86.925;  410.000; -183.000
202.840;  -76.700; -603.000; -531.000
202.985;  -70.825; -681.000; -639.000
203.131; -102.375; -832.000; -666.000
203.277;  -20.275; -199.000; -262.000
203.423;  -50.500; -434.000; -520.000
203.568;  -43.425; -462.000; -237.000
203.714;  -58.400; -535.000; -542.000
203.860;  -82.000; -682.000; -641.000
204.005;   15.200;  112.000;  167.000
204.151;   83.900;  561.000;  556.000
204.296;  -42.400; -354.000; -221.000
204.442;  -73.525; -600.000; -547.000
204.588;  -71.500; -592.000; -579.000
204.733;   26.150;  178.000;  168.000
204.879; -116.325;-1018.000; -822.000
205.025;   11.950;  -99.000;  126.000
205.170;    4.575;  -17.000;   94.000
205.316;   90.150;  438.000;  661.000
205.461;  -78.475; -698.000; -554.000
205.607;   87.375;  609.000;  665.000
205.752;  -76.525; -626.000; -551.000
205.898;  -53.925; -501.000; -391.000
206.043;  -59.825; -578.000; -506.000
206.189;  -31.700; -243.000; -285.000
206.334;   80.050;  554.000;  606.000
206.480;   73.900;  409.000;  239.000
206.625;  -71.025; -529.000; -552.000
206.771;  -53.525; -451.000; -373.000
206.916;  -28.525; -210.000; -537.000
207.062;  -75.875; -545.000; -591.000
207.207;  -58.775; -546.000; -443.000
207.353;   59.325;  185.000;  460.000
207.498;   25.400;  196.000;   85.000
207.643;  -56.950; -501.000; -370.000
207.789; -126.500;-1069.000; -910.000
207.934;  -82.775; -665.000; -713.000
208.080;  -18.700; -154.000;   66.000
208.225;  -18.275;  -22.000;  -57.000
208.370;  -82.025; -727.000; -619.000
208.516;  -81.450; -741.000; -487.000
208.661;  -23.975; -127.000;  -69.000
208.806;  -25.525; -165.000; -171.000
208.952; -123.425;-1044.000; -731.000
209.097;   81.125;  378.000;  349.000
209.242;  -24.700; -307.000; -382.000
209.387;   74.450;  392.000;  350.000
209.533;  -55.875; -321.000; -350.000
209.678;   91.100;  472.000;  543.000
209.823;  -47.875; -408.000; -310.000
209.969; -101.350; -860.000; -757.000
210.114; -109.325; -907.000; -719.000
210.259; -116.475; -939.000; -889.000
210.404;    3.600; -171.000;  103.000
210.549;    5.425;  108.000;    3.000
210.695;  -13.675;   -3.000;  -95.000
210.840;   31.350;   94.000;   67.000
210.985;  -62.325; -484.000; -303.000
211.130;   68.550;  268.000;  406.000
211.275;   24.900;  207.000;  199.000
211.420;  -45.400; -300.000; -289.000
211.566;  -62.100; -536.000; -489.000
211.711;   34.175;  218.000;  157.000
211.856;  -63.650; -545.000; -519.000
212.001;   11.475;  151.000;   44.000
212.146;   20.175;  153.000;   49.000
212.291;  -16.725; -210.000; -186.000
212.436;  -28.475; -280.000;   -6.000
212.581;  -80.750; -685.000; -653.000
212.726;  -77.750; -487.000; -538.000
212.871;  -40.075; -552.000; -217.000
213.016; -151.875;-1172.000;-1029.000
213.161;   57.600;  406.000;  291.000
213.306;  -71.925; -435.000; -577.000
213.451;  -91.575; -778.000; -689.000
213.596;  -36.200; -455.000; -347.000
213.741;  -61.375; -448.000; -538.000
213.886;  -67.950; -498.000; -517.000
214.031;  -27.525; -294.000; -124.000
214.176;  -54.200; -408.000; -341.000
214.321;  -16.100; -296.000; -157.000
214.466;  -34.150; -163.000;  -43.000
214.611;   -1.900;  -61.000;  -10.000
214.756; -123.700; -948.000; -858.000
214.901;  -26.250; -388.000; -226.000
215.046; -114.300; -797.000; -825.000
215.191;   17.000;  128.000;   35.000
215.336;  -19.100; -157.000;  -19.000
215.480;  -67.900; -684.000; -505.000
215.625;   -6.250; -175.000;  -19.000
215.770;  -75.550; -757.000; -662.000
215.915;  -10.875;   -5.000;  -97.000
216.060;    0.925; -113.000;  -21.000
216.205; -101.925; -731.000; -779.000
216.349;  -65.775; -470.000; -533.000
216.494; -135.550; -939.000; -867.000
216.639; -129.725; -823.000; -888.000
216.784;  -84.900; -577.000; -525.000
216.929;   46.275;  392.000;  281.000
217.073;   -6.825; -244.000;  -31.000
217.218;   13.800;   78.000;  -47.000
217.363;  -81.025; -656.000; -618.000
217.507;  -79.675; -623.000; -588.000
217.652; -128.975; -845.000; -874.000
217.797;  -86.175; -708.000; -659.000
217.942; -116.450; -856.000; -720.000
218.086;   84.975;  608.000;  539.000
218.231;  -21.700; -174.000;  -26.000
218.376;  -33.025; -337.000; -229.000
218.520;    3.650;  -41.000;   96.000
218.665;  -31.675; -338.000; -204.000
218.810;  -42.900; -275.000; -233.000
218.954;   14.625;  201.000;   35.000
219.099; -101.625; -713.000; -963.000
219.243;  -60.900; -589.000; -554.000
219.388;  -15.875; -264.000; -136.000
219.532;   -3.525; -116.000; -116.000
219.677;  -78.675; -564.000; -521.000
219.822;   15.575;   33.000;   89.000
219.966;    4.325;   17.000;  -99.000
220.111;  -32.050; -328.000;  -40.000
220.255;  -88.850; -797.000; -750.000
220.400;  -11.175; -180.000; -146.000
220.544;  -71.850; -516.000; -450.000
220.689;  -55.925; -422.000; -451.000
220.833;  -21.675; -123.000;  -58.000
220.978;  -39.575; -393.000; -563.000
221.122;   32.325;  319.000;  307.000
221.267; -126.875; -906.000; -837.000
221.411;  -73.325; -478.000; -394.000
221.555;   -6.800; -104.000;  -23.000
221.700;  -46.325; -329.000; -222.000
221.844;   32.850;  255.000;  272.000
221.989;  -36.775; -328.000; -311.000
222.133;  -41.400; -289.000; -307.000
222.277;    0.650;    5.000;   78.000
222.422;   16.475;  227.000;  113.000
222.566;  -46.800; -381.000; -214.000
222.711;  -56.425; -414.000; -479.000
222.855;  -64.025; -643.000; -586.000
222.999;  -87.875; -642.000; -717.000
223.144;  -31.550; -195.000; -194.000
223.288;   50.400;  423.000;  251.000
223.432;   26.975;  184.000;  230.000
223.576;   10.425;  152.000;  -21.000
223.721;   37.900;  364.000;  273.000
223.865;  -56.450; -472.000; -475.000
224.009;  274.500; 1673.000; 1631.000
224.153;  -85.100; -660.000; -671.000
224.298;  -69.050; -531.000; -489.000
224.442;   -8.525;  -74.000;  -33.000
224.586;  -14.150; -169.000; -106.000
224.730;  -95.100; -858.000; -670.000
224.875;  -98.800; -739.000; -688.000
225.019;    5.450;  102.000;  188.000
225.163;   52.725;  208.000;  341.000
225.307;   14.700;   97.000;  -91.000
225.451;   47.550;  360.000;  481.000
225.595;   29.325;  264.000;  176.000
225.739;   -7.350; -170.000;  -94.000
225.884;    2.700;   86.000;    5.000
226.028; -110.050; -760.000; -626.000
226.172;  -59.350; -260.000; -273.000
226.316; -111.575; -941.000; -902.000
226.460;  -74.000; -645.000; -493.000
226.604;  -55.650; -406.000; -400.000
226.748; -105.900; -836.000; -733.000
226.892;  -38.250; -227.000; -181.000
227.036;  -40.950; -537.000; -447.000
227.180;  -59.475; -551.000; -375.000
227.324;  -57.775; -561.000; -580.000
227.468; -114.500; -819.000; -717.000
227.612;    4.500;  242.000;  -28.000
227.756; -103.000; -845.000; -698.000
227.900;   33.275;  342.000;  441.000
228.044;  -60.725; -509.000; -290.000
228.188;   55.225;  448.000;  568.000
228.332;  -82.975; -546.000; -472.000
228.476;  -27.875; -223.000; -149.000
228.620;  -13.450; -210.000; -150.000
228.764;   74.125;  431.000;  349.000
228.908;  -11.600; -155.000;   30.000
229.052;  -60.525; -615.000; -528.000
229.195;  -30.225; -172.000;   13.000
229.339;  -26.325; -235.000; -305.000
229.483;  -23.475;    5.000; -162.000
229.627;    2.775; -156.000;  139.000
229.771;  -28.600; -218.000; -294.000
229.915;   16.700;  230.000;   79.000
230.059;  -76.350; -648.000; -663.000
230.202;  -42.875; -370.000; -317.000
230.346;   -5.875; -107.000;  107.000
230.490;  -75.950; -489.000; -521.000
230.634; -102.000; -736.000; -553.000
230.777;   91.600;  478.000;  509.000
230.921;  -64.125; -450.000; -359.000
231.065;  -43.900; -246.000; -286.000
231.209;   27.875;  261.000;  265.000
231.352;   15.550;   54.000;   40.000
231.496;   24.800;  568.000;  188.000
231.640;  -84.575; -693.000; -621.000
231.783;   78.675;  546.000;  525.000
231.927;  -43.025; -294.000; -365.000
232.071; -124.125; -962.000; -736.000
232.214; -112.200; -980.000; -764.000
232.358;  -89.500; -683.000; -599.000
232.502;    5.950;  -19.000;    7.000
232.645; -131.100;-1090.000; -927.000
232.789;  -23.975; -257.000; -218.000
232.933;  -42.675; -407.000; -224.000
233.076; -122.200;-1038.000; -897.000
233.220; -106.425; -752.000; -777.000
233.363;  -69.750; -669.000; -477.000
233.507;   66.175;  371.000;  129.000
233.650;  -95.325; -764.000; -834.000
233.794;   41.975;  438.000;  461.000
233.938;  -73.050; -530.000; -362.000
234.081;   -9.725;  -93.000;   31.000
234.225;  -84.975; -631.000; -539.000
234.368;  -99.725; -773.000; -723.000
234.512;  -46.350; -385.000; -299.000
234.655;  -89.300; -582.000; -555.000
234.798;  -61.775; -493.000; -466.000
234.942; -126.475; -884.000;-1002.000
235.085;  -77.250; -651.000; -443.000
235.229;  -73.700; -405.000; -410.000
235.372;  -53.000; -247.000; -191.000
235.516;  -62.575; -397.000; -321.000
235.659;   23.450;   92.000;  121.000
235.802;   -8.050;  -38.000;  -22.000
235.946;   31.050;  335.000;  215.000
236.089;   33.875;  126.000;  250.000
236.233;   58.675;  275.000;  298.000
236.376;  -39.750; -235.000; -378.000
236.519;  -54.200; -297.000; -319.000
236.663;  -18.675; -215.000; -117.000
236.806; -131.175;-1029.000; -999.000
236.949;   61.825;  543.000;  431.000
237.092;   61.450;  412.000;  391.000
237.236;  -76.200; -589.000; -502.000
237.379;   61.025;  352.000;  428.000
237.522; -128.125; -879.000; -768.000
237.666;  -15.700; -271.000;   18.000
237.809; -128.975; -851.000; -823.000
237.952;   43.875;  469.000;  271.000
238.095;  -74.575; -447.000; -442.000
238.238;   86.875;  688.000;  700.000
238.382;   14.425;  166.000;  103.000
238.525;  -78.300; -598.000; -511.000
238.668; -129.975;-1060.000; -985.000
238.811;  -77.275; -638.000; -643.000
238.954;  -57.550; -483.000; -334.000
239.097;   96.950;  617.000;  664.000
239.241;   24.975;  394.000;  326.000
239.384;  -25.300; -254.000; -214.000
239.527;  -51.900; -424.000; -224.000
239.670; -148.150; -994.000;-1091.000
239.813; -110.650; -696.000; -658.000
239.956;   82.300;  579.000;  473.000
240.099; -109.625; -778.000; -725.000
240.242;   56.950;  428.000;  432.000
240.385;   53.875;  466.000;  450.000
240.528;  -69.475; -706.000; -473.000
240.671;   14.125;  189.000;  134.000
240.814;  -42.725; -441.000; -158.000
240.957;  -89.150; -767.000; -578.000
241.100;  -84.625; -779.000; -755.000
241.243; -135.025;-1234.000; -893.000
241.386;  -71.675; -508.000; -379.000
241.529;  -81.750; -735.000; -547.000
241.672;  -74.150; -566.000; -495.000
241.815; -106.350; -832.000; -808.000
241.958;  -27.825; -125.000; -182.000
242.101;  -68.400; -545.000; -390.000
242.244;  -43.300; -270.000; -325.000
242.387;  -40.950; -304.000; -246.000
242.530;   62.925;  470.000;  134.000
242.673;  -39.700; -381.000; -309.000
242.815; -126.950; -925.000; -899.000
242.958;  -67.000; -482.000; -381.000
243.101;    5.775;  132.000;  187.000
243.244;  -79.375; -564.000; -521.000
243.387;  -51.275; -313.000; -316.000
243.530;  -89.225; -657.000; -674.000
243.672;  -15.025;   43.000;  -92.000
243.815;  -53.775; -355.000; -283.000
243.958;    6.875;   98.000;  -26.000
244.101;    9.925;   59.000;  -16.000
244.243;    0.975;  -47.000;  101.000
244.386; -110.250; -761.000; -630.000
244.529;  -30.050; -132.000; -139.000
244.672; -149.625;-1154.000; -951.000
244.814;  -96.000; -621.000; -794.000
244.957;  -51.975; -380.000; -304.000
245.100;  -78.850; -489.000; -489.000
245.242;  -50.650; -387.000; -374.000
245.385;   -4.225;  -59.000;  -39.000
245.528; -118.375; -871.000; -705.000
245.670;   92.450;  612.000;  634.000
245.813;  -74.550; -599.000; -547.000
245.956;  -38.325; -324.000; -275.000
246.098;  -72.475; -508.000; -650.000
246.241;    9.400;  194.000;   48.000
246.383;   -6.175; -119.000;  -73.000
246.526;  -66.700; -454.000; -525.000
246.669; -114.800; -889.000; -780.000
246.811;   25.625;  172.000;   -1.000
246.954;  -67.550; -512.000; -426.000
247.096;  -19.425;  -84.000;   -6.000
247.239;  -64.750; -482.000; -445.000
247.381;  -66.275; -647.000; -488.000
247.524;   97.475;  645.000;  679.000
247.666;   -0.500;   58.000;   11.000
247.809; -108.650; -887.000; -691.000
247.951;   -5.725;  -75.000;  138.000
248.094;   20.225;  432.000;  308.000
248.236; -161.100;-1262.000;-1238.000
248.378;    0.650; -356.000;  -81.000
248.521;  -12.425; -334.000; -337.000
248.663;  -16.925; -236.000; -267.000
248.806;  -22.875; -300.000; -266.000
248.948;  -91.425; -886.000; -763.000
249.090;  -55.925; -428.000; -398.000
249.233;  -41.025; -344.000; -381.000
249.375;  -78.375; -474.000; -451.000
249.518;  -17.550;  -83.000; -133.000
249.660;   -4.550; -103.000;    3.000
249.802; -167.150;-1303.000;-1189.000
249.945;  -76.275; -612.000; -540.000
250.087; -115.350; -834.000; -768.000
250.229;  -55.550; -362.000; -480.000
250.371;  -75.375; -494.000; -439.000
250.514;  -65.950; -310.000; -244.000
250.656;  -34.550;   69.000;  102.000
250.798; -126.825; -849.000; -800.000
250.940;  -57.075; -322.000; -322.000
251.083;  -32.475; -335.000; -111.000
251.225;   50.125;  338.000;  310.000
251.367;  -26.425; -274.000; -373.000
251.509;  -27.275; -265.000; -210.000
251.651;  -97.875; -731.000; -671.000
251.794;   86.275;  538.000;  632.000
251.936; -110.350; -821.000; -747.000
252.078;  -66.750; -540.000; -461.000
252.220;  -75.325; -645.000; -477.000
252.362;   80.800;  344.000;  462.000
252.504;  -70.175; -677.000; -584.000
252.646; -109.075; -875.000; -722.000
252.788;   -9.650;   14.000; -128.000
252.931;  -46.925; -257.000; -253.000
253.073;  -56.600; -376.000; -317.000
253.215;    3.950;  141.000;  122.000
253.357;  -10.425;   82.000; -153.000
253.499;  -51.250; -374.000; -234.000
253.641;  -90.525; -749.000; -594.000
253.783;  -88.250; -609.000; -527.000
253.925;  -90.575; -586.000; -591.000
254.067; -104.725; -744.000; -667.000
254.209;  -28.350; -391.000; -259.000
254.351; -128.400; -865.000; -883.000
254.493;  -55.325; -441.000; -417.000
254.635; -126.850; -936.000; -818.000
254.777;  -91.375; -752.000; -687.000
254.918;  -69.550; -512.000; -430.000
255.060;  -63.000; -551.000; -395.000
255.202;  -60.075; -473.000; -261.000
255.344;  -76.375; -658.000; -455.000
255.486;  -61.950; -471.000; -406.000
255.628; -108.250; -780.000; -781.000
255.770;  -82.850; -676.000; -536.000
255.912;  -69.875; -559.000; -468.000
256.053;  -98.850; -730.000; -508.000
256.195;  151.650; 1008.000;  903.000
256.337;  -93.450; -861.000; -595.000
256.479;   58.325;  532.000;  416.000
256.621;  -50.800; -394.000; -212.000
256.762; -103.950; -789.000; -742.000
256.904;   61.175;  485.000;  487.000
257.046;  -41.700; -381.000; -271.000
257.188;  -46.950; -351.000; -264.000
257.329;  -85.175; -525.000; -464.000
257.471; -125.125; -939.000; -807.000
257.613;  -55.175; -584.000; -498.000
257.755; -145.400;-1073.000; -982.000
257.896;   32.350;  286.000;  392.000
258.038;  -69.925; -403.000; -352.000
258.180;  -41.375; -354.000; -279.000
258.321;  -75.250; -581.000; -457.000
258.463;   16.200;  -71.000;  133.000
258.605;  -91.550; -562.000; -570.000
258.746; -108.100; -886.000; -772.000
258.888; -136.175;-1026.000;-1020.000
259.029;   24.700;  121.000;   -8.000
259.171;  -95.100; -614.000; -550.000
259.313;   -5.275;  -49.000;  -47.000
259.454;  -67.225; -536.000; -414.000
259.596;  -56.050; -483.000; -390.000
259.737;  -74.200; -590.000; -474.000
259.879;   35.775;  217.000;  311.000
260.020;   89.650;  901.000;  636.000
260.162;  -26.675; -146.000; -253.000
260.303; -122.850; -768.000; -687.000
260.445;  -88.675; -609.000; -613.000
260.586;   24.675;  392.000;  157.000
260.728;  -35.700; -360.000; -248.000
260.869;  -70.375; -350.000; -343.000
261.011;   88.150;  706.000;  537.000
261.152;  -69.100; -479.000; -319.000
261.293;  -73.450; -576.000; -595.000
261.435;  -44.650; -219.000; -184.000
261.576;  -48.500; -455.000; -325.000
261.718;   37.825;  420.000;  470.000
261.859; -139.725; -940.000; -949.000
262.000; -144.675; -951.000;-1016.000
262.142;  -19.225;  -52.000;  -60.000
262.283; -119.400; -808.000; -691.000
262.424;  -75.725; -666.000; -625.000
262.566; -155.425;-1161.000; -983.000
262.707; -115.325; -840.000; -830.000
262.848; -116.675; -769.000; -726.000
262.990;  -47.975; -362.000; -345.000
263.131;   81.300;  650.000;  681.000
263.272;  -20.450;  -61.000;  -41.000
263.413;  -85.525; -589.000; -561.000
263.555;  -64.350; -669.000; -143.000
263.696;  -84.650; -550.000; -641.000
263.837;  -58.575; -449.000; -551.000
263.978;   -2.550;   -5.000;  -77.000
264.119;  -34.200; -283.000; -264.000
264.261; -106.000; -847.000; -630.000
264.402;   -2.850;   33.000;   40.000
264.543;  -89.050; -509.000; -524.000
264.684;   -7.925;   61.000;  -50.000
264.825;  -76.625; -816.000; -538.000
264.966;   -2.750;  -84.000;  -67.000
265.107; -107.575; -646.000; -670.000
265.248; -124.675; -825.000; -812.000
265.390;  -16.125;  152.000;   -9.000
265.531;  -21.925; -238.000; -107.000
265.672;  -86.500; -557.000; -630.000
265.813;   59.800;  563.000;  439.000
265.954; -138.250; -959.000; -940.000
266.095;  -19.025; -372.000; -322.000
266.236;  -97.525; -686.000; -548.000
266.377;  -49.400; -243.000; -297.000
266.518;  -74.800; -619.000; -547.000
266.659;   19.775;  170.000;  268.000
266.800;   14.250;   83.000;   85.000
266.941;  -81.575; -487.000; -478.000
267.082;   27.800;  354.000;   99.000
267.223;  -47.225; -344.000; -273.000
267.364; -105.675; -892.000; -686.000
267.504;  -17.075;    3.000;  135.000
267.645;   -5.500;  160.000;   67.000
267.786;  -27.500; -147.000;  -86.000
267.927;  -76.625; -473.000; -379.000
268.068;  -17.525; -186.000;  -61.000
268.209;  -39.350; -175.000; -413.000
268.350;  -61.675; -388.000; -532.000
268.490;  -72.825; -648.000; -521.000
268.631;   35.075;  127.000;  225.000
268.772; -105.475; -874.000; -647.000
268.913;  -45.150; -328.000; -476.000
269.054;  -21.025; -117.000;   12.000
269.194;  -38.050; -418.000; -402.000
269.335; -151.625;-1137.000;-1074.000
269.476;  -22.775;   33.000;  -35.000
269.617;  -48.875; -347.000; -392.000
269.757;  -83.425; -713.000; -646.000
269.898; -108.250; -856.000; -613.000
270.039;  -69.450; -415.000; -405.000
270.180; -143.025; -952.000; -816.000
270.320;  -25.550; -190.000; -250.000
270.461;  -36.600; -277.000; -249.000
270.602;  -23.800; -186.000; -156.000
270.742; -123.375; -868.000; -943.000
270.883;  -54.500; -442.000; -390.000
271.023;  -46.450; -358.000; -357.000
271.164;  -73.900; -607.000; -528.000
271.305;  -96.950; -666.000; -654.000
271.445;  -81.825; -722.000; -683.000
271.586;  -67.050; -462.000; -283.000
271.726;  -51.650; -397.000; -322.000
271.867;  -68.350; -594.000; -534.000
272.008;  180.950; -473.000; -285.000
272.148;  128.800;  462.000;  468.000
272.289;   12.000; -113.000; -181.000
272.429;   23.025;   19.000;  185.000
272.570; -103.225; -633.000; -737.000
272.710;  -97.575; -825.000; -775.000
272.851;  -24.475;  113.000; -130.000
272.991; -161.975;-1173.000;-1077.000
273.131;  -80.300; -419.000; -459.000
273.272;  -91.650; -683.000; -723.000
273.412;   10.375; -143.000;  -31.000
273.553;  -65.750; -488.000; -507.000
273.693;  151.300;  913.000;  858.000
273.834;  -90.375; -894.000; -692.000
273.974;  -78.825; -664.000; -615.000
274.114;  -93.050; -772.000; -560.000
274.255;   77.050;  414.000;  373.000
274.395;    4.000; -180.000; -125.000
274.535;   39.150;  199.000;  350.000
274.676;   16.200;  225.000;   94.000
274.816;   -2.575;  110.000;   34.000
274.956;  -81.725; -624.000; -690.000
275.097;  -81.075;-1014.000; -922.000
275.237; -124.800; -913.000; -803.000
275.377; -102.075; -778.000; -689.000
275.517; -153.525; -878.000; -937.000
275.658;  -59.200; -590.000; -555.000
275.798;  -58.025; -606.000; -413.000
275.938;   30.325;  215.000;  323.000
276.078; -100.350; -626.000; -395.000
276.218;    7.400;   99.000;  104.000
276.359; -125.875;-1026.000;-1024.000
276.499;  -75.325; -605.000; -446.000
276.639;  -20.100; -305.000; -151.000
276.779;  -48.975; -475.000; -357.000
276.919; -112.750; -783.000; -624.000
277.059;  -16.900; -261.000; -212.000
277.199;  -55.950; -357.000; -259.000
277.340;   37.150;  287.000;  175.000
277.480; -117.225; -840.000; -693.000
277.620;   26.475;  192.000;   16.000
277.760; -198.400;-1533.000;-1294.000
277.900;    7.850;  113.000;   33.000
278.040;   14.725;  137.000;  159.000
278.180;   35.200;  270.000;  170.000
278.320;    1.325;   21.000;   56.000
278.460;  -70.225; -443.000; -469.000
278.600;  -99.350; -708.000; -598.000
278.740;   49.525;  448.000;  224.000
278.880;  -73.650; -768.000; -791.000
279.020;   -5.825; -194.000; -144.000
279.160;  -91.350; -672.000; -595.000
279.300; -121.300; -926.000; -873.000
279.440; -100.500; -709.000; -622.000
279.579;  -42.800;-1014.000; -929.000
279.719;  -53.300; -410.000; -394.000
279.859;   57.675;   -4.000;   41.000
279.999;   30.675; -208.000;  101.000
280.139;  -28.075; -435.000; -387.000
280.279;  -76.425; -708.000; -745.000
280.419;  -11.475; -229.000; -147.000
280.559;  -37.575; -259.000; -180.000
280.698;  -73.100; -790.000; -639.000
280.838;  -95.900; -778.000; -800.000
280.978; -106.300; -846.000; -790.000
281.118; -108.850; -811.000; -704.000
281.257;    1.775;   24.000;    6.000
281.397; -132.475;-1094.000; -960.000
281.537;  -95.975; -599.000; -712.000
281.677;  -13.050; -150.000; -101.000
281.816;  -93.975; -700.000; -630.000
281.956;  -27.425; -193.000; -257.000
282.096;  -79.600; -539.000; -396.000
282.235; -109.575; -672.000; -638.000
282.375;  -18.425; -243.000;  -98.000
282.515; -105.525; -715.000; -707.000
282.654;   10.925;   29.000;  106.000
282.794;   29.150;  388.000;  244.000
282.934;  -56.000; -530.000; -491.000
283.073; -128.075;-1030.000; -857.000
283.213;  -64.600; -460.000; -467.000
283.353;  -31.800; -408.000; -349.000
283.492;  -21.275; -264.000; -296.000
283.632;  -43.850; -254.000; -168.000
283.771; -105.750; -859.000; -730.000
283.911;  -52.325; -369.000; -260.000
284.050; -106.150; -794.000; -748.000
284.190; -154.450;-1229.000;-1096.000
284.329; -140.050;-1055.000; -964.000
284.469;  -71.125; -516.000; -591.000
284.608;  -59.650; -559.000; -598.000
284.748;  -79.325; -614.000; -570.000
284.887;  -14.675;  -87.000;  -20.000
285.027; -141.550; -844.000; -892.000
285.166;  -34.725; -192.000; -249.000
285.306;    3.250; -116.000;  -33.000
285.445;  -45.825; -229.000; -343.000
285.584;  -97.425; -630.000; -494.000
285.724;  -51.575; -282.000; -322.000
285.863; -114.175; -857.000; -507.000
286.002;  -50.050; -366.000; -276.000
286.142; -115.650; -715.000; -622.000
286.281;  -74.175; -525.000; -493.000
286.420;  -93.450; -554.000; -417.000
286.560;   90.525;  653.000;  623.000
286.699; -139.250; -958.000; -912.000
286.838;  -84.775; -590.000; -591.000
286.978;  -86.100; -533.000; -537.000
287.117; -151.425;-1085.000; -950.000
287.256;  -31.950; -228.000; -211.000
287.395;  -61.000; -197.000; -378.000
287.535;  -48.875; -370.000; -298.000
287.674;  -82.225; -509.000; -484.000
287.813;   52.175;  661.000;  533.000
287.952; -124.075;-1010.000; -871.000
288.091; -151.700;-1049.000; -915.000
288.231;   14.775;   13.000;   15.000
288.370; -183.425;-1217.000;-1200.000
288.509;  -81.650; -728.000; -645.000
288.648;  -89.000; -770.000; -548.000
288.787;  -35.650; -243.000;  -87.000
288.926;  -76.150; -454.000; -475.000
289.065;  122.150;  859.000;  672.000
289.204;  -55.175; -377.000; -217.000
289.344;  -84.525; -791.000; -690.000
289.483;   37.150;  416.000;  304.000
289.622;  -33.550; -291.000; -149.000
289.761;   -4.625; -309.000; -166.000
289.900; -113.000; -785.000; -626.000
290.039;  -12.275;  -12.000;  -95.000
290.178;  -31.650; -274.000; -180.000
290.317; -100.025; -618.000; -479.000
290.456;  -64.875; -463.000; -451.000
290.595; -142.050; -961.000; -833.000
290.734; -144.050; -904.000; -891.000
290.873;  -76.025; -456.000; -420.000
291.011; -100.275; -833.000; -843.000
291.150; -104.075; -770.000; -682.000
291.289;  -15.525; -343.000; -110.000
291.428;  -94.000; -599.000; -480.000
291.567;  -65.725; -370.000; -442.000
291.706;    5.325;  109.000;  154.000
291.845;  -86.250; -597.000; -505.000
291.984; -169.850;-1234.000;-1061.000
292.122;   62.225;  602.000;  582.000
292.261;   31.025;  620.000;  463.000
292.400;    0.550; -144.000;  211.000
292.539; -120.500; -959.000; -813.000
292.678;  -36.500; -325.000; -300.000
292.816; -156.950;-1136.000; -965.000
292.955;  -96.725; -844.000; -684.000
293.094;  -17.775; -173.000; -337.000
293.233;  -64.250; -556.000; -400.000
293.371;  -44.675; -225.000;  -84.000
293.510; -117.925; -866.000; -780.000
293.649; -130.650; -959.000; -924.000
293.787;  -81.750;-1083.000;-1012.000
293.926;  -18.750; -113.000;  -32.000
294.065;  -52.000; -379.000; -290.000
294.203;   49.925;  298.000;  406.000
294.342;   19.875;   74.000;  156.000
294.481; 6716.875;51180.000; -836.000
294.619;  -31.425; -425.000; -582.000
294.758; -142.450;-1230.000;-1137.000
294.896;   55.425; -125.000;    5.000
295.035; -124.625;-1040.000;-1006.000
295.174; -115.225;-1082.000; -954.000
295.312;  -37.225; -323.000; -203.000
295.451;  -21.275; -307.000; -428.000
295.589;  -42.675; -389.000; -518.000
295.728;   22.000; -292.000; -165.000
295.866;   12.400;  -36.000;  -51.000
296.005;  -72.650; -584.000; -341.000
296.143;  -66.775; -558.000; -596.000
296.282; -107.625; -957.000; -881.000
296.420;  -74.750; -657.000; -557.000
296.559;  -80.625; -892.000; -633.000
296.697;    3.950; -847.000; -665.000
296.835;   22.550;-1141.000;-1002.000
296.974;   37.475;  -23.000;   39.000
297.112;   -6.775; -443.000; -504.000
297.251;  -77.475; -815.000; -755.000
297.389;   63.750; -576.000; -438.000
297.527;   18.875; -145.000;  -83.000
297.666;  -47.325; -486.000; -438.000
297.804;  -68.875; -404.000; -264.000
297.942;   -8.025; -136.000; -161.000
298.081;  -19.550; -183.000;   63.000
298.219;   51.500;  -17.000;  -19.000
298.357;   32.050; -144.000;  -71.000
298.495;    3.575; -810.000; -812.000
298.634;   70.850;  245.000;  219.000
298.772;   17.300; -220.000; -338.000
298.910;  -27.975; -309.000; -182.000
299.048;  -11.700; -130.000; -153.000
299.187;  -40.325; -350.000; -250.000
299.325;   24.450;   52.000;  122.000
299.463;   25.250; -389.000; -299.000
299.601;   98.875; -327.000; -271.000
299.739; -109.925; -908.000; -883.000
299.877;  -84.325; -791.000; -703.000
300.016;  -57.800;-1095.000; -935.000
300.154;  135.000;  -19.000; -161.000
300.292;   31.825; -428.000; -348.000
300.430;   13.950; -408.000; -291.000
300.568; -100.950; -940.000; -874.000
300.706;  -55.925; -366.000; -469.000
300.844;  -90.675;-1108.000; -979.000
300.982;  124.325;  246.000;  282.000
301.120; -111.225; -965.000; -866.000
301.258;  -75.400; -812.000; -705.000
301.396;   30.675;  104.000;  -41.000
301.534;   46.450; -218.000; -293.000
301.672;   -8.400; -664.000; -521.000
301.810;   -1.075; -613.000; -545.000
301.948;   93.300;   53.000;  149.000
302.086;  526.675; -250.000;  -32.000
302.224;  788.525; -610.000; -585.000
302.362;    4.250; -558.000; -622.000
302.500;  -38.050; -923.000; -893.000
302.638;   88.275;  128.000;  245.000
302.776;   -8.775; -352.000; -408.000
302.913;   40.500;  447.000;  236.000
303.051;   -8.075;  -86.000;  -23.000
303.189;   51.250;   90.000;  118.000
303.327;  -20.500; -341.000; -256.000
303.465;  -89.475; -832.000; -588.000
303.603;  -90.650; -805.000; -604.000
303.740;   84.075;  417.000;  241.000
303.878;    8.875; -800.000; -759.000
304.016; -102.550; -915.000; -790.000
304.154; -124.150;-1123.000;-1152.000
304.291;  -41.100; -505.000; -554.000
304.429;    6.000;  102.000;   74.000
304.567; -125.250; -908.000; -893.000
304.705;  -44.500; -408.000; -515.000
304.842;   68.525; -616.000; -540.000
304.980;   45.150;  215.000;   35.000
305.118;   21.350; -367.000; -365.000
305.255;  -85.950; -945.000; -927.000
305.393;   46.475;  178.000;  239.000
305.531; -109.225;-1173.000; -956.000
305.668;  -80.675; -663.000; -582.000
305.806;   80.375; -358.000; -439.000
305.943;   65.175; -629.000; -637.000
306.081;   46.950; -378.000; -267.000
306.219; -108.050; -863.000; -748.000
306.356;   -1.300;  158.000;   27.000
306.494;  112.775;  981.000;  761.000
306.631;    1.050;  -11.000;  -55.000
306.769;   -9.300; -613.000; -485.000
306.906;  -19.550; -284.000; -258.000
307.044;  -63.875; -473.000; -488.000
307.181;  -62.925; -410.000; -332.000
307.319;   14.250;  112.000;   87.000
307.456; -173.650;-1191.000;-1153.000
307.594; -110.775; -980.000; -727.000
307.731;  -17.850; -371.000; -164.000
307.868;   -0.850;  -15.000;   20.000
308.006; -145.100; -961.000; -847.000
308.143;  -67.875; -618.000; -330.000
308.281;   99.575;  -37.000; -254.000
308.418;  -38.100; -748.000; -640.000
308.555;  -77.675; -400.000; -250.000
308.693;  -74.050; -577.000; -573.000
308.830; -111.650; -712.000; -657.000
308.967;  -15.475; -215.000;  -95.000
309.105;  -66.125; -507.000; -396.000
309.242;    6.750; -468.000; -367.000
309.379;  193.675; -577.000; -655.000
309.517;  -87.600; -936.000; -948.000
309.654; -115.200; -910.000; -734.000
309.791;  -66.675; -662.000; -580.000
309.928; -123.775; -977.000; -914.000
310.065;  174.050;  819.000;  697.000
310.203;  -27.175; -825.000; -850.000
310.340;  -23.175; -465.000; -321.000
310.477;  -83.475; -412.000; -516.000
310.614;  -75.475; -383.000; -473.000
310.751;  -80.200; -427.000; -518.000
310.889;  -28.025;    1.000;   11.000
311.026; -151.975;-1161.000; -939.000
311.163;  -35.550; -386.000; -380.000
311.300;  -86.475; -512.000; -479.000
311.437;  -80.025; -658.000; -619.000
311.574; -165.950;-1226.000; -985.000
311.711;  -77.600; -595.000; -433.000
311.848;  -37.300; -380.000; -388.000
311.985;    7.675;  270.000;   93.000
312.122; -127.775; -932.000; -762.000
312.259; -114.525; -941.000; -994.000
312.396;  -76.800; -508.000; -551.000
312.533;  -84.350; -812.000; -790.000
312.670; -135.550;-1070.000; -898.000
312.807;  -45.625; -352.000; -367.000
312.944;  -77.675; -513.000; -611.000
313.081;  -35.475; -150.000; -415.000
313.218; -115.700;-1111.000; -867.000
313.355;   -2.325; -531.000; -449.000
313.492;    0.575; -455.000; -292.000
313.629;  118.775;  815.000;  735.000
313.766; -157.175;-1176.000;-1008.000
313.902;   -2.025; -186.000;   21.000
314.039;  -49.600; -372.000; -289.000
314.176;   22.225;  286.000;  192.000
314.313;  -71.350; -569.000; -473.000
314.450;  -87.125; -788.000; -684.000
314.587;  -55.850; -468.000; -480.000
314.723;   -1.150;  -78.000;  130.000
314.860;   22.825;  318.000;  332.000
314.997;   33.100;  223.000;  142.000
315.134;  -42.725; -385.000; -368.000
315.270;  -28.850; -480.000; -496.000
315.407; -141.475;-1094.000; -967.000
315.544;  -59.200; -657.000; -538.000
315.681;  -80.925; -681.000; -565.000
315.817;   15.200; -133.000; -176.000
315.954;   -0.625; -613.000; -392.000
316.091; -140.950;-1045.000;-1023.000
316.227;  -24.275;  -71.000; -179.000
316.364;    1.775;   23.000;    6.000
316.500;  -40.000; -113.000; -300.000
316.637;  -41.200; -181.000; -302.000
316.774;  -81.150; -625.000; -358.000
316.910;  -88.925; -598.000; -629.000
317.047;  -73.175; -487.000; -351.000
317.183;  -55.175; -435.000; -566.000
317.320;   -7.275; -367.000; -321.000
317.456;  -66.550; -733.000; -805.000
317.593;  -98.675; -598.000; -641.000
317.729;    8.975;  168.000;  -67.000
317.866; -191.250;-1434.000;-1285.000
318.002;  -99.825; -708.000; -948.000
318.139;  -99.375; -883.000; -867.000
318.275; -109.850;-1003.000; -738.000
318.412;  -57.425; -517.000; -336.000
318.548;  -40.500; -751.000; -720.000
318.685;  -97.525; -985.000; -888.000
318.821;  -92.550; -762.000; -735.000
318.957;  -22.325;   34.000;  -23.000
319.094;   18.050;  297.000;  154.000
319.230;  -72.425; -756.000; -742.000
319.367;  100.675; -471.000; -520.000
319.503;   53.800; -538.000; -436.000
319.639; -103.950; -877.000; -793.000
319.775;  -69.075; -750.000; -685.000
319.912;  -62.250; -424.000; -519.000
320.048;  -99.975;-1184.000;-1184.000
320.184;   80.650;   59.000;   70.000
320.321;  -50.050; -497.000; -467.000
320.457;   48.600;  475.000;  662.000
320.593;  -53.900; -375.000; -382.000
320.729; -109.275; -732.000; -734.000
320.866;  -72.100; -577.000; -635.000
321.002;  -88.175; -759.000; -809.000
321.138;   -4.450; -135.000; -211.000
321.274;   63.775; -148.000; -115.000
321.410;  -24.900; -585.000; -353.000
321.546;  -50.100;-1011.000; -911.000
321.683;   49.375;  400.000;  185.000
321.819;    0.600;  -48.000; -117.000
321.955; -112.875; -743.000; -722.000
322.091;  -55.200; -585.000; -540.000
322.227;  -18.025; -382.000; -202.000
322.363;  -18.575; -320.000; -215.000
322.499;  -43.500; -343.000; -331.000
322.635;  140.050;  636.000;  443.000
322.771;   21.700; -139.000;   12.000
322.907;   83.975;  129.000;  327.000
323.043;  -20.825; -115.000; -206.000
323.179;  -40.500; -394.000; -363.000
323.315;    3.100; -401.000; -371.000
323.451;   55.050; -328.000; -236.000
323.587;   55.900;  -60.000;  -77.000
323.723;  -12.400; -682.000; -601.000
323.859;  -27.000; -258.000;  -76.000
323.995;  -28.600; -467.000; -409.000
324.131; -131.575; -967.000; -892.000
324.267;  -47.550; -254.000; -276.000
324.402; -127.275; -960.000; -983.000
324.538;  -27.475; -279.000; -104.000
324.674;   19.750;  164.000;   77.000
324.810;   90.325;  226.000;  308.000
324.946;   -9.375; -810.000; -658.000
325.082;  -72.050; -568.000; -475.000
325.217;  -12.675;  -62.000;   16.000
325.353; -103.075; -764.000; -659.000
325.489;  -98.000; -540.000; -506.000
325.625;  -75.300; -579.000; -525.000
325.760;   60.775;  517.000;  376.000
325.896;  -25.900; -515.000; -702.000
326.032;  -51.525; -403.000; -352.000
326.168;  -68.375; -462.000; -369.000
326.303;  -48.325; -352.000; -461.000
326.439;  -16.950; -336.000; -276.000
326.575;   14.250; -190.000;  -29.000
326.710;  -12.125; -156.000;  -30.000
326.846;  -23.500;  146.000;  103.000
326.982; -101.725; -530.000; -548.000
327.117;  -84.775; -481.000; -442.000
327.253;  -85.025; -745.000; -742.000
327.388; -169.925;-1137.000;-1153.000
327.524;  -63.725; -811.000; -578.000
327.659;  -20.650;  -58.000;  -22.000
327.795;  -14.125;   69.000;   45.000
327.931;  -90.200; -723.000; -499.000
328.066;  -50.725; -417.000; -276.000
328.202;  -15.950;   12.000; -129.000
328.337;  101.875;  957.000;  713.000
328.473;   38.600;  -12.000;  -74.000
328.608;  -30.300; -256.000; -267.000
328.743;  -97.100; -799.000; -664.000
328.879;   15.025;  214.000;  114.000
329.014;  -18.925; -102.000; -122.000
329.150;  -88.325; -358.000; -483.000
329.285;  -89.725; -465.000; -466.000
329.421;  -45.900; -548.000; -246.000
329.556;  -22.075;  -36.000;   85.000
329.691;  -91.625; -633.000; -615.000
329.827;  -90.150; -626.000; -480.000
329.962;  -56.550;  131.000; -301.000
330.097;  -86.300; -673.000; -585.000
330.233;  -61.100; -410.000; -223.000
330.368; -119.200; -839.000; -628.000
330.503;  -14.225;    3.000;   98.000
330.638;   -3.225;  -93.000; -125.000
330.774;  -65.075; -609.000; -530.000
330.909;  -32.825; -434.000; -244.000
331.044;  -92.500; -714.000; -708.000
331.179; -178.375;-1217.000;-1109.000
331.315;   -0.050;   77.000;   20.000
331.450;   15.075;  157.000;  285.000
331.585;  -96.075; -805.000; -706.000
331.720;  -84.825; -510.000; -460.000
331.855;   -8.900;  -35.000; -102.000
331.990;  255.325;   62.000;  138.000
332.126;  137.250; -110.000;   71.000
332.261;  -21.050; -379.000; -265.000
332.396;   10.900; -135.000; -242.000
332.531;  -98.050;-1074.000;-1031.000
332.666;   34.125; -519.000; -363.000
332.801; -107.250; -726.000; -807.000
332.936;  -23.900; -192.000; -122.000
333.071; -137.225; -870.000; -817.000
333.206;   17.575;  307.000;  379.000
333.341;   16.950;  344.000;  418.000
333.476;  -95.300; -627.000; -623.000
333.611;  -45.675; -251.000; -173.000
333.746;  -47.950; -381.000; -464.000
333.881; -126.550; -973.000; -935.000
334.016; -133.500; -936.000; -917.000
334.151; -126.950; -746.000; -702.000
334.286;   19.700;  152.000;  186.000
334.421;  -16.875; -125.000; -178.000
334.556;  -94.575; -611.000; -567.000
334.690;  -95.075; -631.000; -577.000
334.825;   49.350;  381.000;   83.000
334.960;  -61.450; -285.000; -413.000
335.095;    2.650;  135.000;  -91.000
335.230;  -91.100; -722.000; -738.000
335.365; -144.850;-1084.000; -990.000
335.499; -149.350;-1108.000;-1037.000
335.634;    9.900;    9.000;  534.000
335.769;  -94.800; -755.000; -720.000
335.904;  -69.825; -603.000; -561.000
336.038;  -68.250; -735.000; -657.000
336.173; -124.600;-1206.000;-1194.000
336.308;    7.100; -116.000; -189.000
336.443;   14.950; -544.000; -634.000
336.577;  -77.100; -936.000; -787.000
336.712;   52.425;   -4.000;  -12.000
336.847;  -58.450; -724.000; -607.000
336.981;   52.150; -272.000; -208.000
337.116;  258.550;  615.000;  501.000
337.250;  124.375; -434.000; -421.000
337.385;  270.425; -297.000; -208.000
337.520;   83.200; -632.000; -603.000
337.654;  -42.025; -215.000; -126.000
337.789; -127.650; -989.000; -933.000
337.923;  -41.525; -104.000; -205.000
338.058;  -87.200; -673.000; -738.000
338.192;  -44.350; -611.000; -488.000
338.327;   -6.375;  -18.000; -155.000
338.461;  -54.050; -299.000; -469.000
338.596; -100.375; -780.000; -638.000
338.730; -110.100; -767.000; -803.000
338.865;   85.350;  -46.000; -140.000
338.999;  -45.700; -846.000; -702.000
339.134;  -35.825; -634.000; -536.000
339.268;    9.975; -741.000; -603.000
339.403;  366.375; -740.000; -775.000
339.537;  116.950; -894.000; -820.000
339.671; -115.700; -829.000; -813.000
339.806;  -53.450; -556.000; -512.000
339.940;   11.525; -261.000; -235.000
340.074; -105.875; -685.000; -510.000
340.209;  -44.500; -351.000; -230.000
340.343;  -91.725; -517.000; -573.000
340.477;  157.525;  998.000; 1036.000
340.612;  -57.900;-1033.000; -900.000
340.746;  140.700; -199.000; -243.000
340.880;  -71.125; -924.000; -785.000
341.014;  -12.850;  -45.000; -154.000
341.149; -114.800; -756.000; -718.000
341.283; -122.025; -839.000; -754.000
341.417; -106.500;-1124.000; -938.000
341.551;  103.350; -768.000; -708.000
341.685;  -32.425; -633.000; -611.000
341.820;  -58.175; -562.000; -493.000
341.954;  -47.425; -218.000; -349.000
342.088; -162.200;-1102.000;-1019.000
342.222;   58.525;  565.000;  618.000
342.356;  -61.300; -395.000; -335.000
342.490;  -95.625; -880.000; -841.000
342.624;  -45.800; -339.000; -242.000
342.758;   -7.025; -364.000; -312.000
342.892;  -79.250; -710.000; -585.000
343.026;  -52.175;  -58.000; -116.000
343.160;  -60.525; -426.000; -376.000
343.294;  -71.700; -474.000; -337.000
343.428;  -24.225; -488.000; -448.000
343.562;  -24.450; -172.000;  -23.000
343.696;  -37.400; -385.000; -314.000
343.830;  -26.150; -362.000; -356.000
343.964;  -10.475; -231.000; -168.000
344.098;  769.100;  199.000;   70.000
344.232;  634.725; -266.000; -127.000
344.366;   71.750; -567.000; -453.000
344.500;   28.775; -665.000; -744.000
344.634;   13.400; -324.000; -164.000
344.768;  -39.450; -531.000; -341.000
344.902;   19.675;  278.000;  256.000
345.035;  -81.300; -556.000; -496.000
345.169; -132.900; -933.000; -656.000
345.303;  -63.100; -308.000; -482.000
345.437;  -80.975; -826.000; -717.000
345.571;  -70.650; -675.000; -594.000
345.704;  -64.625; -309.000; -532.000
345.838;  -29.000; -331.000; -284.000
345.972;  -35.475; -543.000; -495.000
346.106;  159.425; -179.000; -190.000
346.239;  392.000; -312.000; -243.000
346.373;   11.375; -343.000; -302.000
346.507; -145.625; -950.000; -962.000
346.640;  100.925;  -30.000;   13.000
346.774;  -61.825; -650.000; -797.000
346.908;  -19.700; -138.000;  -11.000
347.041;  -94.900; -646.000; -593.000
347.175;   14.950;  259.000;   27.000
347.309;  -79.325; -698.000; -628.000
347.442; -113.350; -883.000; -732.000
347.576;  244.325;  670.000;  668.000
347.709;  164.225; -123.000;  -52.000
347.843; -107.100; -933.000; -825.000
347.976;   33.725;  235.000;  294.000
348.110; -179.200;-1268.000;-1186.000
348.243; -120.100; -679.000; -772.000
348.377;    9.675;  -26.000;   60.000
348.510;   52.675;  403.000;  540.000
348.644;  -49.675;  -37.000; -159.000
348.777;  -10.300;  180.000;  191.000
348.911;  -47.625; -142.000; -112.000
349.044;  131.025;  471.000;  448.000
349.178;  112.450;-1069.000;-1006.000
349.311;   98.075;  141.000;  255.000
349.444;  -22.400; -927.000; -813.000
349.578;  -33.100; -347.000; -200.000
349.711;  -94.100; -959.000; -862.000
349.845;  -24.600; -661.000; -591.000
349.978; -147.625;-1224.000;-1137.000
350.111;  -81.600; -546.000; -612.000
350.244;  -84.725; -596.000; -700.000
350.378;  -11.475; -392.000; -393.000
350.511;  -67.875; -393.000; -426.000
350.644;  -95.925; -808.000; -806.000
350.778;    3.100;  168.000;  104.000
350.911;   -1.725;  134.000;  140.000
351.044;  -99.125; -685.000; -615.000
351.177;  -46.975; -321.000; -281.000
351.310;  -11.350;    3.000; -131.000
351.444; -104.700; -888.000; -788.000
351.577;   96.325;  140.000;   90.000
351.710;   79.100;  593.000;  417.000
351.843;  -20.750; -165.000;  -77.000
351.976;  -12.875;  149.000;  -79.000
352.109;  -98.950; -621.000; -612.000
352.242;  -54.025; -464.000; -419.000
352.376;  -75.975; -580.000; -636.000
352.509;  136.575; -437.000; -356.000
352.642;  -16.275; -654.000; -604.000
352.775;   50.125; -141.000;  -98.000
352.908; -111.125; -933.000; -904.000
353.041; -113.825; -814.000; -824.000
353.174;  -62.075; -551.000; -424.000
353.307;  -85.425; -753.000; -764.000
353.440;   66.275;  541.000;  453.000
353.573; -108.975; -957.000;-1008.000
353.706;  -59.975; -384.000; -558.000
353.839;  -17.875; -264.000; -220.000
353.971;  -94.550; -657.000; -512.000
354.104;  -91.550; -896.000; -835.000
354.237;  -54.125; -627.000; -662.000
354.370;  -87.250; -846.000; -879.000
354.503; -185.000;-1231.000;-1308.000
354.636;  -43.625; -529.000; -348.000
354.769; -123.400; -937.000; -860.000
354.902;   -9.575; -230.000; -139.000
355.034;  -21.300; -164.000; -220.000
355.167;  -18.850; -262.000; -162.000
355.300;  -93.950;-1061.000; -880.000
355.433;  970.600;  -71.000;  -14.000
355.565; 1510.800; -402.000; -384.000
355.698;  386.925; -356.000; -296.000
355.831;  -16.100; -882.000; -801.000
355.964;   66.375; -285.000; -170.000
356.096;  -91.600; -856.000; -843.000
356.229;   -6.575; -523.000; -530.000
356.362;  329.050; -373.000; -266.000
356.494;  603.675; -229.000; -162.000
356.627;  423.900;  269.000;  377.000
356.760;  648.325;  120.000;   53.000
356.892;  965.025; -286.000; -601.000
357.025;  551.600;  403.000;  389.000
357.157;  516.400; -167.000; -179.000
357.290;  703.875; -856.000; -713.000
357.423;  209.300; -667.000; -556.000
357.555;  100.475; -217.000; -228.000
357.688;   97.450; -483.000; -364.000
357.820;  377.550; -870.000; -877.000
357.953; 3255.975; -563.000; -589.000
358.085;  658.325; -632.000; -612.000
358.218;  896.275;-1131.000; -932.000
358.350;  160.625;  -58.000;  312.000
358.483; -140.250;-1300.000;-1187.000
358.615;  -51.500;-1182.000;-1078.000
358.747;  -82.800;-1187.000;-1058.000
358.880;  -16.100; -810.000; -744.000
359.012;  -13.625; -376.000; -202.000
359.145;  -52.000; -480.000; -511.000
359.277;   17.925; -962.000; -913.000
359.409; 2654.750;  536.000;  231.000
359.542;  673.525; -738.000; -688.000
359.674;   49.700;   46.000;   13.000
359.806;  -78.250; -565.000; -438.000
359.939;  -45.175; -617.000; -516.000
360.071;  -12.975; -583.000; -579.000
360.203;  -24.625; -411.000; -364.000
360.335;   60.150;  164.000;  -16.000
360.468;  166.700; -249.000; -307.000
360.600; 2173.875; -547.000; -454.000
360.732; 2890.725; -546.000; -423.000
360.864;  383.450;-1216.000;-1044.000
360.996;  210.900; -516.000; -554.000
361.129;   27.825; -389.000; -598.000
361.261;    8.075;  110.000; -113.000
361.393;  -26.875; -252.000; -214.000
361.525;   12.550;   94.000;  244.000
361.657;  -58.875; -821.000; -703.000
361.789;   -6.825; -139.000; -155.000
361.921;  163.625; -642.000; -593.000
362.053;  228.075;  524.000;  541.000
362.185;   41.575;  288.000;   72.000
362.318;  -94.950; -709.000; -705.000
362.450;   92.075;  294.000;  444.000
362.582;   41.850; -913.000; -870.000
362.714;  -46.850; -353.000; -332.000
362.846;  -94.025; -606.000; -490.000
362.978; -145.825; -941.000; -811.000
363.109;   24.000; -161.000; -260.000
363.241;  354.325; -739.000; -749.000
363.373;  428.200; -649.000; -564.000
363.505;  686.900; -186.000;  -91.000
363.637;  135.000; -787.000; -601.000
363.769; -122.100;-1067.000;-1080.000
363.901;  -82.450; -596.000; -654.000
364.033; -127.950;-1103.000;-1062.000
364.165;   -8.150; -283.000; -283.000
364.296;   70.425; -316.000; -177.000
364.428;   66.700;-1344.000;-1220.000
364.560;  -67.200; -679.000; -661.000
364.692;  -77.975; -738.000; -835.000
364.824;  201.675; -588.000; -456.000
364.955;  413.025; -402.000; -564.000
365.087;  988.250;-1097.000; -852.000
365.219;   23.550; -686.000; -816.000
365.351;  -68.650; -526.000; -572.000
365.482;   37.500;  300.000;  240.000
365.614;  -46.200; -402.000; -314.000
365.746; -100.325; -729.000; -752.000
365.877; -102.075; -706.000; -672.000
366.009;  261.425;  -35.000;  -62.000
366.141;  -84.500;-1249.000;-1134.000
366.272; -122.300; -803.000; -719.000
366.404; -109.400;-1005.000; -874.000
366.535;  -17.900; -139.000;  -12.000
366.667; -101.600; -644.000; -649.000
366.799;   24.275;  353.000;  203.000
366.930; -137.550; -862.000; -996.000
367.062;  101.075; -639.000; -613.000
367.193;  166.875; -872.000; -842.000
367.325;  -58.925; -580.000; -684.000
367.456;   23.950; -246.000;   31.000
367.588;  156.175; -371.000; -318.000
367.719;   14.625;  -44.000;  -45.000
367.851;  -25.550; -222.000; -241.000
367.982;  -72.575; -875.000; -732.000
368.113;   61.000; -475.000; -358.000
368.245; -119.975; -960.000; -841.000
368.376;  -32.875; -254.000; -302.000
368.508;  -45.700; -188.000; -263.000
368.639; -140.750;-1166.000;-1034.000
368.770;  -31.025; -670.000; -589.000
368.902;  -73.550; -836.000; -926.000
369.033; -120.825; -906.000; -855.000
369.164;  -47.650; -720.000; -653.000
369.296; -111.875; -452.000; -601.000
369.427;  -12.725; -209.000; -144.000
369.558;  -58.050; -593.000; -377.000
369.689;  -94.450; -721.000; -569.000
369.821; -123.350; -951.000; -845.000
369.952;  -14.350;   42.000; -108.000
370.083;  -39.850; -229.000; -108.000
370.214;  -93.800; -735.000; -650.000
370.345;  -18.825;   65.000;   81.000
370.477;  -91.125; -810.000; -790.000
370.608;  167.600; -328.000; -264.000
370.739;  -78.525;-1233.000;-1292.000
370.870;  -60.450;-1102.000; -923.000
371.001;   52.750; -378.000; -467.000
371.132;  -92.975; -754.000; -735.000
371.263;  -26.925;  -42.000; -148.000
371.394; -125.050; -841.000; -748.000
371.525;   12.850;  345.000;  225.000
371.657;  -96.050; -808.000; -670.000
371.788;   57.875;  103.000;  199.000
371.919;  126.725; -384.000; -304.000
372.050; 3114.200;  -91.000; -156.000
372.181;  909.175; -188.000; -294.000
372.311;  310.275;   42.000; -127.000
372.442;    9.550; -457.000; -451.000
372.573;  -44.850; -444.000; -340.000
372.704; -120.225;-1008.000; -980.000
372.835;   51.975; -228.000; -289.000
372.966;  -60.400; -646.000; -554.000
373.097;  -83.775; -575.000; -711.000
373.228;  -42.925; -717.000; -542.000
373.359;   80.100; -824.000; -536.000
373.490;  773.000; -881.000; -727.000
373.620;  951.975;-1001.000; -803.000
373.751; 1489.025; -332.000; -396.000
373.882;  650.375; -663.000; -733.000
374.013;   41.550; -449.000; -262.000
374.143;  -54.000; -581.000; -659.000
374.274; -110.650; -987.000; -908.000
374.405;  146.200; -388.000; -276.000
374.536;  368.875; -526.000; -387.000
374.666;  901.900; -759.000; -807.000
374.797;  157.725; -817.000; -868.000
374.928;  699.575; -710.000; -560.000
375.058;  726.050; -535.000; -500.000
375.189;   45.625;  -59.000;  -93.000
375.320; -117.800; -928.000;-1034.000
375.450;  -41.850; -625.000; -616.000
375.581;  -43.700; -526.000; -436.000
375.712;  -40.550; -574.000; -250.000
375.842;  242.150; -438.000; -415.000
375.973;  166.375; -554.000; -513.000
376.103;  -61.400; -665.000; -648.000
376.234;  -97.275; -531.000; -552.000
376.364;  -69.275; -944.000; -867.000
376.495;  275.975;  925.000;  529.000
376.625;  -23.475; -472.000; -485.000
376.756;   33.450; -709.000; -678.000
376.886;  -86.825;-1178.000;-1026.000
377.017;   51.550;-1048.000;-1061.000
377.147;  364.625; -786.000; -782.000
377.278;   51.675;  174.000;  228.000
377.408; -132.025; -801.000; -815.000
377.538; -100.475; -707.000; -693.000
377.669;  -97.025; -537.000; -613.000
377.799;  -91.525; -645.000; -635.000
377.929;  -68.350; -610.000; -428.000
378.060; -136.425; -781.000; -847.000
378.190;  -60.275; -726.000; -531.000
378.320;  -54.225; -401.000; -406.000
378.451;  -12.775; -131.000;  -22.000
378.581;   -9.975;  -67.000; -110.000
378.711;  141.450; 1035.000;  866.000
378.841;  -42.800; -533.000; -675.000
378.972;  -83.700; -871.000; -751.000
379.102;  -15.800; -652.000; -579.000
379.232;  -27.700; -126.000;  -73.000
379.362; -113.500;-1001.000; -885.000
379.492;  -12.700; -373.000; -424.000
379.623;   78.650;    0.000;  111.000
379.753; -110.800;-1107.000; -974.000
379.883;  166.850;   59.000;  156.000
380.013;  -16.825;-1081.000;-1017.000
380.143; -106.875;-1097.000;-1056.000
380.273; -102.725; -985.000; -861.000
380.403;  -11.925; -344.000; -257.000
380.533;  -55.650; -651.000; -664.000
380.663;   52.625;  173.000;  128.000
380.793; -108.775;-1027.000;-1074.000
380.923;  -26.275; -103.000;  -34.000
381.053; -102.300; -613.000; -623.000
381.183;  -32.650; -106.000; -248.000
381.313;    0.400; -656.000; -470.000
381.443;   17.025; -692.000; -473.000
381.573;  145.975; -402.000; -409.000
381.703;  195.150;-1249.000;-1095.000
381.833; -149.175;-1454.000;-1336.000
381.963;   97.075; -134.000;  -87.000
382.093; 1217.550; -925.000; -909.000
382.223;  352.675; -713.000; -602.000
382.353;  -40.600; -801.000; -608.000
382.482;  263.625;-1091.000; -964.000
382.612;  662.450; -872.000; -644.000
382.742;  355.625; -695.000; -622.000
382.872;  186.775; -565.000; -551.000
383.002;   48.600;  347.000; -132.000
383.131;  -23.025; -226.000; -160.000
383.261;  -74.875; -706.000; -768.000
383.391;  263.875; -552.000; -377.000
383.521; 3315.575;  451.000;  263.000
383.650;  782.750; -947.000; -904.000
383.780;  -16.050; -783.000; -656.000
383.910;  106.175;  880.000;  802.000
384.039;   -5.650; -794.000; -656.000
384.169;  137.175;-1205.000;-1017.000
384.299;  -41.300; -650.000; -662.000
384.428; -101.925; -764.000; -680.000
384.558;  -54.825; -308.000; -275.000
384.687;  -49.900; -414.000; -334.000
384.817;    8.025;   75.000;   -2.000
384.947;    0.950; -234.000; -141.000
385.076;  241.675;  982.000;  912.000
385.206;   88.325;  369.000;  480.000
385.335;  -44.300; -549.000; -417.000
385.465;  -83.675; -655.000; -663.000
385.594;  101.300;  -53.000;  -44.000
385.724;  323.400; -868.000; -838.000
385.853;   89.825; -296.000; -270.000
385.982; 1172.900; -743.000; -787.000
386.112; 1788.825;-1052.000; -871.000
386.241;  129.125; -307.000; -312.000
386.371;    5.875; -174.000;  -87.000
386.500;  -17.425; -825.000; -789.000
386.629;   14.850; -874.000; -817.000
386.759;   62.850;  -43.000;   68.000
386.888;  -20.625; -170.000; -250.000
387.017;  -81.725; -648.000; -620.000
387.147;  -81.650; -771.000; -798.000
387.276;   -5.375; -410.000; -397.000
387.405;   -6.775; -398.000; -342.000
387.535;  -50.350; -452.000; -361.000
387.664;  -61.625; -692.000; -620.000
387.793;   42.175; -198.000; -113.000
387.922;  423.800;  255.000;  200.000
388.052;   -1.600; -576.000; -423.000
388.181;   -4.825; -342.000; -472.000
388.310;  -30.500; -889.000; -710.000
388.439;  -51.100; -749.000; -742.000
388.568;  156.200;  365.000;  244.000
388.697;  849.325; -756.000; -653.000
388.826;  150.150; -768.000; -666.000
388.956;   22.200; -285.000; -307.000
389.085;  -54.550; -347.000; -287.000
389.214; -129.650; -842.000; -872.000
389.343;  -77.800; -645.000; -413.000
389.472;  402.050;  126.000;  149.000
389.601;  502.675;   91.000;    0.000
389.730;   -8.825; -568.000; -687.000
389.859;   44.925;  226.000;   46.000
389.988;  145.425; -423.000; -408.000
390.117;  108.950; -168.000; -146.000
390.246;  -29.675; -331.000; -320.000
390.375;   51.400; -673.000; -626.000
390.504;  -69.525; -703.000; -621.000
390.633; -111.400; -672.000; -726.000
390.761;  -79.325; -732.000; -645.000
390.890;   -0.175;   -4.000; -130.000
391.019;  -44.725; -421.000; -441.000
391.148; -126.150; -826.000; -855.000
391.277;  -83.875; -576.000; -493.000
391.406; -111.025; -821.000; -805.000
391.534;   11.750;  574.000; -301.000
391.663;  -76.750; -583.000; -645.000
391.792;  -91.525; -673.000; -701.000
391.921;   68.375;   -3.000;   15.000
392.050;  139.625; -287.000; -228.000
392.178;  -66.400;-1206.000;-1061.000
392.307;   97.575; -758.000; -712.000
392.436;   45.725; -427.000; -641.000
392.564;   20.300;  166.000;   -6.000
392.693;  -94.475; -860.000; -682.000
392.822;  143.775; -529.000; -534.000
392.950;   44.225; -880.000; -714.000
393.079;  268.775; -188.000; -328.000
393.208;   13.525; -488.000; -511.000
393.336;  -11.250; -170.000; -145.000
393.465;  -49.625; -317.000; -199.000
393.593;   -2.150;   62.000;   79.000
393.722; -153.550;-1121.000; -916.000
393.850;  -39.600; -188.000;  -61.000
393.979; -144.025; -926.000; -805.000
394.107;  -76.575; -517.000; -537.000
394.236;  -44.000; -570.000; -507.000
394.364;  171.875;  383.000;  206.000
394.493;  219.375; -911.000; -767.000
394.621;  -31.625; -955.000; -916.000
394.750;  731.875; -873.000; -923.000
394.878; 3002.150; -247.000; -149.000
395.007; 4081.825; -721.000; -807.000
395.135;  295.625; -790.000; -721.000
395.263;  -86.550;-1038.000;-1040.000
395.392;    8.775;  -25.000; -107.000
395.520; -149.050; -818.000; -679.000
395.648; -101.775; -865.000; -915.000
395.777;  -22.075; -366.000; -405.000
395.905;  -44.775; -449.000; -564.000
396.033;    3.300;  217.000;  172.000
396.162;  394.900; -399.000; -453.000
396.290;  352.700;  -17.000;   -2.000
396.418;   60.250; -555.000; -514.000
396.546;  -88.650; -571.000; -466.000
396.674; -112.100; -850.000; -878.000
396.803;    5.375;  -72.000;  -23.000
396.931;   50.050; -179.000; -199.000
397.059;    0.500;-1026.000; -989.000
397.187; -122.625;-1026.000; -975.000
397.315; -137.350; -884.000; -649.000
397.443;  -97.250; -592.000; -443.000
397.572;  -93.300; -578.000; -424.000
397.700;  -41.750; -607.000; -614.000
397.828;   -5.150;  120.000;  -90.000
397.956;  -50.075; -508.000; -478.000
398.084;  -69.650; -767.000; -626.000
398.212;   28.075;  137.000;  124.000
398.340;    8.925;  -56.000;  159.000
398.468;   -3.600; -390.000; -169.000
398.596; -152.200; -993.000; -953.000
398.724; -122.750; -762.000; -767.000
398.852; -162.225;-1024.000; -976.000
398.980;  -85.450; -560.000; -560.000
399.108;  -68.025; -982.000; -735.000
399.236;   27.375;   13.000;    8.000
399.363;   23.500;  222.000;  196.000
399.491;  -73.625; -404.000; -398.000
399.619; -136.825; -829.000; -800.000
399.747; -111.125; -859.000; -771.000
399.875;   68.950;  220.000;  234.000
400.003;  -60.925; -359.000; -284.000
400.130;  -91.600; -421.000; -341.000
400.258;  -24.175;  -83.000;   38.000
400.386;  -63.675; -352.000; -168.000
400.514;  -42.275; -526.000; -587.000
400.641; -106.000; -928.000; -802.000
400.769; -138.950; -979.000; -888.000
400.897; -130.250; -838.000; -793.000
401.025;  -29.350; -166.000; -152.000
401.152;   12.200;  220.000;   38.000
401.280;  -87.225; -430.000; -429.000
401.408; -114.025; -712.000; -576.000
401.535; -111.450; -735.000; -758.000
401.663; -193.225;-1134.000;-1054.000
401.790;  -90.975; -514.000; -525.000
401.918;   34.475;  436.000;  405.000
402.046;  -22.325;  134.000;  122.000
402.173;  -46.300;  -18.000;    7.000
402.301;  -71.625; -519.000; -397.000
402.428;   38.600;  528.000;  383.000
402.556; -155.900;-1188.000; -913.000
402.683;  -29.875;  -20.000;   -1.000
402.811;  -27.225;  -37.000; -206.000
402.938;  -11.175;   20.000;   27.000
403.066;  159.350; -574.000; -558.000
403.193;  281.250;  299.000;  239.000
403.321;  206.550; -396.000; -574.000
403.448;  266.125;   83.000;   27.000
403.575;  112.100;  -90.000;  -46.000
403.703;  -87.675; -732.000; -557.000
403.830;  -61.525; -531.000; -496.000
403.957; -145.700;-1117.000;-1023.000
404.085;    1.900;  -61.000; -172.000
404.212;   92.625;  -50.000;   63.000
404.339;  285.675; -566.000; -306.000
404.467; 5981.950; -612.000; -524.000
404.594; 3696.325; -287.000; -227.000
404.721;  794.475; -869.000; -764.000
404.848;   64.125; -113.000; -202.000
404.976; -106.075; -856.000; -783.000
405.103;  -17.675;  -14.000;  -82.000
405.230;   -3.725;  190.000;  226.000
405.357;   24.275;  117.000;   44.000
405.484;  283.550;  -49.000;    5.000
405.612;   26.100; -548.000; -563.000
405.739;  -54.025; -488.000; -243.000
405.866;   82.400;  669.000;  385.000
405.993;  -50.775; -398.000; -102.000
406.120; -141.200; -801.000; -887.000
406.247;  -64.675; -323.000; -342.000
406.374;  367.325;  540.000;  629.000
406.501;   52.425; -632.000; -702.000
406.628;  -94.575; -621.000; -589.000
406.755; -108.350; -803.000; -620.000
406.882;  -53.200; -228.000; -277.000
407.009; -101.000; -719.000; -628.000
407.136;   22.250; -480.000; -401.000
407.263;   63.050; -939.000; -829.000
407.390;  -91.775; -692.000; -614.000
407.517; -185.750;-1139.000;-1187.000
407.644;  -60.900; -332.000; -256.000
407.771;  -69.800; -249.000; -287.000
407.898;    3.425;  168.000;  328.000
408.025;  -62.050; -421.000; -313.000
408.151;  -23.675;   82.000;  153.000
408.278;  -65.175; -267.000; -216.000
408.405; -114.500; -931.000; -899.000
408.532;  -77.800; -549.000; -542.000
408.659; -133.625; -677.000; -648.000
408.785; -205.325;-1298.000;-1170.000
408.912;  -76.450; -412.000; -296.000
409.039; -118.475; -610.000; -686.000
409.166; -104.325; -591.000; -555.000
409.292; -111.425; -571.000; -534.000
409.419; -131.475; -665.000; -649.000
409.546;  -95.525; -431.000; -192.000
409.672; -113.650; -713.000; -545.000
409.799;  -47.375;  -36.000;   34.000
409.926;  -47.725; -180.000; -179.000
410.052; -179.600;-1127.000;-1091.000
410.179;  -49.500; -368.000; -392.000
410.305;  -87.800; -375.000; -493.000
410.432;  -45.325; -220.000; -333.000
410.558;  -81.925; -305.000; -380.000
410.685; -117.050; -688.000; -431.000
410.812; -102.400; -409.000; -588.000
410.938; -151.950; -964.000; -808.000
411.065; -106.250; -671.000; -645.000
411.191;  -26.325; -189.000; -174.000
411.317; -138.675; -823.000; -742.000
411.444;  -63.875; -317.000; -246.000
411.570;  -77.025; -339.000; -294.000
411.697; -124.125; -758.000; -752.000
411.823; -173.450; -989.000; -999.000
411.949;  -45.075;  -56.000;   17.000
412.076; -117.625; -539.000; -519.000
412.202; -128.275; -758.000; -757.000
412.329; -132.650; -798.000; -752.000
412.455; -108.750; -821.000; -657.000
412.581;  -27.750;  -15.000;  172.000
412.707;  -68.125; -540.000; -457.000
412.834;    3.650;  156.000;  219.000
412.960;  -89.800; -785.000; -784.000
413.086; -103.525; -743.000; -701.000
413.212;  126.000;  604.000;  578.000
413.339;  -86.625; -685.000; -701.000
413.465;  -25.875; -364.000; -310.000
413.591; -102.275; -757.000; -474.000
413.717;  -67.950; -358.000; -366.000
413.843; -140.100; -839.000; -861.000
413.969;  -63.000;  -47.000; -292.000
414.096; -111.825; -679.000; -679.000
414.222;  -29.700;  -33.000;   85.000
414.348;  -25.200; -652.000; -385.000
414.474;   57.975;   38.000;  -52.000
414.600;  -27.225; -126.000; -144.000
414.726;  -34.175;  -96.000;  -55.000
414.852;  -67.500; -365.000; -342.000
414.978;   31.050;  104.000;  -18.000
415.104;   49.275;   38.000;   80.000
415.230;   16.950; -329.000; -330.000
415.356;   40.475; -409.000; -514.000
415.482;  186.450;   13.000;  -35.000
415.608;  274.200; -247.000; -323.000
415.734;  974.775;   67.000;   38.000
415.860;20404.200; -875.000; -767.000
415.986;14567.075; -685.000; -607.000
416.111; 1240.425; -798.000; -652.000
416.237;  271.925; -424.000; -571.000
416.363; 1171.125; -765.000; -733.000
416.489; 4307.550; -324.000; -251.000
416.615;  467.125; -707.000; -742.000
416.741;  -22.450; -677.000; -784.000
416.866;  -94.775; -673.000; -736.000
416.992; -126.325; -801.000; -818.000
417.118;  -31.750;  -41.000;  -80.000
417.244;  -66.675; -798.000; -531.000
417.369;  -88.125; -801.000; -612.000
417.495;  -25.300; -325.000; -254.000
417.621;  -89.525;-1015.000; -803.000
417.746;   -9.050; -579.000; -572.000
417.872;   47.150; -254.000; -144.000
417.998;   67.675; -515.000; -530.000
418.123; 1081.625;-1073.000; -845.000
418.249; 5566.200; -512.000; -601.000
418.374;  763.550; -916.000; -824.000
418.500;  110.825; -383.000; -482.000
418.626;  103.750;   70.000;  -59.000
418.751;  104.100; -549.000; -448.000
418.877;  206.750; -637.000; -643.000
419.002; 1855.850; -688.000; -560.000
419.128;12952.900; -930.000; -721.000
419.253; 3122.950; -967.000; -837.000
419.379;  415.650; -391.000; -338.000
419.504;  384.100;  325.000;  415.000
419.629;  543.225; -393.000; -212.000
419.755; 3765.075; -317.000; -254.000
419.880;22095.050;  -98.000;   67.000
420.006;11849.325; -280.000; -221.000
420.131;30059.100; -662.000; -775.000
420.256; 4245.925; -315.000; -316.000
420.382;  548.600; -665.000; -687.000
420.507;   61.900; -649.000; -778.000
420.632;  108.250; -337.000; -339.000
420.758;  166.525; -251.000; -425.000
420.883;  -99.625; -876.000; -672.000
421.008; -103.175; -775.000; -619.000
421.133;  -75.775; -509.000; -467.000
421.259;  -50.325; -325.000; -259.000
421.384; -120.450; -834.000; -693.000
421.509;  -76.125;-1052.000; -862.000
421.634;  890.775; -936.000; -820.000
421.759;  373.225; -359.000; -327.000
421.885;  -82.250; -717.000; -656.000
422.010;  -93.625; -673.000; -542.000
422.135; -156.100; -695.000; -727.000
422.260;   16.475;  340.000;  280.000
422.385;  -32.775;   12.000;  -98.000
422.510;   -3.200;  151.000;  -26.000
422.635;   -2.350;  -87.000;  -43.000
422.760;   66.925; -766.000; -791.000
422.885;   43.775;  -57.000;  -80.000
423.010;  -31.150; -112.000; -169.000
423.135; -104.125; -481.000; -561.000
423.260;  -18.775; -150.000; -245.000
423.385;   54.025;  476.000;  222.000
423.510;   27.900;   71.000;  -22.000
423.635;   66.425;  133.000;   45.000
423.760;   50.000;  383.000;  328.000
423.885;   38.500;  336.000;  391.000
424.010;    3.575;  -68.000;  -13.000
424.135;  -19.475;    5.000;  -33.000
424.259;  -89.025; -654.000; -457.000
424.384;  -73.450; -279.000; -272.000
424.509;  -19.900; -260.000; -186.000
424.634; -105.675; -761.000; -623.000
424.759;  -31.025; -688.000; -544.000
424.883;  -16.175; -506.000; -527.000
425.008;  164.000; -502.000; -410.000
425.133; 2012.950; -679.000; -653.000
425.258;  923.175; -517.000; -381.000
425.382;  896.025; -867.000; -774.000
425.507; 2248.875; -487.000; -543.000
425.632;  379.625; -802.000; -663.000
425.756;  460.875; -256.000; -146.000
425.881; 7018.850; -831.000; -857.000
426.006;18725.875; -604.000; -355.000
426.130; 2800.125; -696.000; -508.000
426.255;  365.450; -611.000; -491.000
426.379;  156.250; -189.000; -577.000
426.504;  365.350;  660.000;  544.000
426.629; 4105.850; -519.000; -466.000
426.753; 2764.675;   64.000;  -46.000
426.878;  312.825; -252.000; -288.000
427.002;  142.250; -651.000; -668.000
427.127; 1629.725;  -35.000; -158.000
427.251;11779.100;  372.000;  401.000
427.375; 3295.700; -191.000; -173.000
427.500; 2002.500; -616.000; -610.000
427.624;  673.675; -234.000; -400.000
427.749;   81.450; -216.000; -225.000
427.873;  -54.225; -499.000; -412.000
427.997;  -54.475; -222.000; -230.000
428.122;   67.025;  795.000;  703.000
428.246;   63.700;  433.000;  434.000
428.371; -132.950; -869.000; -773.000
428.495; -115.375; -624.000; -646.000
428.619;  -36.275; -186.000; -117.000
428.743;   12.625;   65.000;  132.000
428.868;    1.950; -732.000; -643.000
428.992; 1213.875; -219.000; -326.000
429.116;  470.775; -329.000; -357.000
429.240;  230.600;  419.000;  426.000
429.365;  -27.250; -454.000; -574.000
429.489;  -65.400; -638.000; -647.000
429.613;    9.175; -236.000; -177.000
429.737;   30.825; -563.000; -432.000
429.861;  286.000; -247.000; -133.000
429.985; 5734.400; -425.000; -305.000
430.109; 6234.850; -770.000; -908.000
430.234;  682.450;   76.000;  -50.000
430.358;   73.275; -250.000; -160.000
430.482;  -63.975; -672.000; -564.000
430.606;  -79.525; -655.000; -375.000
430.730;  -12.925; -437.000; -388.000
430.854;   68.225; -909.000; -835.000
430.978;  -91.500; -795.000; -764.000
431.102;  -91.575; -499.000; -422.000
431.226; -130.075; -874.000; -815.000
431.350;   35.325;  345.000;  422.000
431.474;  -81.500; -661.000; -373.000
431.597; -157.575;-1060.000; -848.000
431.721;  -84.425; -276.000; -267.000
431.845; -121.500; -704.000; -472.000
431.969;  -78.475; -304.000; -349.000
432.093;  -94.175; -395.000; -317.000
432.217;  -19.250;   32.000;   82.000
432.341;  -95.325; -523.000; -518.000
432.464;  -13.600;   96.000;   40.000
432.588;  144.900; -401.000; -329.000
432.712;   52.450;  -52.000;  -52.000
432.836;   28.125;  213.000;  263.000
432.959;  -13.275; -372.000; -311.000
433.083;   82.825;   11.000;    2.000
433.207;  378.150;  285.000;  930.000
433.330; 5283.725; -391.000; -200.000
433.454; 6379.075; -654.000; -638.000
433.578; 3710.950;  583.000;  278.000
433.701;  654.150; -623.000; -675.000
433.825;  107.850; -292.000; -299.000
433.949;  128.625;   28.000;  -72.000
434.072;   16.625; -410.000; -323.000
434.196;  -26.000; -309.000; -117.000
434.319; 3773.000;25482.000;25124.000
434.443;  739.375; -656.000; -603.000
434.566; 2744.650;  281.000;   62.000
434.690;  437.275; -637.000; -383.000
434.813;   42.550; -251.000; -173.000
434.937;  -93.525; -569.000; -696.000
435.060;  -55.150; -423.000; -332.000
435.184;  190.450; -492.000; -217.000
435.307;  120.100;  159.000;  102.000
435.431;  -19.050;  -40.000;   24.000
435.554;  -79.925; -399.000; -240.000
435.677;  -98.700; -350.000; -258.000
435.801;  -40.175;  -25.000;   49.000
435.924;  -30.550;    1.000;  -67.000
436.048; -122.800;-1019.000; -732.000
436.171;  -69.375; -240.000;  -66.000
436.294;  -25.800; -248.000; -229.000
436.417;   90.100; -963.000; -849.000
436.541;  -98.975; -814.000; -840.000
436.664;  -54.050; -242.000; -316.000
436.787;  -33.075;   13.000;  113.000
436.910; -122.625; -792.000; -422.000
437.034;  -10.675;  142.000;  143.000
437.157;   18.325;  -11.000;    0.000
437.280;  -71.000; -392.000; -292.000
437.403; -116.900; -982.000; -869.000
437.526;  449.125; -903.000; -865.000
437.649; 1744.750; -505.000; -332.000
437.772;  240.875; -692.000; -540.000
437.896;   96.825;  700.000;  544.000
438.019; -126.175; -758.000; -503.000
438.142; -100.225; -596.000; -506.000
438.265;  -52.025; -639.000; -670.000
438.388;  419.775; -520.000; -410.000
438.511;   53.275; -597.000; -394.000
438.634;  -54.300; -247.000; -125.000
438.757; -128.750; -693.000; -619.000
438.880;  -35.325;  -34.000;  -57.000
439.003;  -97.100; -417.000; -437.000
439.126;  -73.725; -287.000; -167.000
439.248;  -68.600;  -98.000; -139.000
439.371;  -50.575;    9.000;  -53.000
439.494;   19.775;  510.000;  439.000
439.617;  -61.225;   65.000;  -88.000
439.740; -175.925; -968.000; -816.000
439.863; -150.925; -755.000; -595.000
439.986; -128.675; -476.000; -431.000
440.108;  -53.550; -161.000; -112.000
440.231; -165.450; -950.000; -836.000
440.354;  -41.275;  -64.000; -150.000
440.477;  -10.875; -566.000; -542.000
440.599;  -23.375; -200.000; -225.000
440.722; -121.875; -709.000; -586.000
440.845;   67.875;  751.000;  928.000
440.968; -102.200; -415.000; -311.000
441.090;  -74.525; -199.000;  -33.000
441.213; -174.850;-1021.000; -825.000
441.336;  -58.950; -159.000;   -5.000
441.458;  -88.675; -549.000; -396.000
441.581; -101.275; -628.000; -629.000
441.703;  -62.450; -152.000;   13.000
441.826; -110.500; -557.000; -400.000
441.948;  -36.825;   56.000;   51.000
442.071;   41.600;  555.000;  424.000
442.193; -124.000; -531.000; -485.000
442.316;    1.450;  152.000;   97.000
442.438;   37.100; -233.000;  -10.000
442.561;   58.625;  272.000;  262.000
442.683;  382.650; -809.000; -522.000
442.806;  900.900;   -8.000;   74.000
442.928;  -30.225; -859.000; -604.000
443.051;  -85.825; -577.000; -373.000
443.173;  -94.975; -341.000; -339.000
443.295;  -90.250; -263.000; -371.000
443.418;  -74.450; -321.000;  -29.000
443.540;  -25.875; -106.000;   -4.000
443.662; -110.725; -563.000; -465.000
443.785;  -22.625;  335.000;  199.000
443.907;  -98.325; -362.000; -208.000
444.029; -123.925; -767.000; -494.000
444.152; -149.850; -644.000; -554.000
444.274;  -41.300;  -18.000;  -24.000
444.396; -116.050; -461.000; -221.000
444.518; -139.700; -691.000; -454.000
444.640;  -99.750; -268.000; -111.000
444.763;   -9.675;  388.000;  249.000
444.885; -117.800; -432.000; -392.000
445.007;  -43.300;   35.000;   86.000
445.129; -118.650; -610.000; -515.000
445.251; -119.350; -372.000; -439.000
445.373; -136.400; -537.000; -386.000
445.495;    0.525;  242.000;  350.000
445.617;   39.450;  853.000;  753.000
445.739;  -79.450; -215.000;  -97.000
445.861;  -43.175; -245.000; -112.000
445.984;  -48.450; -267.000; -101.000
446.105;  141.575; -418.000; -251.000
446.227;  474.625; -176.000;  -19.000
446.349;  -24.475; -358.000; -249.000
446.471; -113.100; -615.000; -448.000
446.593;  -76.000; -316.000;   19.000
446.715;  -21.625;  -67.000;   41.000
446.837;   54.225;  697.000;  832.000
446.959; -110.050; -457.000; -478.000
447.081; -133.825; -628.000; -518.000
447.203;   41.775;  862.000;  834.000
447.325;  -89.000; -270.000;   42.000
447.446;  -16.300;  286.000;  530.000
447.568; -159.300; -921.000; -803.000
447.690;  -92.625; -236.000; -245.000
447.812; -151.775; -798.000; -519.000
447.933;  -22.125;  155.000;  127.000
448.055;  -91.750; -306.000; -261.000
448.177;  124.450;   31.000;   79.000
448.299;   21.350; -935.000; -727.000
448.420;    2.025;  -25.000;  159.000
448.542;  -55.200;   -3.000;   33.000
448.664;  -51.475;  109.000;  322.000
448.785;  -50.325;  265.000;   83.000
448.907;  -81.875; -614.000; -353.000
449.028;  -38.925; -771.000; -471.000
449.150;   64.050;  492.000;  589.000
449.272; -188.625;-1044.000; -913.000
449.393;   13.925;  612.000;  694.000
449.515; -136.825; -634.000; -581.000
449.636;  -76.125; -264.000; -155.000
449.758;   65.550;  763.000;  622.000
449.879; -103.275; -498.000; -396.000
450.001;  -97.950; -149.000;  -49.000
450.122;  -48.850;  -95.000;  162.000
450.244;  -34.075;   37.000;  364.000
450.365;  -89.800; -495.000; -301.000
450.486;  -33.675;   80.000;  268.000
450.608;   21.200;  393.000;  326.000
450.729;   67.275;  578.000;  645.000
450.850;    9.100; -574.000; -466.000
450.972;  809.175; -552.000; -389.000
451.093; 5210.250;  190.000;  588.000
451.214; 2185.200; -516.000; -337.000
451.336;  365.000;  773.000;  579.000
451.457;   58.750;  264.000;  393.000
451.578;  -48.700; -118.000;  -74.000
451.699; -129.100; -546.000; -540.000
451.821;  -73.300; -284.000;  -50.000
451.942;   -8.450;  278.000;  285.000
452.063;   24.725;  228.000;  419.000
452.184;  561.725;  -54.000;  -49.000
452.305; 1117.075;  103.000;  170.000
452.427;  123.225; -549.000; -301.000
452.548;  -16.875;   23.000;   79.000
452.669;  -56.075; -257.000;  -89.000
452.790;  -60.225;    3.000;  -18.000
452.911;   -3.500;  195.000;  259.000
453.032;  -73.125; -289.000;  -60.000
453.153;  -45.825;  -29.000;   81.000
453.274;   54.050;  737.000;  868.000
453.395;  -57.475;  -51.000;  175.000
453.516;  116.800; 1317.000; 1388.000
453.637;  -79.475; -205.000; -150.000
453.758;  -52.250;   15.000;   69.000
453.879; -123.700; -462.000; -250.000
454.000;   87.100; 1086.000;  948.000
454.121; -117.650; -554.000; -326.000
454.242; -121.075; -599.000; -383.000
454.362;  -58.000;  -99.000;  114.000
454.483;  -47.425; -309.000; -229.000
454.604;   52.450;  512.000;  580.000
454.725; -130.300; -627.000; -555.000
454.846; -117.875; -474.000; -406.000
454.967;  -26.600;  230.000;  539.000
455.087;  -50.200;  179.000;  153.000
455.208;    6.675;  554.000;  856.000
455.329;  -68.200;  -22.000;   82.000
455.450;   41.375;  473.000;  633.000
455.570;  -75.475; -234.000; -211.000
455.691;  -55.725;  201.000;  407.000
455.812; -116.850; -270.000;  -92.000
455.932;  -59.225;  107.000;  -97.000
456.053;  -85.000;   36.000;   24.000
456.173; -105.500; -433.000; -355.000
456.294; -119.725; -476.000; -303.000
456.415;  -72.100;  -73.000;   70.000
456.535;  -40.850;  297.000;  273.000
456.656;  -47.950;  132.000;  240.000
456.776;  -82.700;    3.000;  298.000
456.897;    8.200;  308.000;  513.000
457.017;  -83.200; -153.000;   -3.000
457.138; -116.950; -402.000; -249.000
457.258;  -39.625;  263.000;  224.000
457.379;  -24.175;  509.000;  521.000
457.499;  -21.050;  443.000;  432.000
457.620; -132.625; -407.000; -231.000
457.740;  -84.000; -132.000;  -11.000
457.860;  -72.425;   87.000;   44.000
457.981;  -48.650;  132.000;  124.000
458.101;  -92.700;  -89.000;   40.000
458.221;  -22.600;  336.000;  402.000
458.342;  -74.450;   -4.000;  -37.000
458.462;   16.875;  617.000;  352.000
458.582;  -47.575; -302.000; -294.000
458.703;    7.125;  303.000;  154.000
458.823;  -24.125;   22.000;  163.000
458.943;   29.150;  341.000;  467.000
459.063;  -23.525; 1124.000;  192.000
459.183;  -28.300;  328.000;  313.000
459.304;   -3.150;  315.000;  517.000
459.424;  -59.950; -246.000;  -89.000
459.544;  341.175;  388.000;  764.000
459.664;  856.750;  499.000;  506.000
459.784;  305.875; 1004.000; 1175.000
459.904;   49.975;  867.000;  744.000
460.024;   63.750;  867.000;  684.000
460.144;  -20.100;  449.000;  554.000
460.264;  -12.825;  515.000;  327.000
460.385;  -94.625; -145.000; -119.000
460.505;   30.250;  905.000;  858.000
460.625;  -95.025;  -17.000;  -68.000
460.745;  -25.425;  396.000;  541.000
460.864;  -64.675;  153.000;  469.000
460.984;    9.875;  499.000;  573.000
461.104;  154.375; 1656.000; 1775.000
461.224;    5.950;  657.000;  650.000
461.344;  -38.925;  431.000;  360.000
461.464;  -50.125;  258.000;  513.000
461.584;  -16.175;  283.000;  466.000
461.704;  -53.575;   58.000;  108.000
461.824;  -69.025;  238.000;  259.000
461.943;  -56.275;  191.000;  130.000
462.063;  -80.075;    2.000;  324.000
462.183;   28.450;  639.000;  717.000
462.303;  101.100; 1678.000; 1230.000
462.422;   32.400;  781.000;  840.000
462.542;  -38.850;  271.000;  391.000
462.662;   20.675;  353.000;  380.000
462.782;  242.575;  833.000;  572.000
462.901;  501.875;  545.000;  717.000
463.021;  294.025; 1702.000; 1638.000
463.141;  -32.175;  337.000;  770.000
463.260;  -26.050;  614.000;  474.000
463.380;   -3.525;  902.000;  884.000
463.499;  -42.925;  342.000;  332.000
463.619;  -45.625;  581.000;  559.000
463.738;  115.500; 1644.000;  903.000
463.858;   -2.150;  657.000;  811.000
463.978;  -23.750;  542.000;  396.000
464.097;   45.075;  921.000; 1114.000
464.217;  127.175; 1196.000; 1143.000
464.336;  102.075; 1068.000; 1130.000
464.455;  -34.050;  328.000;  659.000
464.575;   27.475;  597.000;  602.000
464.694;  159.950; 1204.000; 1179.000
464.814;  131.100; 1190.000; 1138.000
464.933;   69.825; 1095.000; 1027.000
465.052;   81.200; 1412.000; 1054.000
465.172;   68.350;  922.000;  799.000
465.291;  143.300; 1376.000; 1320.000
465.410;    4.025;  462.000;  735.000
465.530;   94.250; 1355.000; 1310.000
465.649;   70.650; 1209.000; 1273.000
465.768;  133.825; 1673.000; 1508.000
465.888;   40.175;  941.000; 1174.000
466.007;   82.775; 1335.000; 1440.000
466.126;   -5.650;  721.000;  641.000
466.245;   45.850; 1176.000; 1187.000
466.364;   11.875;  950.000; 1060.000
466.484;   53.050; 1024.000; 1213.000
466.603;   46.575; 1101.000; 1222.000
466.722;  117.650; 1490.000; 1769.000
466.841;   58.275; 1151.000; 1401.000
466.960;   34.350; 1069.000;  972.000
467.079;  136.425; 1971.000; 1786.000
467.198;   57.325; 1238.000; 1181.000
467.317;   93.525; 1768.000; 1162.000
467.436;   56.425; 1709.000; 1261.000
467.555;  124.150; 1796.000; 1746.000
467.674;   71.125; 1227.000; 1329.000
467.793;   55.100; 1376.000; 1374.000
467.912;   89.000; 1658.000; 1539.000
468.031;  132.775; 2038.000; 1930.000
468.150;  149.025; 1842.000; 1837.000
468.269;  186.050; 2313.000; 2090.000
468.388;  181.525; 2168.000; 2339.000
468.507;  253.575; 2884.000; 2903.000
468.626;  225.950; 2555.000; 2541.000
468.744;  140.325; 2018.000; 2174.000
468.863;  196.400; 2312.000; 2523.000
468.982;  106.500; 1503.000; 1555.000
469.101;  211.775; 2788.000; 2692.000
469.220;  162.075; 2333.000; 2176.000
469.338;  252.200; 2935.000; 3051.000
469.457;  192.325; 2719.000; 2545.000
469.576;  335.850; 3953.000; 3784.000
469.695;  231.875; 2877.000; 3066.000
469.813;  420.675; 4148.000; 4192.000
469.932;  416.475; 4255.000; 4485.000
470.051;  406.175; 4075.000; 4161.000
470.169;  888.075; 4470.000; 4338.000
470.288; 1476.525; 4700.000; 4809.000
470.406;  889.425; 5059.000; 5194.000
470.525;  636.825; 6101.000; 5787.000
470.644;  651.600; 6847.000; 6794.000
470.762;  823.800; 8397.000; 7873.000
470.881;  919.450; 8651.000; 8464.000
470.999; 1045.175; 9685.000; 9151.000
471.118; 1114.450;11174.000;10711.000

