
Integration time [ms]: 100.000
Averaging Nr. [scans]: 40
Smoothing Nr. [pixels]: 0
Data measured with spectrometer [name]: 2101012U2
Wave   ;Sample   ;Dark     ;Reference
[nm]   ;[counts] ;[counts] ;[counts] 

197.733;   68.625;  516.000;  404.000
197.879;  -74.600; -610.000; -634.000
198.025;  -45.275; -475.000; -420.000
198.171;  -70.050; -602.000; -612.000
198.317;  -31.700; -401.000; -316.000
198.463;  -59.025; -655.000; -404.000
198.609;   26.675;  181.000; -137.000
198.755;  -68.975; -644.000; -410.000
198.901;  -54.750; -505.000; -424.000
199.047;  -63.175; -615.000; -488.000
199.193;  -28.525; -230.000; -468.000
199.339;  -39.725; -222.000; -369.000
199.485;   37.125;  330.000;  271.000
199.631;   15.275;  227.000;  310.000
199.777;  -54.050; -466.000; -398.000
199.923;  -65.950; -610.000; -424.000
200.069;    5.925; -141.000;  -58.000
200.215;   55.325;  128.000;  453.000
200.361;   41.875;  243.000;  477.000
200.507;  -52.700; -600.000; -373.000
200.653;  -18.750; -371.000; -194.000
200.798;  -20.850; -215.000; -125.000
200.944;   -9.800; -146.000;  -41.000
201.090;   37.350;   61.000;  222.000
201.236;   10.575; -116.000; -158.000
201.382;  131.950;  874.000;  903.000
201.528;    0.450;  -58.000;  -48.000
201.674;  -49.425; -386.000; -293.000
201.819;  -54.775; -540.000; -439.000
201.965;  -76.300; -699.000; -447.000
202.111;  -26.475; -273.000; -226.000
202.257;  -29.975; -250.000; -238.000
202.402;   -5.750;   13.000;  -36.000
202.548;  -18.700; -169.000; -116.000
202.694;   97.950;  410.000; -183.000
202.840;  -56.175; -603.000; -531.000
202.985;  -82.925; -681.000; -639.000
203.131; -111.550; -832.000; -666.000
203.277;  -24.100; -199.000; -262.000
203.423;  -51.000; -434.000; -520.000
203.568;  -38.325; -462.000; -237.000
203.714;  -55.150; -535.000; -542.000
203.860;  -81.475; -682.000; -641.000
204.005;   10.850;  112.000;  167.000
204.151;   78.000;  561.000;  556.000
204.296;  -47.725; -354.000; -221.000
204.442;  -78.725; -600.000; -547.000
204.588;  -84.425; -592.000; -579.000
204.733;   24.400;  178.000;  168.000
204.879; -129.075;-1018.000; -822.000
205.025;    8.325;  -99.000;  126.000
205.170;   -1.225;  -17.000;   94.000
205.316;   87.200;  438.000;  661.000
205.461;  -78.625; -698.000; -554.000
205.607;   98.200;  609.000;  665.000
205.752;  -72.050; -626.000; -551.000
205.898;  -49.575; -501.000; -391.000
206.043;  -68.550; -578.000; -506.000
206.189;  -35.775; -243.000; -285.000
206.334;   87.375;  554.000;  606.000
206.480;   93.825;  409.000;  239.000
206.625;  -82.950; -529.000; -552.000
206.771;  -40.725; -451.000; -373.000
206.916;  -32.925; -210.000; -537.000
207.062;  -72.225; -545.000; -591.000
207.207;  -68.700; -546.000; -443.000
207.353;   64.000;  185.000;  460.000
207.498;    7.025;  196.000;   85.000
207.643;  -45.425; -501.000; -370.000
207.789; -129.550;-1069.000; -910.000
207.934;  -88.975; -665.000; -713.000
208.080;  -18.975; -154.000;   66.000
208.225;    5.300;  -22.000;  -57.000
208.370;  -75.200; -727.000; -619.000
208.516;  -76.075; -741.000; -487.000
208.661;  -32.175; -127.000;  -69.000
208.806;  -24.975; -165.000; -171.000
208.952; -120.225;-1044.000; -731.000
209.097;   91.000;  378.000;  349.000
209.242;  -38.925; -307.000; -382.000
209.387;   65.675;  392.000;  350.000
209.533;  -49.875; -321.000; -350.000
209.678;   90.825;  472.000;  543.000
209.823;  -39.250; -408.000; -310.000
209.969; -109.500; -860.000; -757.000
210.114; -105.825; -907.000; -719.000
210.259; -124.025; -939.000; -889.000
210.404;   -3.900; -171.000;  103.000
210.549;   11.875;  108.000;    3.000
210.695;  -22.025;   -3.000;  -95.000
210.840;   45.825;   94.000;   67.000
210.985;  -70.525; -484.000; -303.000
211.130;   64.800;  268.000;  406.000
211.275;   21.875;  207.000;  199.000
211.420;  -46.450; -300.000; -289.000
211.566;  -64.200; -536.000; -489.000
211.711;   38.100;  218.000;  157.000
211.856;  -69.200; -545.000; -519.000
212.001;    6.125;  151.000;   44.000
212.146;   21.225;  153.000;   49.000
212.291;  -30.325; -210.000; -186.000
212.436;  -17.525; -280.000;   -6.000
212.581;  -71.100; -685.000; -653.000
212.726;  -70.850; -487.000; -538.000
212.871;  -37.750; -552.000; -217.000
213.016; -144.900;-1172.000;-1029.000
213.161;   62.025;  406.000;  291.000
213.306;  -68.575; -435.000; -577.000
213.451;  -91.325; -778.000; -689.000
213.596;  -52.125; -455.000; -347.000
213.741;  -61.550; -448.000; -538.000
213.886;  -71.375; -498.000; -517.000
214.031;  -25.325; -294.000; -124.000
214.176;  -53.225; -408.000; -341.000
214.321;  -22.275; -296.000; -157.000
214.466;  -23.325; -163.000;  -43.000
214.611;   -0.475;  -61.000;  -10.000
214.756; -114.975; -948.000; -858.000
214.901;  -21.225; -388.000; -226.000
215.046; -129.775; -797.000; -825.000
215.191;   17.125;  128.000;   35.000
215.336;  -22.500; -157.000;  -19.000
215.480;  -73.775; -684.000; -505.000
215.625;   -1.125; -175.000;  -19.000
215.770;  -71.975; -757.000; -662.000
215.915;   -8.350;   -5.000;  -97.000
216.060;    8.175; -113.000;  -21.000
216.205; -111.575; -731.000; -779.000
216.349;  -65.675; -470.000; -533.000
216.494; -138.750; -939.000; -867.000
216.639; -113.475; -823.000; -888.000
216.784;  -94.425; -577.000; -525.000
216.929;   58.975;  392.000;  281.000
217.073;   -4.975; -244.000;  -31.000
217.218;    4.000;   78.000;  -47.000
217.363;  -87.900; -656.000; -618.000
217.507;  -88.850; -623.000; -588.000
217.652; -126.625; -845.000; -874.000
217.797;  -79.350; -708.000; -659.000
217.942; -109.775; -856.000; -720.000
218.086;   76.600;  608.000;  539.000
218.231;  -17.275; -174.000;  -26.000
218.376;  -16.850; -337.000; -229.000
218.520;   11.250;  -41.000;   96.000
218.665;  -30.550; -338.000; -204.000
218.810;  -42.925; -275.000; -233.000
218.954;   25.125;  201.000;   35.000
219.099; -115.800; -713.000; -963.000
219.243;  -52.700; -589.000; -554.000
219.388;  -31.775; -264.000; -136.000
219.532;   -3.125; -116.000; -116.000
219.677;  -61.750; -564.000; -521.000
219.822;   11.100;   33.000;   89.000
219.966;   13.825;   17.000;  -99.000
220.111;  -26.725; -328.000;  -40.000
220.255; -100.325; -797.000; -750.000
220.400;  -17.325; -180.000; -146.000
220.544;  -77.300; -516.000; -450.000
220.689;  -46.675; -422.000; -451.000
220.833;   -6.950; -123.000;  -58.000
220.978;  -25.100; -393.000; -563.000
221.122;   31.650;  319.000;  307.000
221.267; -111.975; -906.000; -837.000
221.411;  -63.550; -478.000; -394.000
221.555;   -7.225; -104.000;  -23.000
221.700;  -31.375; -329.000; -222.000
221.844;   37.075;  255.000;  272.000
221.989;  -50.300; -328.000; -311.000
222.133;  -33.275; -289.000; -307.000
222.277;   -6.325;    5.000;   78.000
222.422;    9.425;  227.000;  113.000
222.566;  -21.875; -381.000; -214.000
222.711;  -59.075; -414.000; -479.000
222.855;  -69.025; -643.000; -586.000
222.999;  -77.425; -642.000; -717.000
223.144;  -25.825; -195.000; -194.000
223.288;   43.425;  423.000;  251.000
223.432;   39.350;  184.000;  230.000
223.576;   22.150;  152.000;  -21.000
223.721;   46.150;  364.000;  273.000
223.865;  -42.450; -472.000; -475.000
224.009;  275.950; 1673.000; 1631.000
224.153;  -94.550; -660.000; -671.000
224.298;  -68.100; -531.000; -489.000
224.442;   -8.025;  -74.000;  -33.000
224.586;   -7.275; -169.000; -106.000
224.730;  -97.625; -858.000; -670.000
224.875; -103.175; -739.000; -688.000
225.019;   22.875;  102.000;  188.000
225.163;   68.300;  208.000;  341.000
225.307;   18.450;   97.000;  -91.000
225.451;   49.425;  360.000;  481.000
225.595;   35.575;  264.000;  176.000
225.739;   -6.425; -170.000;  -94.000
225.884;    6.100;   86.000;    5.000
226.028;  -94.675; -760.000; -626.000
226.172;  -36.900; -260.000; -273.000
226.316; -132.025; -941.000; -902.000
226.460;  -69.850; -645.000; -493.000
226.604;  -48.500; -406.000; -400.000
226.748; -105.725; -836.000; -733.000
226.892;  -25.850; -227.000; -181.000
227.036;  -49.250; -537.000; -447.000
227.180;  -66.425; -551.000; -375.000
227.324;  -64.550; -561.000; -580.000
227.468; -101.775; -819.000; -717.000
227.612;   10.925;  242.000;  -28.000
227.756; -102.700; -845.000; -698.000
227.900;   54.225;  342.000;  441.000
228.044;  -53.375; -509.000; -290.000
228.188;   50.600;  448.000;  568.000
228.332;  -75.850; -546.000; -472.000
228.476;  -21.225; -223.000; -149.000
228.620;  -16.925; -210.000; -150.000
228.764;   63.375;  431.000;  349.000
228.908;  -10.700; -155.000;   30.000
229.052;  -51.275; -615.000; -528.000
229.195;  -19.525; -172.000;   13.000
229.339;   -6.875; -235.000; -305.000
229.483;  -26.050;    5.000; -162.000
229.627;  -17.225; -156.000;  139.000
229.771;  -56.475; -218.000; -294.000
229.915;    6.450;  230.000;   79.000
230.059;  -93.325; -648.000; -663.000
230.202;  -34.500; -370.000; -317.000
230.346;  -12.575; -107.000;  107.000
230.490;  -64.900; -489.000; -521.000
230.634; -104.050; -736.000; -553.000
230.777;   84.050;  478.000;  509.000
230.921;  -49.375; -450.000; -359.000
231.065;  -50.450; -246.000; -286.000
231.209;   31.975;  261.000;  265.000
231.352;   13.500;   54.000;   40.000
231.496;   18.600;  568.000;  188.000
231.640;  -87.100; -693.000; -621.000
231.783;   67.850;  546.000;  525.000
231.927;  -41.775; -294.000; -365.000
232.071; -114.850; -962.000; -736.000
232.214;  -98.150; -980.000; -764.000
232.358;  -98.925; -683.000; -599.000
232.502;   11.475;  -19.000;    7.000
232.645; -129.900;-1090.000; -927.000
232.789;  -22.050; -257.000; -218.000
232.933;  -32.925; -407.000; -224.000
233.076; -128.400;-1038.000; -897.000
233.220;  -98.375; -752.000; -777.000
233.363;  -75.375; -669.000; -477.000
233.507;   66.600;  371.000;  129.000
233.650; -102.275; -764.000; -834.000
233.794;   68.125;  438.000;  461.000
233.938;  -63.625; -530.000; -362.000
234.081;  -20.100;  -93.000;   31.000
234.225;  -63.650; -631.000; -539.000
234.368; -105.600; -773.000; -723.000
234.512;  -48.175; -385.000; -299.000
234.655;  -91.975; -582.000; -555.000
234.798;  -59.675; -493.000; -466.000
234.942; -123.725; -884.000;-1002.000
235.085;  -65.975; -651.000; -443.000
235.229;  -77.225; -405.000; -410.000
235.372;  -49.250; -247.000; -191.000
235.516;  -65.425; -397.000; -321.000
235.659;   22.375;   92.000;  121.000
235.802;  -19.075;  -38.000;  -22.000
235.946;   34.375;  335.000;  215.000
236.089;   27.525;  126.000;  250.000
236.233;   61.550;  275.000;  298.000
236.376;  -45.600; -235.000; -378.000
236.519;  -54.100; -297.000; -319.000
236.663;  -18.275; -215.000; -117.000
236.806; -138.650;-1029.000; -999.000
236.949;   72.325;  543.000;  431.000
237.092;   52.825;  412.000;  391.000
237.236;  -77.250; -589.000; -502.000
237.379;   62.075;  352.000;  428.000
237.522; -119.150; -879.000; -768.000
237.666;  -11.975; -271.000;   18.000
237.809; -128.550; -851.000; -823.000
237.952;   41.325;  469.000;  271.000
238.095;  -56.025; -447.000; -442.000
238.238;   85.500;  688.000;  700.000
238.382;    2.675;  166.000;  103.000
238.525;  -69.275; -598.000; -511.000
238.668; -134.775;-1060.000; -985.000
238.811;  -89.150; -638.000; -643.000
238.954;  -66.550; -483.000; -334.000
239.097;   86.050;  617.000;  664.000
239.241;   24.375;  394.000;  326.000
239.384;  -36.425; -254.000; -214.000
239.527;  -58.950; -424.000; -224.000
239.670; -142.275; -994.000;-1091.000
239.813; -113.400; -696.000; -658.000
239.956;   96.700;  579.000;  473.000
240.099; -110.000; -778.000; -725.000
240.242;   63.550;  428.000;  432.000
240.385;   42.875;  466.000;  450.000
240.528;  -74.450; -706.000; -473.000
240.671;   25.600;  189.000;  134.000
240.814;  -41.675; -441.000; -158.000
240.957; -109.550; -767.000; -578.000
241.100;  -84.825; -779.000; -755.000
241.243; -143.775;-1234.000; -893.000
241.386;  -65.200; -508.000; -379.000
241.529; -107.775; -735.000; -547.000
241.672;  -74.300; -566.000; -495.000
241.815; -112.700; -832.000; -808.000
241.958;  -30.775; -125.000; -182.000
242.101;  -79.900; -545.000; -390.000
242.244;  -32.675; -270.000; -325.000
242.387;  -38.550; -304.000; -246.000
242.530;   69.675;  470.000;  134.000
242.673;  -47.325; -381.000; -309.000
242.815; -129.400; -925.000; -899.000
242.958;  -64.150; -482.000; -381.000
243.101;   11.950;  132.000;  187.000
243.244;  -79.650; -564.000; -521.000
243.387;  -50.050; -313.000; -316.000
243.530; -116.450; -657.000; -674.000
243.672;    0.550;   43.000;  -92.000
243.815;  -51.575; -355.000; -283.000
243.958;    5.200;   98.000;  -26.000
244.101;   -8.125;   59.000;  -16.000
244.243;  -17.525;  -47.000;  101.000
244.386; -104.975; -761.000; -630.000
244.529;  -29.700; -132.000; -139.000
244.672; -150.175;-1154.000; -951.000
244.814; -105.475; -621.000; -794.000
244.957;  -42.525; -380.000; -304.000
245.100;  -74.450; -489.000; -489.000
245.242;  -56.275; -387.000; -374.000
245.385;   -6.725;  -59.000;  -39.000
245.528; -117.800; -871.000; -705.000
245.670;   95.175;  612.000;  634.000
245.813;  -88.275; -599.000; -547.000
245.956;  -35.800; -324.000; -275.000
246.098;  -86.900; -508.000; -650.000
246.241;    5.625;  194.000;   48.000
246.383;   -7.675; -119.000;  -73.000
246.526;  -71.600; -454.000; -525.000
246.669; -104.225; -889.000; -780.000
246.811;   36.750;  172.000;   -1.000
246.954;  -65.700; -512.000; -426.000
247.096;  -22.500;  -84.000;   -6.000
247.239;  -76.700; -482.000; -445.000
247.381;  -66.950; -647.000; -488.000
247.524;  101.450;  645.000;  679.000
247.666;  -11.825;   58.000;   11.000
247.809; -116.525; -887.000; -691.000
247.951;  -14.800;  -75.000;  138.000
248.094;   24.300;  432.000;  308.000
248.236; -165.175;-1262.000;-1238.000
248.378;   -2.075; -356.000;  -81.000
248.521;  -24.350; -334.000; -337.000
248.663;  -38.575; -236.000; -267.000
248.806;   -8.350; -300.000; -266.000
248.948;  -93.925; -886.000; -763.000
249.090;  -48.850; -428.000; -398.000
249.233;  -42.100; -344.000; -381.000
249.375;  -72.100; -474.000; -451.000
249.518;  -24.600;  -83.000; -133.000
249.660;    1.050; -103.000;    3.000
249.802; -180.625;-1303.000;-1189.000
249.945;  -74.175; -612.000; -540.000
250.087; -111.875; -834.000; -768.000
250.229;  -45.425; -362.000; -480.000
250.371;  -69.625; -494.000; -439.000
250.514;  -55.300; -310.000; -244.000
250.656;  -62.275;   69.000;  102.000
250.798; -116.675; -849.000; -800.000
250.940;  -60.650; -322.000; -322.000
251.083;  -19.500; -335.000; -111.000
251.225;   47.200;  338.000;  310.000
251.367;  -40.400; -274.000; -373.000
251.509;  -34.050; -265.000; -210.000
251.651; -103.400; -731.000; -671.000
251.794;   93.975;  538.000;  632.000
251.936; -101.375; -821.000; -747.000
252.078;  -75.800; -540.000; -461.000
252.220;  -77.775; -645.000; -477.000
252.362;   90.175;  344.000;  462.000
252.504;  -64.975; -677.000; -584.000
252.646; -109.475; -875.000; -722.000
252.788;   -6.900;   14.000; -128.000
252.931;  -22.500; -257.000; -253.000
253.073;  -40.775; -376.000; -317.000
253.215;    8.650;  141.000;  122.000
253.357;  -13.150;   82.000; -153.000
253.499;  -45.175; -374.000; -234.000
253.641;  -93.275; -749.000; -594.000
253.783;  -88.225; -609.000; -527.000
253.925;  -91.100; -586.000; -591.000
254.067; -101.425; -744.000; -667.000
254.209;  -36.125; -391.000; -259.000
254.351; -139.800; -865.000; -883.000
254.493;  -59.850; -441.000; -417.000
254.635; -140.375; -936.000; -818.000
254.777;  -92.750; -752.000; -687.000
254.918;  -67.000; -512.000; -430.000
255.060;  -71.825; -551.000; -395.000
255.202;  -56.425; -473.000; -261.000
255.344;  -77.350; -658.000; -455.000
255.486;  -71.125; -471.000; -406.000
255.628; -107.075; -780.000; -781.000
255.770;  -82.975; -676.000; -536.000
255.912;  -73.975; -559.000; -468.000
256.053;  -89.200; -730.000; -508.000
256.195;  161.900; 1008.000;  903.000
256.337; -102.575; -861.000; -595.000
256.479;   68.500;  532.000;  416.000
256.621;  -56.825; -394.000; -212.000
256.762;  -95.125; -789.000; -742.000
256.904;   56.700;  485.000;  487.000
257.046;  -55.725; -381.000; -271.000
257.188;  -46.675; -351.000; -264.000
257.329;  -64.900; -525.000; -464.000
257.471; -122.075; -939.000; -807.000
257.613;  -80.075; -584.000; -498.000
257.755; -149.225;-1073.000; -982.000
257.896;   46.450;  286.000;  392.000
258.038;  -70.625; -403.000; -352.000
258.180;  -48.800; -354.000; -279.000
258.321;  -77.300; -581.000; -457.000
258.463;   -0.400;  -71.000;  133.000
258.605;  -80.225; -562.000; -570.000
258.746; -117.800; -886.000; -772.000
258.888; -155.850;-1026.000;-1020.000
259.029;   18.400;  121.000;   -8.000
259.171;  -91.150; -614.000; -550.000
259.313;   -2.525;  -49.000;  -47.000
259.454;  -75.725; -536.000; -414.000
259.596;  -51.600; -483.000; -390.000
259.737;  -73.900; -590.000; -474.000
259.879;   32.100;  217.000;  311.000
260.020;   99.225;  901.000;  636.000
260.162;  -30.300; -146.000; -253.000
260.303; -110.475; -768.000; -687.000
260.445;  -89.950; -609.000; -613.000
260.586;   24.775;  392.000;  157.000
260.728;  -44.200; -360.000; -248.000
260.869; -123.150; -350.000; -343.000
261.011;   78.325;  706.000;  537.000
261.152;  -53.075; -479.000; -319.000
261.293;  -90.075; -576.000; -595.000
261.435;  -25.075; -219.000; -184.000
261.576;  -48.175; -455.000; -325.000
261.718;   58.250;  420.000;  470.000
261.859; -136.450; -940.000; -949.000
262.000; -114.575; -951.000;-1016.000
262.142;  -26.075;  -52.000;  -60.000
262.283; -118.925; -808.000; -691.000
262.424;  -84.075; -666.000; -625.000
262.566; -149.000;-1161.000; -983.000
262.707; -112.100; -840.000; -830.000
262.848; -123.050; -769.000; -726.000
262.990;  -50.025; -362.000; -345.000
263.131;   94.900;  650.000;  681.000
263.272;  -11.450;  -61.000;  -41.000
263.413;  -90.050; -589.000; -561.000
263.555;  -79.875; -669.000; -143.000
263.696;  -94.150; -550.000; -641.000
263.837;  -58.425; -449.000; -551.000
263.978;   -1.425;   -5.000;  -77.000
264.119;  -36.550; -283.000; -264.000
264.261; -106.850; -847.000; -630.000
264.402;    2.925;   33.000;   40.000
264.543;  -80.025; -509.000; -524.000
264.684;   -8.100;   61.000;  -50.000
264.825;  -55.800; -816.000; -538.000
264.966;   -4.475;  -84.000;  -67.000
265.107; -121.225; -646.000; -670.000
265.248; -115.075; -825.000; -812.000
265.390;   -7.350;  152.000;   -9.000
265.531;  -10.000; -238.000; -107.000
265.672;  -92.700; -557.000; -630.000
265.813;   72.275;  563.000;  439.000
265.954; -132.100; -959.000; -940.000
266.095;  -10.025; -372.000; -322.000
266.236;  -86.825; -686.000; -548.000
266.377;  -43.650; -243.000; -297.000
266.518;  -71.950; -619.000; -547.000
266.659;   10.775;  170.000;  268.000
266.800;    6.625;   83.000;   85.000
266.941;  -66.775; -487.000; -478.000
267.082;   29.825;  354.000;   99.000
267.223;  -58.600; -344.000; -273.000
267.364; -110.800; -892.000; -686.000
267.504;  -21.600;    3.000;  135.000
267.645;   -3.500;  160.000;   67.000
267.786;  -31.350; -147.000;  -86.000
267.927;  -73.300; -473.000; -379.000
268.068;  -12.400; -186.000;  -61.000
268.209;  -55.600; -175.000; -413.000
268.350;  -61.725; -388.000; -532.000
268.490;  -82.650; -648.000; -521.000
268.631;   30.825;  127.000;  225.000
268.772; -114.500; -874.000; -647.000
268.913;  -51.475; -328.000; -476.000
269.054;  -19.525; -117.000;   12.000
269.194;  -44.325; -418.000; -402.000
269.335; -158.075;-1137.000;-1074.000
269.476;  -20.050;   33.000;  -35.000
269.617;  -42.100; -347.000; -392.000
269.757;  -81.200; -713.000; -646.000
269.898; -111.950; -856.000; -613.000
270.039;  -71.225; -415.000; -405.000
270.180; -141.375; -952.000; -816.000
270.320;  -16.675; -190.000; -250.000
270.461;  -49.250; -277.000; -249.000
270.602;   -2.625; -186.000; -156.000
270.742; -115.575; -868.000; -943.000
270.883;  -65.750; -442.000; -390.000
271.023;  -56.575; -358.000; -357.000
271.164;  -64.700; -607.000; -528.000
271.305;  -82.625; -666.000; -654.000
271.445;  -99.525; -722.000; -683.000
271.586;  -65.625; -462.000; -283.000
271.726;  -46.425; -397.000; -322.000
271.867;  -51.950; -594.000; -534.000
272.008;  167.075; -473.000; -285.000
272.148;  116.075;  462.000;  468.000
272.289;   12.625; -113.000; -181.000
272.429;   16.525;   19.000;  185.000
272.570;  -86.525; -633.000; -737.000
272.710; -103.100; -825.000; -775.000
272.851;  -21.225;  113.000; -130.000
272.991; -153.825;-1173.000;-1077.000
273.131;  -58.225; -419.000; -459.000
273.272;  -99.300; -683.000; -723.000
273.412;   10.775; -143.000;  -31.000
273.553;  -70.100; -488.000; -507.000
273.693;  135.900;  913.000;  858.000
273.834; -101.225; -894.000; -692.000
273.974;  -65.300; -664.000; -615.000
274.114; -101.475; -772.000; -560.000
274.255;   85.875;  414.000;  373.000
274.395;    1.300; -180.000; -125.000
274.535;   48.700;  199.000;  350.000
274.676;   26.500;  225.000;   94.000
274.816;   12.900;  110.000;   34.000
274.956;  -85.550; -624.000; -690.000
275.097;  -59.250;-1014.000; -922.000
275.237; -117.725; -913.000; -803.000
275.377; -104.925; -778.000; -689.000
275.517; -146.825; -878.000; -937.000
275.658;  -56.000; -590.000; -555.000
275.798;  -72.050; -606.000; -413.000
275.938;   29.800;  215.000;  323.000
276.078;  -78.875; -626.000; -395.000
276.218;   10.025;   99.000;  104.000
276.359; -139.800;-1026.000;-1024.000
276.499;  -69.950; -605.000; -446.000
276.639;  -35.500; -305.000; -151.000
276.779;  -50.600; -475.000; -357.000
276.919; -105.875; -783.000; -624.000
277.059;   -8.700; -261.000; -212.000
277.199;  -41.550; -357.000; -259.000
277.340;   50.150;  287.000;  175.000
277.480; -117.975; -840.000; -693.000
277.620;   30.775;  192.000;   16.000
277.760; -196.050;-1533.000;-1294.000
277.900;    4.100;  113.000;   33.000
278.040;   22.475;  137.000;  159.000
278.180;   41.350;  270.000;  170.000
278.320;    0.600;   21.000;   56.000
278.460;  -79.175; -443.000; -469.000
278.600; -105.150; -708.000; -598.000
278.740;   59.625;  448.000;  224.000
278.880;  -66.600; -768.000; -791.000
279.020;   -1.725; -194.000; -144.000
279.160;  -78.350; -672.000; -595.000
279.300; -114.425; -926.000; -873.000
279.440;  -86.475; -709.000; -622.000
279.579;  -30.525;-1014.000; -929.000
279.719;  -47.400; -410.000; -394.000
279.859;   54.800;   -4.000;   41.000
279.999;   33.200; -208.000;  101.000
280.139;  -24.500; -435.000; -387.000
280.279;  -69.625; -708.000; -745.000
280.419;  -13.875; -229.000; -147.000
280.559;  -32.650; -259.000; -180.000
280.698;  -97.975; -790.000; -639.000
280.838;  -95.425; -778.000; -800.000
280.978; -106.425; -846.000; -790.000
281.118; -111.175; -811.000; -704.000
281.257;   -4.950;   24.000;    6.000
281.397; -122.925;-1094.000; -960.000
281.537;  -82.000; -599.000; -712.000
281.677;  -22.575; -150.000; -101.000
281.816;  -91.275; -700.000; -630.000
281.956;  -38.550; -193.000; -257.000
282.096;  -67.725; -539.000; -396.000
282.235;  -95.250; -672.000; -638.000
282.375;  -27.375; -243.000;  -98.000
282.515;  -99.775; -715.000; -707.000
282.654;   18.975;   29.000;  106.000
282.794;   28.850;  388.000;  244.000
282.934;  -51.875; -530.000; -491.000
283.073; -136.400;-1030.000; -857.000
283.213;  -58.100; -460.000; -467.000
283.353;  -38.750; -408.000; -349.000
283.492;  -41.475; -264.000; -296.000
283.632;  -41.125; -254.000; -168.000
283.771; -100.400; -859.000; -730.000
283.911;  -54.375; -369.000; -260.000
284.050; -111.925; -794.000; -748.000
284.190; -160.125;-1229.000;-1096.000
284.329; -139.775;-1055.000; -964.000
284.469;  -67.375; -516.000; -591.000
284.608;  -50.875; -559.000; -598.000
284.748;  -86.250; -614.000; -570.000
284.887;   -2.400;  -87.000;  -20.000
285.027; -133.875; -844.000; -892.000
285.166;  -42.400; -192.000; -249.000
285.306;    5.500; -116.000;  -33.000
285.445;  -48.875; -229.000; -343.000
285.584;  -90.475; -630.000; -494.000
285.724;  -39.275; -282.000; -322.000
285.863; -105.500; -857.000; -507.000
286.002;  -57.050; -366.000; -276.000
286.142; -105.650; -715.000; -622.000
286.281;  -64.300; -525.000; -493.000
286.420;  -78.150; -554.000; -417.000
286.560;   95.875;  653.000;  623.000
286.699; -134.800; -958.000; -912.000
286.838;  -69.550; -590.000; -591.000
286.978;  -90.325; -533.000; -537.000
287.117; -148.700;-1085.000; -950.000
287.256;  -31.700; -228.000; -211.000
287.395;  -56.850; -197.000; -378.000
287.535;  -46.225; -370.000; -298.000
287.674;  -81.650; -509.000; -484.000
287.813;   55.350;  661.000;  533.000
287.952; -128.875;-1010.000; -871.000
288.091; -151.175;-1049.000; -915.000
288.231;   12.950;   13.000;   15.000
288.370; -178.225;-1217.000;-1200.000
288.509;  -89.650; -728.000; -645.000
288.648;  -89.300; -770.000; -548.000
288.787;  -30.475; -243.000;  -87.000
288.926;  -60.350; -454.000; -475.000
289.065;  111.925;  859.000;  672.000
289.204;  -47.150; -377.000; -217.000
289.344;  -93.200; -791.000; -690.000
289.483;   16.025;  416.000;  304.000
289.622;  -26.225; -291.000; -149.000
289.761;  -15.375; -309.000; -166.000
289.900; -109.000; -785.000; -626.000
290.039;  -16.675;  -12.000;  -95.000
290.178;  -44.550; -274.000; -180.000
290.317;  -87.825; -618.000; -479.000
290.456;  -60.825; -463.000; -451.000
290.595; -147.750; -961.000; -833.000
290.734; -136.850; -904.000; -891.000
290.873;  -68.025; -456.000; -420.000
291.011; -101.250; -833.000; -843.000
291.150; -104.100; -770.000; -682.000
291.289;  -22.600; -343.000; -110.000
291.428;  -96.425; -599.000; -480.000
291.567;  -49.675; -370.000; -442.000
291.706;   -3.875;  109.000;  154.000
291.845;  -95.500; -597.000; -505.000
291.984; -163.825;-1234.000;-1061.000
292.122;   90.025;  602.000;  582.000
292.261;   45.800;  620.000;  463.000
292.400;   14.450; -144.000;  211.000
292.539; -115.925; -959.000; -813.000
292.678;  -46.825; -325.000; -300.000
292.816; -151.000;-1136.000; -965.000
292.955;  -95.575; -844.000; -684.000
293.094;  -24.375; -173.000; -337.000
293.233;  -55.425; -556.000; -400.000
293.371;  -33.750; -225.000;  -84.000
293.510; -104.650; -866.000; -780.000
293.649; -138.175; -959.000; -924.000
293.787;  -79.825;-1083.000;-1012.000
293.926;   -3.575; -113.000;  -32.000
294.065;  -43.700; -379.000; -290.000
294.203;   46.775;  298.000;  406.000
294.342;    5.125;   74.000;  156.000
294.481; 6347.200;51180.000; -836.000
294.619;  -27.025; -425.000; -582.000
294.758; -146.650;-1230.000;-1137.000
294.896;   64.725; -125.000;    5.000
295.035; -127.975;-1040.000;-1006.000
295.174; -120.050;-1082.000; -954.000
295.312;  -36.775; -323.000; -203.000
295.451;  -18.425; -307.000; -428.000
295.589;  -65.675; -389.000; -518.000
295.728;   22.175; -292.000; -165.000
295.866;    3.325;  -36.000;  -51.000
296.005;  -72.050; -584.000; -341.000
296.143;  -69.875; -558.000; -596.000
296.282; -118.625; -957.000; -881.000
296.420;  -81.050; -657.000; -557.000
296.559;  -96.225; -892.000; -633.000
296.697;   -0.025; -847.000; -665.000
296.835;   29.825;-1141.000;-1002.000
296.974;   37.700;  -23.000;   39.000
297.112;   10.575; -443.000; -504.000
297.251;  -73.275; -815.000; -755.000
297.389;   55.600; -576.000; -438.000
297.527;   36.875; -145.000;  -83.000
297.666;  -47.750; -486.000; -438.000
297.804;  -47.500; -404.000; -264.000
297.942;   -8.425; -136.000; -161.000
298.081;  -13.675; -183.000;   63.000
298.219;   62.000;  -17.000;  -19.000
298.357;   44.075; -144.000;  -71.000
298.495;    7.700; -810.000; -812.000
298.634;   63.050;  245.000;  219.000
298.772;   25.600; -220.000; -338.000
298.910;  -34.725; -309.000; -182.000
299.048;  -12.625; -130.000; -153.000
299.187;  -23.675; -350.000; -250.000
299.325;   21.900;   52.000;  122.000
299.463;   47.125; -389.000; -299.000
299.601;   98.100; -327.000; -271.000
299.739; -113.325; -908.000; -883.000
299.877;  -93.025; -791.000; -703.000
300.016;  -65.800;-1095.000; -935.000
300.154;  131.750;  -19.000; -161.000
300.292;   51.275; -428.000; -348.000
300.430;   21.800; -408.000; -291.000
300.568; -115.375; -940.000; -874.000
300.706;  -61.875; -366.000; -469.000
300.844;  -90.075;-1108.000; -979.000
300.982;  121.700;  246.000;  282.000
301.120; -108.000; -965.000; -866.000
301.258;  -70.800; -812.000; -705.000
301.396;   44.925;  104.000;  -41.000
301.534;   52.475; -218.000; -293.000
301.672;  -14.025; -664.000; -521.000
301.810;   14.925; -613.000; -545.000
301.948;  106.150;   53.000;  149.000
302.086;  531.875; -250.000;  -32.000
302.224;  830.450; -610.000; -585.000
302.362;   19.325; -558.000; -622.000
302.500;  -34.425; -923.000; -893.000
302.638;  102.325;  128.000;  245.000
302.776;   -5.100; -352.000; -408.000
302.913;   56.950;  447.000;  236.000
303.051;   -6.925;  -86.000;  -23.000
303.189;   43.475;   90.000;  118.000
303.327;  -34.975; -341.000; -256.000
303.465;  -80.100; -832.000; -588.000
303.603;  -96.650; -805.000; -604.000
303.740;   89.900;  417.000;  241.000
303.878;   -5.350; -800.000; -759.000
304.016; -102.575; -915.000; -790.000
304.154; -120.500;-1123.000;-1152.000
304.291;  -39.675; -505.000; -554.000
304.429;    5.750;  102.000;   74.000
304.567; -125.975; -908.000; -893.000
304.705;  -55.850; -408.000; -515.000
304.842;   77.700; -616.000; -540.000
304.980;   44.200;  215.000;   35.000
305.118;   27.050; -367.000; -365.000
305.255;  -78.850; -945.000; -927.000
305.393;   43.125;  178.000;  239.000
305.531; -116.925;-1173.000; -956.000
305.668;  -71.375; -663.000; -582.000
305.806;   74.400; -358.000; -439.000
305.943;   92.625; -629.000; -637.000
306.081;   39.725; -378.000; -267.000
306.219; -113.425; -863.000; -748.000
306.356;    9.550;  158.000;   27.000
306.494;  115.575;  981.000;  761.000
306.631;   -4.050;  -11.000;  -55.000
306.769;   -9.725; -613.000; -485.000
306.906;  -20.325; -284.000; -258.000
307.044;  -66.475; -473.000; -488.000
307.181;  -77.125; -410.000; -332.000
307.319;   18.025;  112.000;   87.000
307.456; -172.150;-1191.000;-1153.000
307.594;  -98.875; -980.000; -727.000
307.731;  -15.750; -371.000; -164.000
307.868;   -4.750;  -15.000;   20.000
308.006; -130.600; -961.000; -847.000
308.143;  -64.650; -618.000; -330.000
308.281;   92.925;  -37.000; -254.000
308.418;  -25.375; -748.000; -640.000
308.555;  -82.000; -400.000; -250.000
308.693;  -70.125; -577.000; -573.000
308.830; -115.350; -712.000; -657.000
308.967;  -18.650; -215.000;  -95.000
309.105;  -45.375; -507.000; -396.000
309.242;    8.325; -468.000; -367.000
309.379;  176.550; -577.000; -655.000
309.517;  -76.400; -936.000; -948.000
309.654; -106.850; -910.000; -734.000
309.791;  -77.625; -662.000; -580.000
309.928; -108.525; -977.000; -914.000
310.065;  168.425;  819.000;  697.000
310.203;  -28.525; -825.000; -850.000
310.340;   -6.500; -465.000; -321.000
310.477;  -71.750; -412.000; -516.000
310.614;  -69.450; -383.000; -473.000
310.751;  -84.800; -427.000; -518.000
310.889;  -30.700;    1.000;   11.000
311.026; -145.950;-1161.000; -939.000
311.163;  -45.850; -386.000; -380.000
311.300;  -71.100; -512.000; -479.000
311.437;  -82.375; -658.000; -619.000
311.574; -164.125;-1226.000; -985.000
311.711;  -65.450; -595.000; -433.000
311.848;  -40.250; -380.000; -388.000
311.985;   13.050;  270.000;   93.000
312.122; -114.775; -932.000; -762.000
312.259; -136.725; -941.000; -994.000
312.396;  -81.175; -508.000; -551.000
312.533;  -90.375; -812.000; -790.000
312.670; -133.950;-1070.000; -898.000
312.807;  -41.875; -352.000; -367.000
312.944;  -80.300; -513.000; -611.000
313.081;  -26.725; -150.000; -415.000
313.218; -102.625;-1111.000; -867.000
313.355;   -9.625; -531.000; -449.000
313.492;   -0.900; -455.000; -292.000
313.629;  123.825;  815.000;  735.000
313.766; -158.725;-1176.000;-1008.000
313.902;  -11.600; -186.000;   21.000
314.039;  -41.875; -372.000; -289.000
314.176;   24.700;  286.000;  192.000
314.313;  -75.175; -569.000; -473.000
314.450;  -80.075; -788.000; -684.000
314.587;  -60.550; -468.000; -480.000
314.723;    5.250;  -78.000;  130.000
314.860;   29.350;  318.000;  332.000
314.997;   25.075;  223.000;  142.000
315.134;  -38.550; -385.000; -368.000
315.270;  -32.425; -480.000; -496.000
315.407; -132.650;-1094.000; -967.000
315.544;  -51.250; -657.000; -538.000
315.681;  -72.150; -681.000; -565.000
315.817;   27.500; -133.000; -176.000
315.954;   10.550; -613.000; -392.000
316.091; -121.525;-1045.000;-1023.000
316.227;  -20.875;  -71.000; -179.000
316.364;   -9.375;   23.000;    6.000
316.500;  -44.450; -113.000; -300.000
316.637;  -45.450; -181.000; -302.000
316.774;  -92.425; -625.000; -358.000
316.910;  -86.600; -598.000; -629.000
317.047;  -62.525; -487.000; -351.000
317.183;  -47.425; -435.000; -566.000
317.320;   -5.650; -367.000; -321.000
317.456;  -66.250; -733.000; -805.000
317.593; -105.075; -598.000; -641.000
317.729;    3.075;  168.000;  -67.000
317.866; -207.800;-1434.000;-1285.000
318.002;  -87.925; -708.000; -948.000
318.139; -101.725; -883.000; -867.000
318.275; -109.925;-1003.000; -738.000
318.412;  -77.750; -517.000; -336.000
318.548;  -51.200; -751.000; -720.000
318.685; -116.800; -985.000; -888.000
318.821;  -91.100; -762.000; -735.000
318.957;  -29.375;   34.000;  -23.000
319.094;   40.725;  297.000;  154.000
319.230;  -91.150; -756.000; -742.000
319.367;   95.725; -471.000; -520.000
319.503;   38.600; -538.000; -436.000
319.639;  -99.025; -877.000; -793.000
319.775;  -62.475; -750.000; -685.000
319.912;  -56.750; -424.000; -519.000
320.048; -106.950;-1184.000;-1184.000
320.184;   83.650;   59.000;   70.000
320.321;  -55.625; -497.000; -467.000
320.457;   51.625;  475.000;  662.000
320.593;  -70.425; -375.000; -382.000
320.729; -106.675; -732.000; -734.000
320.866;  -78.175; -577.000; -635.000
321.002;  -87.700; -759.000; -809.000
321.138;  -12.275; -135.000; -211.000
321.274;   63.625; -148.000; -115.000
321.410;  -38.950; -585.000; -353.000
321.546;  -41.225;-1011.000; -911.000
321.683;   47.950;  400.000;  185.000
321.819;   17.700;  -48.000; -117.000
321.955; -114.900; -743.000; -722.000
322.091;  -53.775; -585.000; -540.000
322.227;  -25.675; -382.000; -202.000
322.363;  -11.000; -320.000; -215.000
322.499;  -48.400; -343.000; -331.000
322.635;  153.525;  636.000;  443.000
322.771;   19.075; -139.000;   12.000
322.907;   90.250;  129.000;  327.000
323.043;  -34.150; -115.000; -206.000
323.179;  -43.275; -394.000; -363.000
323.315;    7.000; -401.000; -371.000
323.451;   68.075; -328.000; -236.000
323.587;   59.400;  -60.000;  -77.000
323.723;    3.000; -682.000; -601.000
323.859;  -22.275; -258.000;  -76.000
323.995;  -32.075; -467.000; -409.000
324.131; -113.625; -967.000; -892.000
324.267;  -39.400; -254.000; -276.000
324.402; -128.425; -960.000; -983.000
324.538;  -18.150; -279.000; -104.000
324.674;   24.650;  164.000;   77.000
324.810;  101.550;  226.000;  308.000
324.946;   -9.500; -810.000; -658.000
325.082;  -76.725; -568.000; -475.000
325.217;  -18.500;  -62.000;   16.000
325.353; -104.450; -764.000; -659.000
325.489;  -94.250; -540.000; -506.000
325.625;  -70.850; -579.000; -525.000
325.760;   58.400;  517.000;  376.000
325.896;  -27.250; -515.000; -702.000
326.032;  -56.450; -403.000; -352.000
326.168;  -57.300; -462.000; -369.000
326.303;  -52.025; -352.000; -461.000
326.439;  -19.325; -336.000; -276.000
326.575;   -0.500; -190.000;  -29.000
326.710;  -15.850; -156.000;  -30.000
326.846;   -3.025;  146.000;  103.000
326.982; -103.375; -530.000; -548.000
327.117;  -84.750; -481.000; -442.000
327.253;  -91.675; -745.000; -742.000
327.388; -144.925;-1137.000;-1153.000
327.524;  -55.275; -811.000; -578.000
327.659;  -11.225;  -58.000;  -22.000
327.795;  -14.725;   69.000;   45.000
327.931;  -91.925; -723.000; -499.000
328.066;  -24.425; -417.000; -276.000
328.202;  -21.875;   12.000; -129.000
328.337;  105.950;  957.000;  713.000
328.473;   55.900;  -12.000;  -74.000
328.608;  -29.200; -256.000; -267.000
328.743;  -87.125; -799.000; -664.000
328.879;   26.050;  214.000;  114.000
329.014;  -38.825; -102.000; -122.000
329.150;  -86.300; -358.000; -483.000
329.285;  -71.050; -465.000; -466.000
329.421;  -59.425; -548.000; -246.000
329.556;  -25.675;  -36.000;   85.000
329.691;  -86.825; -633.000; -615.000
329.827;  -69.425; -626.000; -480.000
329.962;  -48.525;  131.000; -301.000
330.097;  -93.775; -673.000; -585.000
330.233;  -43.200; -410.000; -223.000
330.368; -122.925; -839.000; -628.000
330.503;   -4.575;    3.000;   98.000
330.638;   15.975;  -93.000; -125.000
330.774;  -60.500; -609.000; -530.000
330.909;  -51.775; -434.000; -244.000
331.044;  -90.450; -714.000; -708.000
331.179; -167.675;-1217.000;-1109.000
331.315;    3.525;   77.000;   20.000
331.450;   13.650;  157.000;  285.000
331.585;  -89.275; -805.000; -706.000
331.720;  -91.850; -510.000; -460.000
331.855;  -20.650;  -35.000; -102.000
331.990;  259.850;   62.000;  138.000
332.126;  122.175; -110.000;   71.000
332.261;  -18.125; -379.000; -265.000
332.396;  -14.700; -135.000; -242.000
332.531;  -91.400;-1074.000;-1031.000
332.666;   42.725; -519.000; -363.000
332.801; -108.325; -726.000; -807.000
332.936;  -28.250; -192.000; -122.000
333.071; -129.925; -870.000; -817.000
333.206;   13.475;  307.000;  379.000
333.341;   21.425;  344.000;  418.000
333.476;  -89.500; -627.000; -623.000
333.611;  -32.500; -251.000; -173.000
333.746;  -45.125; -381.000; -464.000
333.881; -124.775; -973.000; -935.000
334.016; -124.625; -936.000; -917.000
334.151; -121.300; -746.000; -702.000
334.286;   23.850;  152.000;  186.000
334.421;  -19.525; -125.000; -178.000
334.556;  -90.600; -611.000; -567.000
334.690;  -89.250; -631.000; -577.000
334.825;   56.950;  381.000;   83.000
334.960;  -59.550; -285.000; -413.000
335.095;   17.275;  135.000;  -91.000
335.230; -109.650; -722.000; -738.000
335.365; -137.850;-1084.000; -990.000
335.499; -140.700;-1108.000;-1037.000
335.634;   29.300;    9.000;  534.000
335.769;  -93.400; -755.000; -720.000
335.904;  -61.950; -603.000; -561.000
336.038;  -44.775; -735.000; -657.000
336.173; -118.100;-1206.000;-1194.000
336.308;   14.900; -116.000; -189.000
336.443;   26.375; -544.000; -634.000
336.577;  -71.500; -936.000; -787.000
336.712;   58.500;   -4.000;  -12.000
336.847;  -34.700; -724.000; -607.000
336.981;   53.025; -272.000; -208.000
337.116;  262.750;  615.000;  501.000
337.250;  137.675; -434.000; -421.000
337.385;  249.975; -297.000; -208.000
337.520;   87.350; -632.000; -603.000
337.654;  -42.775; -215.000; -126.000
337.789; -121.875; -989.000; -933.000
337.923;  -24.275; -104.000; -205.000
338.058;  -86.175; -673.000; -738.000
338.192;  -47.225; -611.000; -488.000
338.327;  -13.850;  -18.000; -155.000
338.461;  -60.750; -299.000; -469.000
338.596;  -87.700; -780.000; -638.000
338.730;  -95.075; -767.000; -803.000
338.865;   81.950;  -46.000; -140.000
338.999;  -67.350; -846.000; -702.000
339.134;  -28.850; -634.000; -536.000
339.268;   15.375; -741.000; -603.000
339.403;  357.500; -740.000; -775.000
339.537;  107.975; -894.000; -820.000
339.671; -118.550; -829.000; -813.000
339.806;  -47.950; -556.000; -512.000
339.940;    7.775; -261.000; -235.000
340.074;  -92.725; -685.000; -510.000
340.209;  -46.325; -351.000; -230.000
340.343;  -90.575; -517.000; -573.000
340.477;  145.700;  998.000; 1036.000
340.612;  -46.425;-1033.000; -900.000
340.746;  119.600; -199.000; -243.000
340.880;  -78.300; -924.000; -785.000
341.014;  -19.900;  -45.000; -154.000
341.149; -118.975; -756.000; -718.000
341.283; -101.275; -839.000; -754.000
341.417;  -97.250;-1124.000; -938.000
341.551;   86.675; -768.000; -708.000
341.685;  -36.300; -633.000; -611.000
341.820;  -49.200; -562.000; -493.000
341.954;  -53.075; -218.000; -349.000
342.088; -149.675;-1102.000;-1019.000
342.222;   66.150;  565.000;  618.000
342.356;  -66.050; -395.000; -335.000
342.490; -100.950; -880.000; -841.000
342.624;  -33.875; -339.000; -242.000
342.758;  -28.025; -364.000; -312.000
342.892;  -70.150; -710.000; -585.000
343.026;  -26.100;  -58.000; -116.000
343.160;  -62.775; -426.000; -376.000
343.294;  -75.825; -474.000; -337.000
343.428;  -32.175; -488.000; -448.000
343.562;   -7.475; -172.000;  -23.000
343.696;  -33.225; -385.000; -314.000
343.830;  -16.575; -362.000; -356.000
343.964;    1.975; -231.000; -168.000
344.098;  793.300;  199.000;   70.000
344.232;  660.825; -266.000; -127.000
344.366;   66.425; -567.000; -453.000
344.500;   38.200; -665.000; -744.000
344.634;   21.450; -324.000; -164.000
344.768;  -25.400; -531.000; -341.000
344.902;   26.325;  278.000;  256.000
345.035;  -80.525; -556.000; -496.000
345.169; -136.775; -933.000; -656.000
345.303;  -39.925; -308.000; -482.000
345.437;  -73.100; -826.000; -717.000
345.571;  -58.375; -675.000; -594.000
345.704;  -68.300; -309.000; -532.000
345.838;  -24.300; -331.000; -284.000
345.972;  -54.750; -543.000; -495.000
346.106;  158.150; -179.000; -190.000
346.239;  400.750; -312.000; -243.000
346.373;    1.225; -343.000; -302.000
346.507; -145.775; -950.000; -962.000
346.640;  126.850;  -30.000;   13.000
346.774;  -56.775; -650.000; -797.000
346.908;  -30.550; -138.000;  -11.000
347.041; -103.550; -646.000; -593.000
347.175;    1.150;  259.000;   27.000
347.309;  -69.775; -698.000; -628.000
347.442; -103.000; -883.000; -732.000
347.576;  245.850;  670.000;  668.000
347.709;  182.425; -123.000;  -52.000
347.843; -103.350; -933.000; -825.000
347.976;   34.125;  235.000;  294.000
348.110; -181.200;-1268.000;-1186.000
348.243;  -96.650; -679.000; -772.000
348.377;   14.250;  -26.000;   60.000
348.510;   48.350;  403.000;  540.000
348.644;  -38.700;  -37.000; -159.000
348.777;    2.150;  180.000;  191.000
348.911;  -31.200; -142.000; -112.000
349.044;  154.850;  471.000;  448.000
349.178;  120.775;-1069.000;-1006.000
349.311;  114.525;  141.000;  255.000
349.444;  -11.300; -927.000; -813.000
349.578;  -34.900; -347.000; -200.000
349.711; -104.825; -959.000; -862.000
349.845;  -15.175; -661.000; -591.000
349.978; -146.425;-1224.000;-1137.000
350.111;  -96.675; -546.000; -612.000
350.244;  -74.100; -596.000; -700.000
350.378;    6.100; -392.000; -393.000
350.511;  -67.925; -393.000; -426.000
350.644; -106.500; -808.000; -806.000
350.778;    6.575;  168.000;  104.000
350.911;    6.375;  134.000;  140.000
351.044; -100.050; -685.000; -615.000
351.177;  -40.500; -321.000; -281.000
351.310;  -17.600;    3.000; -131.000
351.444;  -90.750; -888.000; -788.000
351.577;  103.875;  140.000;   90.000
351.710;   83.200;  593.000;  417.000
351.843;  -49.625; -165.000;  -77.000
351.976;  -10.150;  149.000;  -79.000
352.109;  -95.150; -621.000; -612.000
352.242;  -32.025; -464.000; -419.000
352.376;  -73.275; -580.000; -636.000
352.509;  146.075; -437.000; -356.000
352.642;   -7.925; -654.000; -604.000
352.775;   34.075; -141.000;  -98.000
352.908; -123.350; -933.000; -904.000
353.041; -107.150; -814.000; -824.000
353.174;  -67.950; -551.000; -424.000
353.307;  -90.575; -753.000; -764.000
353.440;   80.025;  541.000;  453.000
353.573; -114.350; -957.000;-1008.000
353.706;  -26.100; -384.000; -558.000
353.839;  -21.150; -264.000; -220.000
353.971;  -86.325; -657.000; -512.000
354.104;  -86.575; -896.000; -835.000
354.237;  -49.800; -627.000; -662.000
354.370;  -90.550; -846.000; -879.000
354.503; -191.100;-1231.000;-1308.000
354.636;  -37.500; -529.000; -348.000
354.769; -137.600; -937.000; -860.000
354.902;   -9.075; -230.000; -139.000
355.034;  -20.025; -164.000; -220.000
355.167;  -24.550; -262.000; -162.000
355.300;  -92.800;-1061.000; -880.000
355.433;  993.475;  -71.000;  -14.000
355.565; 1513.225; -402.000; -384.000
355.698;  394.100; -356.000; -296.000
355.831;  -10.000; -882.000; -801.000
355.964;   52.525; -285.000; -170.000
356.096;  -87.850; -856.000; -843.000
356.229;   -8.725; -523.000; -530.000
356.362;  336.450; -373.000; -266.000
356.494;  606.150; -229.000; -162.000
356.627;  432.250;  269.000;  377.000
356.760;  670.225;  120.000;   53.000
356.892;  934.300; -286.000; -601.000
357.025;  593.375;  403.000;  389.000
357.157;  519.375; -167.000; -179.000
357.290;  690.225; -856.000; -713.000
357.423;  189.500; -667.000; -556.000
357.555;  109.600; -217.000; -228.000
357.688;  107.925; -483.000; -364.000
357.820;  365.775; -870.000; -877.000
357.953; 3265.300; -563.000; -589.000
358.085;  675.850; -632.000; -612.000
358.218;  915.550;-1131.000; -932.000
358.350;  179.300;  -58.000;  312.000
358.483; -122.000;-1300.000;-1187.000
358.615;  -37.150;-1182.000;-1078.000
358.747;  -88.150;-1187.000;-1058.000
358.880;   -2.200; -810.000; -744.000
359.012;   -6.225; -376.000; -202.000
359.145;  -44.575; -480.000; -511.000
359.277;   40.950; -962.000; -913.000
359.409; 2706.000;  536.000;  231.000
359.542;  662.250; -738.000; -688.000
359.674;   48.075;   46.000;   13.000
359.806;  -69.025; -565.000; -438.000
359.939;  -57.375; -617.000; -516.000
360.071;  -13.075; -583.000; -579.000
360.203;  -25.775; -411.000; -364.000
360.335;   45.200;  164.000;  -16.000
360.468;  156.275; -249.000; -307.000
360.600; 2201.775; -547.000; -454.000
360.732; 2810.775; -546.000; -423.000
360.864;  341.825;-1216.000;-1044.000
360.996;  213.775; -516.000; -554.000
361.129;   21.200; -389.000; -598.000
361.261;   16.250;  110.000; -113.000
361.393;  -32.825; -252.000; -214.000
361.525;   27.900;   94.000;  244.000
361.657;  -49.825; -821.000; -703.000
361.789;   -0.350; -139.000; -155.000
361.921;  184.050; -642.000; -593.000
362.053;  229.675;  524.000;  541.000
362.185;   42.875;  288.000;   72.000
362.318;  -83.275; -709.000; -705.000
362.450;  111.150;  294.000;  444.000
362.582;   64.675; -913.000; -870.000
362.714;  -37.300; -353.000; -332.000
362.846;  -87.725; -606.000; -490.000
362.978; -148.425; -941.000; -811.000
363.109;   29.800; -161.000; -260.000
363.241;  362.250; -739.000; -749.000
363.373;  410.300; -649.000; -564.000
363.505;  668.525; -186.000;  -91.000
363.637;  125.425; -787.000; -601.000
363.769; -122.575;-1067.000;-1080.000
363.901;  -61.300; -596.000; -654.000
364.033; -130.550;-1103.000;-1062.000
364.165;  -12.725; -283.000; -283.000
364.296;   77.125; -316.000; -177.000
364.428;   60.900;-1344.000;-1220.000
364.560;  -78.200; -679.000; -661.000
364.692;  -64.325; -738.000; -835.000
364.824;  205.125; -588.000; -456.000
364.955;  422.500; -402.000; -564.000
365.087;  936.600;-1097.000; -852.000
365.219;   24.125; -686.000; -816.000
365.351;  -82.700; -526.000; -572.000
365.482;   41.200;  300.000;  240.000
365.614;  -53.250; -402.000; -314.000
365.746;  -97.775; -729.000; -752.000
365.877; -103.225; -706.000; -672.000
366.009;  263.800;  -35.000;  -62.000
366.141;  -94.500;-1249.000;-1134.000
366.272; -116.525; -803.000; -719.000
366.404; -108.750;-1005.000; -874.000
366.535;  -13.425; -139.000;  -12.000
366.667;  -91.550; -644.000; -649.000
366.799;   46.025;  353.000;  203.000
366.930; -119.650; -862.000; -996.000
367.062;  118.550; -639.000; -613.000
367.193;  148.700; -872.000; -842.000
367.325;  -80.450; -580.000; -684.000
367.456;   43.950; -246.000;   31.000
367.588;  162.600; -371.000; -318.000
367.719;   27.850;  -44.000;  -45.000
367.851;  -18.550; -222.000; -241.000
367.982;  -66.800; -875.000; -732.000
368.113;   78.950; -475.000; -358.000
368.245; -116.075; -960.000; -841.000
368.376;  -22.400; -254.000; -302.000
368.508;  -40.250; -188.000; -263.000
368.639; -142.025;-1166.000;-1034.000
368.770;  -26.700; -670.000; -589.000
368.902;  -74.150; -836.000; -926.000
369.033; -110.650; -906.000; -855.000
369.164;  -45.050; -720.000; -653.000
369.296; -116.575; -452.000; -601.000
369.427;  -12.225; -209.000; -144.000
369.558;  -68.350; -593.000; -377.000
369.689;  -90.475; -721.000; -569.000
369.821; -133.050; -951.000; -845.000
369.952;  -26.300;   42.000; -108.000
370.083;  -50.350; -229.000; -108.000
370.214;  -94.050; -735.000; -650.000
370.345;  -12.425;   65.000;   81.000
370.477;  -81.350; -810.000; -790.000
370.608;  195.625; -328.000; -264.000
370.739;  -81.150;-1233.000;-1292.000
370.870;  -60.875;-1102.000; -923.000
371.001;   63.350; -378.000; -467.000
371.132;  -88.000; -754.000; -735.000
371.263;  -26.600;  -42.000; -148.000
371.394; -124.325; -841.000; -748.000
371.525;   39.450;  345.000;  225.000
371.657;  -97.425; -808.000; -670.000
371.788;   67.650;  103.000;  199.000
371.919;  144.100; -384.000; -304.000
372.050; 3189.600;  -91.000; -156.000
372.181;  923.450; -188.000; -294.000
372.311;  316.425;   42.000; -127.000
372.442;   15.375; -457.000; -451.000
372.573;  -29.800; -444.000; -340.000
372.704; -134.050;-1008.000; -980.000
372.835;   71.750; -228.000; -289.000
372.966;  -66.000; -646.000; -554.000
373.097;  -71.800; -575.000; -711.000
373.228;  -62.950; -717.000; -542.000
373.359;  110.800; -824.000; -536.000
373.490;  789.900; -881.000; -727.000
373.620;  973.225;-1001.000; -803.000
373.751; 1523.600; -332.000; -396.000
373.882;  666.325; -663.000; -733.000
374.013;   35.175; -449.000; -262.000
374.143;  -60.825; -581.000; -659.000
374.274; -101.600; -987.000; -908.000
374.405;  147.850; -388.000; -276.000
374.536;  362.650; -526.000; -387.000
374.666;  940.575; -759.000; -807.000
374.797;  175.825; -817.000; -868.000
374.928;  729.025; -710.000; -560.000
375.058;  750.225; -535.000; -500.000
375.189;   62.375;  -59.000;  -93.000
375.320; -115.850; -928.000;-1034.000
375.450;  -57.500; -625.000; -616.000
375.581;  -51.000; -526.000; -436.000
375.712;  -33.075; -574.000; -250.000
375.842;  253.325; -438.000; -415.000
375.973;  160.600; -554.000; -513.000
376.103;  -55.275; -665.000; -648.000
376.234;  -90.600; -531.000; -552.000
376.364;  -52.025; -944.000; -867.000
376.495;  293.925;  925.000;  529.000
376.625;  -30.075; -472.000; -485.000
376.756;   44.375; -709.000; -678.000
376.886;  -87.875;-1178.000;-1026.000
377.017;   55.775;-1048.000;-1061.000
377.147;  359.800; -786.000; -782.000
377.278;   56.075;  174.000;  228.000
377.408; -126.700; -801.000; -815.000
377.538; -103.775; -707.000; -693.000
377.669;  -71.250; -537.000; -613.000
377.799; -105.225; -645.000; -635.000
377.929;  -72.925; -610.000; -428.000
378.060; -131.150; -781.000; -847.000
378.190;  -61.650; -726.000; -531.000
378.320;  -45.775; -401.000; -406.000
378.451;   -5.800; -131.000;  -22.000
378.581;  -19.375;  -67.000; -110.000
378.711;  143.700; 1035.000;  866.000
378.841;  -29.200; -533.000; -675.000
378.972;  -83.175; -871.000; -751.000
379.102;   -5.025; -652.000; -579.000
379.232;  -18.050; -126.000;  -73.000
379.362; -114.900;-1001.000; -885.000
379.492;    1.750; -373.000; -424.000
379.623;   86.150;    0.000;  111.000
379.753; -107.075;-1107.000; -974.000
379.883;  157.500;   59.000;  156.000
380.013;  -21.850;-1081.000;-1017.000
380.143; -108.300;-1097.000;-1056.000
380.273; -106.600; -985.000; -861.000
380.403;    1.825; -344.000; -257.000
380.533;  -28.600; -651.000; -664.000
380.663;   57.375;  173.000;  128.000
380.793; -107.325;-1027.000;-1074.000
380.923;  -21.800; -103.000;  -34.000
381.053;  -97.200; -613.000; -623.000
381.183;  -31.600; -106.000; -248.000
381.313;    0.975; -656.000; -470.000
381.443;   23.075; -692.000; -473.000
381.573;  162.050; -402.000; -409.000
381.703;  200.150;-1249.000;-1095.000
381.833; -152.875;-1454.000;-1336.000
381.963;   99.825; -134.000;  -87.000
382.093; 1203.925; -925.000; -909.000
382.223;  369.475; -713.000; -602.000
382.353;  -26.200; -801.000; -608.000
382.482;  302.450;-1091.000; -964.000
382.612;  659.750; -872.000; -644.000
382.742;  359.550; -695.000; -622.000
382.872;  212.375; -565.000; -551.000
383.002;   63.375;  347.000; -132.000
383.131;  -16.425; -226.000; -160.000
383.261;  -40.075; -706.000; -768.000
383.391;  278.725; -552.000; -377.000
383.521; 3215.425;  451.000;  263.000
383.650;  727.425; -947.000; -904.000
383.780;  -19.700; -783.000; -656.000
383.910;  105.450;  880.000;  802.000
384.039;    7.225; -794.000; -656.000
384.169;  148.050;-1205.000;-1017.000
384.299;  -38.325; -650.000; -662.000
384.428;  -98.225; -764.000; -680.000
384.558;  -48.875; -308.000; -275.000
384.687;  -35.725; -414.000; -334.000
384.817;   23.175;   75.000;   -2.000
384.947;    7.050; -234.000; -141.000
385.076;  269.950;  982.000;  912.000
385.206;  107.250;  369.000;  480.000
385.335;  -46.225; -549.000; -417.000
385.465;  -76.900; -655.000; -663.000
385.594;  138.350;  -53.000;  -44.000
385.724;  338.050; -868.000; -838.000
385.853;  102.575; -296.000; -270.000
385.982; 1186.950; -743.000; -787.000
386.112; 1811.250;-1052.000; -871.000
386.241;  115.425; -307.000; -312.000
386.371;    7.450; -174.000;  -87.000
386.500;  -25.775; -825.000; -789.000
386.629;   14.575; -874.000; -817.000
386.759;   67.300;  -43.000;   68.000
386.888;  -11.000; -170.000; -250.000
387.017;  -88.425; -648.000; -620.000
387.147;  -81.175; -771.000; -798.000
387.276;   -6.975; -410.000; -397.000
387.405;   -2.775; -398.000; -342.000
387.535;  -55.925; -452.000; -361.000
387.664;  -69.050; -692.000; -620.000
387.793;   44.550; -198.000; -113.000
387.922;  464.975;  255.000;  200.000
388.052;   -8.500; -576.000; -423.000
388.181;    7.875; -342.000; -472.000
388.310;   -5.675; -889.000; -710.000
388.439;  -46.550; -749.000; -742.000
388.568;  161.100;  365.000;  244.000
388.697;  890.675; -756.000; -653.000
388.826;  149.575; -768.000; -666.000
388.956;   41.150; -285.000; -307.000
389.085;  -33.925; -347.000; -287.000
389.214; -112.750; -842.000; -872.000
389.343;  -84.500; -645.000; -413.000
389.472;  421.350;  126.000;  149.000
389.601;  499.375;   91.000;    0.000
389.730;  -17.225; -568.000; -687.000
389.859;   50.825;  226.000;   46.000
389.988;  147.675; -423.000; -408.000
390.117;  117.900; -168.000; -146.000
390.246;  -16.400; -331.000; -320.000
390.375;   72.775; -673.000; -626.000
390.504;  -68.025; -703.000; -621.000
390.633; -100.400; -672.000; -726.000
390.761;  -65.000; -732.000; -645.000
390.890;   16.825;   -4.000; -130.000
391.019;  -46.375; -421.000; -441.000
391.148; -135.925; -826.000; -855.000
391.277;  -86.800; -576.000; -493.000
391.406;  -95.450; -821.000; -805.000
391.534;   12.550;  574.000; -301.000
391.663;  -64.900; -583.000; -645.000
391.792; -105.900; -673.000; -701.000
391.921;   82.675;   -3.000;   15.000
392.050;  140.325; -287.000; -228.000
392.178;  -64.925;-1206.000;-1061.000
392.307;  107.575; -758.000; -712.000
392.436;   35.000; -427.000; -641.000
392.564;   19.775;  166.000;   -6.000
392.693;  -91.900; -860.000; -682.000
392.822;  157.150; -529.000; -534.000
392.950;   41.800; -880.000; -714.000
393.079;  270.075; -188.000; -328.000
393.208;   15.125; -488.000; -511.000
393.336;  -19.825; -170.000; -145.000
393.465;  -38.025; -317.000; -199.000
393.593;   -1.975;   62.000;   79.000
393.722; -145.175;-1121.000; -916.000
393.850;  -40.175; -188.000;  -61.000
393.979; -153.300; -926.000; -805.000
394.107;  -69.375; -517.000; -537.000
394.236;  -33.650; -570.000; -507.000
394.364;  157.975;  383.000;  206.000
394.493;  183.925; -911.000; -767.000
394.621;  -35.450; -955.000; -916.000
394.750;  715.200; -873.000; -923.000
394.878; 2979.925; -247.000; -149.000
395.007; 3935.750; -721.000; -807.000
395.135;  285.300; -790.000; -721.000
395.263;  -89.700;-1038.000;-1040.000
395.392;    1.800;  -25.000; -107.000
395.520; -150.450; -818.000; -679.000
395.648;  -94.450; -865.000; -915.000
395.777;  -34.450; -366.000; -405.000
395.905;  -68.275; -449.000; -564.000
396.033;   10.350;  217.000;  172.000
396.162;  334.875; -399.000; -453.000
396.290;  292.075;  -17.000;   -2.000
396.418;   66.200; -555.000; -514.000
396.546;  -95.925; -571.000; -466.000
396.674; -102.600; -850.000; -878.000
396.803;  -15.650;  -72.000;  -23.000
396.931;   62.450; -179.000; -199.000
397.059;   -8.000;-1026.000; -989.000
397.187; -114.575;-1026.000; -975.000
397.315; -140.725; -884.000; -649.000
397.443; -102.000; -592.000; -443.000
397.572; -102.150; -578.000; -424.000
397.700;  -29.500; -607.000; -614.000
397.828;    2.125;  120.000;  -90.000
397.956;  -43.350; -508.000; -478.000
398.084;  -72.400; -767.000; -626.000
398.212;   23.350;  137.000;  124.000
398.340;   -0.875;  -56.000;  159.000
398.468;   24.250; -390.000; -169.000
398.596; -137.075; -993.000; -953.000
398.724; -111.025; -762.000; -767.000
398.852; -176.025;-1024.000; -976.000
398.980;  -69.925; -560.000; -560.000
399.108;  -66.675; -982.000; -735.000
399.236;   26.100;   13.000;    8.000
399.363;   17.225;  222.000;  196.000
399.491;  -81.225; -404.000; -398.000
399.619; -133.525; -829.000; -800.000
399.747; -112.875; -859.000; -771.000
399.875;   59.125;  220.000;  234.000
400.003;  -61.725; -359.000; -284.000
400.130;  -97.700; -421.000; -341.000
400.258;  -23.100;  -83.000;   38.000
400.386;  -71.850; -352.000; -168.000
400.514;  -59.025; -526.000; -587.000
400.641; -122.800; -928.000; -802.000
400.769; -153.150; -979.000; -888.000
400.897; -125.875; -838.000; -793.000
401.025;  -29.525; -166.000; -152.000
401.152;    0.850;  220.000;   38.000
401.280;  -89.350; -430.000; -429.000
401.408; -114.150; -712.000; -576.000
401.535; -109.650; -735.000; -758.000
401.663; -201.300;-1134.000;-1054.000
401.790;  -85.400; -514.000; -525.000
401.918;   29.825;  436.000;  405.000
402.046;  -17.675;  134.000;  122.000
402.173;  -61.075;  -18.000;    7.000
402.301;  -74.700; -519.000; -397.000
402.428;   35.450;  528.000;  383.000
402.556; -139.900;-1188.000; -913.000
402.683;  -30.975;  -20.000;   -1.000
402.811;  -28.300;  -37.000; -206.000
402.938;   -0.100;   20.000;   27.000
403.066;  180.225; -574.000; -558.000
403.193;  295.950;  299.000;  239.000
403.321;  227.175; -396.000; -574.000
403.448;  298.625;   83.000;   27.000
403.575;  122.950;  -90.000;  -46.000
403.703;  -94.525; -732.000; -557.000
403.830;  -62.025; -531.000; -496.000
403.957; -137.175;-1117.000;-1023.000
404.085;    9.275;  -61.000; -172.000
404.212;   92.200;  -50.000;   63.000
404.339;  276.150; -566.000; -306.000
404.467; 5952.875; -612.000; -524.000
404.594; 3660.800; -287.000; -227.000
404.721;  793.150; -869.000; -764.000
404.848;   72.075; -113.000; -202.000
404.976; -121.150; -856.000; -783.000
405.103;  -16.775;  -14.000;  -82.000
405.230;    3.450;  190.000;  226.000
405.357;   14.575;  117.000;   44.000
405.484;  256.200;  -49.000;    5.000
405.612;   38.400; -548.000; -563.000
405.739;  -57.275; -488.000; -243.000
405.866;   80.150;  669.000;  385.000
405.993;  -40.225; -398.000; -102.000
406.120; -147.625; -801.000; -887.000
406.247;  -62.425; -323.000; -342.000
406.374;  380.800;  540.000;  629.000
406.501;   60.025; -632.000; -702.000
406.628;  -90.750; -621.000; -589.000
406.755; -102.850; -803.000; -620.000
406.882;  -57.550; -228.000; -277.000
407.009; -104.350; -719.000; -628.000
407.136;   20.525; -480.000; -401.000
407.263;   81.625; -939.000; -829.000
407.390;  -80.200; -692.000; -614.000
407.517; -178.125;-1139.000;-1187.000
407.644;  -63.650; -332.000; -256.000
407.771;  -67.475; -249.000; -287.000
407.898;   10.275;  168.000;  328.000
408.025;  -71.800; -421.000; -313.000
408.151;  -11.725;   82.000;  153.000
408.278;  -52.900; -267.000; -216.000
408.405; -127.100; -931.000; -899.000
408.532;  -69.325; -549.000; -542.000
408.659; -117.800; -677.000; -648.000
408.785; -193.400;-1298.000;-1170.000
408.912;  -68.350; -412.000; -296.000
409.039; -129.100; -610.000; -686.000
409.166; -112.125; -591.000; -555.000
409.292; -119.525; -571.000; -534.000
409.419; -112.575; -665.000; -649.000
409.546;  -85.925; -431.000; -192.000
409.672; -129.775; -713.000; -545.000
409.799;  -19.175;  -36.000;   34.000
409.926;  -62.775; -180.000; -179.000
410.052; -178.650;-1127.000;-1091.000
410.179;  -60.300; -368.000; -392.000
410.305;  -86.475; -375.000; -493.000
410.432;  -52.075; -220.000; -333.000
410.558;  -94.800; -305.000; -380.000
410.685; -113.350; -688.000; -431.000
410.812; -113.125; -409.000; -588.000
410.938; -145.000; -964.000; -808.000
411.065; -101.900; -671.000; -645.000
411.191;  -34.850; -189.000; -174.000
411.317; -116.925; -823.000; -742.000
411.444;  -75.500; -317.000; -246.000
411.570;  -69.675; -339.000; -294.000
411.697; -126.575; -758.000; -752.000
411.823; -179.325; -989.000; -999.000
411.949;  -41.125;  -56.000;   17.000
412.076; -125.000; -539.000; -519.000
412.202; -115.325; -758.000; -757.000
412.329; -155.575; -798.000; -752.000
412.455; -115.750; -821.000; -657.000
412.581;  -14.975;  -15.000;  172.000
412.707;  -75.550; -540.000; -457.000
412.834;    7.350;  156.000;  219.000
412.960;  -99.875; -785.000; -784.000
413.086; -105.725; -743.000; -701.000
413.212;  136.275;  604.000;  578.000
413.339;  -79.775; -685.000; -701.000
413.465;   -8.675; -364.000; -310.000
413.591; -100.925; -757.000; -474.000
413.717;  -64.100; -358.000; -366.000
413.843; -144.675; -839.000; -861.000
413.969;  -66.425;  -47.000; -292.000
414.096; -117.700; -679.000; -679.000
414.222;  -24.100;  -33.000;   85.000
414.348;  -41.550; -652.000; -385.000
414.474;   67.550;   38.000;  -52.000
414.600;  -20.250; -126.000; -144.000
414.726;  -22.300;  -96.000;  -55.000
414.852;  -60.850; -365.000; -342.000
414.978;   37.500;  104.000;  -18.000
415.104;   28.875;   38.000;   80.000
415.230;   23.100; -329.000; -330.000
415.356;   22.775; -409.000; -514.000
415.482;  186.725;   13.000;  -35.000
415.608;  248.075; -247.000; -323.000
415.734;  953.600;   67.000;   38.000
415.860;20457.350; -875.000; -767.000
415.986;14156.475; -685.000; -607.000
416.111; 1204.275; -798.000; -652.000
416.237;  247.050; -424.000; -571.000
416.363; 1177.525; -765.000; -733.000
416.489; 4215.275; -324.000; -251.000
416.615;  427.625; -707.000; -742.000
416.741;  -20.050; -677.000; -784.000
416.866;  -93.825; -673.000; -736.000
416.992; -123.475; -801.000; -818.000
417.118;  -29.200;  -41.000;  -80.000
417.244;  -80.550; -798.000; -531.000
417.369;  -93.675; -801.000; -612.000
417.495;  -24.850; -325.000; -254.000
417.621;  -92.475;-1015.000; -803.000
417.746;  -16.650; -579.000; -572.000
417.872;   40.600; -254.000; -144.000
417.998;   50.850; -515.000; -530.000
418.123; 1105.850;-1073.000; -845.000
418.249; 5451.300; -512.000; -601.000
418.374;  710.000; -916.000; -824.000
418.500;   90.425; -383.000; -482.000
418.626;  129.100;   70.000;  -59.000
418.751;  114.750; -549.000; -448.000
418.877;  197.700; -637.000; -643.000
419.002; 1902.900; -688.000; -560.000
419.128;12801.425; -930.000; -721.000
419.253; 2952.900; -967.000; -837.000
419.379;  391.050; -391.000; -338.000
419.504;  374.175;  325.000;  415.000
419.629;  517.625; -393.000; -212.000
419.755; 3764.900; -317.000; -254.000
419.880;21538.475;  -98.000;   67.000
420.006;11606.875; -280.000; -221.000
420.131;29381.825; -662.000; -775.000
420.256; 4040.350; -315.000; -316.000
420.382;  536.600; -665.000; -687.000
420.507;   47.275; -649.000; -778.000
420.632;  117.275; -337.000; -339.000
420.758;  192.425; -251.000; -425.000
420.883;  -94.575; -876.000; -672.000
421.008;  -91.000; -775.000; -619.000
421.133; -105.025; -509.000; -467.000
421.259;  -59.475; -325.000; -259.000
421.384; -120.175; -834.000; -693.000
421.509;  -59.500;-1052.000; -862.000
421.634;  978.700; -936.000; -820.000
421.759;  398.800; -359.000; -327.000
421.885;  -63.450; -717.000; -656.000
422.010;  -82.250; -673.000; -542.000
422.135; -135.375; -695.000; -727.000
422.260;   18.400;  340.000;  280.000
422.385;  -43.700;   12.000;  -98.000
422.510;    7.450;  151.000;  -26.000
422.635;   13.375;  -87.000;  -43.000
422.760;   68.600; -766.000; -791.000
422.885;   46.600;  -57.000;  -80.000
423.010;  -30.425; -112.000; -169.000
423.135; -104.450; -481.000; -561.000
423.260;  -32.700; -150.000; -245.000
423.385;   55.800;  476.000;  222.000
423.510;   30.475;   71.000;  -22.000
423.635;   66.475;  133.000;   45.000
423.760;   47.525;  383.000;  328.000
423.885;   40.825;  336.000;  391.000
424.010;   27.350;  -68.000;  -13.000
424.135;  -23.200;    5.000;  -33.000
424.259;  -86.675; -654.000; -457.000
424.384;  -65.400; -279.000; -272.000
424.509;  -24.825; -260.000; -186.000
424.634; -101.075; -761.000; -623.000
424.759;  -36.250; -688.000; -544.000
424.883;  -30.000; -506.000; -527.000
425.008;  160.650; -502.000; -410.000
425.133; 2014.375; -679.000; -653.000
425.258;  892.375; -517.000; -381.000
425.382;  914.600; -867.000; -774.000
425.507; 2261.350; -487.000; -543.000
425.632;  368.975; -802.000; -663.000
425.756;  449.650; -256.000; -146.000
425.881; 6905.375; -831.000; -857.000
426.006;17913.800; -604.000; -355.000
426.130; 2653.300; -696.000; -508.000
426.255;  331.275; -611.000; -491.000
426.379;  164.800; -189.000; -577.000
426.504;  385.425;  660.000;  544.000
426.629; 4144.275; -519.000; -466.000
426.753; 2709.625;   64.000;  -46.000
426.878;  313.300; -252.000; -288.000
427.002;  126.700; -651.000; -668.000
427.127; 1648.325;  -35.000; -158.000
427.251;11637.225;  372.000;  401.000
427.375; 3118.025; -191.000; -173.000
427.500; 2046.750; -616.000; -610.000
427.624;  646.400; -234.000; -400.000
427.749;   81.475; -216.000; -225.000
427.873;  -59.300; -499.000; -412.000
427.997;  -46.625; -222.000; -230.000
428.122;   73.425;  795.000;  703.000
428.246;   67.325;  433.000;  434.000
428.371; -145.175; -869.000; -773.000
428.495; -112.250; -624.000; -646.000
428.619;  -34.350; -186.000; -117.000
428.743;   29.225;   65.000;  132.000
428.868;   -9.575; -732.000; -643.000
428.992; 1228.850; -219.000; -326.000
429.116;  471.475; -329.000; -357.000
429.240;  232.475;  419.000;  426.000
429.365;  -40.325; -454.000; -574.000
429.489;  -47.225; -638.000; -647.000
429.613;   22.500; -236.000; -177.000
429.737;   36.525; -563.000; -432.000
429.861;  286.275; -247.000; -133.000
429.985; 5758.375; -425.000; -305.000
430.109; 6058.900; -770.000; -908.000
430.234;  683.625;   76.000;  -50.000
430.358;   78.800; -250.000; -160.000
430.482;  -68.200; -672.000; -564.000
430.606;  -82.425; -655.000; -375.000
430.730;   11.575; -437.000; -388.000
430.854;   70.475; -909.000; -835.000
430.978;  -86.525; -795.000; -764.000
431.102;  -93.375; -499.000; -422.000
431.226; -127.925; -874.000; -815.000
431.350;   17.400;  345.000;  422.000
431.474;  -81.900; -661.000; -373.000
431.597; -163.900;-1060.000; -848.000
431.721;  -77.500; -276.000; -267.000
431.845; -144.625; -704.000; -472.000
431.969;  -85.700; -304.000; -349.000
432.093;  -94.450; -395.000; -317.000
432.217;  -33.500;   32.000;   82.000
432.341;  -94.750; -523.000; -518.000
432.464;  -11.700;   96.000;   40.000
432.588;  153.675; -401.000; -329.000
432.712;   67.975;  -52.000;  -52.000
432.836;   43.150;  213.000;  263.000
432.959;  -25.900; -372.000; -311.000
433.083;   83.100;   11.000;    2.000
433.207;  363.750;  285.000;  930.000
433.330; 5246.475; -391.000; -200.000
433.454; 6215.125; -654.000; -638.000
433.578; 3624.900;  583.000;  278.000
433.701;  637.750; -623.000; -675.000
433.825;  113.925; -292.000; -299.000
433.949;  135.850;   28.000;  -72.000
434.072;   29.400; -410.000; -323.000
434.196;  -15.075; -309.000; -117.000
434.319; 3822.050;25482.000;25124.000
434.443;  733.100; -656.000; -603.000
434.566; 2664.750;  281.000;   62.000
434.690;  414.250; -637.000; -383.000
434.813;   37.375; -251.000; -173.000
434.937;  -99.625; -569.000; -696.000
435.060;  -48.975; -423.000; -332.000
435.184;  239.150; -492.000; -217.000
435.307;  127.550;  159.000;  102.000
435.431;  -21.325;  -40.000;   24.000
435.554;  -68.325; -399.000; -240.000
435.677;  -90.775; -350.000; -258.000
435.801;  -50.200;  -25.000;   49.000
435.924;  -23.650;    1.000;  -67.000
436.048; -140.050;-1019.000; -732.000
436.171;  -81.275; -240.000;  -66.000
436.294;  -32.175; -248.000; -229.000
436.417;   89.975; -963.000; -849.000
436.541;  -94.975; -814.000; -840.000
436.664;  -49.750; -242.000; -316.000
436.787;  -18.675;   13.000;  113.000
436.910; -114.200; -792.000; -422.000
437.034;  -22.875;  142.000;  143.000
437.157;   39.250;  -11.000;    0.000
437.280;  -54.250; -392.000; -292.000
437.403; -109.500; -982.000; -869.000
437.526;  507.050; -903.000; -865.000
437.649; 1844.875; -505.000; -332.000
437.772;  218.400; -692.000; -540.000
437.896;  115.775;  700.000;  544.000
438.019; -106.100; -758.000; -503.000
438.142; -105.250; -596.000; -506.000
438.265;  -33.500; -639.000; -670.000
438.388;  442.125; -520.000; -410.000
438.511;   56.500; -597.000; -394.000
438.634;  -50.725; -247.000; -125.000
438.757; -138.700; -693.000; -619.000
438.880;  -30.775;  -34.000;  -57.000
439.003;  -77.100; -417.000; -437.000
439.126;  -73.225; -287.000; -167.000
439.248;  -66.675;  -98.000; -139.000
439.371;  -49.475;    9.000;  -53.000
439.494;   20.575;  510.000;  439.000
439.617;  -48.825;   65.000;  -88.000
439.740; -180.650; -968.000; -816.000
439.863; -142.125; -755.000; -595.000
439.986; -117.375; -476.000; -431.000
440.108;  -75.125; -161.000; -112.000
440.231; -167.925; -950.000; -836.000
440.354;  -56.325;  -64.000; -150.000
440.477;    0.725; -566.000; -542.000
440.599;  -25.575; -200.000; -225.000
440.722; -131.050; -709.000; -586.000
440.845;   71.750;  751.000;  928.000
440.968; -103.500; -415.000; -311.000
441.090;  -81.675; -199.000;  -33.000
441.213; -173.125;-1021.000; -825.000
441.336;  -60.575; -159.000;   -5.000
441.458;  -95.850; -549.000; -396.000
441.581;  -91.975; -628.000; -629.000
441.703;  -70.600; -152.000;   13.000
441.826; -128.675; -557.000; -400.000
441.948;  -57.075;   56.000;   51.000
442.071;   31.375;  555.000;  424.000
442.193; -124.325; -531.000; -485.000
442.316;    3.550;  152.000;   97.000
442.438;   45.450; -233.000;  -10.000
442.561;   63.200;  272.000;  262.000
442.683;  429.625; -809.000; -522.000
442.806;  956.725;   -8.000;   74.000
442.928;  -14.625; -859.000; -604.000
443.051;  -76.800; -577.000; -373.000
443.173;  -96.625; -341.000; -339.000
443.295; -100.650; -263.000; -371.000
443.418;  -75.150; -321.000;  -29.000
443.540;  -11.525; -106.000;   -4.000
443.662; -124.400; -563.000; -465.000
443.785;   -7.925;  335.000;  199.000
443.907; -117.900; -362.000; -208.000
444.029; -125.475; -767.000; -494.000
444.152; -152.250; -644.000; -554.000
444.274;  -31.850;  -18.000;  -24.000
444.396; -122.050; -461.000; -221.000
444.518; -141.075; -691.000; -454.000
444.640; -102.775; -268.000; -111.000
444.763;  -15.975;  388.000;  249.000
444.885; -128.425; -432.000; -392.000
445.007;  -37.825;   35.000;   86.000
445.129; -121.450; -610.000; -515.000
445.251; -102.625; -372.000; -439.000
445.373; -142.100; -537.000; -386.000
445.495;   -9.975;  242.000;  350.000
445.617;   58.000;  853.000;  753.000
445.739;  -88.925; -215.000;  -97.000
445.861;  -35.175; -245.000; -112.000
445.984;  -41.625; -267.000; -101.000
446.105;  149.775; -418.000; -251.000
446.227;  509.350; -176.000;  -19.000
446.349;  -21.175; -358.000; -249.000
446.471; -112.725; -615.000; -448.000
446.593;  -66.850; -316.000;   19.000
446.715;  -12.475;  -67.000;   41.000
446.837;   63.050;  697.000;  832.000
446.959; -102.250; -457.000; -478.000
447.081; -134.850; -628.000; -518.000
447.203;   52.825;  862.000;  834.000
447.325;  -86.700; -270.000;   42.000
447.446;  -11.275;  286.000;  530.000
447.568; -161.775; -921.000; -803.000
447.690;  -72.600; -236.000; -245.000
447.812; -136.500; -798.000; -519.000
447.933;  -39.450;  155.000;  127.000
448.055;  -70.700; -306.000; -261.000
448.177;  116.975;   31.000;   79.000
448.299;   26.350; -935.000; -727.000
448.420;   10.675;  -25.000;  159.000
448.542;  -46.475;   -3.000;   33.000
448.664;  -23.075;  109.000;  322.000
448.785;  -40.175;  265.000;   83.000
448.907;  -88.075; -614.000; -353.000
449.028;  -60.625; -771.000; -471.000
449.150;   65.000;  492.000;  589.000
449.272; -182.575;-1044.000; -913.000
449.393;   26.050;  612.000;  694.000
449.515; -145.600; -634.000; -581.000
449.636;  -69.150; -264.000; -155.000
449.758;   68.250;  763.000;  622.000
449.879; -107.175; -498.000; -396.000
450.001;  -91.175; -149.000;  -49.000
450.122;  -41.625;  -95.000;  162.000
450.244;  -22.225;   37.000;  364.000
450.365;  -92.050; -495.000; -301.000
450.486;  -35.050;   80.000;  268.000
450.608;   30.025;  393.000;  326.000
450.729;   73.075;  578.000;  645.000
450.850;   12.775; -574.000; -466.000
450.972;  812.925; -552.000; -389.000
451.093; 5081.825;  190.000;  588.000
451.214; 2064.875; -516.000; -337.000
451.336;  372.275;  773.000;  579.000
451.457;   52.325;  264.000;  393.000
451.578;  -42.750; -118.000;  -74.000
451.699; -127.525; -546.000; -540.000
451.821;  -71.775; -284.000;  -50.000
451.942;  -13.175;  278.000;  285.000
452.063;   21.825;  228.000;  419.000
452.184;  563.675;  -54.000;  -49.000
452.305; 1082.975;  103.000;  170.000
452.427;  127.725; -549.000; -301.000
452.548;  -35.325;   23.000;   79.000
452.669;  -45.400; -257.000;  -89.000
452.790;  -54.625;    3.000;  -18.000
452.911;   -5.975;  195.000;  259.000
453.032;  -72.075; -289.000;  -60.000
453.153;  -46.100;  -29.000;   81.000
453.274;   60.250;  737.000;  868.000
453.395;  -60.700;  -51.000;  175.000
453.516;  114.825; 1317.000; 1388.000
453.637;  -85.975; -205.000; -150.000
453.758;  -64.300;   15.000;   69.000
453.879; -129.725; -462.000; -250.000
454.000;   75.900; 1086.000;  948.000
454.121; -111.125; -554.000; -326.000
454.242; -130.025; -599.000; -383.000
454.362;  -59.875;  -99.000;  114.000
454.483;  -50.300; -309.000; -229.000
454.604;   39.700;  512.000;  580.000
454.725; -153.550; -627.000; -555.000
454.846; -119.825; -474.000; -406.000
454.967;  -34.100;  230.000;  539.000
455.087;  -45.125;  179.000;  153.000
455.208;   23.650;  554.000;  856.000
455.329;  -62.000;  -22.000;   82.000
455.450;   43.900;  473.000;  633.000
455.570;  -86.625; -234.000; -211.000
455.691;  -41.425;  201.000;  407.000
455.812; -116.700; -270.000;  -92.000
455.932;  -55.375;  107.000;  -97.000
456.053;  -80.300;   36.000;   24.000
456.173; -119.425; -433.000; -355.000
456.294; -139.700; -476.000; -303.000
456.415;  -71.750;  -73.000;   70.000
456.535;  -40.525;  297.000;  273.000
456.656;  -49.975;  132.000;  240.000
456.776;  -70.050;    3.000;  298.000
456.897;  -12.250;  308.000;  513.000
457.017;  -62.350; -153.000;   -3.000
457.138; -133.975; -402.000; -249.000
457.258;  -53.100;  263.000;  224.000
457.379;  -21.925;  509.000;  521.000
457.499;  -18.800;  443.000;  432.000
457.620; -133.550; -407.000; -231.000
457.740;  -97.800; -132.000;  -11.000
457.860;  -56.025;   87.000;   44.000
457.981;  -35.775;  132.000;  124.000
458.101;  -83.675;  -89.000;   40.000
458.221;   -6.050;  336.000;  402.000
458.342;  -78.975;   -4.000;  -37.000
458.462;   25.075;  617.000;  352.000
458.582;  -45.100; -302.000; -294.000
458.703;    9.400;  303.000;  154.000
458.823;  -32.225;   22.000;  163.000
458.943;   16.650;  341.000;  467.000
459.063;  -19.900; 1124.000;  192.000
459.183;  -45.625;  328.000;  313.000
459.304;   -5.925;  315.000;  517.000
459.424;  -56.625; -246.000;  -89.000
459.544;  353.525;  388.000;  764.000
459.664;  847.150;  499.000;  506.000
459.784;  299.675; 1004.000; 1175.000
459.904;   51.025;  867.000;  744.000
460.024;   64.225;  867.000;  684.000
460.144;   -2.300;  449.000;  554.000
460.264;   -7.150;  515.000;  327.000
460.385;  -98.900; -145.000; -119.000
460.505;   43.475;  905.000;  858.000
460.625;  -95.650;  -17.000;  -68.000
460.745;  -26.425;  396.000;  541.000
460.864;  -52.950;  153.000;  469.000
460.984;    7.650;  499.000;  573.000
461.104;  142.025; 1656.000; 1775.000
461.224;   26.350;  657.000;  650.000
461.344;  -36.550;  431.000;  360.000
461.464;  -27.650;  258.000;  513.000
461.584;  -30.925;  283.000;  466.000
461.704;  -60.000;   58.000;  108.000
461.824;  -77.025;  238.000;  259.000
461.943;  -50.725;  191.000;  130.000
462.063;  -81.200;    2.000;  324.000
462.183;   29.950;  639.000;  717.000
462.303;  117.400; 1678.000; 1230.000
462.422;   11.500;  781.000;  840.000
462.542;  -51.475;  271.000;  391.000
462.662;   30.175;  353.000;  380.000
462.782;  252.450;  833.000;  572.000
462.901;  491.725;  545.000;  717.000
463.021;  293.150; 1702.000; 1638.000
463.141;  -10.225;  337.000;  770.000
463.260;  -27.975;  614.000;  474.000
463.380;    5.825;  902.000;  884.000
463.499;  -46.550;  342.000;  332.000
463.619;  -33.900;  581.000;  559.000
463.738;  115.825; 1644.000;  903.000
463.858;   16.050;  657.000;  811.000
463.978;  -28.375;  542.000;  396.000
464.097;   63.275;  921.000; 1114.000
464.217;  122.000; 1196.000; 1143.000
464.336;  107.050; 1068.000; 1130.000
464.455;  -33.100;  328.000;  659.000
464.575;   31.100;  597.000;  602.000
464.694;  157.125; 1204.000; 1179.000
464.814;  110.375; 1190.000; 1138.000
464.933;   60.500; 1095.000; 1027.000
465.052;   88.400; 1412.000; 1054.000
465.172;   67.300;  922.000;  799.000
465.291;  139.575; 1376.000; 1320.000
465.410;    8.625;  462.000;  735.000
465.530;   79.100; 1355.000; 1310.000
465.649;   56.700; 1209.000; 1273.000
465.768;  134.725; 1673.000; 1508.000
465.888;   37.175;  941.000; 1174.000
466.007;   92.225; 1335.000; 1440.000
466.126;   -4.450;  721.000;  641.000
466.245;   40.925; 1176.000; 1187.000
466.364;   13.075;  950.000; 1060.000
466.484;   48.400; 1024.000; 1213.000
466.603;   34.100; 1101.000; 1222.000
466.722;  100.650; 1490.000; 1769.000
466.841;   66.975; 1151.000; 1401.000
466.960;   42.925; 1069.000;  972.000
467.079;  115.850; 1971.000; 1786.000
467.198;   42.200; 1238.000; 1181.000
467.317;   76.700; 1768.000; 1162.000
467.436;   72.225; 1709.000; 1261.000
467.555;  127.175; 1796.000; 1746.000
467.674;   56.925; 1227.000; 1329.000
467.793;   43.800; 1376.000; 1374.000
467.912;   79.475; 1658.000; 1539.000
468.031;  135.200; 2038.000; 1930.000
468.150;  132.300; 1842.000; 1837.000
468.269;  196.950; 2313.000; 2090.000
468.388;  194.350; 2168.000; 2339.000
468.507;  262.350; 2884.000; 2903.000
468.626;  271.725; 2555.000; 2541.000
468.744;  142.350; 2018.000; 2174.000
468.863;  196.450; 2312.000; 2523.000
468.982;   82.875; 1503.000; 1555.000
469.101;  220.200; 2788.000; 2692.000
469.220;  162.500; 2333.000; 2176.000
469.338;  264.275; 2935.000; 3051.000
469.457;  193.600; 2719.000; 2545.000
469.576;  335.925; 3953.000; 3784.000
469.695;  238.625; 2877.000; 3066.000
469.813;  424.875; 4148.000; 4192.000
469.932;  411.200; 4255.000; 4485.000
470.051;  424.725; 4075.000; 4161.000
470.169;  881.400; 4470.000; 4338.000
470.288; 1504.725; 4700.000; 4809.000
470.406;  856.600; 5059.000; 5194.000
470.525;  627.100; 6101.000; 5787.000
470.644;  642.200; 6847.000; 6794.000
470.762;  826.750; 8397.000; 7873.000
470.881;  918.550; 8651.000; 8464.000
470.999; 1032.400; 9685.000; 9151.000
471.118; 1087.375;11174.000;10711.000

