
Integration time [ms]: 100.000
Averaging Nr. [scans]: 40
Smoothing Nr. [pixels]: 0
Data measured with spectrometer [name]: 2101012U2
Wave   ;Sample   ;Dark     ;Reference
[nm]   ;[counts] ;[counts] ;[counts] 

197.733;   57.600;  516.000;  404.000
197.879;  -76.150; -610.000; -634.000
198.025;  -46.600; -475.000; -420.000
198.171;  -58.975; -602.000; -612.000
198.317;  -37.600; -401.000; -316.000
198.463;  -53.750; -655.000; -404.000
198.609;   23.925;  181.000; -137.000
198.755;  -76.275; -644.000; -410.000
198.901;  -62.175; -505.000; -424.000
199.047;  -67.900; -615.000; -488.000
199.193;  -29.875; -230.000; -468.000
199.339;  -29.400; -222.000; -369.000
199.485;   59.450;  330.000;  271.000
199.631;   11.525;  227.000;  310.000
199.777;  -56.600; -466.000; -398.000
199.923;  -74.500; -610.000; -424.000
200.069;   -3.350; -141.000;  -58.000
200.215;   58.850;  128.000;  453.000
200.361;   35.000;  243.000;  477.000
200.507;  -55.150; -600.000; -373.000
200.653;  -21.025; -371.000; -194.000
200.798;  -37.675; -215.000; -125.000
200.944;   -2.550; -146.000;  -41.000
201.090;   42.725;   61.000;  222.000
201.236;   -0.850; -116.000; -158.000
201.382;  133.050;  874.000;  903.000
201.528;    1.625;  -58.000;  -48.000
201.674;  -33.325; -386.000; -293.000
201.819;  -63.475; -540.000; -439.000
201.965;  -79.600; -699.000; -447.000
202.111;  -10.750; -273.000; -226.000
202.257;  -29.250; -250.000; -238.000
202.402;   12.325;   13.000;  -36.000
202.548;  -26.050; -169.000; -116.000
202.694;   78.825;  410.000; -183.000
202.840;  -75.075; -603.000; -531.000
202.985;  -71.225; -681.000; -639.000
203.131; -112.325; -832.000; -666.000
203.277;  -24.100; -199.000; -262.000
203.423;  -49.925; -434.000; -520.000
203.568;  -30.975; -462.000; -237.000
203.714;  -61.875; -535.000; -542.000
203.860;  -82.350; -682.000; -641.000
204.005;   15.600;  112.000;  167.000
204.151;   74.925;  561.000;  556.000
204.296;  -34.025; -354.000; -221.000
204.442;  -77.150; -600.000; -547.000
204.588;  -74.375; -592.000; -579.000
204.733;   30.275;  178.000;  168.000
204.879; -136.750;-1018.000; -822.000
205.025;   12.150;  -99.000;  126.000
205.170;   13.350;  -17.000;   94.000
205.316;   76.300;  438.000;  661.000
205.461;  -73.000; -698.000; -554.000
205.607;   83.950;  609.000;  665.000
205.752;  -83.925; -626.000; -551.000
205.898;  -44.050; -501.000; -391.000
206.043;  -62.825; -578.000; -506.000
206.189;  -38.700; -243.000; -285.000
206.334;   77.275;  554.000;  606.000
206.480;   91.200;  409.000;  239.000
206.625;  -78.925; -529.000; -552.000
206.771;  -52.925; -451.000; -373.000
206.916;  -27.500; -210.000; -537.000
207.062;  -77.500; -545.000; -591.000
207.207;  -57.700; -546.000; -443.000
207.353;   41.675;  185.000;  460.000
207.498;    9.050;  196.000;   85.000
207.643;  -51.075; -501.000; -370.000
207.789; -137.675;-1069.000; -910.000
207.934;  -90.975; -665.000; -713.000
208.080;  -13.175; -154.000;   66.000
208.225;  -17.550;  -22.000;  -57.000
208.370;  -79.000; -727.000; -619.000
208.516;  -68.375; -741.000; -487.000
208.661;  -21.875; -127.000;  -69.000
208.806;  -23.425; -165.000; -171.000
208.952; -116.100;-1044.000; -731.000
209.097;   63.675;  378.000;  349.000
209.242;  -41.900; -307.000; -382.000
209.387;   62.350;  392.000;  350.000
209.533;  -54.600; -321.000; -350.000
209.678;   69.800;  472.000;  543.000
209.823;  -49.050; -408.000; -310.000
209.969; -104.775; -860.000; -757.000
210.114;  -99.025; -907.000; -719.000
210.259; -123.900; -939.000; -889.000
210.404;   -2.050; -171.000;  103.000
210.549;    5.350;  108.000;    3.000
210.695;  -20.325;   -3.000;  -95.000
210.840;   30.450;   94.000;   67.000
210.985;  -63.575; -484.000; -303.000
211.130;   63.450;  268.000;  406.000
211.275;   26.775;  207.000;  199.000
211.420;  -49.050; -300.000; -289.000
211.566;  -66.800; -536.000; -489.000
211.711;   16.675;  218.000;  157.000
211.856;  -61.250; -545.000; -519.000
212.001;    2.350;  151.000;   44.000
212.146;   27.050;  153.000;   49.000
212.291;  -34.125; -210.000; -186.000
212.436;  -39.150; -280.000;   -6.000
212.581;  -80.225; -685.000; -653.000
212.726;  -75.500; -487.000; -538.000
212.871;  -53.025; -552.000; -217.000
213.016; -143.875;-1172.000;-1029.000
213.161;   48.400;  406.000;  291.000
213.306;  -72.050; -435.000; -577.000
213.451;  -96.475; -778.000; -689.000
213.596;  -36.150; -455.000; -347.000
213.741;  -45.950; -448.000; -538.000
213.886;  -79.250; -498.000; -517.000
214.031;  -27.875; -294.000; -124.000
214.176;  -55.400; -408.000; -341.000
214.321;  -21.450; -296.000; -157.000
214.466;  -22.150; -163.000;  -43.000
214.611;  -15.800;  -61.000;  -10.000
214.756; -112.375; -948.000; -858.000
214.901;  -23.075; -388.000; -226.000
215.046; -128.025; -797.000; -825.000
215.191;    5.225;  128.000;   35.000
215.336;  -15.450; -157.000;  -19.000
215.480;  -64.800; -684.000; -505.000
215.625;   -0.975; -175.000;  -19.000
215.770;  -94.500; -757.000; -662.000
215.915;   10.250;   -5.000;  -97.000
216.060;  -17.700; -113.000;  -21.000
216.205; -111.175; -731.000; -779.000
216.349;  -75.675; -470.000; -533.000
216.494; -125.000; -939.000; -867.000
216.639; -111.775; -823.000; -888.000
216.784;  -71.575; -577.000; -525.000
216.929;   60.175;  392.000;  281.000
217.073;  -16.500; -244.000;  -31.000
217.218;    8.950;   78.000;  -47.000
217.363;  -80.075; -656.000; -618.000
217.507;  -80.275; -623.000; -588.000
217.652; -128.250; -845.000; -874.000
217.797;  -97.625; -708.000; -659.000
217.942; -102.650; -856.000; -720.000
218.086;   62.250;  608.000;  539.000
218.231;  -18.100; -174.000;  -26.000
218.376;  -41.375; -337.000; -229.000
218.520;    0.000;  -41.000;   96.000
218.665;  -36.300; -338.000; -204.000
218.810;  -41.525; -275.000; -233.000
218.954;   20.525;  201.000;   35.000
219.099; -110.925; -713.000; -963.000
219.243;  -73.650; -589.000; -554.000
219.388;  -26.550; -264.000; -136.000
219.532;  -10.750; -116.000; -116.000
219.677;  -65.975; -564.000; -521.000
219.822;   14.875;   33.000;   89.000
219.966;    7.375;   17.000;  -99.000
220.111;  -42.300; -328.000;  -40.000
220.255;  -88.500; -797.000; -750.000
220.400;  -33.100; -180.000; -146.000
220.544;  -69.075; -516.000; -450.000
220.689;  -47.900; -422.000; -451.000
220.833;  -10.225; -123.000;  -58.000
220.978;  -31.225; -393.000; -563.000
221.122;   38.450;  319.000;  307.000
221.267; -111.925; -906.000; -837.000
221.411;  -57.750; -478.000; -394.000
221.555;   -2.250; -104.000;  -23.000
221.700;  -44.675; -329.000; -222.000
221.844;   13.475;  255.000;  272.000
221.989;  -35.125; -328.000; -311.000
222.133;  -39.800; -289.000; -307.000
222.277;  -13.100;    5.000;   78.000
222.422;   18.250;  227.000;  113.000
222.566;  -30.950; -381.000; -214.000
222.711;  -56.400; -414.000; -479.000
222.855;  -80.800; -643.000; -586.000
222.999;  -93.550; -642.000; -717.000
223.144;  -27.200; -195.000; -194.000
223.288;   53.200;  423.000;  251.000
223.432;   25.550;  184.000;  230.000
223.576;    9.950;  152.000;  -21.000
223.721;   44.000;  364.000;  273.000
223.865;  -55.175; -472.000; -475.000
224.009;  221.200; 1673.000; 1631.000
224.153;  -80.975; -660.000; -671.000
224.298;  -64.975; -531.000; -489.000
224.442;  -15.925;  -74.000;  -33.000
224.586;  -10.450; -169.000; -106.000
224.730;  -92.275; -858.000; -670.000
224.875;  -92.475; -739.000; -688.000
225.019;   10.400;  102.000;  188.000
225.163;   45.500;  208.000;  341.000
225.307;    5.550;   97.000;  -91.000
225.451;   39.850;  360.000;  481.000
225.595;   31.750;  264.000;  176.000
225.739;  -10.975; -170.000;  -94.000
225.884;    4.825;   86.000;    5.000
226.028;  -90.325; -760.000; -626.000
226.172;  -40.525; -260.000; -273.000
226.316; -116.925; -941.000; -902.000
226.460;  -65.925; -645.000; -493.000
226.604;  -56.375; -406.000; -400.000
226.748;  -99.225; -836.000; -733.000
226.892;  -23.825; -227.000; -181.000
227.036;  -43.150; -537.000; -447.000
227.180;  -54.475; -551.000; -375.000
227.324;  -63.950; -561.000; -580.000
227.468; -108.775; -819.000; -717.000
227.612;   17.050;  242.000;  -28.000
227.756;  -90.850; -845.000; -698.000
227.900;   51.025;  342.000;  441.000
228.044;  -60.275; -509.000; -290.000
228.188;   54.925;  448.000;  568.000
228.332;  -95.800; -546.000; -472.000
228.476;  -29.750; -223.000; -149.000
228.620;  -29.125; -210.000; -150.000
228.764;   57.125;  431.000;  349.000
228.908;  -25.150; -155.000;   30.000
229.052;  -53.700; -615.000; -528.000
229.195;  -19.000; -172.000;   13.000
229.339;  -36.925; -235.000; -305.000
229.483;  -14.325;    5.000; -162.000
229.627;   -2.325; -156.000;  139.000
229.771;  -47.825; -218.000; -294.000
229.915;   16.775;  230.000;   79.000
230.059;  -91.925; -648.000; -663.000
230.202;  -45.900; -370.000; -317.000
230.346;  -10.925; -107.000;  107.000
230.490;  -75.200; -489.000; -521.000
230.634; -100.300; -736.000; -553.000
230.777;   75.250;  478.000;  509.000
230.921;  -51.925; -450.000; -359.000
231.065;  -38.575; -246.000; -286.000
231.209;   42.250;  261.000;  265.000
231.352;   10.950;   54.000;   40.000
231.496;    5.650;  568.000;  188.000
231.640;  -71.900; -693.000; -621.000
231.783;   65.775;  546.000;  525.000
231.927;  -47.450; -294.000; -365.000
232.071; -119.475; -962.000; -736.000
232.214; -117.050; -980.000; -764.000
232.358; -101.600; -683.000; -599.000
232.502;   13.300;  -19.000;    7.000
232.645; -139.250;-1090.000; -927.000
232.789;  -14.950; -257.000; -218.000
232.933;  -36.125; -407.000; -224.000
233.076; -123.325;-1038.000; -897.000
233.220; -106.075; -752.000; -777.000
233.363;  -87.200; -669.000; -477.000
233.507;   56.725;  371.000;  129.000
233.650;  -96.300; -764.000; -834.000
233.794;   47.675;  438.000;  461.000
233.938;  -67.700; -530.000; -362.000
234.081;  -29.250;  -93.000;   31.000
234.225;  -78.200; -631.000; -539.000
234.368; -101.725; -773.000; -723.000
234.512;  -47.800; -385.000; -299.000
234.655;  -81.000; -582.000; -555.000
234.798;  -64.375; -493.000; -466.000
234.942; -131.050; -884.000;-1002.000
235.085;  -80.425; -651.000; -443.000
235.229;  -54.500; -405.000; -410.000
235.372;  -46.700; -247.000; -191.000
235.516;  -64.175; -397.000; -321.000
235.659;   17.650;   92.000;  121.000
235.802;   -8.525;  -38.000;  -22.000
235.946;   29.575;  335.000;  215.000
236.089;   19.800;  126.000;  250.000
236.233;   59.650;  275.000;  298.000
236.376;  -48.750; -235.000; -378.000
236.519;  -52.000; -297.000; -319.000
236.663;  -20.675; -215.000; -117.000
236.806; -122.600;-1029.000; -999.000
236.949;   67.850;  543.000;  431.000
237.092;   54.000;  412.000;  391.000
237.236;  -82.375; -589.000; -502.000
237.379;   58.150;  352.000;  428.000
237.522; -126.150; -879.000; -768.000
237.666;  -14.675; -271.000;   18.000
237.809; -121.075; -851.000; -823.000
237.952;   35.825;  469.000;  271.000
238.095;  -61.725; -447.000; -442.000
238.238;   83.100;  688.000;  700.000
238.382;   -6.300;  166.000;  103.000
238.525;  -77.025; -598.000; -511.000
238.668; -141.375;-1060.000; -985.000
238.811;  -81.725; -638.000; -643.000
238.954;  -64.900; -483.000; -334.000
239.097;   85.675;  617.000;  664.000
239.241;   13.375;  394.000;  326.000
239.384;  -35.350; -254.000; -214.000
239.527;  -49.900; -424.000; -224.000
239.670; -149.825; -994.000;-1091.000
239.813; -111.950; -696.000; -658.000
239.956;   84.875;  579.000;  473.000
240.099; -111.525; -778.000; -725.000
240.242;   58.250;  428.000;  432.000
240.385;   50.050;  466.000;  450.000
240.528;  -72.975; -706.000; -473.000
240.671;   18.175;  189.000;  134.000
240.814;  -30.775; -441.000; -158.000
240.957; -104.200; -767.000; -578.000
241.100;  -99.200; -779.000; -755.000
241.243; -149.625;-1234.000; -893.000
241.386;  -79.550; -508.000; -379.000
241.529;  -93.600; -735.000; -547.000
241.672;  -67.375; -566.000; -495.000
241.815; -115.050; -832.000; -808.000
241.958;  -28.350; -125.000; -182.000
242.101;  -77.650; -545.000; -390.000
242.244;  -40.325; -270.000; -325.000
242.387;  -41.625; -304.000; -246.000
242.530;   42.825;  470.000;  134.000
242.673;  -40.500; -381.000; -309.000
242.815; -117.275; -925.000; -899.000
242.958;  -70.625; -482.000; -381.000
243.101;   15.300;  132.000;  187.000
243.244;  -88.175; -564.000; -521.000
243.387;  -49.925; -313.000; -316.000
243.530;  -90.800; -657.000; -674.000
243.672;  -11.075;   43.000;  -92.000
243.815;  -57.350; -355.000; -283.000
243.958;    1.800;   98.000;  -26.000
244.101;    0.150;   59.000;  -16.000
244.243;  -19.700;  -47.000;  101.000
244.386;  -96.075; -761.000; -630.000
244.529;  -26.775; -132.000; -139.000
244.672; -153.375;-1154.000; -951.000
244.814;  -84.525; -621.000; -794.000
244.957;  -57.575; -380.000; -304.000
245.100;  -83.025; -489.000; -489.000
245.242;  -68.600; -387.000; -374.000
245.385;   -4.600;  -59.000;  -39.000
245.528; -122.050; -871.000; -705.000
245.670;   82.850;  612.000;  634.000
245.813;  -91.850; -599.000; -547.000
245.956;  -31.125; -324.000; -275.000
246.098;  -71.925; -508.000; -650.000
246.241;  -10.325;  194.000;   48.000
246.383;  -19.725; -119.000;  -73.000
246.526;  -83.525; -454.000; -525.000
246.669; -125.375; -889.000; -780.000
246.811;    6.075;  172.000;   -1.000
246.954;  -60.900; -512.000; -426.000
247.096;  -20.075;  -84.000;   -6.000
247.239;  -61.500; -482.000; -445.000
247.381;  -69.575; -647.000; -488.000
247.524;   77.700;  645.000;  679.000
247.666;  -11.350;   58.000;   11.000
247.809; -105.150; -887.000; -691.000
247.951;  -17.325;  -75.000;  138.000
248.094;   17.775;  432.000;  308.000
248.236; -156.175;-1262.000;-1238.000
248.378;    1.300; -356.000;  -81.000
248.521;  -20.550; -334.000; -337.000
248.663;  -42.100; -236.000; -267.000
248.806;  -26.825; -300.000; -266.000
248.948;  -97.375; -886.000; -763.000
249.090;  -53.900; -428.000; -398.000
249.233;  -46.750; -344.000; -381.000
249.375;  -59.250; -474.000; -451.000
249.518;  -25.025;  -83.000; -133.000
249.660;  -13.275; -103.000;    3.000
249.802; -183.425;-1303.000;-1189.000
249.945;  -69.725; -612.000; -540.000
250.087; -122.650; -834.000; -768.000
250.229;  -59.975; -362.000; -480.000
250.371;  -65.900; -494.000; -439.000
250.514;  -56.600; -310.000; -244.000
250.656;  -48.100;   69.000;  102.000
250.798; -120.425; -849.000; -800.000
250.940;  -70.400; -322.000; -322.000
251.083;  -38.350; -335.000; -111.000
251.225;   59.850;  338.000;  310.000
251.367;  -42.900; -274.000; -373.000
251.509;  -43.050; -265.000; -210.000
251.651; -100.750; -731.000; -671.000
251.794;   65.900;  538.000;  632.000
251.936;  -96.850; -821.000; -747.000
252.078;  -88.750; -540.000; -461.000
252.220;  -75.025; -645.000; -477.000
252.362;   81.750;  344.000;  462.000
252.504;  -70.800; -677.000; -584.000
252.646; -118.900; -875.000; -722.000
252.788;   -4.050;   14.000; -128.000
252.931;  -31.600; -257.000; -253.000
253.073;  -42.425; -376.000; -317.000
253.215;   -9.600;  141.000;  122.000
253.357;  -22.325;   82.000; -153.000
253.499;  -57.300; -374.000; -234.000
253.641;  -97.725; -749.000; -594.000
253.783;  -95.000; -609.000; -527.000
253.925;  -87.650; -586.000; -591.000
254.067; -114.075; -744.000; -667.000
254.209;  -34.125; -391.000; -259.000
254.351; -129.900; -865.000; -883.000
254.493;  -70.875; -441.000; -417.000
254.635; -136.425; -936.000; -818.000
254.777; -104.625; -752.000; -687.000
254.918;  -67.675; -512.000; -430.000
255.060;  -61.025; -551.000; -395.000
255.202;  -59.975; -473.000; -261.000
255.344;  -78.050; -658.000; -455.000
255.486;  -62.775; -471.000; -406.000
255.628; -112.425; -780.000; -781.000
255.770;  -89.750; -676.000; -536.000
255.912;  -66.725; -559.000; -468.000
256.053;  -89.975; -730.000; -508.000
256.195;  148.050; 1008.000;  903.000
256.337;  -99.825; -861.000; -595.000
256.479;   48.750;  532.000;  416.000
256.621;  -58.400; -394.000; -212.000
256.762;  -86.100; -789.000; -742.000
256.904;   43.250;  485.000;  487.000
257.046;  -48.825; -381.000; -271.000
257.188;  -52.175; -351.000; -264.000
257.329;  -70.250; -525.000; -464.000
257.471; -109.775; -939.000; -807.000
257.613;  -71.225; -584.000; -498.000
257.755; -148.225;-1073.000; -982.000
257.896;   24.900;  286.000;  392.000
258.038;  -69.775; -403.000; -352.000
258.180;  -46.875; -354.000; -279.000
258.321;  -84.075; -581.000; -457.000
258.463;   -5.400;  -71.000;  133.000
258.605; -102.875; -562.000; -570.000
258.746; -111.525; -886.000; -772.000
258.888; -143.225;-1026.000;-1020.000
259.029;   18.525;  121.000;   -8.000
259.171;  -86.275; -614.000; -550.000
259.313;   -2.725;  -49.000;  -47.000
259.454;  -67.575; -536.000; -414.000
259.596;  -66.500; -483.000; -390.000
259.737;  -69.275; -590.000; -474.000
259.879;   25.000;  217.000;  311.000
260.020;   79.575;  901.000;  636.000
260.162;  -24.650; -146.000; -253.000
260.303; -111.500; -768.000; -687.000
260.445;  -87.825; -609.000; -613.000
260.586;   24.375;  392.000;  157.000
260.728;  -46.775; -360.000; -248.000
260.869; -125.600; -350.000; -343.000
261.011;   87.850;  706.000;  537.000
261.152;  -59.025; -479.000; -319.000
261.293;  -78.325; -576.000; -595.000
261.435;  -31.050; -219.000; -184.000
261.576;  -70.450; -455.000; -325.000
261.718;   45.925;  420.000;  470.000
261.859; -121.125; -940.000; -949.000
262.000; -128.500; -951.000;-1016.000
262.142;  -29.025;  -52.000;  -60.000
262.283; -110.425; -808.000; -691.000
262.424;  -89.175; -666.000; -625.000
262.566; -150.025;-1161.000; -983.000
262.707; -123.050; -840.000; -830.000
262.848; -111.825; -769.000; -726.000
262.990;  -50.900; -362.000; -345.000
263.131;   69.950;  650.000;  681.000
263.272;  -11.100;  -61.000;  -41.000
263.413;  -86.325; -589.000; -561.000
263.555;  -75.625; -669.000; -143.000
263.696;  -88.550; -550.000; -641.000
263.837;  -53.750; -449.000; -551.000
263.978;    4.400;   -5.000;  -77.000
264.119;  -42.750; -283.000; -264.000
264.261; -111.075; -847.000; -630.000
264.402;   -4.200;   33.000;   40.000
264.543;  -87.775; -509.000; -524.000
264.684;  -13.850;   61.000;  -50.000
264.825;  -64.475; -816.000; -538.000
264.966;    0.550;  -84.000;  -67.000
265.107; -112.025; -646.000; -670.000
265.248; -120.975; -825.000; -812.000
265.390;   -4.925;  152.000;   -9.000
265.531;  -24.800; -238.000; -107.000
265.672;  -98.625; -557.000; -630.000
265.813;   58.100;  563.000;  439.000
265.954; -146.375; -959.000; -940.000
266.095;  -19.050; -372.000; -322.000
266.236; -102.575; -686.000; -548.000
266.377;  -43.050; -243.000; -297.000
266.518;  -70.900; -619.000; -547.000
266.659;   25.700;  170.000;  268.000
266.800;    4.625;   83.000;   85.000
266.941;  -73.000; -487.000; -478.000
267.082;    7.800;  354.000;   99.000
267.223;  -53.175; -344.000; -273.000
267.364; -116.150; -892.000; -686.000
267.504;  -21.725;    3.000;  135.000
267.645;    7.100;  160.000;   67.000
267.786;  -40.700; -147.000;  -86.000
267.927;  -75.500; -473.000; -379.000
268.068;   -9.950; -186.000;  -61.000
268.209;  -59.800; -175.000; -413.000
268.350;  -62.325; -388.000; -532.000
268.490;  -85.750; -648.000; -521.000
268.631;   26.350;  127.000;  225.000
268.772; -104.025; -874.000; -647.000
268.913;  -49.100; -328.000; -476.000
269.054;  -12.950; -117.000;   12.000
269.194;  -39.600; -418.000; -402.000
269.335; -166.050;-1137.000;-1074.000
269.476;  -18.400;   33.000;  -35.000
269.617;  -51.125; -347.000; -392.000
269.757;  -98.150; -713.000; -646.000
269.898; -106.900; -856.000; -613.000
270.039;  -71.925; -415.000; -405.000
270.180; -148.125; -952.000; -816.000
270.320;  -29.175; -190.000; -250.000
270.461;  -30.525; -277.000; -249.000
270.602;  -18.550; -186.000; -156.000
270.742; -133.950; -868.000; -943.000
270.883;  -56.125; -442.000; -390.000
271.023;  -46.000; -358.000; -357.000
271.164;  -87.475; -607.000; -528.000
271.305;  -99.475; -666.000; -654.000
271.445; -104.850; -722.000; -683.000
271.586;  -60.075; -462.000; -283.000
271.726;  -45.125; -397.000; -322.000
271.867;  -55.725; -594.000; -534.000
272.008;  162.075; -473.000; -285.000
272.148;  113.225;  462.000;  468.000
272.289;    4.650; -113.000; -181.000
272.429;   19.525;   19.000;  185.000
272.570;  -93.925; -633.000; -737.000
272.710; -103.100; -825.000; -775.000
272.851;  -29.125;  113.000; -130.000
272.991; -168.525;-1173.000;-1077.000
273.131;  -62.675; -419.000; -459.000
273.272; -105.250; -683.000; -723.000
273.412;   11.700; -143.000;  -31.000
273.553;  -60.525; -488.000; -507.000
273.693;  139.900;  913.000;  858.000
273.834;  -90.950; -894.000; -692.000
273.974;  -77.875; -664.000; -615.000
274.114; -109.725; -772.000; -560.000
274.255;   69.150;  414.000;  373.000
274.395;    9.175; -180.000; -125.000
274.535;   39.375;  199.000;  350.000
274.676;    8.075;  225.000;   94.000
274.816;    0.075;  110.000;   34.000
274.956;  -91.650; -624.000; -690.000
275.097;  -68.725;-1014.000; -922.000
275.237; -106.425; -913.000; -803.000
275.377;  -96.300; -778.000; -689.000
275.517; -151.825; -878.000; -937.000
275.658;  -62.975; -590.000; -555.000
275.798;  -85.225; -606.000; -413.000
275.938;   20.225;  215.000;  323.000
276.078;  -97.625; -626.000; -395.000
276.218;    3.150;   99.000;  104.000
276.359; -124.400;-1026.000;-1024.000
276.499;  -86.650; -605.000; -446.000
276.639;  -32.375; -305.000; -151.000
276.779;  -54.725; -475.000; -357.000
276.919; -111.725; -783.000; -624.000
277.059;  -24.425; -261.000; -212.000
277.199;  -31.750; -357.000; -259.000
277.340;   38.175;  287.000;  175.000
277.480;  -93.075; -840.000; -693.000
277.620;   30.725;  192.000;   16.000
277.760; -202.250;-1533.000;-1294.000
277.900;   11.075;  113.000;   33.000
278.040;   13.150;  137.000;  159.000
278.180;   23.675;  270.000;  170.000
278.320;    0.975;   21.000;   56.000
278.460;  -68.075; -443.000; -469.000
278.600;  -88.425; -708.000; -598.000
278.740;   55.725;  448.000;  224.000
278.880;  -83.650; -768.000; -791.000
279.020;   -7.375; -194.000; -144.000
279.160;  -94.125; -672.000; -595.000
279.300; -115.350; -926.000; -873.000
279.440;  -87.750; -709.000; -622.000
279.579;  -31.550;-1014.000; -929.000
279.719;  -46.800; -410.000; -394.000
279.859;   66.450;   -4.000;   41.000
279.999;   24.950; -208.000;  101.000
280.139;  -33.725; -435.000; -387.000
280.279;  -78.950; -708.000; -745.000
280.419;  -25.125; -229.000; -147.000
280.559;  -49.075; -259.000; -180.000
280.698;  -92.300; -790.000; -639.000
280.838;  -91.700; -778.000; -800.000
280.978;  -94.725; -846.000; -790.000
281.118; -115.000; -811.000; -704.000
281.257;    6.650;   24.000;    6.000
281.397; -123.875;-1094.000; -960.000
281.537;  -99.300; -599.000; -712.000
281.677;  -24.475; -150.000; -101.000
281.816;  -97.325; -700.000; -630.000
281.956;  -39.450; -193.000; -257.000
282.096;  -63.475; -539.000; -396.000
282.235;  -98.625; -672.000; -638.000
282.375;  -18.525; -243.000;  -98.000
282.515; -109.100; -715.000; -707.000
282.654;   24.550;   29.000;  106.000
282.794;   16.775;  388.000;  244.000
282.934;  -71.275; -530.000; -491.000
283.073; -142.275;-1030.000; -857.000
283.213;  -55.150; -460.000; -467.000
283.353;  -41.175; -408.000; -349.000
283.492;  -27.850; -264.000; -296.000
283.632;  -26.675; -254.000; -168.000
283.771; -104.075; -859.000; -730.000
283.911;  -39.450; -369.000; -260.000
284.050; -110.875; -794.000; -748.000
284.190; -154.525;-1229.000;-1096.000
284.329; -150.425;-1055.000; -964.000
284.469;  -81.175; -516.000; -591.000
284.608;  -68.625; -559.000; -598.000
284.748;  -95.200; -614.000; -570.000
284.887;  -18.275;  -87.000;  -20.000
285.027; -122.425; -844.000; -892.000
285.166;  -34.025; -192.000; -249.000
285.306;    2.175; -116.000;  -33.000
285.445;  -45.300; -229.000; -343.000
285.584;  -94.750; -630.000; -494.000
285.724;  -47.000; -282.000; -322.000
285.863; -109.475; -857.000; -507.000
286.002;  -56.450; -366.000; -276.000
286.142; -100.950; -715.000; -622.000
286.281;  -82.100; -525.000; -493.000
286.420;  -75.525; -554.000; -417.000
286.560;   85.550;  653.000;  623.000
286.699; -130.250; -958.000; -912.000
286.838;  -85.775; -590.000; -591.000
286.978;  -90.175; -533.000; -537.000
287.117; -131.675;-1085.000; -950.000
287.256;  -44.575; -228.000; -211.000
287.395;  -55.550; -197.000; -378.000
287.535;  -58.775; -370.000; -298.000
287.674;  -92.125; -509.000; -484.000
287.813;   57.150;  661.000;  533.000
287.952; -132.125;-1010.000; -871.000
288.091; -144.125;-1049.000; -915.000
288.231;    8.050;   13.000;   15.000
288.370; -167.925;-1217.000;-1200.000
288.509;  -87.950; -728.000; -645.000
288.648;  -92.650; -770.000; -548.000
288.787;  -32.350; -243.000;  -87.000
288.926;  -82.400; -454.000; -475.000
289.065;   97.225;  859.000;  672.000
289.204;  -54.225; -377.000; -217.000
289.344; -100.400; -791.000; -690.000
289.483;    8.900;  416.000;  304.000
289.622;  -23.775; -291.000; -149.000
289.761;  -16.475; -309.000; -166.000
289.900;  -96.525; -785.000; -626.000
290.039;  -12.650;  -12.000;  -95.000
290.178;  -43.500; -274.000; -180.000
290.317;  -82.575; -618.000; -479.000
290.456;  -69.850; -463.000; -451.000
290.595; -146.175; -961.000; -833.000
290.734; -137.575; -904.000; -891.000
290.873;  -64.875; -456.000; -420.000
291.011; -126.425; -833.000; -843.000
291.150; -102.475; -770.000; -682.000
291.289;  -29.675; -343.000; -110.000
291.428;  -92.825; -599.000; -480.000
291.567;  -68.450; -370.000; -442.000
291.706;  -10.425;  109.000;  154.000
291.845;  -90.050; -597.000; -505.000
291.984; -157.725;-1234.000;-1061.000
292.122;   72.500;  602.000;  582.000
292.261;   47.050;  620.000;  463.000
292.400;   -4.025; -144.000;  211.000
292.539; -130.700; -959.000; -813.000
292.678;  -38.575; -325.000; -300.000
292.816; -147.950;-1136.000; -965.000
292.955;  -85.700; -844.000; -684.000
293.094;  -34.250; -173.000; -337.000
293.233;  -49.700; -556.000; -400.000
293.371;  -41.675; -225.000;  -84.000
293.510; -109.775; -866.000; -780.000
293.649; -111.250; -959.000; -924.000
293.787;  -78.725;-1083.000;-1012.000
293.926;    0.400; -113.000;  -32.000
294.065;  -45.325; -379.000; -290.000
294.203;   44.175;  298.000;  406.000
294.342;   18.975;   74.000;  156.000
294.481; 6496.075;51180.000; -836.000
294.619;  -36.400; -425.000; -582.000
294.758; -156.125;-1230.000;-1137.000
294.896;   33.900; -125.000;    5.000
295.035; -128.750;-1040.000;-1006.000
295.174; -119.450;-1082.000; -954.000
295.312;  -55.925; -323.000; -203.000
295.451;  -21.125; -307.000; -428.000
295.589;  -69.825; -389.000; -518.000
295.728;    9.600; -292.000; -165.000
295.866;  -10.350;  -36.000;  -51.000
296.005;  -64.125; -584.000; -341.000
296.143;  -74.750; -558.000; -596.000
296.282; -110.775; -957.000; -881.000
296.420;  -75.150; -657.000; -557.000
296.559;  -91.700; -892.000; -633.000
296.697;    2.625; -847.000; -665.000
296.835;   23.225;-1141.000;-1002.000
296.974;   43.050;  -23.000;   39.000
297.112;  -11.750; -443.000; -504.000
297.251;  -80.025; -815.000; -755.000
297.389;   79.300; -576.000; -438.000
297.527;   29.375; -145.000;  -83.000
297.666;  -73.350; -486.000; -438.000
297.804;  -56.425; -404.000; -264.000
297.942;  -13.150; -136.000; -161.000
298.081;  -12.375; -183.000;   63.000
298.219;   26.450;  -17.000;  -19.000
298.357;   34.050; -144.000;  -71.000
298.495;   -7.100; -810.000; -812.000
298.634;   50.700;  245.000;  219.000
298.772;   21.600; -220.000; -338.000
298.910;  -47.850; -309.000; -182.000
299.048;  -20.625; -130.000; -153.000
299.187;  -30.825; -350.000; -250.000
299.325;   -1.700;   52.000;  122.000
299.463;   39.950; -389.000; -299.000
299.601;   76.425; -327.000; -271.000
299.739; -105.625; -908.000; -883.000
299.877;  -87.300; -791.000; -703.000
300.016;  -58.375;-1095.000; -935.000
300.154;  133.400;  -19.000; -161.000
300.292;   35.375; -428.000; -348.000
300.430;   12.575; -408.000; -291.000
300.568; -113.100; -940.000; -874.000
300.706;  -51.000; -366.000; -469.000
300.844;  -82.500;-1108.000; -979.000
300.982;   93.150;  246.000;  282.000
301.120; -111.600; -965.000; -866.000
301.258;  -76.850; -812.000; -705.000
301.396;   19.575;  104.000;  -41.000
301.534;   50.000; -218.000; -293.000
301.672;  -33.825; -664.000; -521.000
301.810;   -0.625; -613.000; -545.000
301.948;   94.725;   53.000;  149.000
302.086;  544.900; -250.000;  -32.000
302.224;  805.650; -610.000; -585.000
302.362;    7.375; -558.000; -622.000
302.500;  -51.700; -923.000; -893.000
302.638;   84.925;  128.000;  245.000
302.776;   -2.600; -352.000; -408.000
302.913;   39.525;  447.000;  236.000
303.051;   -4.275;  -86.000;  -23.000
303.189;   23.200;   90.000;  118.000
303.327;  -47.550; -341.000; -256.000
303.465;  -81.475; -832.000; -588.000
303.603;  -95.675; -805.000; -604.000
303.740;   92.550;  417.000;  241.000
303.878;   -6.350; -800.000; -759.000
304.016; -100.125; -915.000; -790.000
304.154; -138.175;-1123.000;-1152.000
304.291;  -41.025; -505.000; -554.000
304.429;    6.400;  102.000;   74.000
304.567; -132.275; -908.000; -893.000
304.705;  -46.650; -408.000; -515.000
304.842;   69.525; -616.000; -540.000
304.980;   44.000;  215.000;   35.000
305.118;   26.550; -367.000; -365.000
305.255;  -87.450; -945.000; -927.000
305.393;   49.675;  178.000;  239.000
305.531; -125.075;-1173.000; -956.000
305.668;  -78.250; -663.000; -582.000
305.806;   84.750; -358.000; -439.000
305.943;   81.250; -629.000; -637.000
306.081;   58.425; -378.000; -267.000
306.219; -114.875; -863.000; -748.000
306.356;    2.100;  158.000;   27.000
306.494;  108.525;  981.000;  761.000
306.631;   -7.550;  -11.000;  -55.000
306.769;   -3.325; -613.000; -485.000
306.906;  -23.200; -284.000; -258.000
307.044;  -75.525; -473.000; -488.000
307.181;  -72.250; -410.000; -332.000
307.319;   -1.850;  112.000;   87.000
307.456; -172.050;-1191.000;-1153.000
307.594; -114.475; -980.000; -727.000
307.731;  -16.950; -371.000; -164.000
307.868;  -27.100;  -15.000;   20.000
308.006; -141.800; -961.000; -847.000
308.143;  -69.625; -618.000; -330.000
308.281;  137.000;  -37.000; -254.000
308.418;  -35.450; -748.000; -640.000
308.555;  -71.300; -400.000; -250.000
308.693;  -87.925; -577.000; -573.000
308.830; -101.900; -712.000; -657.000
308.967;  -23.850; -215.000;  -95.000
309.105;  -45.750; -507.000; -396.000
309.242;   11.400; -468.000; -367.000
309.379;  242.875; -577.000; -655.000
309.517;  -77.775; -936.000; -948.000
309.654; -105.450; -910.000; -734.000
309.791;  -79.850; -662.000; -580.000
309.928; -124.100; -977.000; -914.000
310.065;  162.850;  819.000;  697.000
310.203;  -28.550; -825.000; -850.000
310.340;  -34.975; -465.000; -321.000
310.477;  -79.750; -412.000; -516.000
310.614;  -67.300; -383.000; -473.000
310.751;  -73.375; -427.000; -518.000
310.889;  -25.075;    1.000;   11.000
311.026; -150.900;-1161.000; -939.000
311.163;  -59.850; -386.000; -380.000
311.300;  -80.525; -512.000; -479.000
311.437;  -77.925; -658.000; -619.000
311.574; -168.750;-1226.000; -985.000
311.711;  -63.100; -595.000; -433.000
311.848;  -53.225; -380.000; -388.000
311.985;    9.375;  270.000;   93.000
312.122; -124.750; -932.000; -762.000
312.259; -132.475; -941.000; -994.000
312.396;  -85.350; -508.000; -551.000
312.533; -100.350; -812.000; -790.000
312.670; -140.575;-1070.000; -898.000
312.807;  -39.100; -352.000; -367.000
312.944;  -80.750; -513.000; -611.000
313.081;  -38.675; -150.000; -415.000
313.218; -100.225;-1111.000; -867.000
313.355;   -8.900; -531.000; -449.000
313.492;  -11.725; -455.000; -292.000
313.629;  123.525;  815.000;  735.000
313.766; -161.125;-1176.000;-1008.000
313.902;  -18.300; -186.000;   21.000
314.039;  -56.975; -372.000; -289.000
314.176;   32.150;  286.000;  192.000
314.313;  -76.675; -569.000; -473.000
314.450;  -90.100; -788.000; -684.000
314.587;  -65.075; -468.000; -480.000
314.723;  -19.000;  -78.000;  130.000
314.860;   29.975;  318.000;  332.000
314.997;   22.900;  223.000;  142.000
315.134;  -45.975; -385.000; -368.000
315.270;  -41.125; -480.000; -496.000
315.407; -134.700;-1094.000; -967.000
315.544;  -63.425; -657.000; -538.000
315.681;  -54.325; -681.000; -565.000
315.817;   12.525; -133.000; -176.000
315.954;   18.325; -613.000; -392.000
316.091; -129.575;-1045.000;-1023.000
316.227;  -29.300;  -71.000; -179.000
316.364;   -5.825;   23.000;    6.000
316.500;  -47.375; -113.000; -300.000
316.637;  -47.275; -181.000; -302.000
316.774;  -98.600; -625.000; -358.000
316.910;  -92.450; -598.000; -629.000
317.047;  -83.375; -487.000; -351.000
317.183;  -47.700; -435.000; -566.000
317.320;   -8.350; -367.000; -321.000
317.456;  -57.450; -733.000; -805.000
317.593;  -97.150; -598.000; -641.000
317.729;  -12.950;  168.000;  -67.000
317.866; -199.750;-1434.000;-1285.000
318.002; -100.350; -708.000; -948.000
318.139;  -87.100; -883.000; -867.000
318.275; -110.375;-1003.000; -738.000
318.412;  -70.675; -517.000; -336.000
318.548;  -52.025; -751.000; -720.000
318.685; -113.975; -985.000; -888.000
318.821;  -99.100; -762.000; -735.000
318.957;  -20.475;   34.000;  -23.000
319.094;   33.875;  297.000;  154.000
319.230;  -81.400; -756.000; -742.000
319.367;  100.325; -471.000; -520.000
319.503;   19.975; -538.000; -436.000
319.639;  -93.300; -877.000; -793.000
319.775;  -69.900; -750.000; -685.000
319.912;  -62.850; -424.000; -519.000
320.048;  -96.975;-1184.000;-1184.000
320.184;   70.725;   59.000;   70.000
320.321;  -70.175; -497.000; -467.000
320.457;   63.650;  475.000;  662.000
320.593;  -64.375; -375.000; -382.000
320.729; -111.575; -732.000; -734.000
320.866;  -79.325; -577.000; -635.000
321.002;  -86.325; -759.000; -809.000
321.138;   -8.775; -135.000; -211.000
321.274;   66.200; -148.000; -115.000
321.410;  -32.800; -585.000; -353.000
321.546;  -41.250;-1011.000; -911.000
321.683;   48.275;  400.000;  185.000
321.819;  -15.400;  -48.000; -117.000
321.955; -114.625; -743.000; -722.000
322.091;  -52.025; -585.000; -540.000
322.227;  -22.225; -382.000; -202.000
322.363;  -32.125; -320.000; -215.000
322.499;  -46.875; -343.000; -331.000
322.635;  141.025;  636.000;  443.000
322.771;    8.100; -139.000;   12.000
322.907;   80.350;  129.000;  327.000
323.043;  -12.750; -115.000; -206.000
323.179;  -27.950; -394.000; -363.000
323.315;  -10.150; -401.000; -371.000
323.451;   60.450; -328.000; -236.000
323.587;   56.575;  -60.000;  -77.000
323.723;   -2.125; -682.000; -601.000
323.859;  -11.900; -258.000;  -76.000
323.995;  -52.625; -467.000; -409.000
324.131; -129.275; -967.000; -892.000
324.267;  -47.550; -254.000; -276.000
324.402; -133.850; -960.000; -983.000
324.538;   -6.000; -279.000; -104.000
324.674;   12.200;  164.000;   77.000
324.810;   77.375;  226.000;  308.000
324.946;   -9.600; -810.000; -658.000
325.082;  -82.525; -568.000; -475.000
325.217;  -14.950;  -62.000;   16.000
325.353; -104.975; -764.000; -659.000
325.489;  -84.625; -540.000; -506.000
325.625;  -70.325; -579.000; -525.000
325.760;   63.850;  517.000;  376.000
325.896;  -31.250; -515.000; -702.000
326.032;  -50.700; -403.000; -352.000
326.168;  -71.825; -462.000; -369.000
326.303;  -67.075; -352.000; -461.000
326.439;  -27.975; -336.000; -276.000
326.575;   -0.200; -190.000;  -29.000
326.710;  -23.100; -156.000;  -30.000
326.846;  -16.975;  146.000;  103.000
326.982;  -97.225; -530.000; -548.000
327.117;  -77.775; -481.000; -442.000
327.253;  -91.475; -745.000; -742.000
327.388; -141.000;-1137.000;-1153.000
327.524;  -61.450; -811.000; -578.000
327.659;  -27.225;  -58.000;  -22.000
327.795;   -4.200;   69.000;   45.000
327.931;  -87.025; -723.000; -499.000
328.066;  -30.600; -417.000; -276.000
328.202;  -29.200;   12.000; -129.000
328.337;   88.650;  957.000;  713.000
328.473;   41.025;  -12.000;  -74.000
328.608;  -17.600; -256.000; -267.000
328.743;  -86.700; -799.000; -664.000
328.879;   17.050;  214.000;  114.000
329.014;  -36.850; -102.000; -122.000
329.150;  -95.600; -358.000; -483.000
329.285;  -83.200; -465.000; -466.000
329.421;  -64.000; -548.000; -246.000
329.556;  -24.450;  -36.000;   85.000
329.691; -103.550; -633.000; -615.000
329.827;  -87.625; -626.000; -480.000
329.962;  -47.150;  131.000; -301.000
330.097;  -99.550; -673.000; -585.000
330.233;  -65.375; -410.000; -223.000
330.368; -126.700; -839.000; -628.000
330.503;  -21.400;    3.000;   98.000
330.638;   -5.425;  -93.000; -125.000
330.774;  -57.625; -609.000; -530.000
330.909;  -51.400; -434.000; -244.000
331.044; -105.600; -714.000; -708.000
331.179; -176.325;-1217.000;-1109.000
331.315;    9.550;   77.000;   20.000
331.450;    0.550;  157.000;  285.000
331.585; -109.925; -805.000; -706.000
331.720;  -86.725; -510.000; -460.000
331.855;  -13.400;  -35.000; -102.000
331.990;  272.775;   62.000;  138.000
332.126;  124.325; -110.000;   71.000
332.261;  -21.375; -379.000; -265.000
332.396;  -17.225; -135.000; -242.000
332.531;  -89.825;-1074.000;-1031.000
332.666;   31.975; -519.000; -363.000
332.801; -114.450; -726.000; -807.000
332.936;  -38.125; -192.000; -122.000
333.071; -157.625; -870.000; -817.000
333.206;    9.025;  307.000;  379.000
333.341;   21.825;  344.000;  418.000
333.476;  -97.575; -627.000; -623.000
333.611;  -35.125; -251.000; -173.000
333.746;  -48.850; -381.000; -464.000
333.881; -133.275; -973.000; -935.000
334.016; -137.700; -936.000; -917.000
334.151; -130.425; -746.000; -702.000
334.286;   19.925;  152.000;  186.000
334.421;  -29.975; -125.000; -178.000
334.556;  -79.125; -611.000; -567.000
334.690; -101.350; -631.000; -577.000
334.825;   52.975;  381.000;   83.000
334.960;  -62.475; -285.000; -413.000
335.095;   -4.725;  135.000;  -91.000
335.230; -108.650; -722.000; -738.000
335.365; -141.575;-1084.000; -990.000
335.499; -138.175;-1108.000;-1037.000
335.634;   12.975;    9.000;  534.000
335.769; -115.050; -755.000; -720.000
335.904;  -73.775; -603.000; -561.000
336.038;  -59.675; -735.000; -657.000
336.173; -129.900;-1206.000;-1194.000
336.308;  -10.125; -116.000; -189.000
336.443;   22.625; -544.000; -634.000
336.577;  -75.775; -936.000; -787.000
336.712;   42.150;   -4.000;  -12.000
336.847;  -59.175; -724.000; -607.000
336.981;   42.850; -272.000; -208.000
337.116;  244.600;  615.000;  501.000
337.250;  111.425; -434.000; -421.000
337.385;  275.900; -297.000; -208.000
337.520;   93.875; -632.000; -603.000
337.654;  -63.450; -215.000; -126.000
337.789; -144.175; -989.000; -933.000
337.923;  -30.975; -104.000; -205.000
338.058; -106.000; -673.000; -738.000
338.192;  -50.250; -611.000; -488.000
338.327;  -12.475;  -18.000; -155.000
338.461;  -79.775; -299.000; -469.000
338.596;  -93.500; -780.000; -638.000
338.730;  -92.800; -767.000; -803.000
338.865;   93.025;  -46.000; -140.000
338.999;  -31.575; -846.000; -702.000
339.134;  -43.475; -634.000; -536.000
339.268;    5.525; -741.000; -603.000
339.403;  378.025; -740.000; -775.000
339.537;  126.400; -894.000; -820.000
339.671; -113.350; -829.000; -813.000
339.806;  -72.575; -556.000; -512.000
339.940;   -0.350; -261.000; -235.000
340.074;  -94.375; -685.000; -510.000
340.209;  -57.825; -351.000; -230.000
340.343;  -95.075; -517.000; -573.000
340.477;  128.500;  998.000; 1036.000
340.612;  -46.300;-1033.000; -900.000
340.746;  127.400; -199.000; -243.000
340.880;  -75.475; -924.000; -785.000
341.014;  -25.575;  -45.000; -154.000
341.149; -126.100; -756.000; -718.000
341.283; -111.525; -839.000; -754.000
341.417; -117.800;-1124.000; -938.000
341.551;   77.225; -768.000; -708.000
341.685;  -38.500; -633.000; -611.000
341.820;  -61.225; -562.000; -493.000
341.954;  -62.600; -218.000; -349.000
342.088; -154.750;-1102.000;-1019.000
342.222;   38.875;  565.000;  618.000
342.356;  -70.525; -395.000; -335.000
342.490; -104.400; -880.000; -841.000
342.624;  -66.550; -339.000; -242.000
342.758;  -21.175; -364.000; -312.000
342.892;  -87.625; -710.000; -585.000
343.026;  -32.300;  -58.000; -116.000
343.160;  -67.725; -426.000; -376.000
343.294;  -77.500; -474.000; -337.000
343.428;  -45.500; -488.000; -448.000
343.562;  -10.900; -172.000;  -23.000
343.696;  -30.700; -385.000; -314.000
343.830;  -31.800; -362.000; -356.000
343.964;   -1.600; -231.000; -168.000
344.098;  776.775;  199.000;   70.000
344.232;  618.975; -266.000; -127.000
344.366;   67.200; -567.000; -453.000
344.500;   38.450; -665.000; -744.000
344.634;   25.850; -324.000; -164.000
344.768;  -25.800; -531.000; -341.000
344.902;   -1.300;  278.000;  256.000
345.035;  -96.025; -556.000; -496.000
345.169; -132.675; -933.000; -656.000
345.303;  -49.700; -308.000; -482.000
345.437;  -97.175; -826.000; -717.000
345.571;  -79.500; -675.000; -594.000
345.704;  -71.825; -309.000; -532.000
345.838;  -34.450; -331.000; -284.000
345.972;  -52.575; -543.000; -495.000
346.106;  164.775; -179.000; -190.000
346.239;  395.300; -312.000; -243.000
346.373;  -15.625; -343.000; -302.000
346.507; -146.400; -950.000; -962.000
346.640;  106.225;  -30.000;   13.000
346.774;  -58.625; -650.000; -797.000
346.908;  -17.675; -138.000;  -11.000
347.041;  -95.200; -646.000; -593.000
347.175;   -7.800;  259.000;   27.000
347.309;  -83.075; -698.000; -628.000
347.442; -115.600; -883.000; -732.000
347.576;  245.600;  670.000;  668.000
347.709;  154.975; -123.000;  -52.000
347.843; -102.775; -933.000; -825.000
347.976;   24.900;  235.000;  294.000
348.110; -185.450;-1268.000;-1186.000
348.243; -110.125; -679.000; -772.000
348.377;    2.875;  -26.000;   60.000
348.510;   37.650;  403.000;  540.000
348.644;  -49.500;  -37.000; -159.000
348.777;   -6.500;  180.000;  191.000
348.911;  -53.950; -142.000; -112.000
349.044;  128.125;  471.000;  448.000
349.178;  101.375;-1069.000;-1006.000
349.311;  105.725;  141.000;  255.000
349.444;  -13.250; -927.000; -813.000
349.578;  -32.000; -347.000; -200.000
349.711; -104.275; -959.000; -862.000
349.845;  -18.250; -661.000; -591.000
349.978; -154.050;-1224.000;-1137.000
350.111;  -82.050; -546.000; -612.000
350.244;  -99.525; -596.000; -700.000
350.378;  -28.675; -392.000; -393.000
350.511;  -67.475; -393.000; -426.000
350.644;  -99.275; -808.000; -806.000
350.778;   16.450;  168.000;  104.000
350.911;   -3.975;  134.000;  140.000
351.044; -103.650; -685.000; -615.000
351.177;  -54.325; -321.000; -281.000
351.310;  -16.400;    3.000; -131.000
351.444;  -93.275; -888.000; -788.000
351.577;  100.150;  140.000;   90.000
351.710;   77.500;  593.000;  417.000
351.843;  -43.125; -165.000;  -77.000
351.976;   -1.150;  149.000;  -79.000
352.109;  -99.700; -621.000; -612.000
352.242;  -39.550; -464.000; -419.000
352.376;  -62.100; -580.000; -636.000
352.509;  131.000; -437.000; -356.000
352.642;  -22.425; -654.000; -604.000
352.775;   35.775; -141.000;  -98.000
352.908; -114.875; -933.000; -904.000
353.041; -108.900; -814.000; -824.000
353.174;  -67.450; -551.000; -424.000
353.307;  -97.350; -753.000; -764.000
353.440;   60.600;  541.000;  453.000
353.573; -120.725; -957.000;-1008.000
353.706;  -62.900; -384.000; -558.000
353.839;  -33.475; -264.000; -220.000
353.971;  -93.500; -657.000; -512.000
354.104; -114.500; -896.000; -835.000
354.237;  -43.650; -627.000; -662.000
354.370;  -96.200; -846.000; -879.000
354.503; -184.650;-1231.000;-1308.000
354.636;  -40.175; -529.000; -348.000
354.769; -135.825; -937.000; -860.000
354.902;  -23.875; -230.000; -139.000
355.034;  -34.625; -164.000; -220.000
355.167;  -35.550; -262.000; -162.000
355.300;  -88.475;-1061.000; -880.000
355.433;  988.975;  -71.000;  -14.000
355.565; 1562.050; -402.000; -384.000
355.698;  400.700; -356.000; -296.000
355.831;  -13.850; -882.000; -801.000
355.964;   46.100; -285.000; -170.000
356.096;  -98.300; -856.000; -843.000
356.229;  -25.250; -523.000; -530.000
356.362;  323.525; -373.000; -266.000
356.494;  602.800; -229.000; -162.000
356.627;  408.775;  269.000;  377.000
356.760;  656.700;  120.000;   53.000
356.892; 1022.750; -286.000; -601.000
357.025;  533.725;  403.000;  389.000
357.157;  499.750; -167.000; -179.000
357.290;  743.225; -856.000; -713.000
357.423;  194.325; -667.000; -556.000
357.555;   99.850; -217.000; -228.000
357.688;  104.700; -483.000; -364.000
357.820;  426.250; -870.000; -877.000
357.953; 3373.375; -563.000; -589.000
358.085;  699.750; -632.000; -612.000
358.218;  882.125;-1131.000; -932.000
358.350;  176.875;  -58.000;  312.000
358.483; -144.575;-1300.000;-1187.000
358.615;  -51.800;-1182.000;-1078.000
358.747;  -82.400;-1187.000;-1058.000
358.880;   -4.725; -810.000; -744.000
359.012;  -19.925; -376.000; -202.000
359.145;  -49.325; -480.000; -511.000
359.277;   43.200; -962.000; -913.000
359.409; 2768.575;  536.000;  231.000
359.542;  704.050; -738.000; -688.000
359.674;   69.550;   46.000;   13.000
359.806;  -73.675; -565.000; -438.000
359.939;  -47.075; -617.000; -516.000
360.071;    3.425; -583.000; -579.000
360.203;  -28.550; -411.000; -364.000
360.335;   52.675;  164.000;  -16.000
360.468;  162.625; -249.000; -307.000
360.600; 2274.950; -547.000; -454.000
360.732; 3007.950; -546.000; -423.000
360.864;  401.750;-1216.000;-1044.000
360.996;  201.575; -516.000; -554.000
361.129;   21.150; -389.000; -598.000
361.261;   -8.775;  110.000; -113.000
361.393;  -26.150; -252.000; -214.000
361.525;   12.300;   94.000;  244.000
361.657;  -59.900; -821.000; -703.000
361.789;  -13.525; -139.000; -155.000
361.921;  153.750; -642.000; -593.000
362.053;  223.150;  524.000;  541.000
362.185;   30.500;  288.000;   72.000
362.318;  -88.275; -709.000; -705.000
362.450;   96.550;  294.000;  444.000
362.582;   20.375; -913.000; -870.000
362.714;  -47.425; -353.000; -332.000
362.846; -101.850; -606.000; -490.000
362.978; -149.750; -941.000; -811.000
363.109;   24.350; -161.000; -260.000
363.241;  321.575; -739.000; -749.000
363.373;  439.225; -649.000; -564.000
363.505;  692.425; -186.000;  -91.000
363.637;  169.250; -787.000; -601.000
363.769; -128.000;-1067.000;-1080.000
363.901;  -84.200; -596.000; -654.000
364.033; -129.575;-1103.000;-1062.000
364.165;  -26.800; -283.000; -283.000
364.296;   72.000; -316.000; -177.000
364.428;   69.925;-1344.000;-1220.000
364.560;  -73.700; -679.000; -661.000
364.692;  -72.900; -738.000; -835.000
364.824;  178.725; -588.000; -456.000
364.955;  400.775; -402.000; -564.000
365.087; 1006.650;-1097.000; -852.000
365.219;   30.550; -686.000; -816.000
365.351;  -78.625; -526.000; -572.000
365.482;   35.300;  300.000;  240.000
365.614;  -39.775; -402.000; -314.000
365.746; -111.675; -729.000; -752.000
365.877; -105.250; -706.000; -672.000
366.009;  267.600;  -35.000;  -62.000
366.141;  -86.450;-1249.000;-1134.000
366.272; -104.950; -803.000; -719.000
366.404; -124.150;-1005.000; -874.000
366.535;   -7.300; -139.000;  -12.000
366.667; -116.350; -644.000; -649.000
366.799;   23.550;  353.000;  203.000
366.930; -130.100; -862.000; -996.000
367.062;  117.675; -639.000; -613.000
367.193;  149.425; -872.000; -842.000
367.325;  -60.525; -580.000; -684.000
367.456;   32.825; -246.000;   31.000
367.588;  165.125; -371.000; -318.000
367.719;   26.725;  -44.000;  -45.000
367.851;  -24.600; -222.000; -241.000
367.982;  -72.475; -875.000; -732.000
368.113;   55.150; -475.000; -358.000
368.245; -128.425; -960.000; -841.000
368.376;  -45.875; -254.000; -302.000
368.508;  -44.350; -188.000; -263.000
368.639; -156.425;-1166.000;-1034.000
368.770;  -39.025; -670.000; -589.000
368.902;  -82.850; -836.000; -926.000
369.033; -126.550; -906.000; -855.000
369.164;  -49.475; -720.000; -653.000
369.296; -122.275; -452.000; -601.000
369.427;  -10.175; -209.000; -144.000
369.558;  -75.225; -593.000; -377.000
369.689;  -82.525; -721.000; -569.000
369.821; -142.975; -951.000; -845.000
369.952;  -22.950;   42.000; -108.000
370.083;  -56.750; -229.000; -108.000
370.214;  -89.150; -735.000; -650.000
370.345;  -12.175;   65.000;   81.000
370.477;  -99.025; -810.000; -790.000
370.608;  172.575; -328.000; -264.000
370.739;  -74.200;-1233.000;-1292.000
370.870;  -52.025;-1102.000; -923.000
371.001;   58.950; -378.000; -467.000
371.132;  -84.300; -754.000; -735.000
371.263;  -31.725;  -42.000; -148.000
371.394; -138.525; -841.000; -748.000
371.525;   16.025;  345.000;  225.000
371.657;  -98.675; -808.000; -670.000
371.788;   55.925;  103.000;  199.000
371.919;  119.650; -384.000; -304.000
372.050; 3158.075;  -91.000; -156.000
372.181;  957.550; -188.000; -294.000
372.311;  294.400;   42.000; -127.000
372.442;   11.575; -457.000; -451.000
372.573;  -28.775; -444.000; -340.000
372.704; -129.025;-1008.000; -980.000
372.835;   44.750; -228.000; -289.000
372.966;  -67.850; -646.000; -554.000
373.097;  -81.400; -575.000; -711.000
373.228;  -53.700; -717.000; -542.000
373.359;   78.850; -824.000; -536.000
373.490;  748.350; -881.000; -727.000
373.620;  956.550;-1001.000; -803.000
373.751; 1472.675; -332.000; -396.000
373.882;  659.650; -663.000; -733.000
374.013;   36.325; -449.000; -262.000
374.143;  -47.475; -581.000; -659.000
374.274; -105.750; -987.000; -908.000
374.405;  128.050; -388.000; -276.000
374.536;  363.625; -526.000; -387.000
374.666;  905.075; -759.000; -807.000
374.797;  159.950; -817.000; -868.000
374.928;  680.825; -710.000; -560.000
375.058;  724.900; -535.000; -500.000
375.189;   56.175;  -59.000;  -93.000
375.320; -128.275; -928.000;-1034.000
375.450;  -48.150; -625.000; -616.000
375.581;  -46.500; -526.000; -436.000
375.712;  -41.150; -574.000; -250.000
375.842;  222.500; -438.000; -415.000
375.973;  162.900; -554.000; -513.000
376.103;  -65.975; -665.000; -648.000
376.234; -104.825; -531.000; -552.000
376.364;  -54.975; -944.000; -867.000
376.495;  255.775;  925.000;  529.000
376.625;  -32.900; -472.000; -485.000
376.756;   22.975; -709.000; -678.000
376.886;  -93.300;-1178.000;-1026.000
377.017;   47.425;-1048.000;-1061.000
377.147;  377.675; -786.000; -782.000
377.278;   52.700;  174.000;  228.000
377.408; -126.925; -801.000; -815.000
377.538; -114.850; -707.000; -693.000
377.669;  -79.175; -537.000; -613.000
377.799; -118.125; -645.000; -635.000
377.929;  -81.550; -610.000; -428.000
378.060; -147.250; -781.000; -847.000
378.190;  -52.975; -726.000; -531.000
378.320;  -55.825; -401.000; -406.000
378.451;  -22.200; -131.000;  -22.000
378.581;  -14.350;  -67.000; -110.000
378.711;  138.375; 1035.000;  866.000
378.841;  -32.625; -533.000; -675.000
378.972;  -84.050; -871.000; -751.000
379.102;  -36.950; -652.000; -579.000
379.232;  -44.750; -126.000;  -73.000
379.362; -110.875;-1001.000; -885.000
379.492;  -22.600; -373.000; -424.000
379.623;   76.075;    0.000;  111.000
379.753; -112.250;-1107.000; -974.000
379.883;  155.000;   59.000;  156.000
380.013;  -25.125;-1081.000;-1017.000
380.143; -118.975;-1097.000;-1056.000
380.273;  -99.175; -985.000; -861.000
380.403;  -18.550; -344.000; -257.000
380.533;  -37.850; -651.000; -664.000
380.663;   44.725;  173.000;  128.000
380.793; -110.925;-1027.000;-1074.000
380.923;  -24.250; -103.000;  -34.000
381.053;  -97.325; -613.000; -623.000
381.183;  -51.300; -106.000; -248.000
381.313;    3.475; -656.000; -470.000
381.443;    6.350; -692.000; -473.000
381.573;  125.375; -402.000; -409.000
381.703;  178.100;-1249.000;-1095.000
381.833; -156.525;-1454.000;-1336.000
381.963;   98.200; -134.000;  -87.000
382.093; 1246.750; -925.000; -909.000
382.223;  365.700; -713.000; -602.000
382.353;  -35.825; -801.000; -608.000
382.482;  288.500;-1091.000; -964.000
382.612;  644.800; -872.000; -644.000
382.742;  335.925; -695.000; -622.000
382.872;  202.425; -565.000; -551.000
383.002;   45.350;  347.000; -132.000
383.131;  -29.050; -226.000; -160.000
383.261;  -54.050; -706.000; -768.000
383.391;  276.450; -552.000; -377.000
383.521; 3395.125;  451.000;  263.000
383.650;  831.000; -947.000; -904.000
383.780;  -16.475; -783.000; -656.000
383.910;  106.175;  880.000;  802.000
384.039;  -12.150; -794.000; -656.000
384.169;  123.900;-1205.000;-1017.000
384.299;  -45.900; -650.000; -662.000
384.428;  -92.550; -764.000; -680.000
384.558;  -55.950; -308.000; -275.000
384.687;  -57.000; -414.000; -334.000
384.817;    4.550;   75.000;   -2.000
384.947;   -7.675; -234.000; -141.000
385.076;  242.650;  982.000;  912.000
385.206;   67.400;  369.000;  480.000
385.335;  -50.375; -549.000; -417.000
385.465;  -78.175; -655.000; -663.000
385.594;   79.275;  -53.000;  -44.000
385.724;  342.350; -868.000; -838.000
385.853;   82.875; -296.000; -270.000
385.982; 1143.400; -743.000; -787.000
386.112; 1825.700;-1052.000; -871.000
386.241;  115.225; -307.000; -312.000
386.371;   -5.000; -174.000;  -87.000
386.500;  -22.375; -825.000; -789.000
386.629;  -11.950; -874.000; -817.000
386.759;   51.025;  -43.000;   68.000
386.888;  -24.525; -170.000; -250.000
387.017;  -86.550; -648.000; -620.000
387.147; -105.800; -771.000; -798.000
387.276;  -31.175; -410.000; -397.000
387.405;    4.875; -398.000; -342.000
387.535;  -60.425; -452.000; -361.000
387.664;  -80.375; -692.000; -620.000
387.793;   36.550; -198.000; -113.000
387.922;  420.025;  255.000;  200.000
388.052;   -7.225; -576.000; -423.000
388.181;  -23.525; -342.000; -472.000
388.310;  -43.500; -889.000; -710.000
388.439;  -79.300; -749.000; -742.000
388.568;  138.200;  365.000;  244.000
388.697;  868.275; -756.000; -653.000
388.826;  165.700; -768.000; -666.000
388.956;   38.675; -285.000; -307.000
389.085;  -44.975; -347.000; -287.000
389.214; -116.175; -842.000; -872.000
389.343;  -72.100; -645.000; -413.000
389.472;  392.300;  126.000;  149.000
389.601;  499.200;   91.000;    0.000
389.730;  -19.575; -568.000; -687.000
389.859;   58.775;  226.000;   46.000
389.988;  147.750; -423.000; -408.000
390.117;  108.825; -168.000; -146.000
390.246;  -31.550; -331.000; -320.000
390.375;   59.000; -673.000; -626.000
390.504;  -71.875; -703.000; -621.000
390.633; -102.450; -672.000; -726.000
390.761;  -98.075; -732.000; -645.000
390.890;   13.425;   -4.000; -130.000
391.019;  -49.000; -421.000; -441.000
391.148; -127.050; -826.000; -855.000
391.277;  -83.400; -576.000; -493.000
391.406; -103.850; -821.000; -805.000
391.534;   13.400;  574.000; -301.000
391.663;  -89.775; -583.000; -645.000
391.792; -115.750; -673.000; -701.000
391.921;   54.075;   -3.000;   15.000
392.050;  125.300; -287.000; -228.000
392.178;  -66.500;-1206.000;-1061.000
392.307;   99.850; -758.000; -712.000
392.436;   39.950; -427.000; -641.000
392.564;    9.550;  166.000;   -6.000
392.693; -110.900; -860.000; -682.000
392.822;  131.575; -529.000; -534.000
392.950;   45.075; -880.000; -714.000
393.079;  273.200; -188.000; -328.000
393.208;    0.225; -488.000; -511.000
393.336;  -35.375; -170.000; -145.000
393.465;  -54.075; -317.000; -199.000
393.593;   -1.400;   62.000;   79.000
393.722; -151.975;-1121.000; -916.000
393.850;  -36.625; -188.000;  -61.000
393.979; -149.550; -926.000; -805.000
394.107;  -82.800; -517.000; -537.000
394.236;  -37.525; -570.000; -507.000
394.364;  167.575;  383.000;  206.000
394.493;  276.600; -911.000; -767.000
394.621;   -6.575; -955.000; -916.000
394.750;  727.800; -873.000; -923.000
394.878; 3024.300; -247.000; -149.000
395.007; 4153.525; -721.000; -807.000
395.135;  322.800; -790.000; -721.000
395.263;  -88.225;-1038.000;-1040.000
395.392;  -11.075;  -25.000; -107.000
395.520; -150.675; -818.000; -679.000
395.648; -114.250; -865.000; -915.000
395.777;  -29.800; -366.000; -405.000
395.905;  -60.725; -449.000; -564.000
396.033;   17.425;  217.000;  172.000
396.162;  439.225; -399.000; -453.000
396.290;  408.150;  -17.000;   -2.000
396.418;   60.350; -555.000; -514.000
396.546; -100.075; -571.000; -466.000
396.674; -117.225; -850.000; -878.000
396.803;   -9.375;  -72.000;  -23.000
396.931;   39.100; -179.000; -199.000
397.059;    3.925;-1026.000; -989.000
397.187; -123.050;-1026.000; -975.000
397.315; -147.425; -884.000; -649.000
397.443; -119.125; -592.000; -443.000
397.572; -111.150; -578.000; -424.000
397.700;  -32.975; -607.000; -614.000
397.828;  -11.275;  120.000;  -90.000
397.956;  -47.325; -508.000; -478.000
398.084;  -63.600; -767.000; -626.000
398.212;   20.525;  137.000;  124.000
398.340;    3.900;  -56.000;  159.000
398.468;   -2.700; -390.000; -169.000
398.596; -141.050; -993.000; -953.000
398.724; -123.975; -762.000; -767.000
398.852; -162.000;-1024.000; -976.000
398.980;  -72.750; -560.000; -560.000
399.108;  -72.850; -982.000; -735.000
399.236;   19.450;   13.000;    8.000
399.363;    4.875;  222.000;  196.000
399.491;  -67.450; -404.000; -398.000
399.619; -138.550; -829.000; -800.000
399.747; -109.000; -859.000; -771.000
399.875;   57.775;  220.000;  234.000
400.003;  -67.450; -359.000; -284.000
400.130;  -97.250; -421.000; -341.000
400.258;  -39.425;  -83.000;   38.000
400.386;  -62.725; -352.000; -168.000
400.514;  -59.675; -526.000; -587.000
400.641; -103.075; -928.000; -802.000
400.769; -142.250; -979.000; -888.000
400.897; -132.350; -838.000; -793.000
401.025;  -28.325; -166.000; -152.000
401.152;   -9.300;  220.000;   38.000
401.280;  -81.775; -430.000; -429.000
401.408; -123.800; -712.000; -576.000
401.535; -119.900; -735.000; -758.000
401.663; -182.825;-1134.000;-1054.000
401.790;  -86.175; -514.000; -525.000
401.918;   30.700;  436.000;  405.000
402.046;  -25.025;  134.000;  122.000
402.173;  -51.750;  -18.000;    7.000
402.301;  -76.175; -519.000; -397.000
402.428;   30.975;  528.000;  383.000
402.556; -155.250;-1188.000; -913.000
402.683;  -42.100;  -20.000;   -1.000
402.811;  -32.475;  -37.000; -206.000
402.938;  -12.925;   20.000;   27.000
403.066;  138.325; -574.000; -558.000
403.193;  264.500;  299.000;  239.000
403.321;  207.900; -396.000; -574.000
403.448;  272.975;   83.000;   27.000
403.575;  119.450;  -90.000;  -46.000
403.703; -102.700; -732.000; -557.000
403.830;  -74.575; -531.000; -496.000
403.957; -147.475;-1117.000;-1023.000
404.085;    0.150;  -61.000; -172.000
404.212;   79.500;  -50.000;   63.000
404.339;  276.225; -566.000; -306.000
404.467; 6037.275; -612.000; -524.000
404.594; 3869.000; -287.000; -227.000
404.721;  822.775; -869.000; -764.000
404.848;   67.625; -113.000; -202.000
404.976; -121.100; -856.000; -783.000
405.103;  -22.550;  -14.000;  -82.000
405.230;    3.475;  190.000;  226.000
405.357;   30.875;  117.000;   44.000
405.484;  250.850;  -49.000;    5.000
405.612;   31.425; -548.000; -563.000
405.739;  -47.300; -488.000; -243.000
405.866;   66.200;  669.000;  385.000
405.993;  -44.200; -398.000; -102.000
406.120; -153.450; -801.000; -887.000
406.247;  -68.775; -323.000; -342.000
406.374;  328.275;  540.000;  629.000
406.501;   58.475; -632.000; -702.000
406.628;  -79.425; -621.000; -589.000
406.755; -107.050; -803.000; -620.000
406.882;  -51.475; -228.000; -277.000
407.009; -119.250; -719.000; -628.000
407.136;   12.875; -480.000; -401.000
407.263;   70.650; -939.000; -829.000
407.390;  -94.325; -692.000; -614.000
407.517; -178.575;-1139.000;-1187.000
407.644;  -78.475; -332.000; -256.000
407.771;  -82.825; -249.000; -287.000
407.898;   -4.850;  168.000;  328.000
408.025;  -84.475; -421.000; -313.000
408.151;  -13.650;   82.000;  153.000
408.278;  -74.625; -267.000; -216.000
408.405; -128.525; -931.000; -899.000
408.532;  -78.100; -549.000; -542.000
408.659; -112.375; -677.000; -648.000
408.785; -205.350;-1298.000;-1170.000
408.912;  -74.475; -412.000; -296.000
409.039; -114.950; -610.000; -686.000
409.166; -104.200; -591.000; -555.000
409.292; -113.950; -571.000; -534.000
409.419; -120.225; -665.000; -649.000
409.546;  -91.000; -431.000; -192.000
409.672; -111.075; -713.000; -545.000
409.799;  -36.650;  -36.000;   34.000
409.926;  -52.550; -180.000; -179.000
410.052; -180.550;-1127.000;-1091.000
410.179;  -71.600; -368.000; -392.000
410.305;  -87.725; -375.000; -493.000
410.432;  -63.400; -220.000; -333.000
410.558;  -97.775; -305.000; -380.000
410.685; -110.850; -688.000; -431.000
410.812; -103.875; -409.000; -588.000
410.938; -147.200; -964.000; -808.000
411.065; -117.050; -671.000; -645.000
411.191;  -35.575; -189.000; -174.000
411.317; -126.125; -823.000; -742.000
411.444;  -87.375; -317.000; -246.000
411.570;  -69.750; -339.000; -294.000
411.697; -128.050; -758.000; -752.000
411.823; -170.150; -989.000; -999.000
411.949;  -49.725;  -56.000;   17.000
412.076; -113.750; -539.000; -519.000
412.202; -134.150; -758.000; -757.000
412.329; -143.425; -798.000; -752.000
412.455; -116.000; -821.000; -657.000
412.581;  -21.950;  -15.000;  172.000
412.707;  -85.825; -540.000; -457.000
412.834;   12.000;  156.000;  219.000
412.960;  -85.575; -785.000; -784.000
413.086; -105.750; -743.000; -701.000
413.212;  111.975;  604.000;  578.000
413.339;  -72.800; -685.000; -701.000
413.465;  -23.400; -364.000; -310.000
413.591;  -95.900; -757.000; -474.000
413.717;  -63.150; -358.000; -366.000
413.843; -136.075; -839.000; -861.000
413.969;  -70.175;  -47.000; -292.000
414.096; -101.300; -679.000; -679.000
414.222;   -7.600;  -33.000;   85.000
414.348;  -42.800; -652.000; -385.000
414.474;   66.350;   38.000;  -52.000
414.600;  -26.500; -126.000; -144.000
414.726;  -24.900;  -96.000;  -55.000
414.852;  -62.675; -365.000; -342.000
414.978;   15.875;  104.000;  -18.000
415.104;   49.575;   38.000;   80.000
415.230;   15.925; -329.000; -330.000
415.356;   13.525; -409.000; -514.000
415.482;  204.225;   13.000;  -35.000
415.608;  266.075; -247.000; -323.000
415.734;  964.950;   67.000;   38.000
415.860;20295.350; -875.000; -767.000
415.986;15074.050; -685.000; -607.000
416.111; 1284.350; -798.000; -652.000
416.237;  278.975; -424.000; -571.000
416.363; 1145.450; -765.000; -733.000
416.489; 4442.825; -324.000; -251.000
416.615;  485.750; -707.000; -742.000
416.741;  -38.050; -677.000; -784.000
416.866;  -83.225; -673.000; -736.000
416.992; -132.000; -801.000; -818.000
417.118;  -40.900;  -41.000;  -80.000
417.244;  -91.625; -798.000; -531.000
417.369;  -85.775; -801.000; -612.000
417.495;  -17.675; -325.000; -254.000
417.621;  -98.000;-1015.000; -803.000
417.746;  -14.250; -579.000; -572.000
417.872;   51.750; -254.000; -144.000
417.998;   43.825; -515.000; -530.000
418.123; 1041.025;-1073.000; -845.000
418.249; 5658.275; -512.000; -601.000
418.374;  808.725; -916.000; -824.000
418.500;  106.800; -383.000; -482.000
418.626;  107.100;   70.000;  -59.000
418.751;  103.700; -549.000; -448.000
418.877;  196.425; -637.000; -643.000
419.002; 1836.050; -688.000; -560.000
419.128;13152.525; -930.000; -721.000
419.253; 3282.000; -967.000; -837.000
419.379;  439.900; -391.000; -338.000
419.504;  397.175;  325.000;  415.000
419.629;  540.675; -393.000; -212.000
419.755; 3711.475; -317.000; -254.000
419.880;22617.175;  -98.000;   67.000
420.006;12035.025; -280.000; -221.000
420.131;30673.400; -662.000; -775.000
420.256; 4517.900; -315.000; -316.000
420.382;  593.900; -665.000; -687.000
420.507;   58.100; -649.000; -778.000
420.632;   96.150; -337.000; -339.000
420.758;  174.550; -251.000; -425.000
420.883;  -92.400; -876.000; -672.000
421.008; -115.650; -775.000; -619.000
421.133;  -82.175; -509.000; -467.000
421.259;  -56.350; -325.000; -259.000
421.384; -131.050; -834.000; -693.000
421.509;  -71.800;-1052.000; -862.000
421.634;  852.900; -936.000; -820.000
421.759;  369.875; -359.000; -327.000
421.885;  -75.350; -717.000; -656.000
422.010;  -83.050; -673.000; -542.000
422.135; -155.825; -695.000; -727.000
422.260;   10.075;  340.000;  280.000
422.385;  -46.100;   12.000;  -98.000
422.510;   -4.600;  151.000;  -26.000
422.635;    2.125;  -87.000;  -43.000
422.760;   77.875; -766.000; -791.000
422.885;   54.550;  -57.000;  -80.000
423.010;  -47.750; -112.000; -169.000
423.135;  -95.400; -481.000; -561.000
423.260;  -34.025; -150.000; -245.000
423.385;   49.325;  476.000;  222.000
423.510;   17.675;   71.000;  -22.000
423.635;   52.075;  133.000;   45.000
423.760;   61.625;  383.000;  328.000
423.885;   39.850;  336.000;  391.000
424.010;    9.625;  -68.000;  -13.000
424.135;  -29.375;    5.000;  -33.000
424.259;  -97.550; -654.000; -457.000
424.384;  -69.275; -279.000; -272.000
424.509;  -34.650; -260.000; -186.000
424.634;  -97.875; -761.000; -623.000
424.759;  -23.425; -688.000; -544.000
424.883;   -7.925; -506.000; -527.000
425.008;  165.200; -502.000; -410.000
425.133; 2057.925; -679.000; -653.000
425.258;  977.200; -517.000; -381.000
425.382;  911.525; -867.000; -774.000
425.507; 2311.700; -487.000; -543.000
425.632;  396.725; -802.000; -663.000
425.756;  477.500; -256.000; -146.000
425.881; 6972.700; -831.000; -857.000
426.006;19370.100; -604.000; -355.000
426.130; 3051.800; -696.000; -508.000
426.255;  393.000; -611.000; -491.000
426.379;  169.375; -189.000; -577.000
426.504;  368.725;  660.000;  544.000
426.629; 4096.850; -519.000; -466.000
426.753; 2859.225;   64.000;  -46.000
426.878;  325.825; -252.000; -288.000
427.002;  140.825; -651.000; -668.000
427.127; 1604.925;  -35.000; -158.000
427.251;11860.950;  372.000;  401.000
427.375; 3462.600; -191.000; -173.000
427.500; 2055.375; -616.000; -610.000
427.624;  698.400; -234.000; -400.000
427.749;   78.200; -216.000; -225.000
427.873;  -39.875; -499.000; -412.000
427.997;  -36.900; -222.000; -230.000
428.122;   58.900;  795.000;  703.000
428.246;   51.550;  433.000;  434.000
428.371; -133.400; -869.000; -773.000
428.495; -116.250; -624.000; -646.000
428.619;  -30.725; -186.000; -117.000
428.743;   19.100;   65.000;  132.000
428.868;   -6.925; -732.000; -643.000
428.992; 1208.725; -219.000; -326.000
429.116;  477.600; -329.000; -357.000
429.240;  204.700;  419.000;  426.000
429.365;  -43.475; -454.000; -574.000
429.489;  -55.875; -638.000; -647.000
429.613;   20.825; -236.000; -177.000
429.737;   24.900; -563.000; -432.000
429.861;  270.725; -247.000; -133.000
429.985; 5700.400; -425.000; -305.000
430.109; 6449.950; -770.000; -908.000
430.234;  728.675;   76.000;  -50.000
430.358;   71.125; -250.000; -160.000
430.482;  -79.375; -672.000; -564.000
430.606;  -76.675; -655.000; -375.000
430.730;  -23.175; -437.000; -388.000
430.854;   43.325; -909.000; -835.000
430.978;  -93.600; -795.000; -764.000
431.102;  -94.975; -499.000; -422.000
431.226; -131.625; -874.000; -815.000
431.350;    1.200;  345.000;  422.000
431.474;  -88.525; -661.000; -373.000
431.597; -143.600;-1060.000; -848.000
431.721;  -92.925; -276.000; -267.000
431.845; -123.325; -704.000; -472.000
431.969;  -82.550; -304.000; -349.000
432.093;  -84.925; -395.000; -317.000
432.217;  -19.800;   32.000;   82.000
432.341;  -94.250; -523.000; -518.000
432.464;   -6.650;   96.000;   40.000
432.588;  136.175; -401.000; -329.000
432.712;   64.700;  -52.000;  -52.000
432.836;   40.425;  213.000;  263.000
432.959;  -11.425; -372.000; -311.000
433.083;   80.000;   11.000;    2.000
433.207;  386.850;  285.000;  930.000
433.330; 5265.875; -391.000; -200.000
433.454; 6606.275; -654.000; -638.000
433.578; 3795.475;  583.000;  278.000
433.701;  697.750; -623.000; -675.000
433.825;  111.175; -292.000; -299.000
433.949;  112.375;   28.000;  -72.000
434.072;   18.425; -410.000; -323.000
434.196;  -34.175; -309.000; -117.000
434.319; 3663.400;25482.000;25124.000
434.443;  711.750; -656.000; -603.000
434.566; 2776.125;  281.000;   62.000
434.690;  494.175; -637.000; -383.000
434.813;   46.625; -251.000; -173.000
434.937;  -87.400; -569.000; -696.000
435.060;  -62.275; -423.000; -332.000
435.184;  189.600; -492.000; -217.000
435.307;  103.450;  159.000;  102.000
435.431;  -13.325;  -40.000;   24.000
435.554;  -70.100; -399.000; -240.000
435.677;  -94.225; -350.000; -258.000
435.801;  -49.075;  -25.000;   49.000
435.924;  -39.350;    1.000;  -67.000
436.048; -118.475;-1019.000; -732.000
436.171;  -89.600; -240.000;  -66.000
436.294;  -44.750; -248.000; -229.000
436.417;   82.450; -963.000; -849.000
436.541;  -79.325; -814.000; -840.000
436.664;  -57.675; -242.000; -316.000
436.787;  -32.250;   13.000;  113.000
436.910; -126.325; -792.000; -422.000
437.034;    2.700;  142.000;  143.000
437.157;   24.650;  -11.000;    0.000
437.280;  -68.825; -392.000; -292.000
437.403; -109.300; -982.000; -869.000
437.526;  415.150; -903.000; -865.000
437.649; 1681.600; -505.000; -332.000
437.772;  216.825; -692.000; -540.000
437.896;   89.650;  700.000;  544.000
438.019; -127.225; -758.000; -503.000
438.142; -105.175; -596.000; -506.000
438.265;  -58.125; -639.000; -670.000
438.388;  392.550; -520.000; -410.000
438.511;   35.425; -597.000; -394.000
438.634;  -69.775; -247.000; -125.000
438.757; -148.325; -693.000; -619.000
438.880;  -38.400;  -34.000;  -57.000
439.003;  -87.275; -417.000; -437.000
439.126;  -72.150; -287.000; -167.000
439.248;  -69.050;  -98.000; -139.000
439.371;  -42.350;    9.000;  -53.000
439.494;   19.225;  510.000;  439.000
439.617;  -64.675;   65.000;  -88.000
439.740; -175.700; -968.000; -816.000
439.863; -146.425; -755.000; -595.000
439.986; -132.475; -476.000; -431.000
440.108;  -55.375; -161.000; -112.000
440.231; -181.075; -950.000; -836.000
440.354;  -49.750;  -64.000; -150.000
440.477;  -13.000; -566.000; -542.000
440.599;  -26.225; -200.000; -225.000
440.722; -124.700; -709.000; -586.000
440.845;   43.725;  751.000;  928.000
440.968; -124.800; -415.000; -311.000
441.090;  -73.250; -199.000;  -33.000
441.213; -171.975;-1021.000; -825.000
441.336;  -52.175; -159.000;   -5.000
441.458;  -81.700; -549.000; -396.000
441.581; -115.700; -628.000; -629.000
441.703;  -74.675; -152.000;   13.000
441.826; -124.700; -557.000; -400.000
441.948;  -53.925;   56.000;   51.000
442.071;   26.350;  555.000;  424.000
442.193; -130.750; -531.000; -485.000
442.316;   17.450;  152.000;   97.000
442.438;   34.025; -233.000;  -10.000
442.561;   52.025;  272.000;  262.000
442.683;  355.025; -809.000; -522.000
442.806;  858.200;   -8.000;   74.000
442.928;  -18.875; -859.000; -604.000
443.051;  -74.250; -577.000; -373.000
443.173;  -99.100; -341.000; -339.000
443.295;  -94.875; -263.000; -371.000
443.418;  -74.875; -321.000;  -29.000
443.540;  -21.250; -106.000;   -4.000
443.662; -113.700; -563.000; -465.000
443.785;  -34.875;  335.000;  199.000
443.907;  -91.325; -362.000; -208.000
444.029; -130.450; -767.000; -494.000
444.152; -136.475; -644.000; -554.000
444.274;  -45.400;  -18.000;  -24.000
444.396; -118.725; -461.000; -221.000
444.518; -141.575; -691.000; -454.000
444.640; -111.050; -268.000; -111.000
444.763;  -32.500;  388.000;  249.000
444.885; -111.125; -432.000; -392.000
445.007;  -33.250;   35.000;   86.000
445.129; -130.100; -610.000; -515.000
445.251; -107.750; -372.000; -439.000
445.373; -146.800; -537.000; -386.000
445.495;  -13.600;  242.000;  350.000
445.617;   59.675;  853.000;  753.000
445.739;  -86.800; -215.000;  -97.000
445.861;  -45.475; -245.000; -112.000
445.984;  -46.125; -267.000; -101.000
446.105;  117.700; -418.000; -251.000
446.227;  476.625; -176.000;  -19.000
446.349;  -15.700; -358.000; -249.000
446.471; -127.125; -615.000; -448.000
446.593;  -82.300; -316.000;   19.000
446.715;  -30.975;  -67.000;   41.000
446.837;   46.075;  697.000;  832.000
446.959; -105.750; -457.000; -478.000
447.081; -129.500; -628.000; -518.000
447.203;   30.425;  862.000;  834.000
447.325;  -92.325; -270.000;   42.000
447.446;  -19.950;  286.000;  530.000
447.568; -160.075; -921.000; -803.000
447.690;  -86.825; -236.000; -245.000
447.812; -144.025; -798.000; -519.000
447.933;  -26.350;  155.000;  127.000
448.055;  -60.625; -306.000; -261.000
448.177;  100.025;   31.000;   79.000
448.299;   35.500; -935.000; -727.000
448.420;   19.525;  -25.000;  159.000
448.542;  -47.550;   -3.000;   33.000
448.664;  -34.475;  109.000;  322.000
448.785;  -36.275;  265.000;   83.000
448.907; -108.475; -614.000; -353.000
449.028;  -54.750; -771.000; -471.000
449.150;   44.100;  492.000;  589.000
449.272; -189.150;-1044.000; -913.000
449.393;   36.950;  612.000;  694.000
449.515; -150.875; -634.000; -581.000
449.636;  -55.775; -264.000; -155.000
449.758;   63.350;  763.000;  622.000
449.879;  -95.475; -498.000; -396.000
450.001;  -88.600; -149.000;  -49.000
450.122;  -48.725;  -95.000;  162.000
450.244;  -42.375;   37.000;  364.000
450.365;  -86.475; -495.000; -301.000
450.486;  -47.200;   80.000;  268.000
450.608;    4.950;  393.000;  326.000
450.729;   62.425;  578.000;  645.000
450.850;    1.175; -574.000; -466.000
450.972;  799.075; -552.000; -389.000
451.093; 5233.725;  190.000;  588.000
451.214; 2373.350; -516.000; -337.000
451.336;  382.250;  773.000;  579.000
451.457;   57.225;  264.000;  393.000
451.578;  -58.350; -118.000;  -74.000
451.699; -118.300; -546.000; -540.000
451.821;  -68.800; -284.000;  -50.000
451.942;   -5.200;  278.000;  285.000
452.063;   24.275;  228.000;  419.000
452.184;  549.450;  -54.000;  -49.000
452.305; 1145.750;  103.000;  170.000
452.427;  150.425; -549.000; -301.000
452.548;  -26.625;   23.000;   79.000
452.669;  -48.850; -257.000;  -89.000
452.790;  -60.850;    3.000;  -18.000
452.911;  -14.625;  195.000;  259.000
453.032;  -65.300; -289.000;  -60.000
453.153;  -49.050;  -29.000;   81.000
453.274;   48.550;  737.000;  868.000
453.395;  -56.225;  -51.000;  175.000
453.516;  108.900; 1317.000; 1388.000
453.637;  -70.950; -205.000; -150.000
453.758;  -57.775;   15.000;   69.000
453.879; -136.200; -462.000; -250.000
454.000;   69.350; 1086.000;  948.000
454.121; -113.575; -554.000; -326.000
454.242; -121.875; -599.000; -383.000
454.362;  -59.025;  -99.000;  114.000
454.483;  -39.600; -309.000; -229.000
454.604;   47.275;  512.000;  580.000
454.725; -141.650; -627.000; -555.000
454.846; -140.275; -474.000; -406.000
454.967;  -32.975;  230.000;  539.000
455.087;  -66.525;  179.000;  153.000
455.208;   25.600;  554.000;  856.000
455.329;  -66.125;  -22.000;   82.000
455.450;   29.950;  473.000;  633.000
455.570;  -76.775; -234.000; -211.000
455.691;  -44.375;  201.000;  407.000
455.812;  -93.425; -270.000;  -92.000
455.932;  -60.650;  107.000;  -97.000
456.053;  -92.850;   36.000;   24.000
456.173; -105.425; -433.000; -355.000
456.294; -131.425; -476.000; -303.000
456.415;  -73.325;  -73.000;   70.000
456.535;  -34.825;  297.000;  273.000
456.656;  -58.225;  132.000;  240.000
456.776;  -71.175;    3.000;  298.000
456.897;   -8.700;  308.000;  513.000
457.017;  -80.400; -153.000;   -3.000
457.138; -114.850; -402.000; -249.000
457.258;  -45.775;  263.000;  224.000
457.379;  -23.100;  509.000;  521.000
457.499;  -31.550;  443.000;  432.000
457.620; -136.975; -407.000; -231.000
457.740;  -88.900; -132.000;  -11.000
457.860;  -58.200;   87.000;   44.000
457.981;  -50.525;  132.000;  124.000
458.101;  -79.000;  -89.000;   40.000
458.221;  -11.300;  336.000;  402.000
458.342;  -68.025;   -4.000;  -37.000
458.462;   21.200;  617.000;  352.000
458.582;  -33.750; -302.000; -294.000
458.703;   28.400;  303.000;  154.000
458.823;  -38.075;   22.000;  163.000
458.943;   25.550;  341.000;  467.000
459.063;  -19.950; 1124.000;  192.000
459.183;  -28.975;  328.000;  313.000
459.304;   -4.025;  315.000;  517.000
459.424;  -74.775; -246.000;  -89.000
459.544;  339.300;  388.000;  764.000
459.664;  874.400;  499.000;  506.000
459.784;  320.400; 1004.000; 1175.000
459.904;   55.750;  867.000;  744.000
460.024;   58.075;  867.000;  684.000
460.144;   -8.225;  449.000;  554.000
460.264;  -12.325;  515.000;  327.000
460.385; -102.025; -145.000; -119.000
460.505;   17.275;  905.000;  858.000
460.625;  -91.875;  -17.000;  -68.000
460.745;  -32.025;  396.000;  541.000
460.864;  -40.025;  153.000;  469.000
460.984;    9.975;  499.000;  573.000
461.104;  134.825; 1656.000; 1775.000
461.224;   14.475;  657.000;  650.000
461.344;  -38.200;  431.000;  360.000
461.464;  -44.800;  258.000;  513.000
461.584;  -31.975;  283.000;  466.000
461.704;  -37.575;   58.000;  108.000
461.824;  -55.325;  238.000;  259.000
461.943;  -45.150;  191.000;  130.000
462.063;  -80.850;    2.000;  324.000
462.183;   14.650;  639.000;  717.000
462.303;   95.700; 1678.000; 1230.000
462.422;   20.950;  781.000;  840.000
462.542;  -59.775;  271.000;  391.000
462.662;   22.900;  353.000;  380.000
462.782;  240.250;  833.000;  572.000
462.901;  500.000;  545.000;  717.000
463.021;  290.625; 1702.000; 1638.000
463.141;  -29.275;  337.000;  770.000
463.260;  -12.925;  614.000;  474.000
463.380;   21.525;  902.000;  884.000
463.499;  -50.325;  342.000;  332.000
463.619;  -30.225;  581.000;  559.000
463.738;  108.975; 1644.000;  903.000
463.858;   16.125;  657.000;  811.000
463.978;  -36.700;  542.000;  396.000
464.097;   56.100;  921.000; 1114.000
464.217;  113.525; 1196.000; 1143.000
464.336;  112.550; 1068.000; 1130.000
464.455;  -28.850;  328.000;  659.000
464.575;   15.350;  597.000;  602.000
464.694;  154.050; 1204.000; 1179.000
464.814;  128.250; 1190.000; 1138.000
464.933;   83.275; 1095.000; 1027.000
465.052;   85.325; 1412.000; 1054.000
465.172;   71.150;  922.000;  799.000
465.291;  120.775; 1376.000; 1320.000
465.410;   13.575;  462.000;  735.000
465.530;   74.850; 1355.000; 1310.000
465.649;   52.700; 1209.000; 1273.000
465.768;  135.500; 1673.000; 1508.000
465.888;   52.900;  941.000; 1174.000
466.007;   89.025; 1335.000; 1440.000
466.126;  -11.375;  721.000;  641.000
466.245;   32.625; 1176.000; 1187.000
466.364;   20.325;  950.000; 1060.000
466.484;   35.075; 1024.000; 1213.000
466.603;   30.300; 1101.000; 1222.000
466.722;  111.700; 1490.000; 1769.000
466.841;   79.075; 1151.000; 1401.000
466.960;   36.525; 1069.000;  972.000
467.079;  136.475; 1971.000; 1786.000
467.198;   53.700; 1238.000; 1181.000
467.317;   94.825; 1768.000; 1162.000
467.436;   59.825; 1709.000; 1261.000
467.555;  116.650; 1796.000; 1746.000
467.674;   57.850; 1227.000; 1329.000
467.793;   51.375; 1376.000; 1374.000
467.912;   72.575; 1658.000; 1539.000
468.031;  135.575; 2038.000; 1930.000
468.150;  133.875; 1842.000; 1837.000
468.269;  197.350; 2313.000; 2090.000
468.388;  180.450; 2168.000; 2339.000
468.507;  239.125; 2884.000; 2903.000
468.626;  273.150; 2555.000; 2541.000
468.744;  149.000; 2018.000; 2174.000
468.863;  204.500; 2312.000; 2523.000
468.982;   89.175; 1503.000; 1555.000
469.101;  213.475; 2788.000; 2692.000
469.220;  150.200; 2333.000; 2176.000
469.338;  244.850; 2935.000; 3051.000
469.457;  208.925; 2719.000; 2545.000
469.576;  340.150; 3953.000; 3784.000
469.695;  225.100; 2877.000; 3066.000
469.813;  415.750; 4148.000; 4192.000
469.932;  399.075; 4255.000; 4485.000
470.051;  421.175; 4075.000; 4161.000
470.169;  864.475; 4470.000; 4338.000
470.288; 1501.550; 4700.000; 4809.000
470.406;  900.425; 5059.000; 5194.000
470.525;  625.600; 6101.000; 5787.000
470.644;  641.850; 6847.000; 6794.000
470.762;  821.825; 8397.000; 7873.000
470.881;  917.200; 8651.000; 8464.000
470.999; 1045.050; 9685.000; 9151.000
471.118; 1092.775;11174.000;10711.000

