
Integration time [ms]: 200.000
Averaging Nr. [scans]: 10
Smoothing Nr. [pixels]: 0
Data measured with spectrometer [name]: 2101012U2
Wave   ;Sample   ;Dark     ;Reference
[nm]   ;[counts] ;[counts] ;[counts] 

197.733;  111.400;  516.000;  404.000
197.879; -158.600; -610.000; -634.000
198.025; -105.900; -475.000; -420.000
198.171; -169.100; -602.000; -612.000
198.317;  -79.000; -401.000; -316.000
198.463; -118.800; -655.000; -404.000
198.609;   43.600;  181.000; -137.000
198.755; -213.100; -644.000; -410.000
198.901; -181.500; -505.000; -424.000
199.047; -112.500; -615.000; -488.000
199.193;  -91.000; -230.000; -468.000
199.339;  -82.700; -222.000; -369.000
199.485;   96.500;  330.000;  271.000
199.631;   36.800;  227.000;  310.000
199.777; -108.400; -466.000; -398.000
199.923; -116.100; -610.000; -424.000
200.069;  -29.600; -141.000;  -58.000
200.215;  116.300;  128.000;  453.000
200.361;  106.100;  243.000;  477.000
200.507; -114.000; -600.000; -373.000
200.653;  -66.500; -371.000; -194.000
200.798;  -49.400; -215.000; -125.000
200.944;  -17.100; -146.000;  -41.000
201.090;   84.100;   61.000;  222.000
201.236;  -26.700; -116.000; -158.000
201.382;  252.600;  874.000;  903.000
201.528;    6.600;  -58.000;  -48.000
201.674;  -99.200; -386.000; -293.000
201.819; -143.900; -540.000; -439.000
201.965; -177.400; -699.000; -447.000
202.111;  -56.700; -273.000; -226.000
202.257;  -54.400; -250.000; -238.000
202.402;    7.500;   13.000;  -36.000
202.548;  -73.100; -169.000; -116.000
202.694;  178.200;  410.000; -183.000
202.840; -149.900; -603.000; -531.000
202.985; -152.700; -681.000; -639.000
203.131; -229.700; -832.000; -666.000
203.277;  -57.200; -199.000; -262.000
203.423; -133.200; -434.000; -520.000
203.568;  -64.400; -462.000; -237.000
203.714; -116.300; -535.000; -542.000
203.860; -172.800; -682.000; -641.000
204.005;   24.000;  112.000;  167.000
204.151;  165.700;  561.000;  556.000
204.296; -119.300; -354.000; -221.000
204.442; -178.500; -600.000; -547.000
204.588; -159.800; -592.000; -579.000
204.733;   49.500;  178.000;  168.000
204.879; -265.800;-1018.000; -822.000
205.025;   21.300;  -99.000;  126.000
205.170;    6.900;  -17.000;   94.000
205.316;  169.300;  438.000;  661.000
205.461; -182.800; -698.000; -554.000
205.607;  161.900;  609.000;  665.000
205.752; -162.900; -626.000; -551.000
205.898;  -70.000; -501.000; -391.000
206.043; -130.700; -578.000; -506.000
206.189;  -88.200; -243.000; -285.000
206.334;  142.200;  554.000;  606.000
206.480;  185.500;  409.000;  239.000
206.625; -173.800; -529.000; -552.000
206.771; -106.900; -451.000; -373.000
206.916;  -55.000; -210.000; -537.000
207.062; -155.800; -545.000; -591.000
207.207; -110.900; -546.000; -443.000
207.353;  130.200;  185.000;  460.000
207.498;   64.600;  196.000;   85.000
207.643;  -93.100; -501.000; -370.000
207.789; -268.600;-1069.000; -910.000
207.934; -189.600; -665.000; -713.000
208.080;  -55.000; -154.000;   66.000
208.225;  -20.300;  -22.000;  -57.000
208.370; -186.300; -727.000; -619.000
208.516; -172.100; -741.000; -487.000
208.661;  -65.600; -127.000;  -69.000
208.806;  -65.400; -165.000; -171.000
208.952; -276.700;-1044.000; -731.000
209.097;  179.000;  378.000;  349.000
209.242; -122.100; -307.000; -382.000
209.387;  101.700;  392.000;  350.000
209.533;  -76.500; -321.000; -350.000
209.678;  165.400;  472.000;  543.000
209.823; -116.700; -408.000; -310.000
209.969; -203.100; -860.000; -757.000
210.114; -203.600; -907.000; -719.000
210.259; -252.600; -939.000; -889.000
210.404;  -39.500; -171.000;  103.000
210.549;   32.800;  108.000;    3.000
210.695;  -16.100;   -3.000;  -95.000
210.840;  105.200;   94.000;   67.000
210.985; -169.700; -484.000; -303.000
211.130;  159.400;  268.000;  406.000
211.275;   55.000;  207.000;  199.000
211.420; -113.700; -300.000; -289.000
211.566; -134.200; -536.000; -489.000
211.711;   66.500;  218.000;  157.000
211.856; -115.000; -545.000; -519.000
212.001;   35.500;  151.000;   44.000
212.146;   18.900;  153.000;   49.000
212.291;  -53.800; -210.000; -186.000
212.436;  -41.600; -280.000;   -6.000
212.581; -151.600; -685.000; -653.000
212.726; -162.000; -487.000; -538.000
212.871;  -86.500; -552.000; -217.000
213.016; -285.100;-1172.000;-1029.000
213.161;  132.400;  406.000;  291.000
213.306; -150.500; -435.000; -577.000
213.451; -195.100; -778.000; -689.000
213.596;  -89.100; -455.000; -347.000
213.741; -120.000; -448.000; -538.000
213.886; -150.000; -498.000; -517.000
214.031;  -38.900; -294.000; -124.000
214.176; -128.200; -408.000; -341.000
214.321;  -53.300; -296.000; -157.000
214.466;  -33.100; -163.000;  -43.000
214.611;   21.600;  -61.000;  -10.000
214.756; -254.900; -948.000; -858.000
214.901;  -48.300; -388.000; -226.000
215.046; -238.400; -797.000; -825.000
215.191;   22.100;  128.000;   35.000
215.336;  -30.100; -157.000;  -19.000
215.480; -118.200; -684.000; -505.000
215.625;  -28.600; -175.000;  -19.000
215.770; -158.300; -757.000; -662.000
215.915;  -15.700;   -5.000;  -97.000
216.060;   19.100; -113.000;  -21.000
216.205; -212.000; -731.000; -779.000
216.349; -157.000; -470.000; -533.000
216.494; -266.900; -939.000; -867.000
216.639; -222.400; -823.000; -888.000
216.784; -192.000; -577.000; -525.000
216.929;  132.300;  392.000;  281.000
217.073;  -23.200; -244.000;  -31.000
217.218;   17.400;   78.000;  -47.000
217.363; -168.100; -656.000; -618.000
217.507; -162.900; -623.000; -588.000
217.652; -276.300; -845.000; -874.000
217.797; -192.200; -708.000; -659.000
217.942; -223.500; -856.000; -720.000
218.086;  170.400;  608.000;  539.000
218.231;  -33.300; -174.000;  -26.000
218.376;  -62.400; -337.000; -229.000
218.520;   20.900;  -41.000;   96.000
218.665;  -50.600; -338.000; -204.000
218.810;  -75.400; -275.000; -233.000
218.954;   40.800;  201.000;   35.000
219.099; -240.800; -713.000; -963.000
219.243; -134.300; -589.000; -554.000
219.388;  -42.000; -264.000; -136.000
219.532;   -3.300; -116.000; -116.000
219.677; -158.100; -564.000; -521.000
219.822;   27.600;   33.000;   89.000
219.966;   22.100;   17.000;  -99.000
220.111;  -47.200; -328.000;  -40.000
220.255; -203.100; -797.000; -750.000
220.400;  -42.200; -180.000; -146.000
220.544; -139.500; -516.000; -450.000
220.689; -129.500; -422.000; -451.000
220.833;  -25.600; -123.000;  -58.000
220.978;  -98.500; -393.000; -563.000
221.122;   60.500;  319.000;  307.000
221.267; -235.700; -906.000; -837.000
221.411; -130.600; -478.000; -394.000
221.555;   10.300; -104.000;  -23.000
221.700; -114.200; -329.000; -222.000
221.844;   75.500;  255.000;  272.000
221.989;  -81.900; -328.000; -311.000
222.133;  -72.100; -289.000; -307.000
222.277;    7.900;    5.000;   78.000
222.422;   20.700;  227.000;  113.000
222.566;  -70.100; -381.000; -214.000
222.711; -122.700; -414.000; -479.000
222.855; -162.100; -643.000; -586.000
222.999; -175.200; -642.000; -717.000
223.144;  -83.700; -195.000; -194.000
223.288;  141.300;  423.000;  251.000
223.432;   13.400;  184.000;  230.000
223.576;   62.500;  152.000;  -21.000
223.721;  108.800;  364.000;  273.000
223.865; -120.000; -472.000; -475.000
224.009;  545.900; 1673.000; 1631.000
224.153; -150.600; -660.000; -671.000
224.298; -151.300; -531.000; -489.000
224.442;  -27.500;  -74.000;  -33.000
224.586;    3.800; -169.000; -106.000
224.730; -211.800; -858.000; -670.000
224.875; -228.400; -739.000; -688.000
225.019;   49.700;  102.000;  188.000
225.163;  133.900;  208.000;  341.000
225.307;   31.700;   97.000;  -91.000
225.451;  104.300;  360.000;  481.000
225.595;   96.600;  264.000;  176.000
225.739;  -45.100; -170.000;  -94.000
225.884;   11.400;   86.000;    5.000
226.028; -218.300; -760.000; -626.000
226.172;  -65.500; -260.000; -273.000
226.316; -239.900; -941.000; -902.000
226.460; -150.400; -645.000; -493.000
226.604; -109.100; -406.000; -400.000
226.748; -225.800; -836.000; -733.000
226.892;  -53.600; -227.000; -181.000
227.036;  -93.400; -537.000; -447.000
227.180; -108.500; -551.000; -375.000
227.324; -152.400; -561.000; -580.000
227.468; -212.400; -819.000; -717.000
227.612;   33.600;  242.000;  -28.000
227.756; -209.300; -845.000; -698.000
227.900;  102.700;  342.000;  441.000
228.044; -125.000; -509.000; -290.000
228.188;  137.500;  448.000;  568.000
228.332; -171.800; -546.000; -472.000
228.476;  -61.700; -223.000; -149.000
228.620;  -43.300; -210.000; -150.000
228.764;  168.700;  431.000;  349.000
228.908;  -30.900; -155.000;   30.000
229.052; -138.900; -615.000; -528.000
229.195;  -19.200; -172.000;   13.000
229.339;  -53.800; -235.000; -305.000
229.483;  -33.800;    5.000; -162.000
229.627;  -26.900; -156.000;  139.000
229.771;  -87.900; -218.000; -294.000
229.915;   30.500;  230.000;   79.000
230.059; -165.300; -648.000; -663.000
230.202;  -88.500; -370.000; -317.000
230.346;  -14.200; -107.000;  107.000
230.490; -114.400; -489.000; -521.000
230.634; -223.700; -736.000; -553.000
230.777;  167.500;  478.000;  509.000
230.921; -124.800; -450.000; -359.000
231.065;  -76.700; -246.000; -286.000
231.209;   78.900;  261.000;  265.000
231.352;   68.200;   54.000;   40.000
231.496;   40.000;  568.000;  188.000
231.640; -167.300; -693.000; -621.000
231.783;  165.500;  546.000;  525.000
231.927;  -70.100; -294.000; -365.000
232.071; -247.700; -962.000; -736.000
232.214; -231.200; -980.000; -764.000
232.358; -213.400; -683.000; -599.000
232.502;   28.100;  -19.000;    7.000
232.645; -268.000;-1090.000; -927.000
232.789;   -7.700; -257.000; -218.000
232.933;  -92.800; -407.000; -224.000
233.076; -250.500;-1038.000; -897.000
233.220; -183.500; -752.000; -777.000
233.363; -188.600; -669.000; -477.000
233.507;  151.000;  371.000;  129.000
233.650; -178.900; -764.000; -834.000
233.794;   84.500;  438.000;  461.000
233.938; -104.900; -530.000; -362.000
234.081;  -34.700;  -93.000;   31.000
234.225; -120.400; -631.000; -539.000
234.368; -231.300; -773.000; -723.000
234.512;  -57.400; -385.000; -299.000
234.655; -177.400; -582.000; -555.000
234.798; -157.000; -493.000; -466.000
234.942; -265.200; -884.000;-1002.000
235.085; -132.900; -651.000; -443.000
235.229; -121.100; -405.000; -410.000
235.372; -102.700; -247.000; -191.000
235.516;  -91.200; -397.000; -321.000
235.659;   55.600;   92.000;  121.000
235.802;  -30.300;  -38.000;  -22.000
235.946;   72.100;  335.000;  215.000
236.089;   78.000;  126.000;  250.000
236.233;  125.100;  275.000;  298.000
236.376;  -74.900; -235.000; -378.000
236.519;  -85.200; -297.000; -319.000
236.663;  -47.600; -215.000; -117.000
236.806; -293.200;-1029.000; -999.000
236.949;  121.600;  543.000;  431.000
237.092;  159.500;  412.000;  391.000
237.236; -175.700; -589.000; -502.000
237.379;  149.300;  352.000;  428.000
237.522; -251.500; -879.000; -768.000
237.666;  -29.100; -271.000;   18.000
237.809; -257.900; -851.000; -823.000
237.952;   93.500;  469.000;  271.000
238.095;  -97.100; -447.000; -442.000
238.238;  221.700;  688.000;  700.000
238.382;    2.800;  166.000;  103.000
238.525; -139.900; -598.000; -511.000
238.668; -283.800;-1060.000; -985.000
238.811; -145.300; -638.000; -643.000
238.954;  -94.100; -483.000; -334.000
239.097;  226.500;  617.000;  664.000
239.241;   83.700;  394.000;  326.000
239.384;  -69.000; -254.000; -214.000
239.527; -109.500; -424.000; -224.000
239.670; -290.600; -994.000;-1091.000
239.813; -199.000; -696.000; -658.000
239.956;  180.700;  579.000;  473.000
240.099; -243.900; -778.000; -725.000
240.242;  146.700;  428.000;  432.000
240.385;  111.800;  466.000;  450.000
240.528; -106.500; -706.000; -473.000
240.671;   41.700;  189.000;  134.000
240.814;  -58.600; -441.000; -158.000
240.957; -200.900; -767.000; -578.000
241.100; -181.000; -779.000; -755.000
241.243; -284.700;-1234.000; -893.000
241.386; -145.000; -508.000; -379.000
241.529; -159.400; -735.000; -547.000
241.672; -118.000; -566.000; -495.000
241.815; -235.200; -832.000; -808.000
241.958;  -29.500; -125.000; -182.000
242.101; -175.500; -545.000; -390.000
242.244;  -56.700; -270.000; -325.000
242.387;  -51.900; -304.000; -246.000
242.530;  159.500;  470.000;  134.000
242.673;  -53.300; -381.000; -309.000
242.815; -229.100; -925.000; -899.000
242.958; -125.300; -482.000; -381.000
243.101;   37.800;  132.000;  187.000
243.244; -153.000; -564.000; -521.000
243.387;  -96.900; -313.000; -316.000
243.530; -182.200; -657.000; -674.000
243.672;   13.600;   43.000;  -92.000
243.815;  -95.700; -355.000; -283.000
243.958;   20.800;   98.000;  -26.000
244.101;  -13.300;   59.000;  -16.000
244.243;  -23.500;  -47.000;  101.000
244.386; -227.800; -761.000; -630.000
244.529;  -31.700; -132.000; -139.000
244.672; -350.700;-1154.000; -951.000
244.814; -205.700; -621.000; -794.000
244.957; -133.100; -380.000; -304.000
245.100; -140.100; -489.000; -489.000
245.242; -124.800; -387.000; -374.000
245.385;  -13.900;  -59.000;  -39.000
245.528; -250.100; -871.000; -705.000
245.670;  216.000;  612.000;  634.000
245.813; -175.700; -599.000; -547.000
245.956;  -45.600; -324.000; -275.000
246.098; -153.300; -508.000; -650.000
246.241;   24.500;  194.000;   48.000
246.383;  -46.600; -119.000;  -73.000
246.526; -164.000; -454.000; -525.000
246.669; -239.700; -889.000; -780.000
246.811;   92.800;  172.000;   -1.000
246.954; -129.500; -512.000; -426.000
247.096;  -50.000;  -84.000;   -6.000
247.239; -130.600; -482.000; -445.000
247.381; -178.000; -647.000; -488.000
247.524;  173.300;  645.000;  679.000
247.666;   11.800;   58.000;   11.000
247.809; -225.100; -887.000; -691.000
247.951;  -10.900;  -75.000;  138.000
248.094;   78.500;  432.000;  308.000
248.236; -334.600;-1262.000;-1238.000
248.378;  -45.200; -356.000;  -81.000
248.521;  -76.600; -334.000; -337.000
248.663;  -62.700; -236.000; -267.000
248.806;  -41.600; -300.000; -266.000
248.948; -247.900; -886.000; -763.000
249.090; -126.100; -428.000; -398.000
249.233; -158.000; -344.000; -381.000
249.375; -127.600; -474.000; -451.000
249.518;  -19.900;  -83.000; -133.000
249.660;   -5.700; -103.000;    3.000
249.802; -378.500;-1303.000;-1189.000
249.945; -177.200; -612.000; -540.000
250.087; -226.000; -834.000; -768.000
250.229; -108.100; -362.000; -480.000
250.371; -129.500; -494.000; -439.000
250.514;  -91.900; -310.000; -244.000
250.656;    9.600;   69.000;  102.000
250.798; -233.400; -849.000; -800.000
250.940; -109.600; -322.000; -322.000
251.083;  -52.200; -335.000; -111.000
251.225;  133.600;  338.000;  310.000
251.367;  -60.500; -274.000; -373.000
251.509;  -68.800; -265.000; -210.000
251.651; -197.300; -731.000; -671.000
251.794;  107.600;  538.000;  632.000
251.936; -242.600; -821.000; -747.000
252.078; -171.200; -540.000; -461.000
252.220; -173.000; -645.000; -477.000
252.362;  107.700;  344.000;  462.000
252.504; -171.500; -677.000; -584.000
252.646; -223.900; -875.000; -722.000
252.788;  -39.900;   14.000; -128.000
252.931; -100.800; -257.000; -253.000
253.073; -110.900; -376.000; -317.000
253.215;  -19.200;  141.000;  122.000
253.357;   -5.000;   82.000; -153.000
253.499; -111.600; -374.000; -234.000
253.641; -181.700; -749.000; -594.000
253.783; -213.400; -609.000; -527.000
253.925; -185.900; -586.000; -591.000
254.067; -198.000; -744.000; -667.000
254.209;  -86.000; -391.000; -259.000
254.351; -277.300; -865.000; -883.000
254.493; -127.500; -441.000; -417.000
254.635; -251.500; -936.000; -818.000
254.777; -172.300; -752.000; -687.000
254.918; -141.800; -512.000; -430.000
255.060; -104.800; -551.000; -395.000
255.202; -121.400; -473.000; -261.000
255.344; -157.200; -658.000; -455.000
255.486; -106.400; -471.000; -406.000
255.628; -247.100; -780.000; -781.000
255.770; -169.400; -676.000; -536.000
255.912; -128.200; -559.000; -468.000
256.053; -180.000; -730.000; -508.000
256.195;  364.600; 1008.000;  903.000
256.337; -211.800; -861.000; -595.000
256.479;  145.400;  532.000;  416.000
256.621; -105.400; -394.000; -212.000
256.762; -185.900; -789.000; -742.000
256.904;  141.500;  485.000;  487.000
257.046;  -44.700; -381.000; -271.000
257.188;  -85.800; -351.000; -264.000
257.329; -169.400; -525.000; -464.000
257.471; -247.900; -939.000; -807.000
257.613; -152.900; -584.000; -498.000
257.755; -329.200;-1073.000; -982.000
257.896;   66.600;  286.000;  392.000
258.038; -117.000; -403.000; -352.000
258.180;  -74.300; -354.000; -279.000
258.321; -134.200; -581.000; -457.000
258.463;   -6.000;  -71.000;  133.000
258.605; -192.300; -562.000; -570.000
258.746; -198.100; -886.000; -772.000
258.888; -293.300;-1026.000;-1020.000
259.029;   57.200;  121.000;   -8.000
259.171; -189.600; -614.000; -550.000
259.313;    2.800;  -49.000;  -47.000
259.454; -135.900; -536.000; -414.000
259.596;  -89.600; -483.000; -390.000
259.737; -140.500; -590.000; -474.000
259.879;   77.700;  217.000;  311.000
260.020;  172.600;  901.000;  636.000
260.162;  -42.700; -146.000; -253.000
260.303; -238.600; -768.000; -687.000
260.445; -173.100; -609.000; -613.000
260.586;   74.500;  392.000;  157.000
260.728;  -86.900; -360.000; -248.000
260.869; -150.100; -350.000; -343.000
261.011;  174.700;  706.000;  537.000
261.152; -143.200; -479.000; -319.000
261.293; -186.300; -576.000; -595.000
261.435;  -33.500; -219.000; -184.000
261.576;  -89.600; -455.000; -325.000
261.718;  138.700;  420.000;  470.000
261.859; -244.100; -940.000; -949.000
262.000; -263.600; -951.000;-1016.000
262.142;  -16.500;  -52.000;  -60.000
262.283; -270.400; -808.000; -691.000
262.424; -181.500; -666.000; -625.000
262.566; -307.800;-1161.000; -983.000
262.707; -233.600; -840.000; -830.000
262.848; -236.600; -769.000; -726.000
262.990;  -82.400; -362.000; -345.000
263.131;  205.900;  650.000;  681.000
263.272;   10.200;  -61.000;  -41.000
263.413; -184.000; -589.000; -561.000
263.555;  -98.900; -669.000; -143.000
263.696; -176.500; -550.000; -641.000
263.837; -111.700; -449.000; -551.000
263.978;   13.100;   -5.000;  -77.000
264.119;  -57.000; -283.000; -264.000
264.261; -208.800; -847.000; -630.000
264.402;   27.600;   33.000;   40.000
264.543; -146.500; -509.000; -524.000
264.684;   28.400;   61.000;  -50.000
264.825; -147.500; -816.000; -538.000
264.966;   23.400;  -84.000;  -67.000
265.107; -238.500; -646.000; -670.000
265.248; -240.200; -825.000; -812.000
265.390;   -2.600;  152.000;   -9.000
265.531;  -45.300; -238.000; -107.000
265.672; -180.800; -557.000; -630.000
265.813;  130.000;  563.000;  439.000
265.954; -285.400; -959.000; -940.000
266.095;  -34.400; -372.000; -322.000
266.236; -212.000; -686.000; -548.000
266.377;  -75.000; -243.000; -297.000
266.518; -124.700; -619.000; -547.000
266.659;   62.400;  170.000;  268.000
266.800;   38.200;   83.000;   85.000
266.941; -127.500; -487.000; -478.000
267.082;   26.900;  354.000;   99.000
267.223; -134.700; -344.000; -273.000
267.364; -266.200; -892.000; -686.000
267.504;  -17.300;    3.000;  135.000
267.645;   34.800;  160.000;   67.000
267.786;  -51.000; -147.000;  -86.000
267.927; -128.600; -473.000; -379.000
268.068;  -46.900; -186.000;  -61.000
268.209;  -86.600; -175.000; -413.000
268.350; -101.700; -388.000; -532.000
268.490; -191.300; -648.000; -521.000
268.631;   87.800;  127.000;  225.000
268.772; -215.300; -874.000; -647.000
268.913; -117.200; -328.000; -476.000
269.054;  -20.200; -117.000;   12.000
269.194;  -90.600; -418.000; -402.000
269.335; -312.500;-1137.000;-1074.000
269.476;  -30.000;   33.000;  -35.000
269.617;  -92.400; -347.000; -392.000
269.757; -205.800; -713.000; -646.000
269.898; -197.900; -856.000; -613.000
270.039; -146.800; -415.000; -405.000
270.180; -284.200; -952.000; -816.000
270.320;  -41.100; -190.000; -250.000
270.461;  -87.600; -277.000; -249.000
270.602;   -5.200; -186.000; -156.000
270.742; -239.000; -868.000; -943.000
270.883; -127.400; -442.000; -390.000
271.023; -127.800; -358.000; -357.000
271.164; -166.700; -607.000; -528.000
271.305; -194.300; -666.000; -654.000
271.445; -162.500; -722.000; -683.000
271.586; -107.100; -462.000; -283.000
271.726;  -88.600; -397.000; -322.000
271.867; -175.700; -594.000; -534.000
272.008;  -57.100; -473.000; -285.000
272.148;   85.700;  462.000;  468.000
272.289;  -12.500; -113.000; -181.000
272.429;    8.200;   19.000;  185.000
272.570; -185.200; -633.000; -737.000
272.710; -203.300; -825.000; -775.000
272.851;  -36.300;  113.000; -130.000
272.991; -321.800;-1173.000;-1077.000
273.131; -151.000; -419.000; -459.000
273.272; -203.500; -683.000; -723.000
273.412;  -23.200; -143.000;  -31.000
273.553; -111.900; -488.000; -507.000
273.693;  236.400;  913.000;  858.000
273.834; -263.000; -894.000; -692.000
273.974; -171.000; -664.000; -615.000
274.114; -212.100; -772.000; -560.000
274.255;  117.300;  414.000;  373.000
274.395;  -60.800; -180.000; -125.000
274.535;   48.900;  199.000;  350.000
274.676;   72.900;  225.000;   94.000
274.816;  -24.500;  110.000;   34.000
274.956; -192.900; -624.000; -690.000
275.097; -272.400;-1014.000; -922.000
275.237; -264.800; -913.000; -803.000
275.377; -208.600; -778.000; -689.000
275.517; -306.000; -878.000; -937.000
275.658; -171.500; -590.000; -555.000
275.798; -180.500; -606.000; -413.000
275.938;   48.100;  215.000;  323.000
276.078; -173.300; -626.000; -395.000
276.218;  -10.100;   99.000;  104.000
276.359; -255.300;-1026.000;-1024.000
276.499; -150.000; -605.000; -446.000
276.639;  -67.800; -305.000; -151.000
276.779; -119.700; -475.000; -357.000
276.919; -203.900; -783.000; -624.000
277.059;  -31.900; -261.000; -212.000
277.199; -109.000; -357.000; -259.000
277.340;   57.500;  287.000;  175.000
277.480; -224.300; -840.000; -693.000
277.620;   79.600;  192.000;   16.000
277.760; -418.300;-1533.000;-1294.000
277.900;    0.700;  113.000;   33.000
278.040;   21.500;  137.000;  159.000
278.180;   81.300;  270.000;  170.000
278.320;   17.400;   21.000;   56.000
278.460; -139.900; -443.000; -469.000
278.600; -177.300; -708.000; -598.000
278.740;  112.100;  448.000;  224.000
278.880; -246.000; -768.000; -791.000
279.020;  -13.700; -194.000; -144.000
279.160; -196.700; -672.000; -595.000
279.300; -246.800; -926.000; -873.000
279.440; -213.500; -709.000; -622.000
279.579; -262.100;-1014.000; -929.000
279.719; -144.200; -410.000; -394.000
279.859;   52.400;   -4.000;   41.000
279.999;  -54.000; -208.000;  101.000
280.139; -142.500; -435.000; -387.000
280.279; -230.000; -708.000; -745.000
280.419;  -13.400; -229.000; -147.000
280.559;  -46.700; -259.000; -180.000
280.698; -183.600; -790.000; -639.000
280.838; -223.700; -778.000; -800.000
280.978; -220.800; -846.000; -790.000
281.118; -243.000; -811.000; -704.000
281.257;   22.000;   24.000;    6.000
281.397; -318.200;-1094.000; -960.000
281.537; -232.400; -599.000; -712.000
281.677;  -58.500; -150.000; -101.000
281.816; -178.100; -700.000; -630.000
281.956;  -43.400; -193.000; -257.000
282.096; -142.600; -539.000; -396.000
282.235; -198.900; -672.000; -638.000
282.375;  -52.000; -243.000;  -98.000
282.515; -223.300; -715.000; -707.000
282.654;   32.600;   29.000;  106.000
282.794;   48.900;  388.000;  244.000
282.934;  -97.100; -530.000; -491.000
283.073; -284.000;-1030.000; -857.000
283.213; -117.500; -460.000; -467.000
283.353; -105.300; -408.000; -349.000
283.492;  -55.400; -264.000; -296.000
283.632;  -75.500; -254.000; -168.000
283.771; -191.200; -859.000; -730.000
283.911; -119.600; -369.000; -260.000
284.050; -195.700; -794.000; -748.000
284.190; -342.300;-1229.000;-1096.000
284.329; -299.500;-1055.000; -964.000
284.469; -175.700; -516.000; -591.000
284.608; -123.400; -559.000; -598.000
284.748; -147.400; -614.000; -570.000
284.887;   11.700;  -87.000;  -20.000
285.027; -245.700; -844.000; -892.000
285.166;  -61.900; -192.000; -249.000
285.306;  -62.700; -116.000;  -33.000
285.445;  -85.400; -229.000; -343.000
285.584; -187.000; -630.000; -494.000
285.724;  -56.500; -282.000; -322.000
285.863; -233.400; -857.000; -507.000
286.002;  -83.800; -366.000; -276.000
286.142; -262.100; -715.000; -622.000
286.281; -178.200; -525.000; -493.000
286.420; -169.300; -554.000; -417.000
286.560;  227.000;  653.000;  623.000
286.699; -284.500; -958.000; -912.000
286.838; -183.700; -590.000; -591.000
286.978; -176.500; -533.000; -537.000
287.117; -285.600;-1085.000; -950.000
287.256;  -61.800; -228.000; -211.000
287.395; -108.500; -197.000; -378.000
287.535; -116.900; -370.000; -298.000
287.674; -166.100; -509.000; -484.000
287.813;  157.600;  661.000;  533.000
287.952; -257.400;-1010.000; -871.000
288.091; -307.600;-1049.000; -915.000
288.231;   32.900;   13.000;   15.000
288.370; -341.900;-1217.000;-1200.000
288.509; -180.100; -728.000; -645.000
288.648; -189.600; -770.000; -548.000
288.787;  -42.800; -243.000;  -87.000
288.926; -134.700; -454.000; -475.000
289.065;  234.600;  859.000;  672.000
289.204; -122.700; -377.000; -217.000
289.344; -202.800; -791.000; -690.000
289.483;   45.000;  416.000;  304.000
289.622;  -58.300; -291.000; -149.000
289.761;  -36.400; -309.000; -166.000
289.900; -229.200; -785.000; -626.000
290.039;  -47.000;  -12.000;  -95.000
290.178;  -70.100; -274.000; -180.000
290.317; -175.200; -618.000; -479.000
290.456; -115.400; -463.000; -451.000
290.595; -309.600; -961.000; -833.000
290.734; -296.500; -904.000; -891.000
290.873; -115.000; -456.000; -420.000
291.011; -221.100; -833.000; -843.000
291.150; -199.200; -770.000; -682.000
291.289;  -53.500; -343.000; -110.000
291.428; -169.400; -599.000; -480.000
291.567; -102.900; -370.000; -442.000
291.706;    9.600;  109.000;  154.000
291.845; -190.900; -597.000; -505.000
291.984; -330.700;-1234.000;-1061.000
292.122;  155.400;  602.000;  582.000
292.261;   97.600;  620.000;  463.000
292.400;   27.900; -144.000;  211.000
292.539; -272.700; -959.000; -813.000
292.678; -107.000; -325.000; -300.000
292.816; -312.500;-1136.000; -965.000
292.955; -219.000; -844.000; -684.000
293.094;  -89.600; -173.000; -337.000
293.233; -125.900; -556.000; -400.000
293.371;  -75.300; -225.000;  -84.000
293.510; -223.400; -866.000; -780.000
293.649; -285.000; -959.000; -924.000
293.787; -296.500;-1083.000;-1012.000
293.926;  -26.900; -113.000;  -32.000
294.065;  -97.100; -379.000; -290.000
294.203;  113.600;  298.000;  406.000
294.342;   12.500;   74.000;  156.000
294.481;12351.200;51180.000; -836.000
294.619;  -60.100; -425.000; -582.000
294.758; -317.000;-1230.000;-1137.000
294.896;   -8.700; -125.000;    5.000
295.035; -304.500;-1040.000;-1006.000
295.174; -297.000;-1082.000; -954.000
295.312; -124.600; -323.000; -203.000
295.451; -103.600; -307.000; -428.000
295.589; -143.200; -389.000; -518.000
295.728;   20.000; -292.000; -165.000
295.866;  -36.100;  -36.000;  -51.000
296.005; -159.300; -584.000; -341.000
296.143; -197.700; -558.000; -596.000
296.282; -246.400; -957.000; -881.000
296.420; -179.000; -657.000; -557.000
296.559; -231.200; -892.000; -633.000
296.697; -232.600; -847.000; -665.000
296.835; -301.800;-1141.000;-1002.000
296.974;   19.800;  -23.000;   39.000
297.112; -140.500; -443.000; -504.000
297.251; -215.800; -815.000; -755.000
297.389; -145.200; -576.000; -438.000
297.527;  -37.200; -145.000;  -83.000
297.666; -153.700; -486.000; -438.000
297.804; -121.200; -404.000; -264.000
297.942;  -12.100; -136.000; -161.000
298.081;  -40.700; -183.000;   63.000
298.219;    6.800;  -17.000;  -19.000
298.357;  -76.200; -144.000;  -71.000
298.495; -252.700; -810.000; -812.000
298.634;   21.300;  245.000;  219.000
298.772;  -57.600; -220.000; -338.000
298.910; -130.200; -309.000; -182.000
299.048;  -35.900; -130.000; -153.000
299.187; -100.400; -350.000; -250.000
299.325;   31.900;   52.000;  122.000
299.463; -113.800; -389.000; -299.000
299.601;  -72.900; -327.000; -271.000
299.739; -284.300; -908.000; -883.000
299.877; -197.600; -791.000; -703.000
300.016; -336.100;-1095.000; -935.000
300.154;    7.100;  -19.000; -161.000
300.292; -168.900; -428.000; -348.000
300.430;  -84.600; -408.000; -291.000
300.568; -269.400; -940.000; -874.000
300.706; -113.500; -366.000; -469.000
300.844; -309.900;-1108.000; -979.000
300.982;  107.700;  246.000;  282.000
301.120; -281.500; -965.000; -866.000
301.258; -206.400; -812.000; -705.000
301.396;   11.800;  104.000;  -41.000
301.534;  -62.800; -218.000; -293.000
301.672; -190.200; -664.000; -521.000
301.810; -174.800; -613.000; -545.000
301.948;   52.200;   53.000;  149.000
302.086;  -52.400; -250.000;  -32.000
302.224; -163.900; -610.000; -585.000
302.362; -187.300; -558.000; -622.000
302.500; -274.800; -923.000; -893.000
302.638;   39.700;  128.000;  245.000
302.776; -100.500; -352.000; -408.000
302.913;   95.800;  447.000;  236.000
303.051;  -61.500;  -86.000;  -23.000
303.189;   28.200;   90.000;  118.000
303.327;  -77.200; -341.000; -256.000
303.465; -205.500; -832.000; -588.000
303.603; -176.600; -805.000; -604.000
303.740;  102.200;  417.000;  241.000
303.878; -242.400; -800.000; -759.000
304.016; -209.700; -915.000; -790.000
304.154; -320.900;-1123.000;-1152.000
304.291; -148.500; -505.000; -554.000
304.429;  -15.000;  102.000;   74.000
304.567; -269.900; -908.000; -893.000
304.705; -137.900; -408.000; -515.000
304.842; -183.600; -616.000; -540.000
304.980;   17.700;  215.000;   35.000
305.118; -104.400; -367.000; -365.000
305.255; -293.800; -945.000; -927.000
305.393;   54.700;  178.000;  239.000
305.531; -301.500;-1173.000; -956.000
305.668; -204.200; -663.000; -582.000
305.806; -140.500; -358.000; -439.000
305.943; -170.600; -629.000; -637.000
306.081; -121.700; -378.000; -267.000
306.219; -257.300; -863.000; -748.000
306.356;   19.100;  158.000;   27.000
306.494;  167.600;  981.000;  761.000
306.631;    1.700;  -11.000;  -55.000
306.769; -148.800; -613.000; -485.000
306.906; -114.000; -284.000; -258.000
307.044; -129.500; -473.000; -488.000
307.181; -110.800; -410.000; -332.000
307.319;   77.100;  112.000;   87.000
307.456; -372.000;-1191.000;-1153.000
307.594; -289.000; -980.000; -727.000
307.731; -105.700; -371.000; -164.000
307.868;  -57.200;  -15.000;   20.000
308.006; -299.300; -961.000; -847.000
308.143; -165.300; -618.000; -330.000
308.281;  -58.500;  -37.000; -254.000
308.418; -194.200; -748.000; -640.000
308.555; -148.000; -400.000; -250.000
308.693; -134.400; -577.000; -573.000
308.830; -231.100; -712.000; -657.000
308.967;  -32.300; -215.000;  -95.000
309.105; -128.000; -507.000; -396.000
309.242; -142.400; -468.000; -367.000
309.379; -183.400; -577.000; -655.000
309.517; -263.700; -936.000; -948.000
309.654; -271.900; -910.000; -734.000
309.791; -183.100; -662.000; -580.000
309.928; -276.900; -977.000; -914.000
310.065;  194.800;  819.000;  697.000
310.203; -275.500; -825.000; -850.000
310.340; -112.100; -465.000; -321.000
310.477; -181.400; -412.000; -516.000
310.614; -133.400; -383.000; -473.000
310.751; -174.500; -427.000; -518.000
310.889;  -72.200;    1.000;   11.000
311.026; -318.400;-1161.000; -939.000
311.163; -133.600; -386.000; -380.000
311.300; -173.600; -512.000; -479.000
311.437; -162.500; -658.000; -619.000
311.574; -363.200;-1226.000; -985.000
311.711; -147.700; -595.000; -433.000
311.848; -105.200; -380.000; -388.000
311.985;   53.700;  270.000;   93.000
312.122; -288.100; -932.000; -762.000
312.259; -259.300; -941.000; -994.000
312.396; -199.800; -508.000; -551.000
312.533; -206.100; -812.000; -790.000
312.670; -327.600;-1070.000; -898.000
312.807; -100.700; -352.000; -367.000
312.944; -227.500; -513.000; -611.000
313.081;  -98.700; -150.000; -415.000
313.218; -285.100;-1111.000; -867.000
313.355; -127.000; -531.000; -449.000
313.492; -101.500; -455.000; -292.000
313.629;  201.900;  815.000;  735.000
313.766; -346.900;-1176.000;-1008.000
313.902;  -51.400; -186.000;   21.000
314.039; -100.300; -372.000; -289.000
314.176;   51.300;  286.000;  192.000
314.313; -171.900; -569.000; -473.000
314.450; -223.300; -788.000; -684.000
314.587; -180.900; -468.000; -480.000
314.723;  -40.900;  -78.000;  130.000
314.860;   44.800;  318.000;  332.000
314.997;   17.300;  223.000;  142.000
315.134; -127.300; -385.000; -368.000
315.270; -135.700; -480.000; -496.000
315.407; -333.000;-1094.000; -967.000
315.544; -158.600; -657.000; -538.000
315.681; -200.000; -681.000; -565.000
315.817;  -63.100; -133.000; -176.000
315.954; -193.500; -613.000; -392.000
316.091; -330.300;-1045.000;-1023.000
316.227;  -54.700;  -71.000; -179.000
316.364;   18.500;   23.000;    6.000
316.500;  -79.500; -113.000; -300.000
316.637;  -93.200; -181.000; -302.000
316.774; -158.800; -625.000; -358.000
316.910; -181.300; -598.000; -629.000
317.047; -176.900; -487.000; -351.000
317.183; -140.400; -435.000; -566.000
317.320; -130.600; -367.000; -321.000
317.456; -231.400; -733.000; -805.000
317.593; -220.900; -598.000; -641.000
317.729;   -0.400;  168.000;  -67.000
317.866; -397.600;-1434.000;-1285.000
318.002; -165.600; -708.000; -948.000
318.139; -260.900; -883.000; -867.000
318.275; -213.300;-1003.000; -738.000
318.412; -126.200; -517.000; -336.000
318.548; -180.100; -751.000; -720.000
318.685; -297.800; -985.000; -888.000
318.821; -204.100; -762.000; -735.000
318.957;  -54.000;   34.000;  -23.000
319.094;  126.900;  297.000;  154.000
319.230; -227.300; -756.000; -742.000
319.367; -120.400; -471.000; -520.000
319.503; -143.700; -538.000; -436.000
319.639; -226.500; -877.000; -793.000
319.775; -239.800; -750.000; -685.000
319.912; -138.000; -424.000; -519.000
320.048; -370.200;-1184.000;-1184.000
320.184;   30.600;   59.000;   70.000
320.321; -137.600; -497.000; -467.000
320.457;  130.900;  475.000;  662.000
320.593; -155.000; -375.000; -382.000
320.729; -230.000; -732.000; -734.000
320.866; -204.300; -577.000; -635.000
321.002; -210.700; -759.000; -809.000
321.138; -121.400; -135.000; -211.000
321.274;  -50.900; -148.000; -115.000
321.410; -182.500; -585.000; -353.000
321.546; -303.400;-1011.000; -911.000
321.683;   85.000;  400.000;  185.000
321.819;   -6.300;  -48.000; -117.000
321.955; -259.200; -743.000; -722.000
322.091; -154.700; -585.000; -540.000
322.227;  -82.100; -382.000; -202.000
322.363;  -99.800; -320.000; -215.000
322.499; -141.100; -343.000; -331.000
322.635;  182.000;  636.000;  443.000
322.771;  -54.900; -139.000;   12.000
322.907;   85.100;  129.000;  327.000
323.043;  -82.400; -115.000; -206.000
323.179; -130.600; -394.000; -363.000
323.315; -150.500; -401.000; -371.000
323.451;  -99.700; -328.000; -236.000
323.587;  -93.300;  -60.000;  -77.000
323.723; -179.800; -682.000; -601.000
323.859;  -64.700; -258.000;  -76.000
323.995; -105.900; -467.000; -409.000
324.131; -272.300; -967.000; -892.000
324.267;  -74.200; -254.000; -276.000
324.402; -297.500; -960.000; -983.000
324.538;  -85.600; -279.000; -104.000
324.674;   -5.200;  164.000;   77.000
324.810;   12.000;  226.000;  308.000
324.946; -118.100; -810.000; -658.000
325.082; -169.700; -568.000; -475.000
325.217;    6.100;  -62.000;   16.000
325.353; -198.600; -764.000; -659.000
325.489; -179.700; -540.000; -506.000
325.625; -169.700; -579.000; -525.000
325.760;   80.800;  517.000;  376.000
325.896; -191.000; -515.000; -702.000
326.032;  -94.300; -403.000; -352.000
326.168; -107.100; -462.000; -369.000
326.303; -143.700; -352.000; -461.000
326.439;  -54.700; -336.000; -276.000
326.575;  -68.000; -190.000;  -29.000
326.710;  -15.900; -156.000;  -30.000
326.846;    7.700;  146.000;  103.000
326.982; -203.000; -530.000; -548.000
327.117; -185.000; -481.000; -442.000
327.253; -229.900; -745.000; -742.000
327.388; -310.500;-1137.000;-1153.000
327.524; -223.100; -811.000; -578.000
327.659;  -52.700;  -58.000;  -22.000
327.795;   10.100;   69.000;   45.000
327.931; -206.400; -723.000; -499.000
328.066;  -68.900; -417.000; -276.000
328.202;  -66.200;   12.000; -129.000
328.337;  227.900;  957.000;  713.000
328.473;  -34.500;  -12.000;  -74.000
328.608;  -45.600; -256.000; -267.000
328.743; -232.900; -799.000; -664.000
328.879;    9.300;  214.000;  114.000
329.014; -126.700; -102.000; -122.000
329.150; -145.300; -358.000; -483.000
329.285; -174.400; -465.000; -466.000
329.421;  -98.400; -548.000; -246.000
329.556;  -45.000;  -36.000;   85.000
329.691; -188.200; -633.000; -615.000
329.827; -146.300; -626.000; -480.000
329.962;  -76.600;  131.000; -301.000
330.097; -201.600; -673.000; -585.000
330.233; -100.200; -410.000; -223.000
330.368; -253.200; -839.000; -628.000
330.503;   -4.900;    3.000;   98.000
330.638;  -60.900;  -93.000; -125.000
330.774; -176.600; -609.000; -530.000
330.909; -125.400; -434.000; -244.000
331.044; -234.600; -714.000; -708.000
331.179; -380.600;-1217.000;-1109.000
331.315;   47.300;   77.000;   20.000
331.450;   59.300;  157.000;  285.000
331.585; -210.800; -805.000; -706.000
331.720; -174.300; -510.000; -460.000
331.855;  -58.600;  -35.000; -102.000
331.990;  -20.000;   62.000;  138.000
332.126;   -2.000; -110.000;   71.000
332.261; -136.000; -379.000; -265.000
332.396;  -49.900; -135.000; -242.000
332.531; -337.000;-1074.000;-1031.000
332.666; -114.800; -519.000; -363.000
332.801; -232.600; -726.000; -807.000
332.936;  -34.600; -192.000; -122.000
333.071; -263.100; -870.000; -817.000
333.206;   60.300;  307.000;  379.000
333.341;   76.300;  344.000;  418.000
333.476; -176.100; -627.000; -623.000
333.611; -103.200; -251.000; -173.000
333.746; -102.400; -381.000; -464.000
333.881; -277.000; -973.000; -935.000
334.016; -285.500; -936.000; -917.000
334.151; -277.900; -746.000; -702.000
334.286;   24.700;  152.000;  186.000
334.421;  -11.400; -125.000; -178.000
334.556; -166.400; -611.000; -567.000
334.690; -203.700; -631.000; -577.000
334.825;   99.700;  381.000;   83.000
334.960; -142.100; -285.000; -413.000
335.095;   -2.100;  135.000;  -91.000
335.230; -243.100; -722.000; -738.000
335.365; -299.100;-1084.000; -990.000
335.499; -320.900;-1108.000;-1037.000
335.634;  -33.000;    9.000;  534.000
335.769; -240.000; -755.000; -720.000
335.904; -192.600; -603.000; -561.000
336.038; -234.800; -735.000; -657.000
336.173; -372.100;-1206.000;-1194.000
336.308; -133.600; -116.000; -189.000
336.443; -110.400; -544.000; -634.000
336.577; -241.800; -936.000; -787.000
336.712;    6.900;   -4.000;  -12.000
336.847; -203.800; -724.000; -607.000
336.981; -102.500; -272.000; -208.000
337.116;  114.600;  615.000;  501.000
337.250; -160.700; -434.000; -421.000
337.385; -140.800; -297.000; -208.000
337.520; -186.100; -632.000; -603.000
337.654; -100.900; -215.000; -126.000
337.789; -285.100; -989.000; -933.000
337.923;  -82.200; -104.000; -205.000
338.058; -251.800; -673.000; -738.000
338.192; -159.500; -611.000; -488.000
338.327;  -44.000;  -18.000; -155.000
338.461; -154.700; -299.000; -469.000
338.596; -205.900; -780.000; -638.000
338.730; -253.000; -767.000; -803.000
338.865;  -55.100;  -46.000; -140.000
338.999; -252.300; -846.000; -702.000
339.134; -171.500; -634.000; -536.000
339.268; -220.300; -741.000; -603.000
339.403; -216.600; -740.000; -775.000
339.537; -240.800; -894.000; -820.000
339.671; -274.100; -829.000; -813.000
339.806; -202.100; -556.000; -512.000
339.940;  -57.700; -261.000; -235.000
340.074; -222.200; -685.000; -510.000
340.209;  -78.500; -351.000; -230.000
340.343; -191.600; -517.000; -573.000
340.477;  310.500;  998.000; 1036.000
340.612; -264.500;-1033.000; -900.000
340.746; -119.300; -199.000; -243.000
340.880; -279.400; -924.000; -785.000
341.014;  -35.100;  -45.000; -154.000
341.149; -246.300; -756.000; -718.000
341.283; -232.200; -839.000; -754.000
341.417; -322.000;-1124.000; -938.000
341.551; -242.800; -768.000; -708.000
341.685; -169.500; -633.000; -611.000
341.820; -169.200; -562.000; -493.000
341.954; -142.700; -218.000; -349.000
342.088; -300.100;-1102.000;-1019.000
342.222;   83.700;  565.000;  618.000
342.356; -154.100; -395.000; -335.000
342.490; -262.200; -880.000; -841.000
342.624;  -82.600; -339.000; -242.000
342.758; -109.400; -364.000; -312.000
342.892; -215.900; -710.000; -585.000
343.026;  -57.000;  -58.000; -116.000
343.160;  -94.400; -426.000; -376.000
343.294; -173.800; -474.000; -337.000
343.428; -157.500; -488.000; -448.000
343.562;  -58.300; -172.000;  -23.000
343.696;  -91.300; -385.000; -314.000
343.830; -124.000; -362.000; -356.000
343.964;  -65.600; -231.000; -168.000
344.098;   -8.700;  199.000;   70.000
344.232;  -66.600; -266.000; -127.000
344.366; -204.600; -567.000; -453.000
344.500; -220.700; -665.000; -744.000
344.634;  -88.200; -324.000; -164.000
344.768; -141.400; -531.000; -341.000
344.902;   24.800;  278.000;  256.000
345.035; -141.200; -556.000; -496.000
345.169; -293.600; -933.000; -656.000
345.303; -156.200; -308.000; -482.000
345.437; -247.200; -826.000; -717.000
345.571; -187.500; -675.000; -594.000
345.704; -106.000; -309.000; -532.000
345.838;  -69.700; -331.000; -284.000
345.972; -188.500; -543.000; -495.000
346.106;  -29.400; -179.000; -190.000
346.239;  -85.800; -312.000; -243.000
346.373;  -96.100; -343.000; -302.000
346.507; -325.200; -950.000; -962.000
346.640;  -25.500;  -30.000;   13.000
346.774; -240.000; -650.000; -797.000
346.908;  -30.500; -138.000;  -11.000
347.041; -163.700; -646.000; -593.000
347.175;   38.000;  259.000;   27.000
347.309; -239.300; -698.000; -628.000
347.442; -249.800; -883.000; -732.000
347.576;  149.300;  670.000;  668.000
347.709;  -29.200; -123.000;  -52.000
347.843; -282.200; -933.000; -825.000
347.976;   76.000;  235.000;  294.000
348.110; -368.700;-1268.000;-1186.000
348.243; -219.000; -679.000; -772.000
348.377;  -37.500;  -26.000;   60.000
348.510;  118.700;  403.000;  540.000
348.644;  -85.500;  -37.000; -159.000
348.777;   37.900;  180.000;  191.000
348.911; -105.100; -142.000; -112.000
349.044;  106.800;  471.000;  448.000
349.178; -335.000;-1069.000;-1006.000
349.311;   68.400;  141.000;  255.000
349.444; -315.500; -927.000; -813.000
349.578;  -73.100; -347.000; -200.000
349.711; -285.600; -959.000; -862.000
349.845; -182.900; -661.000; -591.000
349.978; -350.900;-1224.000;-1137.000
350.111; -202.200; -546.000; -612.000
350.244; -219.300; -596.000; -700.000
350.378; -121.900; -392.000; -393.000
350.511; -128.400; -393.000; -426.000
350.644; -229.900; -808.000; -806.000
350.778;  -44.300;  168.000;  104.000
350.911;    3.100;  134.000;  140.000
351.044; -231.000; -685.000; -615.000
351.177; -113.200; -321.000; -281.000
351.310;   -1.600;    3.000; -131.000
351.444; -265.400; -888.000; -788.000
351.577;   26.400;  140.000;   90.000
351.710;  161.200;  593.000;  417.000
351.843;  -82.500; -165.000;  -77.000
351.976;  -32.900;  149.000;  -79.000
352.109; -243.200; -621.000; -612.000
352.242; -137.500; -464.000; -419.000
352.376; -207.400; -580.000; -636.000
352.509; -145.100; -437.000; -356.000
352.642; -324.100; -654.000; -604.000
352.775;  -53.000; -141.000;  -98.000
352.908; -296.700; -933.000; -904.000
353.041; -231.400; -814.000; -824.000
353.174; -145.300; -551.000; -424.000
353.307; -236.000; -753.000; -764.000
353.440;  110.100;  541.000;  453.000
353.573; -297.800; -957.000;-1008.000
353.706; -224.500; -384.000; -558.000
353.839;  -97.700; -264.000; -220.000
353.971; -214.200; -657.000; -512.000
354.104; -243.500; -896.000; -835.000
354.237; -222.800; -627.000; -662.000
354.370; -238.800; -846.000; -879.000
354.503; -387.100;-1231.000;-1308.000
354.636; -129.400; -529.000; -348.000
354.769; -303.200; -937.000; -860.000
354.902;  -91.700; -230.000; -139.000
355.034;  -73.300; -164.000; -220.000
355.167;  -55.600; -262.000; -162.000
355.300; -318.400;-1061.000; -880.000
355.433;    7.700;  -71.000;  -14.000
355.565; -151.500; -402.000; -384.000
355.698;  -93.200; -356.000; -296.000
355.831; -248.900; -882.000; -801.000
355.964;  -82.700; -285.000; -170.000
356.096; -250.400; -856.000; -843.000
356.229; -192.100; -523.000; -530.000
356.362; -109.600; -373.000; -266.000
356.494;  -72.700; -229.000; -162.000
356.627;   67.600;  269.000;  377.000
356.760;  -16.000;  120.000;   53.000
356.892; -196.300; -286.000; -601.000
357.025;  127.400;  403.000;  389.000
357.157;  -62.600; -167.000; -179.000
357.290; -249.600; -856.000; -713.000
357.423; -216.100; -667.000; -556.000
357.555;  -91.600; -217.000; -228.000
357.688; -183.500; -483.000; -364.000
357.820; -261.200; -870.000; -877.000
357.953; -167.600; -563.000; -589.000
358.085; -204.000; -632.000; -612.000
358.218; -318.800;-1131.000; -932.000
358.350;  -10.000;  -58.000;  312.000
358.483; -367.400;-1300.000;-1187.000
358.615; -310.000;-1182.000;-1078.000
358.747; -353.100;-1187.000;-1058.000
358.880; -235.600; -810.000; -744.000
359.012; -126.500; -376.000; -202.000
359.145; -167.000; -480.000; -511.000
359.277; -318.200; -962.000; -913.000
359.409;  131.700;  536.000;  231.000
359.542; -262.200; -738.000; -688.000
359.674;   -2.400;   46.000;   13.000
359.806; -171.500; -565.000; -438.000
359.939; -144.200; -617.000; -516.000
360.071; -174.900; -583.000; -579.000
360.203; -124.300; -411.000; -364.000
360.335;    3.000;  164.000;  -16.000
360.468;  -91.200; -249.000; -307.000
360.600; -182.400; -547.000; -454.000
360.732; -155.300; -546.000; -423.000
360.864; -371.300;-1216.000;-1044.000
360.996; -123.100; -516.000; -554.000
361.129; -192.500; -389.000; -598.000
361.261;  -24.200;  110.000; -113.000
361.393;  -97.500; -252.000; -214.000
361.525;    5.400;   94.000;  244.000
361.657; -244.800; -821.000; -703.000
361.789;  -57.200; -139.000; -155.000
361.921; -189.200; -642.000; -593.000
362.053;  140.100;  524.000;  541.000
362.185;   30.900;  288.000;   72.000
362.318; -236.600; -709.000; -705.000
362.450;   73.700;  294.000;  444.000
362.582; -283.400; -913.000; -870.000
362.714; -101.700; -353.000; -332.000
362.846; -177.600; -606.000; -490.000
362.978; -278.800; -941.000; -811.000
363.109; -101.000; -161.000; -260.000
363.241; -231.100; -739.000; -749.000
363.373; -185.100; -649.000; -564.000
363.505;  -73.800; -186.000;  -91.000
363.637; -180.500; -787.000; -601.000
363.769; -345.200;-1067.000;-1080.000
363.901; -149.500; -596.000; -654.000
364.033; -337.100;-1103.000;-1062.000
364.165;  -73.500; -283.000; -283.000
364.296;  -93.900; -316.000; -177.000
364.428; -384.300;-1344.000;-1220.000
364.560; -202.500; -679.000; -661.000
364.692; -180.100; -738.000; -835.000
364.824; -182.900; -588.000; -456.000
364.955; -118.300; -402.000; -564.000
365.087; -326.800;-1097.000; -852.000
365.219; -225.200; -686.000; -816.000
365.351; -203.700; -526.000; -572.000
365.482;   29.300;  300.000;  240.000
365.614; -137.600; -402.000; -314.000
365.746; -232.100; -729.000; -752.000
365.877; -225.300; -706.000; -672.000
366.009;  -47.100;  -35.000;  -62.000
366.141; -364.000;-1249.000;-1134.000
366.272; -227.300; -803.000; -719.000
366.404; -257.500;-1005.000; -874.000
366.535;  -46.000; -139.000;  -12.000
366.667; -252.200; -644.000; -649.000
366.799;   83.100;  353.000;  203.000
366.930; -309.900; -862.000; -996.000
367.062; -188.700; -639.000; -613.000
367.193; -286.300; -872.000; -842.000
367.325; -158.400; -580.000; -684.000
367.456; -111.100; -246.000;   31.000
367.588; -138.200; -371.000; -318.000
367.719;  -75.700;  -44.000;  -45.000
367.851;  -91.400; -222.000; -241.000
367.982; -277.800; -875.000; -732.000
368.113; -109.500; -475.000; -358.000
368.245; -299.500; -960.000; -841.000
368.376;  -96.500; -254.000; -302.000
368.508; -103.100; -188.000; -263.000
368.639; -335.200;-1166.000;-1034.000
368.770; -219.100; -670.000; -589.000
368.902; -282.300; -836.000; -926.000
369.033; -264.000; -906.000; -855.000
369.164; -213.000; -720.000; -653.000
369.296; -224.500; -452.000; -601.000
369.427;  -64.400; -209.000; -144.000
369.558; -145.600; -593.000; -377.000
369.689; -222.400; -721.000; -569.000
369.821; -301.600; -951.000; -845.000
369.952;   -7.700;   42.000; -108.000
370.083; -101.900; -229.000; -108.000
370.214; -213.300; -735.000; -650.000
370.345;   12.900;   65.000;   81.000
370.477; -268.100; -810.000; -790.000
370.608; -101.200; -328.000; -264.000
370.739; -393.900;-1233.000;-1292.000
370.870; -295.700;-1102.000; -923.000
371.001;  -93.800; -378.000; -467.000
371.132; -246.400; -754.000; -735.000
371.263;  -44.900;  -42.000; -148.000
371.394; -287.700; -841.000; -748.000
371.525;   56.500;  345.000;  225.000
371.657; -258.700; -808.000; -670.000
371.788;   42.600;  103.000;  199.000
371.919; -177.500; -384.000; -304.000
372.050;  -38.300;  -91.000; -156.000
372.181;  -60.700; -188.000; -294.000
372.311;  -14.400;   42.000; -127.000
372.442; -153.700; -457.000; -451.000
372.573; -104.300; -444.000; -340.000
372.704; -311.100;-1008.000; -980.000
372.835; -108.900; -228.000; -289.000
372.966; -200.600; -646.000; -554.000
373.097; -234.700; -575.000; -711.000
373.228; -187.500; -717.000; -542.000
373.359; -216.000; -824.000; -536.000
373.490; -276.600; -881.000; -727.000
373.620; -282.800;-1001.000; -803.000
373.751; -146.100; -332.000; -396.000
373.882; -214.000; -663.000; -733.000
374.013; -113.200; -449.000; -262.000
374.143; -172.200; -581.000; -659.000
374.274; -326.000; -987.000; -908.000
374.405;  -93.700; -388.000; -276.000
374.536; -153.700; -526.000; -387.000
374.666; -259.700; -759.000; -807.000
374.797; -284.300; -817.000; -868.000
374.928; -212.800; -710.000; -560.000
375.058; -156.400; -535.000; -500.000
375.189;  -36.500;  -59.000;  -93.000
375.320; -315.300; -928.000;-1034.000
375.450; -214.200; -625.000; -616.000
375.581; -165.000; -526.000; -436.000
375.712; -112.600; -574.000; -250.000
375.842; -176.200; -438.000; -415.000
375.973; -204.800; -554.000; -513.000
376.103; -234.700; -665.000; -648.000
376.234; -178.400; -531.000; -552.000
376.364; -292.400; -944.000; -867.000
376.495;  217.100;  925.000;  529.000
376.625; -205.000; -472.000; -485.000
376.756; -199.600; -709.000; -678.000
376.886; -352.500;-1178.000;-1026.000
377.017; -328.700;-1048.000;-1061.000
377.147; -285.700; -786.000; -782.000
377.278;   35.700;  174.000;  228.000
377.408; -278.600; -801.000; -815.000
377.538; -223.900; -707.000; -693.000
377.669; -206.300; -537.000; -613.000
377.799; -221.100; -645.000; -635.000
377.929; -222.800; -610.000; -428.000
378.060; -266.600; -781.000; -847.000
378.190; -201.400; -726.000; -531.000
378.320; -129.800; -401.000; -406.000
378.451;  -32.200; -131.000;  -22.000
378.581;  -52.700;  -67.000; -110.000
378.711;  209.100; 1035.000;  866.000
378.841; -197.600; -533.000; -675.000
378.972; -303.600; -871.000; -751.000
379.102; -190.600; -652.000; -579.000
379.232;  -76.100; -126.000;  -73.000
379.362; -290.800;-1001.000; -885.000
379.492; -188.300; -373.000; -424.000
379.623;   13.000;    0.000;  111.000
379.753; -301.900;-1107.000; -974.000
379.883;   23.700;   59.000;  156.000
380.013; -333.600;-1081.000;-1017.000
380.143; -346.800;-1097.000;-1056.000
380.273; -292.600; -985.000; -861.000
380.403;  -69.400; -344.000; -257.000
380.533; -232.300; -651.000; -664.000
380.663;   47.900;  173.000;  128.000
380.793; -336.000;-1027.000;-1074.000
380.923;  -81.900; -103.000;  -34.000
381.053; -232.600; -613.000; -623.000
381.183;  -52.800; -106.000; -248.000
381.313; -189.500; -656.000; -470.000
381.443; -182.700; -692.000; -473.000
381.573; -162.600; -402.000; -409.000
381.703; -361.800;-1249.000;-1095.000
381.833; -425.000;-1454.000;-1336.000
381.963;  -23.500; -134.000;  -87.000
382.093; -300.000; -925.000; -909.000
382.223; -205.000; -713.000; -602.000
382.353; -232.800; -801.000; -608.000
382.482; -347.700;-1091.000; -964.000
382.612; -234.800; -872.000; -644.000
382.742; -219.800; -695.000; -622.000
382.872; -181.700; -565.000; -551.000
383.002;    9.700;  347.000; -132.000
383.131; -111.400; -226.000; -160.000
383.261; -239.400; -706.000; -768.000
383.391; -193.200; -552.000; -377.000
383.521;   91.300;  451.000;  263.000
383.650; -317.700; -947.000; -904.000
383.780; -211.600; -783.000; -656.000
383.910;  177.400;  880.000;  802.000
384.039; -269.400; -794.000; -656.000
384.169; -361.500;-1205.000;-1017.000
384.299; -191.700; -650.000; -662.000
384.428; -219.100; -764.000; -680.000
384.558; -125.500; -308.000; -275.000
384.687; -121.200; -414.000; -334.000
384.817;  -22.500;   75.000;   -2.000
384.947; -101.300; -234.000; -141.000
385.076;  234.600;  982.000;  912.000
385.206;   75.600;  369.000;  480.000
385.335; -176.500; -549.000; -417.000
385.465; -250.300; -655.000; -663.000
385.594;  -37.600;  -53.000;  -44.000
385.724; -278.900; -868.000; -838.000
385.853;  -90.300; -296.000; -270.000
385.982; -272.100; -743.000; -787.000
386.112; -279.900;-1052.000; -871.000
386.241; -161.200; -307.000; -312.000
386.371;  -95.900; -174.000;  -87.000
386.500; -294.400; -825.000; -789.000
386.629; -246.800; -874.000; -817.000
386.759;  -61.600;  -43.000;   68.000
386.888;  -51.100; -170.000; -250.000
387.017; -199.200; -648.000; -620.000
387.147; -240.100; -771.000; -798.000
387.276; -178.600; -410.000; -397.000
387.405; -123.000; -398.000; -342.000
387.535; -183.000; -452.000; -361.000
387.664; -210.800; -692.000; -620.000
387.793;  -87.900; -198.000; -113.000
387.922;   35.400;  255.000;  200.000
388.052; -177.000; -576.000; -423.000
388.181; -107.200; -342.000; -472.000
388.310; -274.800; -889.000; -710.000
388.439; -249.800; -749.000; -742.000
388.568;   52.500;  365.000;  244.000
388.697; -218.800; -756.000; -653.000
388.826; -222.000; -768.000; -666.000
388.956; -140.400; -285.000; -307.000
389.085; -141.200; -347.000; -287.000
389.214; -277.600; -842.000; -872.000
389.343; -183.000; -645.000; -413.000
389.472;   30.000;  126.000;  149.000
389.601;  -31.800;   91.000;    0.000
389.730; -181.700; -568.000; -687.000
389.859;   21.500;  226.000;   46.000
389.988; -104.700; -423.000; -408.000
390.117; -108.400; -168.000; -146.000
390.246; -119.600; -331.000; -320.000
390.375; -226.400; -673.000; -626.000
390.504; -219.000; -703.000; -621.000
390.633; -261.400; -672.000; -726.000
390.761; -237.200; -732.000; -645.000
390.890;  -67.300;   -4.000; -130.000
391.019; -158.100; -421.000; -441.000
391.148; -282.900; -826.000; -855.000
391.277; -175.000; -576.000; -493.000
391.406; -273.000; -821.000; -805.000
391.534;   14.400;  574.000; -301.000
391.663; -205.300; -583.000; -645.000
391.792; -232.900; -673.000; -701.000
391.921;  -51.300;   -3.000;   15.000
392.050;  -96.600; -287.000; -228.000
392.178; -375.500;-1206.000;-1061.000
392.307; -252.800; -758.000; -712.000
392.436; -198.500; -427.000; -641.000
392.564;  -36.100;  166.000;   -6.000
392.693; -245.000; -860.000; -682.000
392.822; -186.900; -529.000; -534.000
392.950; -262.200; -880.000; -714.000
393.079; -113.100; -188.000; -328.000
393.208; -164.000; -488.000; -511.000
393.336;  -70.400; -170.000; -145.000
393.465;  -83.900; -317.000; -199.000
393.593;    1.800;   62.000;   79.000
393.722; -306.000;-1121.000; -916.000
393.850;  -88.100; -188.000;  -61.000
393.979; -313.600; -926.000; -805.000
394.107; -177.300; -517.000; -537.000
394.236; -188.600; -570.000; -507.000
394.364;   39.900;  383.000;  206.000
394.493; -248.000; -911.000; -767.000
394.621; -296.300; -955.000; -916.000
394.750; -289.600; -873.000; -923.000
394.878;  -59.300; -247.000; -149.000
395.007; -253.900; -721.000; -807.000
395.135; -260.100; -790.000; -721.000
395.263; -348.000;-1038.000;-1040.000
395.392;  -17.400;  -25.000; -107.000
395.520; -276.700; -818.000; -679.000
395.648; -286.400; -865.000; -915.000
395.777; -176.000; -366.000; -405.000
395.905; -169.700; -449.000; -564.000
396.033;   17.000;  217.000;  172.000
396.162; -139.400; -399.000; -453.000
396.290;  -71.300;  -17.000;   -2.000
396.418; -165.200; -555.000; -514.000
396.546; -281.500; -571.000; -466.000
396.674; -287.800; -850.000; -878.000
396.803;  -21.300;  -72.000;  -23.000
396.931;  -73.500; -179.000; -199.000
397.059; -370.000;-1026.000; -989.000
397.187; -294.300;-1026.000; -975.000
397.315; -278.600; -884.000; -649.000
397.443; -185.300; -592.000; -443.000
397.572; -179.200; -578.000; -424.000
397.700; -229.500; -607.000; -614.000
397.828;  -15.900;  120.000;  -90.000
397.956; -177.500; -508.000; -478.000
398.084; -285.600; -767.000; -626.000
398.212;  -10.500;  137.000;  124.000
398.340;  -34.500;  -56.000;  159.000
398.468; -142.200; -390.000; -169.000
398.596; -316.700; -993.000; -953.000
398.724; -254.600; -762.000; -767.000
398.852; -333.900;-1024.000; -976.000
398.980; -168.600; -560.000; -560.000
399.108; -231.500; -982.000; -735.000
399.236;  -16.200;   13.000;    8.000
399.363;   15.200;  222.000;  196.000
399.491; -152.300; -404.000; -398.000
399.619; -278.600; -829.000; -800.000
399.747; -285.600; -859.000; -771.000
399.875;   46.700;  220.000;  234.000
400.003; -111.800; -359.000; -284.000
400.130; -173.600; -421.000; -341.000
400.258;  -50.300;  -83.000;   38.000
400.386;  -91.600; -352.000; -168.000
400.514; -161.700; -526.000; -587.000
400.641; -311.500; -928.000; -802.000
400.769; -290.300; -979.000; -888.000
400.897; -266.000; -838.000; -793.000
401.025;  -54.200; -166.000; -152.000
401.152;   13.100;  220.000;   38.000
401.280; -142.800; -430.000; -429.000
401.408; -206.300; -712.000; -576.000
401.535; -228.700; -735.000; -758.000
401.663; -390.800;-1134.000;-1054.000
401.790; -188.900; -514.000; -525.000
401.918;   91.200;  436.000;  405.000
402.046;   -0.500;  134.000;  122.000
402.173;  -62.500;  -18.000;    7.000
402.301; -137.000; -519.000; -397.000
402.428;   65.300;  528.000;  383.000
402.556; -334.000;-1188.000; -913.000
402.683;  -75.300;  -20.000;   -1.000
402.811;  -62.000;  -37.000; -206.000
402.938;  -36.300;   20.000;   27.000
403.066; -189.800; -574.000; -558.000
403.193;  -18.700;  299.000;  239.000
403.321; -151.300; -396.000; -574.000
403.448;   27.500;   83.000;   27.000
403.575;  -34.500;  -90.000;  -46.000
403.703; -268.200; -732.000; -557.000
403.830; -168.300; -531.000; -496.000
403.957; -350.300;-1117.000;-1023.000
404.085;  -53.400;  -61.000; -172.000
404.212;  -24.400;  -50.000;   63.000
404.339; -113.800; -566.000; -306.000
404.467; -191.900; -612.000; -524.000
404.594; -100.600; -287.000; -227.000
404.721; -273.400; -869.000; -764.000
404.848;  -82.900; -113.000; -202.000
404.976; -290.500; -856.000; -783.000
405.103;  -19.200;  -14.000;  -82.000
405.230;  -15.300;  190.000;  226.000
405.357;  -23.300;  117.000;   44.000
405.484;  -56.800;  -49.000;    5.000
405.612; -184.900; -548.000; -563.000
405.739; -167.200; -488.000; -243.000
405.866;  134.900;  669.000;  385.000
405.993;  -97.800; -398.000; -102.000
406.120; -286.400; -801.000; -887.000
406.247; -146.000; -323.000; -342.000
406.374;  145.000;  540.000;  629.000
406.501; -253.200; -632.000; -702.000
406.628; -193.200; -621.000; -589.000
406.755; -251.700; -803.000; -620.000
406.882; -110.000; -228.000; -277.000
407.009; -208.800; -719.000; -628.000
407.136; -130.100; -480.000; -401.000
407.263; -304.600; -939.000; -829.000
407.390; -222.000; -692.000; -614.000
407.517; -384.500;-1139.000;-1187.000
407.644; -147.200; -332.000; -256.000
407.771; -137.800; -249.000; -287.000
407.898;   20.800;  168.000;  328.000
408.025; -176.300; -421.000; -313.000
408.151;   -8.800;   82.000;  153.000
408.278; -121.700; -267.000; -216.000
408.405; -270.800; -931.000; -899.000
408.532; -209.000; -549.000; -542.000
408.659; -236.700; -677.000; -648.000
408.785; -405.400;-1298.000;-1170.000
408.912; -119.400; -412.000; -296.000
409.039; -208.400; -610.000; -686.000
409.166; -175.000; -591.000; -555.000
409.292; -191.900; -571.000; -534.000
409.419; -230.800; -665.000; -649.000
409.546; -131.000; -431.000; -192.000
409.672; -203.200; -713.000; -545.000
409.799;  -60.700;  -36.000;   34.000
409.926;  -86.200; -180.000; -179.000
410.052; -358.100;-1127.000;-1091.000
410.179; -154.800; -368.000; -392.000
410.305; -161.100; -375.000; -493.000
410.432; -130.400; -220.000; -333.000
410.558; -201.500; -305.000; -380.000
410.685; -214.900; -688.000; -431.000
410.812; -193.400; -409.000; -588.000
410.938; -283.000; -964.000; -808.000
411.065; -237.600; -671.000; -645.000
411.191;  -92.500; -189.000; -174.000
411.317; -294.500; -823.000; -742.000
411.444; -104.000; -317.000; -246.000
411.570; -125.700; -339.000; -294.000
411.697; -247.400; -758.000; -752.000
411.823; -319.800; -989.000; -999.000
411.949; -107.000;  -56.000;   17.000
412.076; -203.000; -539.000; -519.000
412.202; -273.400; -758.000; -757.000
412.329; -274.300; -798.000; -752.000
412.455; -212.100; -821.000; -657.000
412.581;  -26.600;  -15.000;  172.000
412.707; -164.200; -540.000; -457.000
412.834;   41.200;  156.000;  219.000
412.960; -249.700; -785.000; -784.000
413.086; -271.800; -743.000; -701.000
413.212;  112.700;  604.000;  578.000
413.339; -252.600; -685.000; -701.000
413.465; -140.000; -364.000; -310.000
413.591; -285.100; -757.000; -474.000
413.717; -108.500; -358.000; -366.000
413.843; -306.200; -839.000; -861.000
413.969; -128.700;  -47.000; -292.000
414.096; -240.600; -679.000; -679.000
414.222;  -57.800;  -33.000;   85.000
414.348; -226.700; -652.000; -385.000
414.474;  -40.900;   38.000;  -52.000
414.600;  -88.500; -126.000; -144.000
414.726;  -49.700;  -96.000;  -55.000
414.852; -166.900; -365.000; -342.000
414.978;    1.200;  104.000;  -18.000
415.104;  -32.400;   38.000;   80.000
415.230; -131.900; -329.000; -330.000
415.356; -210.500; -409.000; -514.000
415.482;  -70.500;   13.000;  -35.000
415.608; -144.200; -247.000; -323.000
415.734;  -46.500;   67.000;   38.000
415.860; -259.700; -875.000; -767.000
415.986; -221.700; -685.000; -607.000
416.111; -269.400; -798.000; -652.000
416.237; -153.600; -424.000; -571.000
416.363; -254.900; -765.000; -733.000
416.489; -128.100; -324.000; -251.000
416.615; -278.300; -707.000; -742.000
416.741; -226.600; -677.000; -784.000
416.866; -241.200; -673.000; -736.000
416.992; -278.400; -801.000; -818.000
417.118; -120.900;  -41.000;  -80.000
417.244; -241.300; -798.000; -531.000
417.369; -236.200; -801.000; -612.000
417.495; -146.800; -325.000; -254.000
417.621; -308.700;-1015.000; -803.000
417.746; -187.700; -579.000; -572.000
417.872;  -75.000; -254.000; -144.000
417.998; -177.600; -515.000; -530.000
418.123; -316.800;-1073.000; -845.000
418.249; -185.700; -512.000; -601.000
418.374; -309.600; -916.000; -824.000
418.500; -195.200; -383.000; -482.000
418.626;  -21.100;   70.000;  -59.000
418.751; -190.500; -549.000; -448.000
418.877; -217.800; -637.000; -643.000
419.002; -153.100; -688.000; -560.000
419.128; -299.100; -930.000; -721.000
419.253; -307.100; -967.000; -837.000
419.379; -168.800; -391.000; -338.000
419.504;   75.100;  325.000;  415.000
419.629; -155.200; -393.000; -212.000
419.755; -125.300; -317.000; -254.000
419.880; -122.600;  -98.000;   67.000
420.006; -127.500; -280.000; -221.000
420.131; -256.100; -662.000; -775.000
420.256; -123.900; -315.000; -316.000
420.382; -227.700; -665.000; -687.000
420.507; -247.100; -649.000; -778.000
420.632; -170.500; -337.000; -339.000
420.758; -109.100; -251.000; -425.000
420.883; -254.800; -876.000; -672.000
421.008; -282.900; -775.000; -619.000
421.133; -209.900; -509.000; -467.000
421.259; -136.800; -325.000; -259.000
421.384; -278.900; -834.000; -693.000
421.509; -284.300;-1052.000; -862.000
421.634; -328.900; -936.000; -820.000
421.759; -174.400; -359.000; -327.000
421.885; -253.500; -717.000; -656.000
422.010; -184.100; -673.000; -542.000
422.135; -294.200; -695.000; -727.000
422.260;   76.200;  340.000;  280.000
422.385; -104.600;   12.000;  -98.000
422.510;   -2.500;  151.000;  -26.000
422.635;  -80.000;  -87.000;  -43.000
422.760; -228.900; -766.000; -791.000
422.885;  -56.900;  -57.000;  -80.000
423.010;  -60.900; -112.000; -169.000
423.135; -179.500; -481.000; -561.000
423.260;  -95.200; -150.000; -245.000
423.385;   12.300;  476.000;  222.000
423.510;   16.200;   71.000;  -22.000
423.635;  -33.400;  133.000;   45.000
423.760;   75.400;  383.000;  328.000
423.885;   52.300;  336.000;  391.000
424.010;  -15.800;  -68.000;  -13.000
424.135;  -67.100;    5.000;  -33.000
424.259; -196.600; -654.000; -457.000
424.384; -161.800; -279.000; -272.000
424.509;  -69.900; -260.000; -186.000
424.634; -255.700; -761.000; -623.000
424.759; -178.600; -688.000; -544.000
424.883; -220.700; -506.000; -527.000
425.008; -180.700; -502.000; -410.000
425.133; -221.800; -679.000; -653.000
425.258; -184.100; -517.000; -381.000
425.382; -253.300; -867.000; -774.000
425.507; -199.100; -487.000; -543.000
425.632; -294.900; -802.000; -663.000
425.756; -144.300; -256.000; -146.000
425.881; -261.300; -831.000; -857.000
426.006; -171.900; -604.000; -355.000
426.130; -252.900; -696.000; -508.000
426.255; -201.500; -611.000; -491.000
426.379;  -53.900; -189.000; -577.000
426.504;  117.300;  660.000;  544.000
426.629; -217.600; -519.000; -466.000
426.753;  -35.600;   64.000;  -46.000
426.878; -115.400; -252.000; -288.000
427.002; -217.100; -651.000; -668.000
427.127; -110.500;  -35.000; -158.000
427.251;   77.200;  372.000;  401.000
427.375;  -94.400; -191.000; -173.000
427.500; -204.400; -616.000; -610.000
427.624; -150.900; -234.000; -400.000
427.749; -104.400; -216.000; -225.000
427.873; -207.300; -499.000; -412.000
427.997; -122.200; -222.000; -230.000
428.122;  139.500;  795.000;  703.000
428.246;   73.100;  433.000;  434.000
428.371; -307.700; -869.000; -773.000
428.495; -237.000; -624.000; -646.000
428.619;  -73.300; -186.000; -117.000
428.743;    3.000;   65.000;  132.000
428.868; -275.100; -732.000; -643.000
428.992; -136.000; -219.000; -326.000
429.116; -167.100; -329.000; -357.000
429.240;   70.200;  419.000;  426.000
429.365; -163.000; -454.000; -574.000
429.489; -216.500; -638.000; -647.000
429.613; -106.400; -236.000; -177.000
429.737; -175.500; -563.000; -432.000
429.861; -117.000; -247.000; -133.000
429.985; -205.000; -425.000; -305.000
430.109; -317.800; -770.000; -908.000
430.234;   13.700;   76.000;  -50.000
430.358; -119.000; -250.000; -160.000
430.482; -261.600; -672.000; -564.000
430.606; -208.000; -655.000; -375.000
430.730; -186.300; -437.000; -388.000
430.854; -308.800; -909.000; -835.000
430.978; -237.400; -795.000; -764.000
431.102; -222.600; -499.000; -422.000
431.226; -300.900; -874.000; -815.000
431.350;   30.500;  345.000;  422.000
431.474; -183.500; -661.000; -373.000
431.597; -334.400;-1060.000; -848.000
431.721; -146.500; -276.000; -267.000
431.845; -224.400; -704.000; -472.000
431.969; -152.100; -304.000; -349.000
432.093; -152.900; -395.000; -317.000
432.217;  -24.000;   32.000;   82.000
432.341; -209.900; -523.000; -518.000
432.464;  -56.100;   96.000;   40.000
432.588; -185.800; -401.000; -329.000
432.712;  -53.400;  -52.000;  -52.000
432.836;   22.000;  213.000;  263.000
432.959; -112.900; -372.000; -311.000
433.083;  -88.500;   11.000;    2.000
433.207;   75.200;  285.000;  930.000
433.330; -108.800; -391.000; -200.000
433.454; -215.100; -654.000; -638.000
433.578;   59.500;  583.000;  278.000
433.701; -257.800; -623.000; -675.000
433.825; -176.800; -292.000; -299.000
433.949; -100.700;   28.000;  -72.000
434.072; -115.400; -410.000; -323.000
434.196;  -63.900; -309.000; -117.000
434.319; 7821.400;25482.000;25124.000
434.443; -211.200; -656.000; -603.000
434.566;  -33.200;  281.000;   62.000
434.690; -194.300; -637.000; -383.000
434.813; -112.900; -251.000; -173.000
434.937; -215.200; -569.000; -696.000
435.060; -169.900; -423.000; -332.000
435.184; -153.800; -492.000; -217.000
435.307;  -32.500;  159.000;  102.000
435.431;   -3.100;  -40.000;   24.000
435.554; -141.600; -399.000; -240.000
435.677; -159.500; -350.000; -258.000
435.801;  -74.000;  -25.000;   49.000
435.924;  -50.000;    1.000;  -67.000
436.048; -299.600;-1019.000; -732.000
436.171; -124.200; -240.000;  -66.000
436.294; -113.000; -248.000; -229.000
436.417; -307.200; -963.000; -849.000
436.541; -281.400; -814.000; -840.000
436.664;  -76.800; -242.000; -316.000
436.787;  -25.900;   13.000;  113.000
436.910; -225.900; -792.000; -422.000
437.034;  -48.400;  142.000;  143.000
437.157;  -15.000;  -11.000;    0.000
437.280; -159.600; -392.000; -292.000
437.403; -302.100; -982.000; -869.000
437.526; -327.800; -903.000; -865.000
437.649; -151.400; -505.000; -332.000
437.772; -253.500; -692.000; -540.000
437.896;  163.300;  700.000;  544.000
438.019; -266.800; -758.000; -503.000
438.142; -190.800; -596.000; -506.000
438.265; -265.500; -639.000; -670.000
438.388; -155.200; -520.000; -410.000
438.511; -212.600; -597.000; -394.000
438.634; -181.400; -247.000; -125.000
438.757; -281.800; -693.000; -619.000
438.880;  -46.200;  -34.000;  -57.000
439.003; -181.500; -417.000; -437.000
439.126;  -92.800; -287.000; -167.000
439.248;  -71.900;  -98.000; -139.000
439.371;  -30.200;    9.000;  -53.000
439.494;  142.000;  510.000;  439.000
439.617;  -40.900;   65.000;  -88.000
439.740; -319.300; -968.000; -816.000
439.863; -247.300; -755.000; -595.000
439.986; -197.600; -476.000; -431.000
440.108;  -99.500; -161.000; -112.000
440.231; -323.100; -950.000; -836.000
440.354;  -89.200;  -64.000; -150.000
440.477; -247.900; -566.000; -542.000
440.599; -183.300; -200.000; -225.000
440.722; -255.700; -709.000; -586.000
440.845;  152.100;  751.000;  928.000
440.968; -182.700; -415.000; -311.000
441.090;  -73.600; -199.000;  -33.000
441.213; -340.900;-1021.000; -825.000
441.336;  -87.900; -159.000;   -5.000
441.458; -175.900; -549.000; -396.000
441.581; -234.400; -628.000; -629.000
441.703; -104.400; -152.000;   13.000
441.826; -184.200; -557.000; -400.000
441.948;  -52.000;   56.000;   51.000
442.071;  122.900;  555.000;  424.000
442.193; -223.300; -531.000; -485.000
442.316;  -17.600;  152.000;   97.000
442.438; -112.800; -233.000;  -10.000
442.561;   22.300;  272.000;  262.000
442.683; -277.800; -809.000; -522.000
442.806;  -60.400;   -8.000;   74.000
442.928; -288.900; -859.000; -604.000
443.051; -204.000; -577.000; -373.000
443.173; -174.300; -341.000; -339.000
443.295; -176.400; -263.000; -371.000
443.418; -118.200; -321.000;  -29.000
443.540;  -53.800; -106.000;   -4.000
443.662; -222.500; -563.000; -465.000
443.785;    8.100;  335.000;  199.000
443.907; -176.900; -362.000; -208.000
444.029; -243.200; -767.000; -494.000
444.152; -270.400; -644.000; -554.000
444.274;  -59.100;  -18.000;  -24.000
444.396; -210.200; -461.000; -221.000
444.518; -230.300; -691.000; -454.000
444.640; -197.500; -268.000; -111.000
444.763;   21.900;  388.000;  249.000
444.885; -182.000; -432.000; -392.000
445.007;  -26.600;   35.000;   86.000
445.129; -224.800; -610.000; -515.000
445.251; -163.200; -372.000; -439.000
445.373; -262.300; -537.000; -386.000
445.495;    0.200;  242.000;  350.000
445.617;  154.500;  853.000;  753.000
445.739; -131.600; -215.000;  -97.000
445.861; -103.000; -245.000; -112.000
445.984; -137.100; -267.000; -101.000
446.105; -175.500; -418.000; -251.000
446.227;  -75.100; -176.000;  -19.000
446.349; -216.400; -358.000; -249.000
446.471; -207.300; -615.000; -448.000
446.593; -145.000; -316.000;   19.000
446.715;  -92.500;  -67.000;   41.000
446.837;  135.400;  697.000;  832.000
446.959; -174.400; -457.000; -478.000
447.081; -239.700; -628.000; -518.000
447.203;  136.700;  862.000;  834.000
447.325; -123.500; -270.000;   42.000
447.446;   46.500;  286.000;  530.000
447.568; -320.200; -921.000; -803.000
447.690; -182.700; -236.000; -245.000
447.812; -279.200; -798.000; -519.000
447.933;  -14.400;  155.000;  127.000
448.055; -104.200; -306.000; -261.000
448.177;  -50.000;   31.000;   79.000
448.299; -332.600; -935.000; -727.000
448.420;  -17.500;  -25.000;  159.000
448.542; -105.500;   -3.000;   33.000
448.664;    0.000;  109.000;  322.000
448.785;  -28.800;  265.000;   83.000
448.907; -215.300; -614.000; -353.000
449.028; -266.400; -771.000; -471.000
449.150;  113.400;  492.000;  589.000
449.272; -343.000;-1044.000; -913.000
449.393;   99.900;  612.000;  694.000
449.515; -300.000; -634.000; -581.000
449.636; -124.200; -264.000; -155.000
449.758;   81.900;  763.000;  622.000
449.879; -203.100; -498.000; -396.000
450.001; -150.800; -149.000;  -49.000
450.122;  -53.600;  -95.000;  162.000
450.244;  -26.000;   37.000;  364.000
450.365; -210.600; -495.000; -301.000
450.486;  -92.400;   80.000;  268.000
450.608;   57.400;  393.000;  326.000
450.729;   71.200;  578.000;  645.000
450.850; -235.800; -574.000; -466.000
450.972; -271.100; -552.000; -389.000
451.093;   68.300;  190.000;  588.000
451.214; -226.000; -516.000; -337.000
451.336;   81.800;  773.000;  579.000
451.457;   37.800;  264.000;  393.000
451.578;  -92.000; -118.000;  -74.000
451.699; -229.100; -546.000; -540.000
451.821; -124.800; -284.000;  -50.000
451.942;  -15.600;  278.000;  285.000
452.063;   41.300;  228.000;  419.000
452.184; -138.700;  -54.000;  -49.000
452.305;  -33.800;  103.000;  170.000
452.427; -183.300; -549.000; -301.000
452.548;  -69.100;   23.000;   79.000
452.669; -138.100; -257.000;  -89.000
452.790;  -94.100;    3.000;  -18.000
452.911;  -27.400;  195.000;  259.000
453.032; -120.800; -289.000;  -60.000
453.153;  -82.700;  -29.000;   81.000
453.274;  146.200;  737.000;  868.000
453.395; -101.700;  -51.000;  175.000
453.516;  306.000; 1317.000; 1388.000
453.637; -169.600; -205.000; -150.000
453.758;  -72.300;   15.000;   69.000
453.879; -172.100; -462.000; -250.000
454.000;  166.700; 1086.000;  948.000
454.121; -233.200; -554.000; -326.000
454.242; -231.000; -599.000; -383.000
454.362;  -84.800;  -99.000;  114.000
454.483; -142.000; -309.000; -229.000
454.604;   42.900;  512.000;  580.000
454.725; -277.800; -627.000; -555.000
454.846; -216.800; -474.000; -406.000
454.967;   16.600;  230.000;  539.000
455.087;  -55.300;  179.000;  153.000
455.208;  100.000;  554.000;  856.000
455.329;  -57.200;  -22.000;   82.000
455.450;   64.200;  473.000;  633.000
455.570; -156.800; -234.000; -211.000
455.691;  -40.100;  201.000;  407.000
455.812; -147.900; -270.000;  -92.000
455.932;  -80.400;  107.000;  -97.000
456.053; -124.000;   36.000;   24.000
456.173; -188.100; -433.000; -355.000
456.294; -235.700; -476.000; -303.000
456.415;  -81.400;  -73.000;   70.000
456.535;  -43.200;  297.000;  273.000
456.656;  -48.700;  132.000;  240.000
456.776;  -82.600;    3.000;  298.000
456.897;   45.300;  308.000;  513.000
457.017; -161.400; -153.000;   -3.000
457.138; -205.600; -402.000; -249.000
457.258;  -28.400;  263.000;  224.000
457.379;    2.600;  509.000;  521.000
457.499;   13.500;  443.000;  432.000
457.620; -173.900; -407.000; -231.000
457.740; -157.200; -132.000;  -11.000
457.860;  -88.200;   87.000;   44.000
457.981; -101.700;  132.000;  124.000
458.101; -125.300;  -89.000;   40.000
458.221;   31.900;  336.000;  402.000
458.342;  -66.500;   -4.000;  -37.000
458.462;   38.000;  617.000;  352.000
458.582; -185.800; -302.000; -294.000
458.703;  -79.400;  303.000;  154.000
458.823;  -77.200;   22.000;  163.000
458.943;   24.800;  341.000;  467.000
459.063;  -41.000; 1124.000;  192.000
459.183;  -25.000;  328.000;  313.000
459.304;    4.400;  315.000;  517.000
459.424; -116.100; -246.000;  -89.000
459.544;   62.100;  388.000;  764.000
459.664;   34.000;  499.000;  506.000
459.784;  212.200; 1004.000; 1175.000
459.904;   82.400;  867.000;  744.000
460.024;  167.000;  867.000;  684.000
460.144;   13.200;  449.000;  554.000
460.264;   52.900;  515.000;  327.000
460.385; -148.700; -145.000; -119.000
460.505;  131.100;  905.000;  858.000
460.625; -127.700;  -17.000;  -68.000
460.745;   36.100;  396.000;  541.000
460.864;  -48.400;  153.000;  469.000
460.984;   38.600;  499.000;  573.000
461.104;  286.600; 1656.000; 1775.000
461.224;   80.300;  657.000;  650.000
461.344;    3.400;  431.000;  360.000
461.464;  -15.800;  258.000;  513.000
461.584;  -21.300;  283.000;  466.000
461.704;  -98.000;   58.000;  108.000
461.824;  -50.500;  238.000;  259.000
461.943;  -48.800;  191.000;  130.000
462.063; -113.800;    2.000;  324.000
462.183;   84.900;  639.000;  717.000
462.303;  285.900; 1678.000; 1230.000
462.422;   93.700;  781.000;  840.000
462.542; -115.000;  271.000;  391.000
462.662;    7.200;  353.000;  380.000
462.782;   40.900;  833.000;  572.000
462.901;   15.500;  545.000;  717.000
463.021;  329.200; 1702.000; 1638.000
463.141;  -30.100;  337.000;  770.000
463.260;  -11.900;  614.000;  474.000
463.380;   57.800;  902.000;  884.000
463.499;  -24.000;  342.000;  332.000
463.619;  -32.900;  581.000;  559.000
463.738;  283.600; 1644.000;  903.000
463.858;   83.100;  657.000;  811.000
463.978;  -24.100;  542.000;  396.000
464.097;  165.400;  921.000; 1114.000
464.217;  168.300; 1196.000; 1143.000
464.336;  181.400; 1068.000; 1130.000
464.455;  -27.800;  328.000;  659.000
464.575;   45.700;  597.000;  602.000
464.694;  207.100; 1204.000; 1179.000
464.814;  114.800; 1190.000; 1138.000
464.933;  156.400; 1095.000; 1027.000
465.052;  219.900; 1412.000; 1054.000
465.172;   82.000;  922.000;  799.000
465.291;  225.900; 1376.000; 1320.000
465.410;   36.500;  462.000;  735.000
465.530;  205.500; 1355.000; 1310.000
465.649;  162.700; 1209.000; 1273.000
465.768;  296.800; 1673.000; 1508.000
465.888;  133.500;  941.000; 1174.000
466.007;  245.200; 1335.000; 1440.000
466.126;   28.800;  721.000;  641.000
466.245;  127.200; 1176.000; 1187.000
466.364;   87.700;  950.000; 1060.000
466.484;  162.900; 1024.000; 1213.000
466.603;  121.900; 1101.000; 1222.000
466.722;  226.400; 1490.000; 1769.000
466.841;  191.500; 1151.000; 1401.000
466.960;  155.900; 1069.000;  972.000
467.079;  316.900; 1971.000; 1786.000
467.198;  139.200; 1238.000; 1181.000
467.317;  275.400; 1768.000; 1162.000
467.436;  189.400; 1709.000; 1261.000
467.555;  284.200; 1796.000; 1746.000
467.674;  167.600; 1227.000; 1329.000
467.793;  175.300; 1376.000; 1374.000
467.912;  261.700; 1658.000; 1539.000
468.031;  334.900; 2038.000; 1930.000
468.150;  316.500; 1842.000; 1837.000
468.269;  419.500; 2313.000; 2090.000
468.388;  456.700; 2168.000; 2339.000
468.507;  542.300; 2884.000; 2903.000
468.626;  630.500; 2555.000; 2541.000
468.744;  345.300; 2018.000; 2174.000
468.863;  501.700; 2312.000; 2523.000
468.982;  209.800; 1503.000; 1555.000
469.101;  533.300; 2788.000; 2692.000
469.220;  374.400; 2333.000; 2176.000
469.338;  529.300; 2935.000; 3051.000
469.457;  430.900; 2719.000; 2545.000
469.576;  788.400; 3953.000; 3784.000
469.695;  530.600; 2877.000; 3066.000
469.813;  897.900; 4148.000; 4192.000
469.932;  842.000; 4255.000; 4485.000
470.051;  819.900; 4075.000; 4161.000
470.169;  865.700; 4470.000; 4338.000
470.288;  934.800; 4700.000; 4809.000
470.406; 1012.400; 5059.000; 5194.000
470.525; 1227.500; 6101.000; 5787.000
470.644; 1316.400; 6847.000; 6794.000
470.762; 1704.400; 8397.000; 7873.000
470.881; 1792.500; 8651.000; 8464.000
470.999; 2014.000; 9685.000; 9151.000
471.118; 2270.300;11174.000;10711.000

