
Integration time [ms]: 100.000
Averaging Nr. [scans]: 40
Smoothing Nr. [pixels]: 0
Data measured with spectrometer [name]: 2101012U2
Wave   ;Sample   ;Dark     ;Reference
[nm]   ;[counts] ;[counts] ;[counts] 

197.733;   58.425;  516.000;  404.000
197.879;  -73.125; -610.000; -634.000
198.025;  -44.475; -475.000; -420.000
198.171;  -77.375; -602.000; -612.000
198.317;  -37.325; -401.000; -316.000
198.463;  -44.700; -655.000; -404.000
198.609;   22.100;  181.000; -137.000
198.755;  -81.775; -644.000; -410.000
198.901;  -63.850; -505.000; -424.000
199.047;  -58.200; -615.000; -488.000
199.193;  -37.250; -230.000; -468.000
199.339;  -51.275; -222.000; -369.000
199.485;   53.750;  330.000;  271.000
199.631;   17.350;  227.000;  310.000
199.777;  -47.825; -466.000; -398.000
199.923;  -64.350; -610.000; -424.000
200.069;   -1.675; -141.000;  -58.000
200.215;   58.525;  128.000;  453.000
200.361;   45.650;  243.000;  477.000
200.507;  -54.300; -600.000; -373.000
200.653;  -24.950; -371.000; -194.000
200.798;  -33.600; -215.000; -125.000
200.944;   -1.850; -146.000;  -41.000
201.090;   53.650;   61.000;  222.000
201.236;  -10.325; -116.000; -158.000
201.382;  129.925;  874.000;  903.000
201.528;    5.575;  -58.000;  -48.000
201.674;  -21.850; -386.000; -293.000
201.819;  -68.300; -540.000; -439.000
201.965;  -76.325; -699.000; -447.000
202.111;  -19.725; -273.000; -226.000
202.257;  -39.975; -250.000; -238.000
202.402;    1.950;   13.000;  -36.000
202.548;  -22.400; -169.000; -116.000
202.694;  105.225;  410.000; -183.000
202.840;  -67.425; -603.000; -531.000
202.985;  -80.625; -681.000; -639.000
203.131;  -99.225; -832.000; -666.000
203.277;  -31.900; -199.000; -262.000
203.423;  -38.075; -434.000; -520.000
203.568;  -32.375; -462.000; -237.000
203.714;  -62.450; -535.000; -542.000
203.860;  -85.950; -682.000; -641.000
204.005;   14.875;  112.000;  167.000
204.151;   85.725;  561.000;  556.000
204.296;  -44.275; -354.000; -221.000
204.442;  -77.100; -600.000; -547.000
204.588;  -72.750; -592.000; -579.000
204.733;   21.250;  178.000;  168.000
204.879; -117.950;-1018.000; -822.000
205.025;    7.600;  -99.000;  126.000
205.170;    7.025;  -17.000;   94.000
205.316;   75.800;  438.000;  661.000
205.461;  -81.300; -698.000; -554.000
205.607;   82.600;  609.000;  665.000
205.752;  -77.800; -626.000; -551.000
205.898;  -53.625; -501.000; -391.000
206.043;  -60.050; -578.000; -506.000
206.189;  -43.000; -243.000; -285.000
206.334;   81.525;  554.000;  606.000
206.480;   69.000;  409.000;  239.000
206.625;  -76.825; -529.000; -552.000
206.771;  -52.775; -451.000; -373.000
206.916;  -25.125; -210.000; -537.000
207.062;  -67.800; -545.000; -591.000
207.207;  -62.475; -546.000; -443.000
207.353;   57.500;  185.000;  460.000
207.498;   17.050;  196.000;   85.000
207.643;  -56.700; -501.000; -370.000
207.789; -123.850;-1069.000; -910.000
207.934;  -92.900; -665.000; -713.000
208.080;  -30.575; -154.000;   66.000
208.225;   -9.475;  -22.000;  -57.000
208.370;  -85.350; -727.000; -619.000
208.516;  -68.075; -741.000; -487.000
208.661;  -30.475; -127.000;  -69.000
208.806;  -22.350; -165.000; -171.000
208.952; -121.825;-1044.000; -731.000
209.097;   75.050;  378.000;  349.000
209.242;  -30.375; -307.000; -382.000
209.387;   73.325;  392.000;  350.000
209.533;  -57.375; -321.000; -350.000
209.678;   87.875;  472.000;  543.000
209.823;  -47.450; -408.000; -310.000
209.969;  -94.325; -860.000; -757.000
210.114; -106.050; -907.000; -719.000
210.259; -117.600; -939.000; -889.000
210.404;  -11.725; -171.000;  103.000
210.549;    9.900;  108.000;    3.000
210.695;  -18.225;   -3.000;  -95.000
210.840;   34.300;   94.000;   67.000
210.985;  -54.925; -484.000; -303.000
211.130;   66.475;  268.000;  406.000
211.275;   19.850;  207.000;  199.000
211.420;  -51.450; -300.000; -289.000
211.566;  -69.375; -536.000; -489.000
211.711;   20.025;  218.000;  157.000
211.856;  -66.425; -545.000; -519.000
212.001;   17.475;  151.000;   44.000
212.146;   30.525;  153.000;   49.000
212.291;  -25.900; -210.000; -186.000
212.436;  -21.950; -280.000;   -6.000
212.581;  -79.225; -685.000; -653.000
212.726;  -75.950; -487.000; -538.000
212.871;  -43.725; -552.000; -217.000
213.016; -140.800;-1172.000;-1029.000
213.161;   71.475;  406.000;  291.000
213.306;  -65.800; -435.000; -577.000
213.451;  -88.225; -778.000; -689.000
213.596;  -40.825; -455.000; -347.000
213.741;  -53.125; -448.000; -538.000
213.886;  -77.800; -498.000; -517.000
214.031;  -13.700; -294.000; -124.000
214.176;  -43.550; -408.000; -341.000
214.321;  -17.175; -296.000; -157.000
214.466;  -40.175; -163.000;  -43.000
214.611;  -11.150;  -61.000;  -10.000
214.756; -115.825; -948.000; -858.000
214.901;  -29.750; -388.000; -226.000
215.046; -119.100; -797.000; -825.000
215.191;   20.725;  128.000;   35.000
215.336;   -4.925; -157.000;  -19.000
215.480;  -60.150; -684.000; -505.000
215.625;  -10.600; -175.000;  -19.000
215.770;  -90.775; -757.000; -662.000
215.915;   -4.725;   -5.000;  -97.000
216.060;    6.400; -113.000;  -21.000
216.205;  -96.100; -731.000; -779.000
216.349;  -68.350; -470.000; -533.000
216.494; -129.550; -939.000; -867.000
216.639; -118.300; -823.000; -888.000
216.784;  -79.675; -577.000; -525.000
216.929;   69.250;  392.000;  281.000
217.073;  -16.600; -244.000;  -31.000
217.218;   23.900;   78.000;  -47.000
217.363;  -84.000; -656.000; -618.000
217.507;  -76.500; -623.000; -588.000
217.652; -120.150; -845.000; -874.000
217.797;  -85.925; -708.000; -659.000
217.942;  -98.025; -856.000; -720.000
218.086;   56.900;  608.000;  539.000
218.231;  -16.625; -174.000;  -26.000
218.376;  -29.125; -337.000; -229.000
218.520;   18.350;  -41.000;   96.000
218.665;  -27.725; -338.000; -204.000
218.810;  -45.900; -275.000; -233.000
218.954;   19.625;  201.000;   35.000
219.099; -121.350; -713.000; -963.000
219.243;  -57.925; -589.000; -554.000
219.388;  -22.200; -264.000; -136.000
219.532;  -15.850; -116.000; -116.000
219.677;  -71.575; -564.000; -521.000
219.822;   17.975;   33.000;   89.000
219.966;    8.150;   17.000;  -99.000
220.111;  -33.275; -328.000;  -40.000
220.255;  -89.375; -797.000; -750.000
220.400;   -4.100; -180.000; -146.000
220.544;  -67.225; -516.000; -450.000
220.689;  -63.475; -422.000; -451.000
220.833;  -24.475; -123.000;  -58.000
220.978;  -37.150; -393.000; -563.000
221.122;   42.500;  319.000;  307.000
221.267; -127.075; -906.000; -837.000
221.411;  -63.875; -478.000; -394.000
221.555;   -8.225; -104.000;  -23.000
221.700;  -46.275; -329.000; -222.000
221.844;   42.525;  255.000;  272.000
221.989;  -58.600; -328.000; -311.000
222.133;  -33.700; -289.000; -307.000
222.277;  -13.450;    5.000;   78.000
222.422;   10.350;  227.000;  113.000
222.566;  -31.400; -381.000; -214.000
222.711;  -64.175; -414.000; -479.000
222.855;  -80.325; -643.000; -586.000
222.999;  -84.400; -642.000; -717.000
223.144;  -24.375; -195.000; -194.000
223.288;   58.575;  423.000;  251.000
223.432;   28.125;  184.000;  230.000
223.576;   14.425;  152.000;  -21.000
223.721;   47.775;  364.000;  273.000
223.865;  -64.325; -472.000; -475.000
224.009;  250.050; 1673.000; 1631.000
224.153;  -74.400; -660.000; -671.000
224.298;  -64.250; -531.000; -489.000
224.442;   -0.675;  -74.000;  -33.000
224.586;   -5.600; -169.000; -106.000
224.730;  -94.550; -858.000; -670.000
224.875;  -91.675; -739.000; -688.000
225.019;    1.925;  102.000;  188.000
225.163;   60.850;  208.000;  341.000
225.307;   12.650;   97.000;  -91.000
225.451;   54.150;  360.000;  481.000
225.595;   34.525;  264.000;  176.000
225.739;  -14.925; -170.000;  -94.000
225.884;    7.600;   86.000;    5.000
226.028;  -99.800; -760.000; -626.000
226.172;  -16.975; -260.000; -273.000
226.316; -124.925; -941.000; -902.000
226.460;  -66.725; -645.000; -493.000
226.604;  -37.300; -406.000; -400.000
226.748;  -89.875; -836.000; -733.000
226.892;  -31.625; -227.000; -181.000
227.036;  -52.275; -537.000; -447.000
227.180;  -60.400; -551.000; -375.000
227.324;  -60.050; -561.000; -580.000
227.468; -117.350; -819.000; -717.000
227.612;    2.050;  242.000;  -28.000
227.756;  -94.675; -845.000; -698.000
227.900;   47.825;  342.000;  441.000
228.044;  -54.775; -509.000; -290.000
228.188;   56.550;  448.000;  568.000
228.332;  -84.825; -546.000; -472.000
228.476;  -25.800; -223.000; -149.000
228.620;  -33.450; -210.000; -150.000
228.764;   62.950;  431.000;  349.000
228.908;  -17.500; -155.000;   30.000
229.052;  -66.325; -615.000; -528.000
229.195;  -17.700; -172.000;   13.000
229.339;  -35.975; -235.000; -305.000
229.483;  -29.900;    5.000; -162.000
229.627;    3.650; -156.000;  139.000
229.771;  -46.300; -218.000; -294.000
229.915;    8.675;  230.000;   79.000
230.059;  -85.925; -648.000; -663.000
230.202;  -51.750; -370.000; -317.000
230.346;  -11.550; -107.000;  107.000
230.490;  -75.150; -489.000; -521.000
230.634; -113.550; -736.000; -553.000
230.777;   91.075;  478.000;  509.000
230.921;  -66.200; -450.000; -359.000
231.065;  -45.050; -246.000; -286.000
231.209;   37.450;  261.000;  265.000
231.352;   19.800;   54.000;   40.000
231.496;   21.125;  568.000;  188.000
231.640;  -71.400; -693.000; -621.000
231.783;   72.725;  546.000;  525.000
231.927;  -30.750; -294.000; -365.000
232.071; -121.225; -962.000; -736.000
232.214; -120.200; -980.000; -764.000
232.358;  -94.925; -683.000; -599.000
232.502;    7.850;  -19.000;    7.000
232.645; -141.500;-1090.000; -927.000
232.789;  -34.175; -257.000; -218.000
232.933;  -48.400; -407.000; -224.000
233.076; -136.000;-1038.000; -897.000
233.220; -100.100; -752.000; -777.000
233.363;  -74.525; -669.000; -477.000
233.507;   72.950;  371.000;  129.000
233.650;  -96.000; -764.000; -834.000
233.794;   38.775;  438.000;  461.000
233.938;  -60.450; -530.000; -362.000
234.081;   -6.675;  -93.000;   31.000
234.225;  -73.475; -631.000; -539.000
234.368; -102.100; -773.000; -723.000
234.512;  -42.825; -385.000; -299.000
234.655;  -82.000; -582.000; -555.000
234.798;  -62.825; -493.000; -466.000
234.942; -137.950; -884.000;-1002.000
235.085;  -74.400; -651.000; -443.000
235.229;  -79.150; -405.000; -410.000
235.372;  -61.550; -247.000; -191.000
235.516;  -56.600; -397.000; -321.000
235.659;   16.250;   92.000;  121.000
235.802;  -15.175;  -38.000;  -22.000
235.946;   31.325;  335.000;  215.000
236.089;   31.225;  126.000;  250.000
236.233;   46.625;  275.000;  298.000
236.376;  -49.100; -235.000; -378.000
236.519;  -50.750; -297.000; -319.000
236.663;  -22.275; -215.000; -117.000
236.806; -130.875;-1029.000; -999.000
236.949;   52.675;  543.000;  431.000
237.092;   61.375;  412.000;  391.000
237.236;  -78.400; -589.000; -502.000
237.379;   56.975;  352.000;  428.000
237.522; -126.425; -879.000; -768.000
237.666;  -20.375; -271.000;   18.000
237.809; -117.150; -851.000; -823.000
237.952;   35.350;  469.000;  271.000
238.095;  -69.950; -447.000; -442.000
238.238;   91.125;  688.000;  700.000
238.382;    8.650;  166.000;  103.000
238.525;  -72.425; -598.000; -511.000
238.668; -145.925;-1060.000; -985.000
238.811;  -83.675; -638.000; -643.000
238.954;  -61.500; -483.000; -334.000
239.097;   89.650;  617.000;  664.000
239.241;   29.150;  394.000;  326.000
239.384;  -25.675; -254.000; -214.000
239.527;  -59.550; -424.000; -224.000
239.670; -153.550; -994.000;-1091.000
239.813; -105.175; -696.000; -658.000
239.956;   74.600;  579.000;  473.000
240.099; -110.000; -778.000; -725.000
240.242;   56.175;  428.000;  432.000
240.385;   53.150;  466.000;  450.000
240.528;  -81.275; -706.000; -473.000
240.671;   18.125;  189.000;  134.000
240.814;  -45.250; -441.000; -158.000
240.957;  -94.100; -767.000; -578.000
241.100;  -88.050; -779.000; -755.000
241.243; -146.300;-1234.000; -893.000
241.386;  -53.450; -508.000; -379.000
241.529;  -73.775; -735.000; -547.000
241.672;  -59.750; -566.000; -495.000
241.815; -114.975; -832.000; -808.000
241.958;  -28.450; -125.000; -182.000
242.101;  -76.150; -545.000; -390.000
242.244;  -34.000; -270.000; -325.000
242.387;  -27.550; -304.000; -246.000
242.530;   57.200;  470.000;  134.000
242.673;  -49.725; -381.000; -309.000
242.815; -110.975; -925.000; -899.000
242.958;  -70.775; -482.000; -381.000
243.101;   -0.375;  132.000;  187.000
243.244;  -82.025; -564.000; -521.000
243.387;  -50.925; -313.000; -316.000
243.530;  -92.125; -657.000; -674.000
243.672;    5.550;   43.000;  -92.000
243.815;  -53.425; -355.000; -283.000
243.958;   -3.325;   98.000;  -26.000
244.101;   -4.250;   59.000;  -16.000
244.243;   -8.150;  -47.000;  101.000
244.386;  -99.225; -761.000; -630.000
244.529;  -21.475; -132.000; -139.000
244.672; -147.550;-1154.000; -951.000
244.814;  -96.675; -621.000; -794.000
244.957;  -37.600; -380.000; -304.000
245.100;  -84.350; -489.000; -489.000
245.242;  -55.975; -387.000; -374.000
245.385;    0.700;  -59.000;  -39.000
245.528; -106.425; -871.000; -705.000
245.670;   79.925;  612.000;  634.000
245.813;  -93.900; -599.000; -547.000
245.956;  -22.350; -324.000; -275.000
246.098;  -68.050; -508.000; -650.000
246.241;    3.975;  194.000;   48.000
246.383;  -22.925; -119.000;  -73.000
246.526;  -71.525; -454.000; -525.000
246.669; -119.525; -889.000; -780.000
246.811;   29.250;  172.000;   -1.000
246.954;  -60.725; -512.000; -426.000
247.096;  -14.525;  -84.000;   -6.000
247.239;  -67.175; -482.000; -445.000
247.381;  -58.200; -647.000; -488.000
247.524;   73.925;  645.000;  679.000
247.666;  -16.900;   58.000;   11.000
247.809; -119.725; -887.000; -691.000
247.951;   -4.175;  -75.000;  138.000
248.094;   33.700;  432.000;  308.000
248.236; -159.675;-1262.000;-1238.000
248.378;   14.125; -356.000;  -81.000
248.521;  -20.225; -334.000; -337.000
248.663;  -30.650; -236.000; -267.000
248.806;  -21.375; -300.000; -266.000
248.948;  -81.825; -886.000; -763.000
249.090;  -47.350; -428.000; -398.000
249.233;  -52.150; -344.000; -381.000
249.375;  -70.350; -474.000; -451.000
249.518;  -14.750;  -83.000; -133.000
249.660;   -3.750; -103.000;    3.000
249.802; -171.175;-1303.000;-1189.000
249.945;  -82.450; -612.000; -540.000
250.087; -118.475; -834.000; -768.000
250.229;  -61.925; -362.000; -480.000
250.371;  -78.600; -494.000; -439.000
250.514;  -50.000; -310.000; -244.000
250.656;  -12.425;   69.000;  102.000
250.798; -128.800; -849.000; -800.000
250.940;  -49.450; -322.000; -322.000
251.083;  -23.275; -335.000; -111.000
251.225;   70.575;  338.000;  310.000
251.367;  -35.625; -274.000; -373.000
251.509;  -33.475; -265.000; -210.000
251.651; -105.000; -731.000; -671.000
251.794;   65.150;  538.000;  632.000
251.936; -109.125; -821.000; -747.000
252.078;  -80.625; -540.000; -461.000
252.220;  -68.475; -645.000; -477.000
252.362;   77.100;  344.000;  462.000
252.504;  -71.450; -677.000; -584.000
252.646; -120.075; -875.000; -722.000
252.788;    4.575;   14.000; -128.000
252.931;  -42.250; -257.000; -253.000
253.073;  -36.175; -376.000; -317.000
253.215;   -6.450;  141.000;  122.000
253.357;  -17.025;   82.000; -153.000
253.499;  -54.375; -374.000; -234.000
253.641;  -88.600; -749.000; -594.000
253.783; -103.675; -609.000; -527.000
253.925;  -78.175; -586.000; -591.000
254.067; -106.475; -744.000; -667.000
254.209;   -2.675; -391.000; -259.000
254.351; -124.650; -865.000; -883.000
254.493;  -61.150; -441.000; -417.000
254.635; -112.925; -936.000; -818.000
254.777;  -84.900; -752.000; -687.000
254.918;  -69.600; -512.000; -430.000
255.060;  -52.975; -551.000; -395.000
255.202;  -53.250; -473.000; -261.000
255.344;  -60.200; -658.000; -455.000
255.486;  -52.400; -471.000; -406.000
255.628; -109.750; -780.000; -781.000
255.770;  -90.625; -676.000; -536.000
255.912;  -68.250; -559.000; -468.000
256.053;  -86.275; -730.000; -508.000
256.195;  158.675; 1008.000;  903.000
256.337;  -89.850; -861.000; -595.000
256.479;   55.300;  532.000;  416.000
256.621;  -41.875; -394.000; -212.000
256.762;  -97.425; -789.000; -742.000
256.904;   54.725;  485.000;  487.000
257.046;  -48.225; -381.000; -271.000
257.188;  -40.100; -351.000; -264.000
257.329;  -68.525; -525.000; -464.000
257.471; -112.950; -939.000; -807.000
257.613;  -67.050; -584.000; -498.000
257.755; -146.475;-1073.000; -982.000
257.896;   41.925;  286.000;  392.000
258.038;  -63.125; -403.000; -352.000
258.180;  -36.275; -354.000; -279.000
258.321;  -87.625; -581.000; -457.000
258.463;   12.025;  -71.000;  133.000
258.605;  -85.250; -562.000; -570.000
258.746; -100.725; -886.000; -772.000
258.888; -163.450;-1026.000;-1020.000
259.029;   18.025;  121.000;   -8.000
259.171;  -96.150; -614.000; -550.000
259.313;   -8.825;  -49.000;  -47.000
259.454;  -77.075; -536.000; -414.000
259.596;  -67.000; -483.000; -390.000
259.737;  -79.625; -590.000; -474.000
259.879;   40.050;  217.000;  311.000
260.020;   99.450;  901.000;  636.000
260.162;  -12.475; -146.000; -253.000
260.303; -107.400; -768.000; -687.000
260.445;  -94.275; -609.000; -613.000
260.586;   37.250;  392.000;  157.000
260.728;  -40.875; -360.000; -248.000
260.869; -114.075; -350.000; -343.000
261.011;   67.400;  706.000;  537.000
261.152;  -68.650; -479.000; -319.000
261.293;  -75.425; -576.000; -595.000
261.435;  -42.425; -219.000; -184.000
261.576;  -53.175; -455.000; -325.000
261.718;   57.850;  420.000;  470.000
261.859; -128.175; -940.000; -949.000
262.000; -137.050; -951.000;-1016.000
262.142;  -36.550;  -52.000;  -60.000
262.283; -109.000; -808.000; -691.000
262.424;  -88.000; -666.000; -625.000
262.566; -153.125;-1161.000; -983.000
262.707; -129.975; -840.000; -830.000
262.848; -121.325; -769.000; -726.000
262.990;  -48.550; -362.000; -345.000
263.131;   83.975;  650.000;  681.000
263.272;   -8.125;  -61.000;  -41.000
263.413;  -87.375; -589.000; -561.000
263.555;  -63.000; -669.000; -143.000
263.696;  -90.150; -550.000; -641.000
263.837;  -61.200; -449.000; -551.000
263.978;   -9.775;   -5.000;  -77.000
264.119;  -49.925; -283.000; -264.000
264.261; -111.050; -847.000; -630.000
264.402;   -5.125;   33.000;   40.000
264.543;  -69.350; -509.000; -524.000
264.684;  -10.700;   61.000;  -50.000
264.825;  -82.600; -816.000; -538.000
264.966;   -4.475;  -84.000;  -67.000
265.107; -115.050; -646.000; -670.000
265.248; -117.075; -825.000; -812.000
265.390;    0.950;  152.000;   -9.000
265.531;  -16.775; -238.000; -107.000
265.672;  -84.500; -557.000; -630.000
265.813;   61.300;  563.000;  439.000
265.954; -140.050; -959.000; -940.000
266.095;   -8.300; -372.000; -322.000
266.236;  -93.275; -686.000; -548.000
266.377;  -34.175; -243.000; -297.000
266.518;  -74.850; -619.000; -547.000
266.659;   28.700;  170.000;  268.000
266.800;    5.200;   83.000;   85.000
266.941;  -81.100; -487.000; -478.000
267.082;   17.450;  354.000;   99.000
267.223;  -47.350; -344.000; -273.000
267.364; -117.725; -892.000; -686.000
267.504;   -6.325;    3.000;  135.000
267.645;   -5.950;  160.000;   67.000
267.786;  -38.025; -147.000;  -86.000
267.927;  -47.250; -473.000; -379.000
268.068;  -12.150; -186.000;  -61.000
268.209;  -39.675; -175.000; -413.000
268.350;  -52.050; -388.000; -532.000
268.490; -100.350; -648.000; -521.000
268.631;   15.050;  127.000;  225.000
268.772; -108.850; -874.000; -647.000
268.913;  -44.525; -328.000; -476.000
269.054;  -12.200; -117.000;   12.000
269.194;  -33.625; -418.000; -402.000
269.335; -153.300;-1137.000;-1074.000
269.476;  -33.050;   33.000;  -35.000
269.617;  -52.675; -347.000; -392.000
269.757;  -89.100; -713.000; -646.000
269.898; -113.900; -856.000; -613.000
270.039;  -61.525; -415.000; -405.000
270.180; -132.625; -952.000; -816.000
270.320;  -13.975; -190.000; -250.000
270.461;  -43.100; -277.000; -249.000
270.602;  -20.750; -186.000; -156.000
270.742; -115.775; -868.000; -943.000
270.883;  -56.475; -442.000; -390.000
271.023;  -59.900; -358.000; -357.000
271.164;  -92.725; -607.000; -528.000
271.305; -109.275; -666.000; -654.000
271.445;  -89.225; -722.000; -683.000
271.586;  -55.775; -462.000; -283.000
271.726;  -48.550; -397.000; -322.000
271.867;  -58.375; -594.000; -534.000
272.008;  175.800; -473.000; -285.000
272.148;  125.975;  462.000;  468.000
272.289;   10.300; -113.000; -181.000
272.429;   23.200;   19.000;  185.000
272.570;  -89.075; -633.000; -737.000
272.710; -101.075; -825.000; -775.000
272.851;  -19.825;  113.000; -130.000
272.991; -163.625;-1173.000;-1077.000
273.131;  -75.775; -419.000; -459.000
273.272;  -97.000; -683.000; -723.000
273.412;    8.600; -143.000;  -31.000
273.553;  -46.300; -488.000; -507.000
273.693;  132.300;  913.000;  858.000
273.834;  -80.775; -894.000; -692.000
273.974;  -84.900; -664.000; -615.000
274.114;  -96.725; -772.000; -560.000
274.255;   68.075;  414.000;  373.000
274.395;   18.375; -180.000; -125.000
274.535;   35.450;  199.000;  350.000
274.676;   28.875;  225.000;   94.000
274.816;   -1.850;  110.000;   34.000
274.956;  -89.575; -624.000; -690.000
275.097;  -60.950;-1014.000; -922.000
275.237; -110.350; -913.000; -803.000
275.377;  -91.800; -778.000; -689.000
275.517; -154.275; -878.000; -937.000
275.658;  -64.175; -590.000; -555.000
275.798;  -65.450; -606.000; -413.000
275.938;   25.950;  215.000;  323.000
276.078;  -96.825; -626.000; -395.000
276.218;   10.675;   99.000;  104.000
276.359; -119.150;-1026.000;-1024.000
276.499;  -70.700; -605.000; -446.000
276.639;  -25.400; -305.000; -151.000
276.779;  -48.625; -475.000; -357.000
276.919; -108.150; -783.000; -624.000
277.059;  -29.275; -261.000; -212.000
277.199;  -58.700; -357.000; -259.000
277.340;   48.225;  287.000;  175.000
277.480; -104.500; -840.000; -693.000
277.620;   20.900;  192.000;   16.000
277.760; -201.125;-1533.000;-1294.000
277.900;   -1.950;  113.000;   33.000
278.040;   25.850;  137.000;  159.000
278.180;   35.500;  270.000;  170.000
278.320;   -0.625;   21.000;   56.000
278.460;  -60.550; -443.000; -469.000
278.600;  -82.750; -708.000; -598.000
278.740;   44.000;  448.000;  224.000
278.880;  -48.375; -768.000; -791.000
279.020;   -2.250; -194.000; -144.000
279.160;  -99.325; -672.000; -595.000
279.300; -117.350; -926.000; -873.000
279.440;  -87.925; -709.000; -622.000
279.579;  -16.400;-1014.000; -929.000
279.719;  -47.400; -410.000; -394.000
279.859;   65.650;   -4.000;   41.000
279.999;   34.125; -208.000;  101.000
280.139;  -11.250; -435.000; -387.000
280.279;  -73.800; -708.000; -745.000
280.419;  -21.000; -229.000; -147.000
280.559;  -34.250; -259.000; -180.000
280.698;  -87.275; -790.000; -639.000
280.838; -102.475; -778.000; -800.000
280.978;  -95.625; -846.000; -790.000
281.118; -107.925; -811.000; -704.000
281.257;   -3.950;   24.000;    6.000
281.397; -113.550;-1094.000; -960.000
281.537;  -93.725; -599.000; -712.000
281.677;  -15.225; -150.000; -101.000
281.816;  -88.650; -700.000; -630.000
281.956;  -22.050; -193.000; -257.000
282.096;  -64.375; -539.000; -396.000
282.235; -100.250; -672.000; -638.000
282.375;  -25.200; -243.000;  -98.000
282.515; -104.700; -715.000; -707.000
282.654;   28.950;   29.000;  106.000
282.794;   29.925;  388.000;  244.000
282.934;  -50.800; -530.000; -491.000
283.073; -144.500;-1030.000; -857.000
283.213;  -69.475; -460.000; -467.000
283.353;  -39.375; -408.000; -349.000
283.492;  -27.750; -264.000; -296.000
283.632;  -51.625; -254.000; -168.000
283.771;  -99.500; -859.000; -730.000
283.911;  -51.750; -369.000; -260.000
284.050; -101.950; -794.000; -748.000
284.190; -151.825;-1229.000;-1096.000
284.329; -147.150;-1055.000; -964.000
284.469;  -63.550; -516.000; -591.000
284.608;  -51.975; -559.000; -598.000
284.748;  -89.400; -614.000; -570.000
284.887;  -10.575;  -87.000;  -20.000
285.027; -110.450; -844.000; -892.000
285.166;  -44.325; -192.000; -249.000
285.306;   17.275; -116.000;  -33.000
285.445;  -43.525; -229.000; -343.000
285.584;  -94.200; -630.000; -494.000
285.724;  -45.775; -282.000; -322.000
285.863; -113.250; -857.000; -507.000
286.002;  -55.475; -366.000; -276.000
286.142; -103.175; -715.000; -622.000
286.281;  -61.675; -525.000; -493.000
286.420;  -77.750; -554.000; -417.000
286.560;   95.425;  653.000;  623.000
286.699; -113.875; -958.000; -912.000
286.838;  -88.550; -590.000; -591.000
286.978;  -91.075; -533.000; -537.000
287.117; -135.750;-1085.000; -950.000
287.256;  -40.300; -228.000; -211.000
287.395;  -48.325; -197.000; -378.000
287.535;  -37.275; -370.000; -298.000
287.674;  -65.625; -509.000; -484.000
287.813;   63.375;  661.000;  533.000
287.952; -125.600;-1010.000; -871.000
288.091; -146.100;-1049.000; -915.000
288.231;   18.250;   13.000;   15.000
288.370; -179.425;-1217.000;-1200.000
288.509;  -89.550; -728.000; -645.000
288.648;  -85.050; -770.000; -548.000
288.787;  -33.725; -243.000;  -87.000
288.926;  -73.650; -454.000; -475.000
289.065;  127.300;  859.000;  672.000
289.204;  -50.525; -377.000; -217.000
289.344; -107.150; -791.000; -690.000
289.483;   21.150;  416.000;  304.000
289.622;  -17.675; -291.000; -149.000
289.761;  -14.475; -309.000; -166.000
289.900; -105.325; -785.000; -626.000
290.039;  -18.525;  -12.000;  -95.000
290.178;  -36.000; -274.000; -180.000
290.317;  -91.075; -618.000; -479.000
290.456;  -72.975; -463.000; -451.000
290.595; -135.200; -961.000; -833.000
290.734; -131.000; -904.000; -891.000
290.873;  -71.375; -456.000; -420.000
291.011; -102.750; -833.000; -843.000
291.150; -100.650; -770.000; -682.000
291.289;  -25.700; -343.000; -110.000
291.428;  -90.750; -599.000; -480.000
291.567;  -56.125; -370.000; -442.000
291.706;   -4.375;  109.000;  154.000
291.845;  -98.075; -597.000; -505.000
291.984; -161.975;-1234.000;-1061.000
292.122;   77.025;  602.000;  582.000
292.261;   38.275;  620.000;  463.000
292.400;    6.975; -144.000;  211.000
292.539; -129.225; -959.000; -813.000
292.678;  -32.625; -325.000; -300.000
292.816; -154.100;-1136.000; -965.000
292.955;  -85.550; -844.000; -684.000
293.094;  -31.175; -173.000; -337.000
293.233;  -51.500; -556.000; -400.000
293.371;  -32.525; -225.000;  -84.000
293.510; -112.425; -866.000; -780.000
293.649; -125.125; -959.000; -924.000
293.787;  -75.050;-1083.000;-1012.000
293.926;   -8.225; -113.000;  -32.000
294.065;  -42.925; -379.000; -290.000
294.203;   56.725;  298.000;  406.000
294.342;   35.300;   74.000;  156.000
294.481; 5338.125;51180.000; -836.000
294.619;  -49.150; -425.000; -582.000
294.758; -148.200;-1230.000;-1137.000
294.896;   69.950; -125.000;    5.000
295.035; -116.075;-1040.000;-1006.000
295.174; -124.325;-1082.000; -954.000
295.312;  -29.975; -323.000; -203.000
295.451;   -4.225; -307.000; -428.000
295.589;  -58.475; -389.000; -518.000
295.728;   16.125; -292.000; -165.000
295.866;    9.750;  -36.000;  -51.000
296.005;  -58.900; -584.000; -341.000
296.143;  -68.325; -558.000; -596.000
296.282; -108.425; -957.000; -881.000
296.420;  -87.150; -657.000; -557.000
296.559;  -97.575; -892.000; -633.000
296.697;   10.100; -847.000; -665.000
296.835;   55.500;-1141.000;-1002.000
296.974;   39.425;  -23.000;   39.000
297.112;   11.275; -443.000; -504.000
297.251;  -83.200; -815.000; -755.000
297.389;   91.650; -576.000; -438.000
297.527;   41.775; -145.000;  -83.000
297.666;  -60.750; -486.000; -438.000
297.804;  -61.125; -404.000; -264.000
297.942;   -4.900; -136.000; -161.000
298.081;   -7.600; -183.000;   63.000
298.219;   67.500;  -17.000;  -19.000
298.357;   46.100; -144.000;  -71.000
298.495;   25.675; -810.000; -812.000
298.634;   75.275;  245.000;  219.000
298.772;   56.375; -220.000; -338.000
298.910;  -26.750; -309.000; -182.000
299.048;  -19.950; -130.000; -153.000
299.187;  -26.425; -350.000; -250.000
299.325;   10.600;   52.000;  122.000
299.463;   56.775; -389.000; -299.000
299.601;  115.075; -327.000; -271.000
299.739; -107.200; -908.000; -883.000
299.877;  -73.325; -791.000; -703.000
300.016;  -48.875;-1095.000; -935.000
300.154;  156.300;  -19.000; -161.000
300.292;   57.125; -428.000; -348.000
300.430;   25.600; -408.000; -291.000
300.568; -113.825; -940.000; -874.000
300.706;  -58.475; -366.000; -469.000
300.844;  -63.600;-1108.000; -979.000
300.982;  110.950;  246.000;  282.000
301.120;  -89.475; -965.000; -866.000
301.258;  -70.050; -812.000; -705.000
301.396;   26.425;  104.000;  -41.000
301.534;   83.900; -218.000; -293.000
301.672;   -2.900; -664.000; -521.000
301.810;   43.800; -613.000; -545.000
301.948;  137.250;   53.000;  149.000
302.086;  611.400; -250.000;  -32.000
302.224;  964.425; -610.000; -585.000
302.362;   37.175; -558.000; -622.000
302.500;  -12.650; -923.000; -893.000
302.638;  100.425;  128.000;  245.000
302.776;    9.025; -352.000; -408.000
302.913;   46.075;  447.000;  236.000
303.051;   -4.275;  -86.000;  -23.000
303.189;   43.775;   90.000;  118.000
303.327;  -31.575; -341.000; -256.000
303.465;  -81.100; -832.000; -588.000
303.603;  -84.150; -805.000; -604.000
303.740;  100.175;  417.000;  241.000
303.878;   27.525; -800.000; -759.000
304.016; -101.200; -915.000; -790.000
304.154; -116.075;-1123.000;-1152.000
304.291;  -45.875; -505.000; -554.000
304.429;   17.600;  102.000;   74.000
304.567; -131.150; -908.000; -893.000
304.705;  -53.425; -408.000; -515.000
304.842;  101.050; -616.000; -540.000
304.980;   56.675;  215.000;   35.000
305.118;   48.275; -367.000; -365.000
305.255;  -65.850; -945.000; -927.000
305.393;   62.200;  178.000;  239.000
305.531; -105.625;-1173.000; -956.000
305.668;  -71.725; -663.000; -582.000
305.806;   99.375; -358.000; -439.000
305.943;   92.300; -629.000; -637.000
306.081;   73.375; -378.000; -267.000
306.219; -104.825; -863.000; -748.000
306.356;    1.725;  158.000;   27.000
306.494;  111.500;  981.000;  761.000
306.631;    3.000;  -11.000;  -55.000
306.769;    3.175; -613.000; -485.000
306.906;  -14.100; -284.000; -258.000
307.044;  -59.375; -473.000; -488.000
307.181;  -50.925; -410.000; -332.000
307.319;    9.625;  112.000;   87.000
307.456; -172.475;-1191.000;-1153.000
307.594; -101.200; -980.000; -727.000
307.731;  -15.925; -371.000; -164.000
307.868;   -7.225;  -15.000;   20.000
308.006; -137.450; -961.000; -847.000
308.143;  -73.275; -618.000; -330.000
308.281;  154.275;  -37.000; -254.000
308.418;  -24.400; -748.000; -640.000
308.555;  -73.425; -400.000; -250.000
308.693;  -72.250; -577.000; -573.000
308.830; -100.150; -712.000; -657.000
308.967;  -15.600; -215.000;  -95.000
309.105;  -42.875; -507.000; -396.000
309.242;   25.575; -468.000; -367.000
309.379;  265.000; -577.000; -655.000
309.517;  -69.750; -936.000; -948.000
309.654; -101.550; -910.000; -734.000
309.791;  -76.225; -662.000; -580.000
309.928; -113.825; -977.000; -914.000
310.065;  181.900;  819.000;  697.000
310.203;    1.425; -825.000; -850.000
310.340;  -17.000; -465.000; -321.000
310.477;  -71.075; -412.000; -516.000
310.614;  -73.850; -383.000; -473.000
310.751;  -70.025; -427.000; -518.000
310.889;   -8.075;    1.000;   11.000
311.026; -161.725;-1161.000; -939.000
311.163;  -64.075; -386.000; -380.000
311.300;  -70.775; -512.000; -479.000
311.437;  -89.075; -658.000; -619.000
311.574; -158.675;-1226.000; -985.000
311.711;  -54.700; -595.000; -433.000
311.848;  -35.475; -380.000; -388.000
311.985;   18.500;  270.000;   93.000
312.122; -109.000; -932.000; -762.000
312.259; -119.300; -941.000; -994.000
312.396;  -83.025; -508.000; -551.000
312.533;  -97.200; -812.000; -790.000
312.670; -127.500;-1070.000; -898.000
312.807;  -41.250; -352.000; -367.000
312.944;  -74.450; -513.000; -611.000
313.081;  -39.425; -150.000; -415.000
313.218;  -93.775;-1111.000; -867.000
313.355;   -6.800; -531.000; -449.000
313.492;    5.450; -455.000; -292.000
313.629;  140.300;  815.000;  735.000
313.766; -152.200;-1176.000;-1008.000
313.902;  -19.775; -186.000;   21.000
314.039;  -46.800; -372.000; -289.000
314.176;   23.525;  286.000;  192.000
314.313;  -84.425; -569.000; -473.000
314.450;  -74.775; -788.000; -684.000
314.587;  -53.225; -468.000; -480.000
314.723;   -4.050;  -78.000;  130.000
314.860;   26.475;  318.000;  332.000
314.997;   34.650;  223.000;  142.000
315.134;  -39.775; -385.000; -368.000
315.270;  -37.300; -480.000; -496.000
315.407; -128.550;-1094.000; -967.000
315.544;  -45.875; -657.000; -538.000
315.681;  -59.975; -681.000; -565.000
315.817;   18.300; -133.000; -176.000
315.954;   23.025; -613.000; -392.000
316.091; -118.700;-1045.000;-1023.000
316.227;  -24.800;  -71.000; -179.000
316.364;   -5.275;   23.000;    6.000
316.500;  -28.950; -113.000; -300.000
316.637;  -30.650; -181.000; -302.000
316.774;  -89.775; -625.000; -358.000
316.910;  -74.550; -598.000; -629.000
317.047;  -73.525; -487.000; -351.000
317.183;  -57.900; -435.000; -566.000
317.320;  -14.625; -367.000; -321.000
317.456;  -74.100; -733.000; -805.000
317.593;  -98.375; -598.000; -641.000
317.729;   17.900;  168.000;  -67.000
317.866; -207.025;-1434.000;-1285.000
318.002;  -87.000; -708.000; -948.000
318.139;  -99.900; -883.000; -867.000
318.275;  -99.000;-1003.000; -738.000
318.412;  -67.225; -517.000; -336.000
318.548;  -47.975; -751.000; -720.000
318.685;  -94.000; -985.000; -888.000
318.821; -101.225; -762.000; -735.000
318.957;  -10.325;   34.000;  -23.000
319.094;   40.250;  297.000;  154.000
319.230;  -63.225; -756.000; -742.000
319.367;  135.375; -471.000; -520.000
319.503;   52.025; -538.000; -436.000
319.639;  -86.425; -877.000; -793.000
319.775;  -55.725; -750.000; -685.000
319.912;  -45.925; -424.000; -519.000
320.048;  -91.450;-1184.000;-1184.000
320.184;   71.800;   59.000;   70.000
320.321;  -60.100; -497.000; -467.000
320.457;   61.250;  475.000;  662.000
320.593;  -62.600; -375.000; -382.000
320.729; -106.000; -732.000; -734.000
320.866;  -76.300; -577.000; -635.000
321.002;  -76.700; -759.000; -809.000
321.138;  -12.125; -135.000; -211.000
321.274;   65.850; -148.000; -115.000
321.410;  -18.800; -585.000; -353.000
321.546;  -26.050;-1011.000; -911.000
321.683;   63.075;  400.000;  185.000
321.819;    7.575;  -48.000; -117.000
321.955; -109.275; -743.000; -722.000
322.091;  -29.625; -585.000; -540.000
322.227;  -19.775; -382.000; -202.000
322.363;  -26.075; -320.000; -215.000
322.499;  -41.800; -343.000; -331.000
322.635;  172.575;  636.000;  443.000
322.771;   22.075; -139.000;   12.000
322.907;   99.975;  129.000;  327.000
323.043;  -12.550; -115.000; -206.000
323.179;  -35.150; -394.000; -363.000
323.315;   30.400; -401.000; -371.000
323.451;   90.075; -328.000; -236.000
323.587;   71.075;  -60.000;  -77.000
323.723;   19.975; -682.000; -601.000
323.859;  -13.175; -258.000;  -76.000
323.995;  -35.725; -467.000; -409.000
324.131; -130.300; -967.000; -892.000
324.267;  -28.175; -254.000; -276.000
324.402; -138.025; -960.000; -983.000
324.538;    0.850; -279.000; -104.000
324.674;   37.950;  164.000;   77.000
324.810;  121.200;  226.000;  308.000
324.946;   -5.550; -810.000; -658.000
325.082;  -63.325; -568.000; -475.000
325.217;   -7.575;  -62.000;   16.000
325.353;  -97.625; -764.000; -659.000
325.489;  -94.500; -540.000; -506.000
325.625;  -67.275; -579.000; -525.000
325.760;   56.425;  517.000;  376.000
325.896;  -30.550; -515.000; -702.000
326.032;  -42.600; -403.000; -352.000
326.168;  -78.650; -462.000; -369.000
326.303;  -66.600; -352.000; -461.000
326.439;  -27.150; -336.000; -276.000
326.575;   -1.450; -190.000;  -29.000
326.710;  -16.750; -156.000;  -30.000
326.846;    2.825;  146.000;  103.000
326.982;  -91.725; -530.000; -548.000
327.117;  -68.750; -481.000; -442.000
327.253;  -82.925; -745.000; -742.000
327.388; -159.575;-1137.000;-1153.000
327.524;  -68.375; -811.000; -578.000
327.659;  -26.300;  -58.000;  -22.000
327.795;  -12.950;   69.000;   45.000
327.931;  -83.325; -723.000; -499.000
328.066;  -36.850; -417.000; -276.000
328.202;  -15.250;   12.000; -129.000
328.337;  103.300;  957.000;  713.000
328.473;   36.550;  -12.000;  -74.000
328.608;  -20.375; -256.000; -267.000
328.743;  -82.125; -799.000; -664.000
328.879;   16.825;  214.000;  114.000
329.014;  -27.900; -102.000; -122.000
329.150;  -82.400; -358.000; -483.000
329.285;  -84.375; -465.000; -466.000
329.421;  -56.175; -548.000; -246.000
329.556;  -20.975;  -36.000;   85.000
329.691;  -90.225; -633.000; -615.000
329.827;  -72.150; -626.000; -480.000
329.962;  -34.200;  131.000; -301.000
330.097;  -94.775; -673.000; -585.000
330.233;  -45.075; -410.000; -223.000
330.368; -128.925; -839.000; -628.000
330.503;  -14.550;    3.000;   98.000
330.638;    4.300;  -93.000; -125.000
330.774;  -56.750; -609.000; -530.000
330.909;  -42.175; -434.000; -244.000
331.044; -101.875; -714.000; -708.000
331.179; -179.425;-1217.000;-1109.000
331.315;    6.250;   77.000;   20.000
331.450;    8.425;  157.000;  285.000
331.585;  -85.000; -805.000; -706.000
331.720;  -79.900; -510.000; -460.000
331.855;  -18.200;  -35.000; -102.000
331.990;  245.750;   62.000;  138.000
332.126;  133.650; -110.000;   71.000
332.261;  -14.125; -379.000; -265.000
332.396;   -8.050; -135.000; -242.000
332.531;  -97.300;-1074.000;-1031.000
332.666;   21.875; -519.000; -363.000
332.801; -114.300; -726.000; -807.000
332.936;  -14.100; -192.000; -122.000
333.071; -148.625; -870.000; -817.000
333.206;   21.300;  307.000;  379.000
333.341;   33.550;  344.000;  418.000
333.476;  -83.800; -627.000; -623.000
333.611;  -40.300; -251.000; -173.000
333.746;  -27.550; -381.000; -464.000
333.881; -119.750; -973.000; -935.000
334.016; -122.700; -936.000; -917.000
334.151; -131.150; -746.000; -702.000
334.286;   17.300;  152.000;  186.000
334.421;  -13.975; -125.000; -178.000
334.556;  -81.200; -611.000; -567.000
334.690;  -82.575; -631.000; -577.000
334.825;   65.300;  381.000;   83.000
334.960;  -48.825; -285.000; -413.000
335.095;    8.625;  135.000;  -91.000
335.230; -100.650; -722.000; -738.000
335.365; -137.375;-1084.000; -990.000
335.499; -143.275;-1108.000;-1037.000
335.634;   25.625;    9.000;  534.000
335.769;  -84.875; -755.000; -720.000
335.904;  -58.425; -603.000; -561.000
336.038;  -55.775; -735.000; -657.000
336.173; -119.725;-1206.000;-1194.000
336.308;    8.975; -116.000; -189.000
336.443;   -5.400; -544.000; -634.000
336.577;  -74.225; -936.000; -787.000
336.712;   67.525;   -4.000;  -12.000
336.847;  -35.875; -724.000; -607.000
336.981;   58.825; -272.000; -208.000
337.116;  286.775;  615.000;  501.000
337.250;  153.225; -434.000; -421.000
337.385;  249.650; -297.000; -208.000
337.520;   85.125; -632.000; -603.000
337.654;  -35.100; -215.000; -126.000
337.789; -136.250; -989.000; -933.000
337.923;  -36.350; -104.000; -205.000
338.058;  -85.325; -673.000; -738.000
338.192;  -25.025; -611.000; -488.000
338.327;  -13.525;  -18.000; -155.000
338.461;  -73.175; -299.000; -469.000
338.596;  -94.550; -780.000; -638.000
338.730;  -92.025; -767.000; -803.000
338.865;   78.125;  -46.000; -140.000
338.999;  -53.875; -846.000; -702.000
339.134;  -14.275; -634.000; -536.000
339.268;   24.225; -741.000; -603.000
339.403;  348.600; -740.000; -775.000
339.537;  103.075; -894.000; -820.000
339.671; -123.025; -829.000; -813.000
339.806;  -61.150; -556.000; -512.000
339.940;   20.475; -261.000; -235.000
340.074;  -94.175; -685.000; -510.000
340.209;  -46.825; -351.000; -230.000
340.343;  -77.200; -517.000; -573.000
340.477;  146.675;  998.000; 1036.000
340.612;  -68.000;-1033.000; -900.000
340.746;  137.725; -199.000; -243.000
340.880;  -79.000; -924.000; -785.000
341.014;  -27.750;  -45.000; -154.000
341.149; -123.550; -756.000; -718.000
341.283; -106.900; -839.000; -754.000
341.417;  -93.875;-1124.000; -938.000
341.551;  127.050; -768.000; -708.000
341.685;  -38.125; -633.000; -611.000
341.820;  -60.475; -562.000; -493.000
341.954;  -47.100; -218.000; -349.000
342.088; -147.925;-1102.000;-1019.000
342.222;   46.275;  565.000;  618.000
342.356;  -55.650; -395.000; -335.000
342.490;  -91.625; -880.000; -841.000
342.624;  -36.475; -339.000; -242.000
342.758;  -12.225; -364.000; -312.000
342.892;  -65.525; -710.000; -585.000
343.026;  -30.025;  -58.000; -116.000
343.160;  -61.850; -426.000; -376.000
343.294;  -72.150; -474.000; -337.000
343.428;  -33.375; -488.000; -448.000
343.562;  -24.400; -172.000;  -23.000
343.696;  -24.150; -385.000; -314.000
343.830;  -12.000; -362.000; -356.000
343.964;    9.925; -231.000; -168.000
344.098;  925.350;  199.000;   70.000
344.232;  751.425; -266.000; -127.000
344.366;   84.000; -567.000; -453.000
344.500;   45.225; -665.000; -744.000
344.634;   34.350; -324.000; -164.000
344.768;  -10.625; -531.000; -341.000
344.902;   10.475;  278.000;  256.000
345.035;  -73.975; -556.000; -496.000
345.169; -135.425; -933.000; -656.000
345.303;  -43.425; -308.000; -482.000
345.437;  -76.625; -826.000; -717.000
345.571;  -71.175; -675.000; -594.000
345.704;  -58.250; -309.000; -532.000
345.838;  -18.975; -331.000; -284.000
345.972;  -31.025; -543.000; -495.000
346.106;  141.650; -179.000; -190.000
346.239;  416.550; -312.000; -243.000
346.373;   11.125; -343.000; -302.000
346.507; -138.275; -950.000; -962.000
346.640;  140.625;  -30.000;   13.000
346.774;  -44.600; -650.000; -797.000
346.908;  -19.500; -138.000;  -11.000
347.041; -104.025; -646.000; -593.000
347.175;    0.350;  259.000;   27.000
347.309;  -68.800; -698.000; -628.000
347.442;  -97.500; -883.000; -732.000
347.576;  279.450;  670.000;  668.000
347.709;  204.800; -123.000;  -52.000
347.843;  -99.425; -933.000; -825.000
347.976;   39.700;  235.000;  294.000
348.110; -173.525;-1268.000;-1186.000
348.243; -105.675; -679.000; -772.000
348.377;    4.225;  -26.000;   60.000
348.510;   50.625;  403.000;  540.000
348.644;  -46.550;  -37.000; -159.000
348.777;   -8.725;  180.000;  191.000
348.911;  -45.325; -142.000; -112.000
349.044;  159.125;  471.000;  448.000
349.178;  160.650;-1069.000;-1006.000
349.311;   92.275;  141.000;  255.000
349.444;   -2.350; -927.000; -813.000
349.578;  -20.350; -347.000; -200.000
349.711;  -96.550; -959.000; -862.000
349.845;    7.650; -661.000; -591.000
349.978; -142.475;-1224.000;-1137.000
350.111;  -75.875; -546.000; -612.000
350.244;  -75.225; -596.000; -700.000
350.378;    8.850; -392.000; -393.000
350.511;  -69.575; -393.000; -426.000
350.644; -108.575; -808.000; -806.000
350.778;   16.450;  168.000;  104.000
350.911;   16.175;  134.000;  140.000
351.044;  -82.050; -685.000; -615.000
351.177;  -35.625; -321.000; -281.000
351.310;  -19.650;    3.000; -131.000
351.444;  -78.075; -888.000; -788.000
351.577;  106.300;  140.000;   90.000
351.710;   91.775;  593.000;  417.000
351.843;  -37.225; -165.000;  -77.000
351.976;   -1.200;  149.000;  -79.000
352.109;  -84.750; -621.000; -612.000
352.242;  -10.975; -464.000; -419.000
352.376;  -69.050; -580.000; -636.000
352.509;  177.725; -437.000; -356.000
352.642;    6.650; -654.000; -604.000
352.775;   66.625; -141.000;  -98.000
352.908; -122.200; -933.000; -904.000
353.041; -107.400; -814.000; -824.000
353.174;  -64.400; -551.000; -424.000
353.307;  -80.300; -753.000; -764.000
353.440;   92.175;  541.000;  453.000
353.573;  -95.075; -957.000;-1008.000
353.706;  -18.725; -384.000; -558.000
353.839;  -19.675; -264.000; -220.000
353.971;  -93.100; -657.000; -512.000
354.104;  -83.350; -896.000; -835.000
354.237;  -33.750; -627.000; -662.000
354.370;  -75.300; -846.000; -879.000
354.503; -184.200;-1231.000;-1308.000
354.636;  -34.100; -529.000; -348.000
354.769; -134.675; -937.000; -860.000
354.902;    3.275; -230.000; -139.000
355.034;  -12.600; -164.000; -220.000
355.167;  -20.325; -262.000; -162.000
355.300;  -85.175;-1061.000; -880.000
355.433;  958.350;  -71.000;  -14.000
355.565; 1478.350; -402.000; -384.000
355.698;  380.650; -356.000; -296.000
355.831;    5.450; -882.000; -801.000
355.964;   87.025; -285.000; -170.000
356.096;  -85.100; -856.000; -843.000
356.229;    2.475; -523.000; -530.000
356.362;  332.750; -373.000; -266.000
356.494;  594.000; -229.000; -162.000
356.627;  481.000;  269.000;  377.000
356.760;  656.225;  120.000;   53.000
356.892;  976.900; -286.000; -601.000
357.025;  656.250;  403.000;  389.000
357.157;  585.350; -167.000; -179.000
357.290;  663.225; -856.000; -713.000
357.423;  208.475; -667.000; -556.000
357.555;  101.225; -217.000; -228.000
357.688;  126.850; -483.000; -364.000
357.820;  458.650; -870.000; -877.000
357.953; 3735.525; -563.000; -589.000
358.085;  828.025; -632.000; -612.000
358.218; 1141.525;-1131.000; -932.000
358.350;  198.775;  -58.000;  312.000
358.483; -119.800;-1300.000;-1187.000
358.615;  -30.150;-1182.000;-1078.000
358.747;  -55.575;-1187.000;-1058.000
358.880;   23.950; -810.000; -744.000
359.012;   -3.275; -376.000; -202.000
359.145;  -49.700; -480.000; -511.000
359.277;   65.050; -962.000; -913.000
359.409; 3104.175;  536.000;  231.000
359.542;  802.850; -738.000; -688.000
359.674;   86.650;   46.000;   13.000
359.806;  -67.875; -565.000; -438.000
359.939;  -41.375; -617.000; -516.000
360.071;  -11.950; -583.000; -579.000
360.203;  -14.850; -411.000; -364.000
360.335;   52.700;  164.000;  -16.000
360.468;  187.300; -249.000; -307.000
360.600; 2495.300; -547.000; -454.000
360.732; 2829.100; -546.000; -423.000
360.864;  369.125;-1216.000;-1044.000
360.996;  278.400; -516.000; -554.000
361.129;   45.650; -389.000; -598.000
361.261;   15.625;  110.000; -113.000
361.393;  -26.950; -252.000; -214.000
361.525;   32.800;   94.000;  244.000
361.657;  -39.325; -821.000; -703.000
361.789;   14.125; -139.000; -155.000
361.921;  228.550; -642.000; -593.000
362.053;  256.500;  524.000;  541.000
362.185;   51.825;  288.000;   72.000
362.318;  -88.725; -709.000; -705.000
362.450;  122.125;  294.000;  444.000
362.582;  111.625; -913.000; -870.000
362.714;  -47.375; -353.000; -332.000
362.846;  -90.000; -606.000; -490.000
362.978; -144.525; -941.000; -811.000
363.109;   42.550; -161.000; -260.000
363.241;  423.150; -739.000; -749.000
363.373;  441.225; -649.000; -564.000
363.505;  652.925; -186.000;  -91.000
363.637;  139.875; -787.000; -601.000
363.769; -116.800;-1067.000;-1080.000
363.901;  -71.025; -596.000; -654.000
364.033; -119.675;-1103.000;-1062.000
364.165;   -2.975; -283.000; -283.000
364.296;   79.675; -316.000; -177.000
364.428;   58.825;-1344.000;-1220.000
364.560;  -64.275; -679.000; -661.000
364.692;  -62.050; -738.000; -835.000
364.824;  268.375; -588.000; -456.000
364.955;  458.650; -402.000; -564.000
365.087;  916.875;-1097.000; -852.000
365.219;   37.650; -686.000; -816.000
365.351;  -70.100; -526.000; -572.000
365.482;   51.575;  300.000;  240.000
365.614;  -47.425; -402.000; -314.000
365.746;  -95.350; -729.000; -752.000
365.877;  -93.525; -706.000; -672.000
366.009;  259.450;  -35.000;  -62.000
366.141;  -82.175;-1249.000;-1134.000
366.272; -104.225; -803.000; -719.000
366.404; -116.800;-1005.000; -874.000
366.535;  -17.750; -139.000;  -12.000
366.667; -100.450; -644.000; -649.000
366.799;   35.575;  353.000;  203.000
366.930; -123.575; -862.000; -996.000
367.062;  112.000; -639.000; -613.000
367.193;  155.625; -872.000; -842.000
367.325;  -49.025; -580.000; -684.000
367.456;   69.225; -246.000;   31.000
367.588;  141.400; -371.000; -318.000
367.719;   17.075;  -44.000;  -45.000
367.851;  -25.150; -222.000; -241.000
367.982;  -54.000; -875.000; -732.000
368.113;  108.100; -475.000; -358.000
368.245; -115.625; -960.000; -841.000
368.376;  -18.975; -254.000; -302.000
368.508;  -38.100; -188.000; -263.000
368.639; -146.625;-1166.000;-1034.000
368.770;  -19.775; -670.000; -589.000
368.902;  -51.300; -836.000; -926.000
369.033; -122.450; -906.000; -855.000
369.164;  -60.925; -720.000; -653.000
369.296; -112.075; -452.000; -601.000
369.427;    1.700; -209.000; -144.000
369.558;  -59.000; -593.000; -377.000
369.689;  -88.800; -721.000; -569.000
369.821; -135.450; -951.000; -845.000
369.952;   -8.975;   42.000; -108.000
370.083;  -41.975; -229.000; -108.000
370.214;  -80.725; -735.000; -650.000
370.345;   -5.900;   65.000;   81.000
370.477;  -79.700; -810.000; -790.000
370.608;  244.225; -328.000; -264.000
370.739;  -35.800;-1233.000;-1292.000
370.870;  -30.825;-1102.000; -923.000
371.001;   95.150; -378.000; -467.000
371.132;  -67.150; -754.000; -735.000
371.263;  -20.500;  -42.000; -148.000
371.394; -127.125; -841.000; -748.000
371.525;   36.825;  345.000;  225.000
371.657;  -89.275; -808.000; -670.000
371.788;   67.925;  103.000;  199.000
371.919;  166.150; -384.000; -304.000
372.050; 3664.125;  -91.000; -156.000
372.181; 1083.000; -188.000; -294.000
372.311;  365.725;   42.000; -127.000
372.442;   32.700; -457.000; -451.000
372.573;  -20.250; -444.000; -340.000
372.704; -127.775;-1008.000; -980.000
372.835;   72.850; -228.000; -289.000
372.966;  -51.650; -646.000; -554.000
373.097;  -62.600; -575.000; -711.000
373.228;  -32.200; -717.000; -542.000
373.359;  123.300; -824.000; -536.000
373.490;  962.625; -881.000; -727.000
373.620; 1178.925;-1001.000; -803.000
373.751; 1774.250; -332.000; -396.000
373.882;  799.050; -663.000; -733.000
374.013;   52.475; -449.000; -262.000
374.143;  -34.150; -581.000; -659.000
374.274; -103.050; -987.000; -908.000
374.405;  173.800; -388.000; -276.000
374.536;  460.400; -526.000; -387.000
374.666; 1126.025; -759.000; -807.000
374.797;  240.300; -817.000; -868.000
374.928;  860.325; -710.000; -560.000
375.058;  894.700; -535.000; -500.000
375.189;   76.100;  -59.000;  -93.000
375.320; -107.200; -928.000;-1034.000
375.450;  -42.625; -625.000; -616.000
375.581;  -41.875; -526.000; -436.000
375.712;  -24.975; -574.000; -250.000
375.842;  310.425; -438.000; -415.000
375.973;  221.850; -554.000; -513.000
376.103;  -53.075; -665.000; -648.000
376.234;  -82.475; -531.000; -552.000
376.364;  -31.650; -944.000; -867.000
376.495;  322.850;  925.000;  529.000
376.625;  -13.275; -472.000; -485.000
376.756;   59.450; -709.000; -678.000
376.886;  -69.425;-1178.000;-1026.000
377.017;   53.025;-1048.000;-1061.000
377.147;  328.875; -786.000; -782.000
377.278;   51.300;  174.000;  228.000
377.408; -119.175; -801.000; -815.000
377.538; -114.950; -707.000; -693.000
377.669;  -69.075; -537.000; -613.000
377.799;  -94.600; -645.000; -635.000
377.929;  -57.450; -610.000; -428.000
378.060; -126.725; -781.000; -847.000
378.190;  -54.200; -726.000; -531.000
378.320;  -44.700; -401.000; -406.000
378.451;   -7.150; -131.000;  -22.000
378.581;   -6.250;  -67.000; -110.000
378.711;  145.875; 1035.000;  866.000
378.841;  -21.750; -533.000; -675.000
378.972;  -67.425; -871.000; -751.000
379.102;   -4.175; -652.000; -579.000
379.232;  -33.375; -126.000;  -73.000
379.362; -114.050;-1001.000; -885.000
379.492;   12.225; -373.000; -424.000
379.623;  108.725;    0.000;  111.000
379.753;  -92.450;-1107.000; -974.000
379.883;  185.375;   59.000;  156.000
380.013;   12.500;-1081.000;-1017.000
380.143;  -95.400;-1097.000;-1056.000
380.273;  -81.075; -985.000; -861.000
380.403;   -2.600; -344.000; -257.000
380.533;  -18.950; -651.000; -664.000
380.663;   75.550;  173.000;  128.000
380.793;  -98.525;-1027.000;-1074.000
380.923;  -22.125; -103.000;  -34.000
381.053;  -87.075; -613.000; -623.000
381.183;  -44.825; -106.000; -248.000
381.313;   37.700; -656.000; -470.000
381.443;   41.025; -692.000; -473.000
381.573;  203.600; -402.000; -409.000
381.703;  274.975;-1249.000;-1095.000
381.833; -128.850;-1454.000;-1336.000
381.963;  106.375; -134.000;  -87.000
382.093; 1408.250; -925.000; -909.000
382.223;  433.200; -713.000; -602.000
382.353;  -28.275; -801.000; -608.000
382.482;  367.025;-1091.000; -964.000
382.612;  777.325; -872.000; -644.000
382.742;  426.875; -695.000; -622.000
382.872;  263.700; -565.000; -551.000
383.002;   44.975;  347.000; -132.000
383.131;  -17.825; -226.000; -160.000
383.261;  -38.575; -706.000; -768.000
383.391;  286.275; -552.000; -377.000
383.521; 3224.550;  451.000;  263.000
383.650;  741.800; -947.000; -904.000
383.780;  -12.350; -783.000; -656.000
383.910;  107.250;  880.000;  802.000
384.039;   14.675; -794.000; -656.000
384.169;  208.200;-1205.000;-1017.000
384.299;  -23.975; -650.000; -662.000
384.428;  -90.150; -764.000; -680.000
384.558;  -49.450; -308.000; -275.000
384.687;  -45.650; -414.000; -334.000
384.817;    5.000;   75.000;   -2.000
384.947;   13.750; -234.000; -141.000
385.076;  281.525;  982.000;  912.000
385.206;   98.325;  369.000;  480.000
385.335;  -41.200; -549.000; -417.000
385.465;  -90.600; -655.000; -663.000
385.594;  130.175;  -53.000;  -44.000
385.724;  421.250; -868.000; -838.000
385.853;  102.875; -296.000; -270.000
385.982; 1384.275; -743.000; -787.000
386.112; 2196.750;-1052.000; -871.000
386.241;  145.225; -307.000; -312.000
386.371;   15.300; -174.000;  -87.000
386.500;    7.750; -825.000; -789.000
386.629;    4.300; -874.000; -817.000
386.759;   58.425;  -43.000;   68.000
386.888;   -1.950; -170.000; -250.000
387.017;  -79.175; -648.000; -620.000
387.147;  -79.400; -771.000; -798.000
387.276;  -12.200; -410.000; -397.000
387.405;   18.025; -398.000; -342.000
387.535;  -39.050; -452.000; -361.000
387.664;  -62.675; -692.000; -620.000
387.793;   63.275; -198.000; -113.000
387.922;  509.000;  255.000;  200.000
388.052;   12.400; -576.000; -423.000
388.181;   11.475; -342.000; -472.000
388.310;   -9.150; -889.000; -710.000
388.439;  -60.475; -749.000; -742.000
388.568;  182.525;  365.000;  244.000
388.697; 1068.950; -756.000; -653.000
388.826;  213.425; -768.000; -666.000
388.956;   49.825; -285.000; -307.000
389.085;  -35.775; -347.000; -287.000
389.214; -112.350; -842.000; -872.000
389.343;  -71.175; -645.000; -413.000
389.472;  411.800;  126.000;  149.000
389.601;  507.650;   91.000;    0.000
389.730;   13.475; -568.000; -687.000
389.859;   69.950;  226.000;   46.000
389.988;  174.200; -423.000; -408.000
390.117;  155.425; -168.000; -146.000
390.246;  -11.525; -331.000; -320.000
390.375;   96.525; -673.000; -626.000
390.504;  -70.200; -703.000; -621.000
390.633; -107.625; -672.000; -726.000
390.761;  -73.675; -732.000; -645.000
390.890;    9.750;   -4.000; -130.000
391.019;  -22.175; -421.000; -441.000
391.148; -123.325; -826.000; -855.000
391.277;  -71.350; -576.000; -493.000
391.406;  -84.775; -821.000; -805.000
391.534;   14.925;  574.000; -301.000
391.663;  -59.225; -583.000; -645.000
391.792;  -83.975; -673.000; -701.000
391.921;   93.200;   -3.000;   15.000
392.050;  184.550; -287.000; -228.000
392.178;  -42.175;-1206.000;-1061.000
392.307;  140.900; -758.000; -712.000
392.436;   71.275; -427.000; -641.000
392.564;   25.225;  166.000;   -6.000
392.693;  -86.625; -860.000; -682.000
392.822;  197.125; -529.000; -534.000
392.950;   89.525; -880.000; -714.000
393.079;  324.950; -188.000; -328.000
393.208;   29.350; -488.000; -511.000
393.336;  -16.300; -170.000; -145.000
393.465;  -41.125; -317.000; -199.000
393.593;   -2.425;   62.000;   79.000
393.722; -150.075;-1121.000; -916.000
393.850;  -34.025; -188.000;  -61.000
393.979; -162.775; -926.000; -805.000
394.107;  -70.725; -517.000; -537.000
394.236;  -29.575; -570.000; -507.000
394.364;  197.475;  383.000;  206.000
394.493;  306.400; -911.000; -767.000
394.621;  -20.325; -955.000; -916.000
394.750;  718.700; -873.000; -923.000
394.878; 2906.050; -247.000; -149.000
395.007; 3987.575; -721.000; -807.000
395.135;  306.675; -790.000; -721.000
395.263;  -91.550;-1038.000;-1040.000
395.392;    9.175;  -25.000; -107.000
395.520; -130.700; -818.000; -679.000
395.648;  -88.775; -865.000; -915.000
395.777;  -22.125; -366.000; -405.000
395.905;  -51.150; -449.000; -564.000
396.033;    6.550;  217.000;  172.000
396.162;  513.350; -399.000; -453.000
396.290;  460.650;  -17.000;   -2.000
396.418;   92.250; -555.000; -514.000
396.546;  -86.000; -571.000; -466.000
396.674;  -90.725; -850.000; -878.000
396.803;   12.525;  -72.000;  -23.000
396.931;   89.075; -179.000; -199.000
397.059;   47.175;-1026.000; -989.000
397.187; -123.925;-1026.000; -975.000
397.315; -129.600; -884.000; -649.000
397.443; -102.825; -592.000; -443.000
397.572; -101.300; -578.000; -424.000
397.700;  -19.575; -607.000; -614.000
397.828;   14.525;  120.000;  -90.000
397.956;  -46.850; -508.000; -478.000
398.084;  -68.825; -767.000; -626.000
398.212;   30.475;  137.000;  124.000
398.340;   10.300;  -56.000;  159.000
398.468;   40.700; -390.000; -169.000
398.596; -135.525; -993.000; -953.000
398.724; -115.725; -762.000; -767.000
398.852; -156.350;-1024.000; -976.000
398.980;  -70.450; -560.000; -560.000
399.108;  -55.025; -982.000; -735.000
399.236;   44.425;   13.000;    8.000
399.363;    8.625;  222.000;  196.000
399.491;  -75.150; -404.000; -398.000
399.619; -121.150; -829.000; -800.000
399.747; -112.450; -859.000; -771.000
399.875;   80.575;  220.000;  234.000
400.003;  -46.925; -359.000; -284.000
400.130;  -94.350; -421.000; -341.000
400.258;  -26.025;  -83.000;   38.000
400.386;  -67.950; -352.000; -168.000
400.514;  -49.600; -526.000; -587.000
400.641;  -90.125; -928.000; -802.000
400.769; -144.825; -979.000; -888.000
400.897; -111.225; -838.000; -793.000
401.025;  -22.925; -166.000; -152.000
401.152;   -4.275;  220.000;   38.000
401.280;  -82.200; -430.000; -429.000
401.408; -119.375; -712.000; -576.000
401.535; -104.550; -735.000; -758.000
401.663; -178.875;-1134.000;-1054.000
401.790;  -79.150; -514.000; -525.000
401.918;   42.225;  436.000;  405.000
402.046;  -23.350;  134.000;  122.000
402.173;  -25.600;  -18.000;    7.000
402.301;  -68.500; -519.000; -397.000
402.428;   40.250;  528.000;  383.000
402.556; -140.850;-1188.000; -913.000
402.683;  -27.150;  -20.000;   -1.000
402.811;  -21.150;  -37.000; -206.000
402.938;  -16.175;   20.000;   27.000
403.066;  175.375; -574.000; -558.000
403.193;  334.450;  299.000;  239.000
403.321;  272.225; -396.000; -574.000
403.448;  330.875;   83.000;   27.000
403.575;  146.100;  -90.000;  -46.000
403.703;  -97.150; -732.000; -557.000
403.830;  -65.125; -531.000; -496.000
403.957; -145.975;-1117.000;-1023.000
404.085;    3.800;  -61.000; -172.000
404.212;   94.275;  -50.000;   63.000
404.339;  264.600; -566.000; -306.000
404.467; 5762.850; -612.000; -524.000
404.594; 3841.700; -287.000; -227.000
404.721;  877.200; -869.000; -764.000
404.848;   74.500; -113.000; -202.000
404.976; -114.675; -856.000; -783.000
405.103;  -15.000;  -14.000;  -82.000
405.230;  -23.425;  190.000;  226.000
405.357;   26.475;  117.000;   44.000
405.484;  266.725;  -49.000;    5.000
405.612;   38.125; -548.000; -563.000
405.739;  -68.450; -488.000; -243.000
405.866;   89.600;  669.000;  385.000
405.993;  -56.675; -398.000; -102.000
406.120; -144.925; -801.000; -887.000
406.247;  -51.875; -323.000; -342.000
406.374;  420.975;  540.000;  629.000
406.501;   95.750; -632.000; -702.000
406.628;  -76.275; -621.000; -589.000
406.755; -113.950; -803.000; -620.000
406.882;  -44.675; -228.000; -277.000
407.009; -108.575; -719.000; -628.000
407.136;   42.550; -480.000; -401.000
407.263;  110.975; -939.000; -829.000
407.390;  -78.500; -692.000; -614.000
407.517; -171.725;-1139.000;-1187.000
407.644;  -63.825; -332.000; -256.000
407.771;  -66.200; -249.000; -287.000
407.898;    4.225;  168.000;  328.000
408.025;  -67.500; -421.000; -313.000
408.151;  -12.575;   82.000;  153.000
408.278;  -73.350; -267.000; -216.000
408.405; -133.475; -931.000; -899.000
408.532;  -68.500; -549.000; -542.000
408.659; -106.850; -677.000; -648.000
408.785; -198.825;-1298.000;-1170.000
408.912;  -64.300; -412.000; -296.000
409.039; -122.200; -610.000; -686.000
409.166; -122.525; -591.000; -555.000
409.292; -110.200; -571.000; -534.000
409.419; -126.675; -665.000; -649.000
409.546;  -78.250; -431.000; -192.000
409.672; -111.050; -713.000; -545.000
409.799;  -30.675;  -36.000;   34.000
409.926;  -38.525; -180.000; -179.000
410.052; -172.775;-1127.000;-1091.000
410.179;  -67.800; -368.000; -392.000
410.305;  -91.600; -375.000; -493.000
410.432;  -47.925; -220.000; -333.000
410.558; -102.925; -305.000; -380.000
410.685; -107.525; -688.000; -431.000
410.812; -109.700; -409.000; -588.000
410.938; -155.700; -964.000; -808.000
411.065;  -94.800; -671.000; -645.000
411.191;  -36.150; -189.000; -174.000
411.317; -114.750; -823.000; -742.000
411.444;  -55.575; -317.000; -246.000
411.570;  -82.375; -339.000; -294.000
411.697; -134.075; -758.000; -752.000
411.823; -176.975; -989.000; -999.000
411.949;  -36.775;  -56.000;   17.000
412.076; -103.925; -539.000; -519.000
412.202; -126.250; -758.000; -757.000
412.329; -127.950; -798.000; -752.000
412.455; -120.875; -821.000; -657.000
412.581;  -24.025;  -15.000;  172.000
412.707;  -67.400; -540.000; -457.000
412.834;   18.950;  156.000;  219.000
412.960;  -85.550; -785.000; -784.000
413.086;  -97.150; -743.000; -701.000
413.212;  143.725;  604.000;  578.000
413.339;  -74.500; -685.000; -701.000
413.465;    6.300; -364.000; -310.000
413.591;  -85.250; -757.000; -474.000
413.717;  -56.700; -358.000; -366.000
413.843; -152.350; -839.000; -861.000
413.969;  -64.225;  -47.000; -292.000
414.096;  -87.825; -679.000; -679.000
414.222;  -14.750;  -33.000;   85.000
414.348;  -25.000; -652.000; -385.000
414.474;   90.400;   38.000;  -52.000
414.600;  -13.075; -126.000; -144.000
414.726;  -16.075;  -96.000;  -55.000
414.852;  -65.675; -365.000; -342.000
414.978;   26.300;  104.000;  -18.000
415.104;   37.300;   38.000;   80.000
415.230;   19.125; -329.000; -330.000
415.356;   27.850; -409.000; -514.000
415.482;  196.475;   13.000;  -35.000
415.608;  267.450; -247.000; -323.000
415.734;  944.350;   67.000;   38.000
415.860;19851.825; -875.000; -767.000
415.986;14561.050; -685.000; -607.000
416.111; 1263.575; -798.000; -652.000
416.237;  259.425; -424.000; -571.000
416.363; 1101.550; -765.000; -733.000
416.489; 4193.975; -324.000; -251.000
416.615;  449.475; -707.000; -742.000
416.741;  -16.300; -677.000; -784.000
416.866;  -93.550; -673.000; -736.000
416.992; -120.225; -801.000; -818.000
417.118;  -27.200;  -41.000;  -80.000
417.244;  -80.900; -798.000; -531.000
417.369;  -79.650; -801.000; -612.000
417.495;  -21.350; -325.000; -254.000
417.621;  -90.400;-1015.000; -803.000
417.746;   -1.700; -579.000; -572.000
417.872;   45.150; -254.000; -144.000
417.998;   54.325; -515.000; -530.000
418.123; 1032.175;-1073.000; -845.000
418.249; 5416.600; -512.000; -601.000
418.374;  748.400; -916.000; -824.000
418.500;  101.225; -383.000; -482.000
418.626;  103.775;   70.000;  -59.000
418.751;  110.875; -549.000; -448.000
418.877;  193.750; -637.000; -643.000
419.002; 1759.475; -688.000; -560.000
419.128;12579.675; -930.000; -721.000
419.253; 3106.375; -967.000; -837.000
419.379;  407.525; -391.000; -338.000
419.504;  378.725;  325.000;  415.000
419.629;  533.500; -393.000; -212.000
419.755; 3517.075; -317.000; -254.000
419.880;21182.725;  -98.000;   67.000
420.006;11429.725; -280.000; -221.000
420.131;29443.850; -662.000; -775.000
420.256; 4307.925; -315.000; -316.000
420.382;  565.475; -665.000; -687.000
420.507;   70.125; -649.000; -778.000
420.632;  122.575; -337.000; -339.000
420.758;  248.350; -251.000; -425.000
420.883;  -91.900; -876.000; -672.000
421.008; -112.875; -775.000; -619.000
421.133;  -73.900; -509.000; -467.000
421.259;  -56.325; -325.000; -259.000
421.384; -122.050; -834.000; -693.000
421.509;  -55.550;-1052.000; -862.000
421.634; 1132.300; -936.000; -820.000
421.759;  506.625; -359.000; -327.000
421.885;  -57.175; -717.000; -656.000
422.010;  -76.150; -673.000; -542.000
422.135; -149.525; -695.000; -727.000
422.260;   34.725;  340.000;  280.000
422.385;  -35.500;   12.000;  -98.000
422.510;   16.075;  151.000;  -26.000
422.635;   12.475;  -87.000;  -43.000
422.760;   97.000; -766.000; -791.000
422.885;   54.100;  -57.000;  -80.000
423.010;  -25.825; -112.000; -169.000
423.135;  -97.525; -481.000; -561.000
423.260;  -33.600; -150.000; -245.000
423.385;   80.125;  476.000;  222.000
423.510;   25.600;   71.000;  -22.000
423.635;   77.050;  133.000;   45.000
423.760;   37.625;  383.000;  328.000
423.885;   61.925;  336.000;  391.000
424.010;   10.500;  -68.000;  -13.000
424.135;  -29.250;    5.000;  -33.000
424.259; -108.025; -654.000; -457.000
424.384;  -64.950; -279.000; -272.000
424.509;  -18.350; -260.000; -186.000
424.634;  -98.150; -761.000; -623.000
424.759;  -33.725; -688.000; -544.000
424.883;  -11.675; -506.000; -527.000
425.008;  157.475; -502.000; -410.000
425.133; 2007.175; -679.000; -653.000
425.258;  963.875; -517.000; -381.000
425.382; 1045.325; -867.000; -774.000
425.507; 2663.075; -487.000; -543.000
425.632;  436.900; -802.000; -663.000
425.756;  439.625; -256.000; -146.000
425.881; 6502.950; -831.000; -857.000
426.006;17802.275; -604.000; -355.000
426.130; 2799.425; -696.000; -508.000
426.255;  358.050; -611.000; -491.000
426.379;  150.925; -189.000; -577.000
426.504;  376.575;  660.000;  544.000
426.629; 4018.250; -519.000; -466.000
426.753; 2782.575;   64.000;  -46.000
426.878;  324.850; -252.000; -288.000
427.002;  143.375; -651.000; -668.000
427.127; 1602.525;  -35.000; -158.000
427.251;11426.975;  372.000;  401.000
427.375; 3297.000; -191.000; -173.000
427.500; 2304.850; -616.000; -610.000
427.624;  787.100; -234.000; -400.000
427.749;   97.800; -216.000; -225.000
427.873;  -46.325; -499.000; -412.000
427.997;  -51.175; -222.000; -230.000
428.122;   67.475;  795.000;  703.000
428.246;   66.425;  433.000;  434.000
428.371; -129.400; -869.000; -773.000
428.495; -105.325; -624.000; -646.000
428.619;  -36.200; -186.000; -117.000
428.743;   14.500;   65.000;  132.000
428.868;    9.775; -732.000; -643.000
428.992; 1415.625; -219.000; -326.000
429.116;  552.525; -329.000; -357.000
429.240;  253.175;  419.000;  426.000
429.365;  -22.225; -454.000; -574.000
429.489;  -50.025; -638.000; -647.000
429.613;   28.450; -236.000; -177.000
429.737;   23.600; -563.000; -432.000
429.861;  261.975; -247.000; -133.000
429.985; 5525.500; -425.000; -305.000
430.109; 6156.500; -770.000; -908.000
430.234;  711.200;   76.000;  -50.000
430.358;   66.750; -250.000; -160.000
430.482;  -68.175; -672.000; -564.000
430.606;  -72.800; -655.000; -375.000
430.730;   -0.300; -437.000; -388.000
430.854;  119.800; -909.000; -835.000
430.978;  -80.025; -795.000; -764.000
431.102;  -80.800; -499.000; -422.000
431.226; -116.475; -874.000; -815.000
431.350;    6.100;  345.000;  422.000
431.474;  -83.025; -661.000; -373.000
431.597; -148.325;-1060.000; -848.000
431.721;  -84.650; -276.000; -267.000
431.845; -137.400; -704.000; -472.000
431.969;  -82.675; -304.000; -349.000
432.093;  -93.075; -395.000; -317.000
432.217;  -26.175;   32.000;   82.000
432.341;  -81.600; -523.000; -518.000
432.464;   -4.600;   96.000;   40.000
432.588;  190.525; -401.000; -329.000
432.712;   89.675;  -52.000;  -52.000
432.836;   42.625;  213.000;  263.000
432.959;  -29.150; -372.000; -311.000
433.083;   71.775;   11.000;    2.000
433.207;  367.650;  285.000;  930.000
433.330; 5042.825; -391.000; -200.000
433.454; 6310.975; -654.000; -638.000
433.578; 3591.900;  583.000;  278.000
433.701;  657.350; -623.000; -675.000
433.825;  127.225; -292.000; -299.000
433.949;  144.000;   28.000;  -72.000
434.072;   53.300; -410.000; -323.000
434.196;  -15.000; -309.000; -117.000
434.319; 3707.225;25482.000;25124.000
434.443;  707.625; -656.000; -603.000
434.566; 2667.500;  281.000;   62.000
434.690;  445.775; -637.000; -383.000
434.813;   53.300; -251.000; -173.000
434.937;  -72.400; -569.000; -696.000
435.060;  -60.950; -423.000; -332.000
435.184;  289.400; -492.000; -217.000
435.307;  164.075;  159.000;  102.000
435.431;  -24.800;  -40.000;   24.000
435.554;  -68.700; -399.000; -240.000
435.677;  -95.600; -350.000; -258.000
435.801;  -48.325;  -25.000;   49.000
435.924;   -5.600;    1.000;  -67.000
436.048; -131.800;-1019.000; -732.000
436.171;  -74.225; -240.000;  -66.000
436.294;  -33.025; -248.000; -229.000
436.417;   79.350; -963.000; -849.000
436.541;  -76.375; -814.000; -840.000
436.664;  -45.425; -242.000; -316.000
436.787;  -28.575;   13.000;  113.000
436.910; -122.900; -792.000; -422.000
437.034;    7.000;  142.000;  143.000
437.157;   47.750;  -11.000;    0.000
437.280;  -44.375; -392.000; -292.000
437.403;  -82.825; -982.000; -869.000
437.526;  612.400; -903.000; -865.000
437.649; 2225.575; -505.000; -332.000
437.772;  335.800; -692.000; -540.000
437.896;  110.775;  700.000;  544.000
438.019;  -93.150; -758.000; -503.000
438.142;  -83.275; -596.000; -506.000
438.265;  -17.175; -639.000; -670.000
438.388;  558.850; -520.000; -410.000
438.511;  101.850; -597.000; -394.000
438.634;  -54.275; -247.000; -125.000
438.757; -144.975; -693.000; -619.000
438.880;  -13.325;  -34.000;  -57.000
439.003;  -85.500; -417.000; -437.000
439.126;  -78.525; -287.000; -167.000
439.248;  -52.075;  -98.000; -139.000
439.371;  -45.275;    9.000;  -53.000
439.494;   32.850;  510.000;  439.000
439.617;  -52.550;   65.000;  -88.000
439.740; -164.850; -968.000; -816.000
439.863; -146.800; -755.000; -595.000
439.986; -125.150; -476.000; -431.000
440.108;  -51.950; -161.000; -112.000
440.231; -159.475; -950.000; -836.000
440.354;  -34.875;  -64.000; -150.000
440.477;   24.550; -566.000; -542.000
440.599;   -1.950; -200.000; -225.000
440.722; -125.950; -709.000; -586.000
440.845;   65.300;  751.000;  928.000
440.968; -116.325; -415.000; -311.000
441.090;  -65.225; -199.000;  -33.000
441.213; -179.100;-1021.000; -825.000
441.336;  -53.475; -159.000;   -5.000
441.458;  -77.950; -549.000; -396.000
441.581;  -79.150; -628.000; -629.000
441.703;  -70.000; -152.000;   13.000
441.826; -114.825; -557.000; -400.000
441.948;  -46.175;   56.000;   51.000
442.071;   20.750;  555.000;  424.000
442.193; -106.000; -531.000; -485.000
442.316;    7.000;  152.000;   97.000
442.438;   20.250; -233.000;  -10.000
442.561;   73.025;  272.000;  262.000
442.683;  521.825; -809.000; -522.000
442.806; 1159.525;   -8.000;   74.000
442.928;   19.850; -859.000; -604.000
443.051;  -54.050; -577.000; -373.000
443.173;  -81.325; -341.000; -339.000
443.295;  -81.400; -263.000; -371.000
443.418;  -66.650; -321.000;  -29.000
443.540;   -5.025; -106.000;   -4.000
443.662; -112.950; -563.000; -465.000
443.785;  -18.250;  335.000;  199.000
443.907; -103.125; -362.000; -208.000
444.029; -123.225; -767.000; -494.000
444.152; -147.050; -644.000; -554.000
444.274;  -25.375;  -18.000;  -24.000
444.396; -106.400; -461.000; -221.000
444.518; -143.600; -691.000; -454.000
444.640; -107.750; -268.000; -111.000
444.763;  -14.725;  388.000;  249.000
444.885; -117.800; -432.000; -392.000
445.007;  -35.100;   35.000;   86.000
445.129; -121.925; -610.000; -515.000
445.251;  -97.750; -372.000; -439.000
445.373; -153.450; -537.000; -386.000
445.495;   -2.500;  242.000;  350.000
445.617;   71.700;  853.000;  753.000
445.739;  -68.600; -215.000;  -97.000
445.861;  -42.525; -245.000; -112.000
445.984;  -33.075; -267.000; -101.000
446.105;  188.325; -418.000; -251.000
446.227;  610.925; -176.000;  -19.000
446.349;    0.225; -358.000; -249.000
446.471; -108.025; -615.000; -448.000
446.593;  -69.625; -316.000;   19.000
446.715;  -15.750;  -67.000;   41.000
446.837;   60.175;  697.000;  832.000
446.959; -105.575; -457.000; -478.000
447.081; -124.400; -628.000; -518.000
447.203;   49.075;  862.000;  834.000
447.325;  -83.450; -270.000;   42.000
447.446;  -10.650;  286.000;  530.000
447.568; -159.725; -921.000; -803.000
447.690;  -82.325; -236.000; -245.000
447.812; -164.425; -798.000; -519.000
447.933;  -31.125;  155.000;  127.000
448.055;  -70.775; -306.000; -261.000
448.177;  132.450;   31.000;   79.000
448.299;   77.425; -935.000; -727.000
448.420;   21.075;  -25.000;  159.000
448.542;  -39.800;   -3.000;   33.000
448.664;  -27.100;  109.000;  322.000
448.785;  -42.200;  265.000;   83.000
448.907;  -83.325; -614.000; -353.000
449.028;  -35.425; -771.000; -471.000
449.150;   56.425;  492.000;  589.000
449.272; -181.175;-1044.000; -913.000
449.393;   24.550;  612.000;  694.000
449.515; -144.675; -634.000; -581.000
449.636;  -60.575; -264.000; -155.000
449.758;   77.725;  763.000;  622.000
449.879;  -94.025; -498.000; -396.000
450.001;  -78.600; -149.000;  -49.000
450.122;  -51.125;  -95.000;  162.000
450.244;  -34.025;   37.000;  364.000
450.365;  -99.000; -495.000; -301.000
450.486;  -33.600;   80.000;  268.000
450.608;   26.175;  393.000;  326.000
450.729;   71.425;  578.000;  645.000
450.850;   -2.150; -574.000; -466.000
450.972;  736.725; -552.000; -389.000
451.093; 4917.425;  190.000;  588.000
451.214; 2176.625; -516.000; -337.000
451.336;  358.900;  773.000;  579.000
451.457;   73.300;  264.000;  393.000
451.578;  -44.050; -118.000;  -74.000
451.699; -103.300; -546.000; -540.000
451.821;  -79.800; -284.000;  -50.000
451.942;    0.575;  278.000;  285.000
452.063;   39.750;  228.000;  419.000
452.184;  527.125;  -54.000;  -49.000
452.305; 1078.025;  103.000;  170.000
452.427;  129.950; -549.000; -301.000
452.548;  -20.475;   23.000;   79.000
452.669;  -58.450; -257.000;  -89.000
452.790;  -50.325;    3.000;  -18.000
452.911;   -7.725;  195.000;  259.000
453.032;  -72.375; -289.000;  -60.000
453.153;  -50.000;  -29.000;   81.000
453.274;   52.625;  737.000;  868.000
453.395;  -47.800;  -51.000;  175.000
453.516;  117.425; 1317.000; 1388.000
453.637;  -68.775; -205.000; -150.000
453.758;  -54.825;   15.000;   69.000
453.879; -135.300; -462.000; -250.000
454.000;   97.750; 1086.000;  948.000
454.121; -132.550; -554.000; -326.000
454.242; -128.350; -599.000; -383.000
454.362;  -53.975;  -99.000;  114.000
454.483;  -45.625; -309.000; -229.000
454.604;   42.600;  512.000;  580.000
454.725; -122.975; -627.000; -555.000
454.846; -133.350; -474.000; -406.000
454.967;  -33.525;  230.000;  539.000
455.087;  -43.725;  179.000;  153.000
455.208;    2.425;  554.000;  856.000
455.329;  -63.600;  -22.000;   82.000
455.450;   33.100;  473.000;  633.000
455.570;  -78.475; -234.000; -211.000
455.691;  -39.550;  201.000;  407.000
455.812; -107.750; -270.000;  -92.000
455.932;  -63.775;  107.000;  -97.000
456.053;  -80.900;   36.000;   24.000
456.173; -119.450; -433.000; -355.000
456.294; -131.875; -476.000; -303.000
456.415;  -67.900;  -73.000;   70.000
456.535;  -34.200;  297.000;  273.000
456.656;  -47.850;  132.000;  240.000
456.776;  -68.300;    3.000;  298.000
456.897;  -10.025;  308.000;  513.000
457.017;  -84.200; -153.000;   -3.000
457.138; -106.250; -402.000; -249.000
457.258;  -27.175;  263.000;  224.000
457.379;  -18.825;  509.000;  521.000
457.499;  -27.250;  443.000;  432.000
457.620; -120.800; -407.000; -231.000
457.740;  -93.075; -132.000;  -11.000
457.860;  -71.600;   87.000;   44.000
457.981;  -47.800;  132.000;  124.000
458.101;  -71.000;  -89.000;   40.000
458.221;  -26.525;  336.000;  402.000
458.342;  -68.475;   -4.000;  -37.000
458.462;   19.675;  617.000;  352.000
458.582;  -36.025; -302.000; -294.000
458.703;   -9.975;  303.000;  154.000
458.823;  -30.475;   22.000;  163.000
458.943;   13.525;  341.000;  467.000
459.063;  -45.575; 1124.000;  192.000
459.183;  -22.675;  328.000;  313.000
459.304;   -8.300;  315.000;  517.000
459.424;  -57.775; -246.000;  -89.000
459.544;  344.350;  388.000;  764.000
459.664;  843.825;  499.000;  506.000
459.784;  303.775; 1004.000; 1175.000
459.904;   64.125;  867.000;  744.000
460.024;   64.050;  867.000;  684.000
460.144;    5.625;  449.000;  554.000
460.264;  -17.200;  515.000;  327.000
460.385;  -86.375; -145.000; -119.000
460.505;   45.775;  905.000;  858.000
460.625;  -86.675;  -17.000;  -68.000
460.745;  -26.600;  396.000;  541.000
460.864;  -44.950;  153.000;  469.000
460.984;   11.400;  499.000;  573.000
461.104;  136.400; 1656.000; 1775.000
461.224;   11.575;  657.000;  650.000
461.344;  -30.025;  431.000;  360.000
461.464;  -37.075;  258.000;  513.000
461.584;  -10.175;  283.000;  466.000
461.704;  -41.825;   58.000;  108.000
461.824;  -60.625;  238.000;  259.000
461.943;  -46.950;  191.000;  130.000
462.063;  -73.075;    2.000;  324.000
462.183;   28.000;  639.000;  717.000
462.303;   95.200; 1678.000; 1230.000
462.422;   30.975;  781.000;  840.000
462.542;  -29.400;  271.000;  391.000
462.662;   26.700;  353.000;  380.000
462.782;  243.325;  833.000;  572.000
462.901;  485.650;  545.000;  717.000
463.021;  286.300; 1702.000; 1638.000
463.141;   -6.775;  337.000;  770.000
463.260;  -21.000;  614.000;  474.000
463.380;   17.900;  902.000;  884.000
463.499;  -36.700;  342.000;  332.000
463.619;  -28.900;  581.000;  559.000
463.738;  106.175; 1644.000;  903.000
463.858;   10.050;  657.000;  811.000
463.978;  -36.750;  542.000;  396.000
464.097;   47.650;  921.000; 1114.000
464.217;  115.475; 1196.000; 1143.000
464.336;  101.475; 1068.000; 1130.000
464.455;  -38.025;  328.000;  659.000
464.575;   34.950;  597.000;  602.000
464.694;  168.025; 1204.000; 1179.000
464.814;  124.300; 1190.000; 1138.000
464.933;   66.975; 1095.000; 1027.000
465.052;   97.525; 1412.000; 1054.000
465.172;   74.225;  922.000;  799.000
465.291;  141.775; 1376.000; 1320.000
465.410;   21.925;  462.000;  735.000
465.530;   83.425; 1355.000; 1310.000
465.649;   63.575; 1209.000; 1273.000
465.768;  136.225; 1673.000; 1508.000
465.888;   50.525;  941.000; 1174.000
466.007;   88.625; 1335.000; 1440.000
466.126;  -10.200;  721.000;  641.000
466.245;   29.375; 1176.000; 1187.000
466.364;   11.250;  950.000; 1060.000
466.484;   52.925; 1024.000; 1213.000
466.603;   48.375; 1101.000; 1222.000
466.722;  118.300; 1490.000; 1769.000
466.841;   75.550; 1151.000; 1401.000
466.960;   33.800; 1069.000;  972.000
467.079;  137.900; 1971.000; 1786.000
467.198;   49.600; 1238.000; 1181.000
467.317;   83.775; 1768.000; 1162.000
467.436;   65.400; 1709.000; 1261.000
467.555;  120.600; 1796.000; 1746.000
467.674;   64.225; 1227.000; 1329.000
467.793;   60.250; 1376.000; 1374.000
467.912;   87.225; 1658.000; 1539.000
468.031;  130.525; 2038.000; 1930.000
468.150;  121.375; 1842.000; 1837.000
468.269;  185.425; 2313.000; 2090.000
468.388;  173.875; 2168.000; 2339.000
468.507;  260.275; 2884.000; 2903.000
468.626;  225.775; 2555.000; 2541.000
468.744;  147.600; 2018.000; 2174.000
468.863;  193.775; 2312.000; 2523.000
468.982;   93.800; 1503.000; 1555.000
469.101;  236.300; 2788.000; 2692.000
469.220;  159.375; 2333.000; 2176.000
469.338;  245.325; 2935.000; 3051.000
469.457;  189.600; 2719.000; 2545.000
469.576;  340.350; 3953.000; 3784.000
469.695;  224.675; 2877.000; 3066.000
469.813;  440.725; 4148.000; 4192.000
469.932;  404.600; 4255.000; 4485.000
470.051;  428.425; 4075.000; 4161.000
470.169;  851.975; 4470.000; 4338.000
470.288; 1474.925; 4700.000; 4809.000
470.406;  894.675; 5059.000; 5194.000
470.525;  625.250; 6101.000; 5787.000
470.644;  650.325; 6847.000; 6794.000
470.762;  821.250; 8397.000; 7873.000
470.881;  919.875; 8651.000; 8464.000
470.999; 1030.675; 9685.000; 9151.000
471.118; 1111.375;11174.000;10711.000

