
Integration time [ms]: 200.000
Averaging Nr. [scans]: 10
Smoothing Nr. [pixels]: 0
Data measured with spectrometer [name]: 2101012U2
Wave   ;Sample   ;Dark     ;Reference
[nm]   ;[counts] ;[counts] ;[counts] 

197.733;  115.900;  516.000;  404.000
197.879; -183.000; -610.000; -634.000
198.025;  -91.200; -475.000; -420.000
198.171; -179.700; -602.000; -612.000
198.317;  -82.900; -401.000; -316.000
198.463; -114.500; -655.000; -404.000
198.609;   40.100;  181.000; -137.000
198.755; -187.600; -644.000; -410.000
198.901; -163.700; -505.000; -424.000
199.047; -126.000; -615.000; -488.000
199.193;  -73.600; -230.000; -468.000
199.339;  -92.100; -222.000; -369.000
199.485;   94.400;  330.000;  271.000
199.631;   28.500;  227.000;  310.000
199.777; -127.200; -466.000; -398.000
199.923; -126.700; -610.000; -424.000
200.069;   -9.400; -141.000;  -58.000
200.215;  147.700;  128.000;  453.000
200.361;   72.200;  243.000;  477.000
200.507; -134.900; -600.000; -373.000
200.653;  -45.700; -371.000; -194.000
200.798;  -47.000; -215.000; -125.000
200.944;    3.400; -146.000;  -41.000
201.090;   77.000;   61.000;  222.000
201.236;    0.800; -116.000; -158.000
201.382;  282.400;  874.000;  903.000
201.528;   32.000;  -58.000;  -48.000
201.674; -132.700; -386.000; -293.000
201.819; -112.300; -540.000; -439.000
201.965; -165.900; -699.000; -447.000
202.111;  -59.700; -273.000; -226.000
202.257;  -89.500; -250.000; -238.000
202.402;   31.100;   13.000;  -36.000
202.548;  -75.000; -169.000; -116.000
202.694;  206.100;  410.000; -183.000
202.840; -145.700; -603.000; -531.000
202.985; -144.000; -681.000; -639.000
203.131; -231.900; -832.000; -666.000
203.277;  -40.800; -199.000; -262.000
203.423; -109.300; -434.000; -520.000
203.568;  -75.200; -462.000; -237.000
203.714; -139.300; -535.000; -542.000
203.860; -177.700; -682.000; -641.000
204.005;   38.000;  112.000;  167.000
204.151;  147.200;  561.000;  556.000
204.296;  -98.700; -354.000; -221.000
204.442; -174.300; -600.000; -547.000
204.588; -168.400; -592.000; -579.000
204.733;   50.500;  178.000;  168.000
204.879; -272.100;-1018.000; -822.000
205.025;   40.200;  -99.000;  126.000
205.170;   -2.300;  -17.000;   94.000
205.316;  152.300;  438.000;  661.000
205.461; -169.000; -698.000; -554.000
205.607;  184.900;  609.000;  665.000
205.752; -194.300; -626.000; -551.000
205.898; -119.300; -501.000; -391.000
206.043; -167.400; -578.000; -506.000
206.189;  -96.100; -243.000; -285.000
206.334;  182.400;  554.000;  606.000
206.480;  135.600;  409.000;  239.000
206.625; -189.100; -529.000; -552.000
206.771;  -86.800; -451.000; -373.000
206.916;  -86.700; -210.000; -537.000
207.062; -154.900; -545.000; -591.000
207.207; -142.200; -546.000; -443.000
207.353;  155.800;  185.000;  460.000
207.498;   26.600;  196.000;   85.000
207.643; -117.000; -501.000; -370.000
207.789; -264.200;-1069.000; -910.000
207.934; -190.500; -665.000; -713.000
208.080;  -77.200; -154.000;   66.000
208.225;    3.100;  -22.000;  -57.000
208.370; -181.400; -727.000; -619.000
208.516; -146.100; -741.000; -487.000
208.661;  -54.400; -127.000;  -69.000
208.806;  -44.300; -165.000; -171.000
208.952; -279.000;-1044.000; -731.000
209.097;  161.400;  378.000;  349.000
209.242;  -78.900; -307.000; -382.000
209.387;  127.700;  392.000;  350.000
209.533; -142.100; -321.000; -350.000
209.678;  190.900;  472.000;  543.000
209.823;  -97.600; -408.000; -310.000
209.969; -199.900; -860.000; -757.000
210.114; -236.700; -907.000; -719.000
210.259; -267.100; -939.000; -889.000
210.404;    0.400; -171.000;  103.000
210.549;   21.800;  108.000;    3.000
210.695;  -50.900;   -3.000;  -95.000
210.840;   97.700;   94.000;   67.000
210.985; -116.000; -484.000; -303.000
211.130;  154.400;  268.000;  406.000
211.275;   44.200;  207.000;  199.000
211.420;  -89.600; -300.000; -289.000
211.566; -158.100; -536.000; -489.000
211.711;   94.800;  218.000;  157.000
211.856; -137.900; -545.000; -519.000
212.001;   11.400;  151.000;   44.000
212.146;    7.500;  153.000;   49.000
212.291;  -41.700; -210.000; -186.000
212.436;  -64.800; -280.000;   -6.000
212.581; -177.400; -685.000; -653.000
212.726; -136.900; -487.000; -538.000
212.871; -109.300; -552.000; -217.000
213.016; -324.900;-1172.000;-1029.000
213.161;  145.100;  406.000;  291.000
213.306; -162.600; -435.000; -577.000
213.451; -208.600; -778.000; -689.000
213.596;  -75.700; -455.000; -347.000
213.741; -103.400; -448.000; -538.000
213.886; -157.000; -498.000; -517.000
214.031;  -25.000; -294.000; -124.000
214.176; -119.000; -408.000; -341.000
214.321;  -23.200; -296.000; -157.000
214.466;  -37.700; -163.000;  -43.000
214.611;    5.500;  -61.000;  -10.000
214.756; -268.500; -948.000; -858.000
214.901;  -32.700; -388.000; -226.000
215.046; -244.100; -797.000; -825.000
215.191;   59.400;  128.000;   35.000
215.336;  -25.500; -157.000;  -19.000
215.480; -132.500; -684.000; -505.000
215.625;  -39.200; -175.000;  -19.000
215.770; -137.800; -757.000; -662.000
215.915;  -25.200;   -5.000;  -97.000
216.060;   10.600; -113.000;  -21.000
216.205; -245.900; -731.000; -779.000
216.349; -145.500; -470.000; -533.000
216.494; -282.300; -939.000; -867.000
216.639; -234.200; -823.000; -888.000
216.784; -166.800; -577.000; -525.000
216.929;  123.900;  392.000;  281.000
217.073;    9.600; -244.000;  -31.000
217.218;   19.000;   78.000;  -47.000
217.363; -180.600; -656.000; -618.000
217.507; -136.500; -623.000; -588.000
217.652; -260.900; -845.000; -874.000
217.797; -155.800; -708.000; -659.000
217.942; -238.100; -856.000; -720.000
218.086;  170.900;  608.000;  539.000
218.231;  -64.400; -174.000;  -26.000
218.376;  -72.200; -337.000; -229.000
218.520;   10.600;  -41.000;   96.000
218.665;  -54.100; -338.000; -204.000
218.810;  -93.600; -275.000; -233.000
218.954;   63.200;  201.000;   35.000
219.099; -236.300; -713.000; -963.000
219.243; -148.100; -589.000; -554.000
219.388;  -80.700; -264.000; -136.000
219.532;   11.400; -116.000; -116.000
219.677; -182.500; -564.000; -521.000
219.822;   48.400;   33.000;   89.000
219.966;    2.700;   17.000;  -99.000
220.111;  -80.900; -328.000;  -40.000
220.255; -228.000; -797.000; -750.000
220.400;  -27.700; -180.000; -146.000
220.544; -128.100; -516.000; -450.000
220.689; -100.000; -422.000; -451.000
220.833;  -27.500; -123.000;  -58.000
220.978;  -89.900; -393.000; -563.000
221.122;   29.000;  319.000;  307.000
221.267; -238.900; -906.000; -837.000
221.411; -113.000; -478.000; -394.000
221.555;    1.000; -104.000;  -23.000
221.700;  -79.100; -329.000; -222.000
221.844;   79.800;  255.000;  272.000
221.989;  -83.600; -328.000; -311.000
222.133;  -75.100; -289.000; -307.000
222.277;  -24.000;    5.000;   78.000
222.422;   60.200;  227.000;  113.000
222.566;  -52.300; -381.000; -214.000
222.711; -114.000; -414.000; -479.000
222.855; -188.400; -643.000; -586.000
222.999; -183.200; -642.000; -717.000
223.144;  -56.300; -195.000; -194.000
223.288;  157.700;  423.000;  251.000
223.432;   32.000;  184.000;  230.000
223.576;   78.900;  152.000;  -21.000
223.721;   93.200;  364.000;  273.000
223.865; -101.100; -472.000; -475.000
224.009;  499.400; 1673.000; 1631.000
224.153; -164.900; -660.000; -671.000
224.298; -141.400; -531.000; -489.000
224.442;    5.900;  -74.000;  -33.000
224.586;  -19.700; -169.000; -106.000
224.730; -200.100; -858.000; -670.000
224.875; -246.600; -739.000; -688.000
225.019;   50.100;  102.000;  188.000
225.163;   92.400;  208.000;  341.000
225.307;   39.700;   97.000;  -91.000
225.451;  115.800;  360.000;  481.000
225.595;   87.300;  264.000;  176.000
225.739;  -32.000; -170.000;  -94.000
225.884;   -8.700;   86.000;    5.000
226.028; -197.600; -760.000; -626.000
226.172;  -52.800; -260.000; -273.000
226.316; -267.300; -941.000; -902.000
226.460; -132.200; -645.000; -493.000
226.604; -116.000; -406.000; -400.000
226.748; -184.900; -836.000; -733.000
226.892;  -72.300; -227.000; -181.000
227.036;  -67.000; -537.000; -447.000
227.180; -116.300; -551.000; -375.000
227.324;  -93.800; -561.000; -580.000
227.468; -271.900; -819.000; -717.000
227.612;   42.000;  242.000;  -28.000
227.756; -216.200; -845.000; -698.000
227.900;  133.000;  342.000;  441.000
228.044;  -99.500; -509.000; -290.000
228.188;  128.100;  448.000;  568.000
228.332; -187.500; -546.000; -472.000
228.476;  -44.400; -223.000; -149.000
228.620;  -76.100; -210.000; -150.000
228.764;  137.600;  431.000;  349.000
228.908;  -27.300; -155.000;   30.000
229.052; -132.200; -615.000; -528.000
229.195;  -56.900; -172.000;   13.000
229.339;  -50.100; -235.000; -305.000
229.483;  -46.400;    5.000; -162.000
229.627;   23.900; -156.000;  139.000
229.771;  -76.000; -218.000; -294.000
229.915;   52.500;  230.000;   79.000
230.059; -188.300; -648.000; -663.000
230.202;  -25.300; -370.000; -317.000
230.346;  -15.800; -107.000;  107.000
230.490; -130.600; -489.000; -521.000
230.634; -230.700; -736.000; -553.000
230.777;  168.800;  478.000;  509.000
230.921;  -99.400; -450.000; -359.000
231.065;  -90.600; -246.000; -286.000
231.209;   53.900;  261.000;  265.000
231.352;   52.200;   54.000;   40.000
231.496;   49.100;  568.000;  188.000
231.640; -184.600; -693.000; -621.000
231.783;   92.000;  546.000;  525.000
231.927;  -67.000; -294.000; -365.000
232.071; -252.700; -962.000; -736.000
232.214; -225.000; -980.000; -764.000
232.358; -209.300; -683.000; -599.000
232.502;   38.500;  -19.000;    7.000
232.645; -296.000;-1090.000; -927.000
232.789;  -55.100; -257.000; -218.000
232.933;  -83.700; -407.000; -224.000
233.076; -264.800;-1038.000; -897.000
233.220; -242.400; -752.000; -777.000
233.363; -168.800; -669.000; -477.000
233.507;  128.700;  371.000;  129.000
233.650; -184.600; -764.000; -834.000
233.794;  100.200;  438.000;  461.000
233.938; -105.100; -530.000; -362.000
234.081;    1.800;  -93.000;   31.000
234.225; -134.000; -631.000; -539.000
234.368; -222.500; -773.000; -723.000
234.512; -104.700; -385.000; -299.000
234.655; -193.100; -582.000; -555.000
234.798; -125.600; -493.000; -466.000
234.942; -249.400; -884.000;-1002.000
235.085; -133.800; -651.000; -443.000
235.229; -137.700; -405.000; -410.000
235.372;  -73.500; -247.000; -191.000
235.516; -116.300; -397.000; -321.000
235.659;   82.500;   92.000;  121.000
235.802;   -3.000;  -38.000;  -22.000
235.946;   92.300;  335.000;  215.000
236.089;   74.800;  126.000;  250.000
236.233;  128.700;  275.000;  298.000
236.376; -101.100; -235.000; -378.000
236.519;  -70.800; -297.000; -319.000
236.663;  -39.500; -215.000; -117.000
236.806; -297.300;-1029.000; -999.000
236.949;  117.200;  543.000;  431.000
237.092;  150.500;  412.000;  391.000
237.236; -180.400; -589.000; -502.000
237.379;  160.500;  352.000;  428.000
237.522; -261.200; -879.000; -768.000
237.666;  -19.400; -271.000;   18.000
237.809; -225.900; -851.000; -823.000
237.952;  111.600;  469.000;  271.000
238.095; -125.700; -447.000; -442.000
238.238;  172.200;  688.000;  700.000
238.382;   34.300;  166.000;  103.000
238.525; -135.400; -598.000; -511.000
238.668; -292.500;-1060.000; -985.000
238.811; -161.100; -638.000; -643.000
238.954; -100.700; -483.000; -334.000
239.097;  194.100;  617.000;  664.000
239.241;   82.700;  394.000;  326.000
239.384;  -38.000; -254.000; -214.000
239.527; -119.400; -424.000; -224.000
239.670; -278.700; -994.000;-1091.000
239.813; -217.800; -696.000; -658.000
239.956;  183.900;  579.000;  473.000
240.099; -215.000; -778.000; -725.000
240.242;  135.100;  428.000;  432.000
240.385;   98.700;  466.000;  450.000
240.528; -127.800; -706.000; -473.000
240.671;   46.900;  189.000;  134.000
240.814;  -61.500; -441.000; -158.000
240.957; -179.400; -767.000; -578.000
241.100; -185.700; -779.000; -755.000
241.243; -267.300;-1234.000; -893.000
241.386;  -99.000; -508.000; -379.000
241.529; -166.100; -735.000; -547.000
241.672; -123.600; -566.000; -495.000
241.815; -259.700; -832.000; -808.000
241.958;  -31.500; -125.000; -182.000
242.101; -113.100; -545.000; -390.000
242.244;  -49.100; -270.000; -325.000
242.387;  -77.200; -304.000; -246.000
242.530;  119.000;  470.000;  134.000
242.673; -115.500; -381.000; -309.000
242.815; -255.300; -925.000; -899.000
242.958; -136.200; -482.000; -381.000
243.101;   55.600;  132.000;  187.000
243.244; -151.700; -564.000; -521.000
243.387;  -79.200; -313.000; -316.000
243.530; -210.800; -657.000; -674.000
243.672;   28.300;   43.000;  -92.000
243.815;  -93.400; -355.000; -283.000
243.958;   37.900;   98.000;  -26.000
244.101;    9.000;   59.000;  -16.000
244.243;    6.700;  -47.000;  101.000
244.386; -222.800; -761.000; -630.000
244.529;  -46.100; -132.000; -139.000
244.672; -322.800;-1154.000; -951.000
244.814; -177.400; -621.000; -794.000
244.957; -145.300; -380.000; -304.000
245.100; -135.700; -489.000; -489.000
245.242;  -90.100; -387.000; -374.000
245.385;   -8.700;  -59.000;  -39.000
245.528; -240.700; -871.000; -705.000
245.670;  232.000;  612.000;  634.000
245.813; -212.400; -599.000; -547.000
245.956;  -59.200; -324.000; -275.000
246.098; -151.800; -508.000; -650.000
246.241;    9.400;  194.000;   48.000
246.383;  -33.200; -119.000;  -73.000
246.526; -145.500; -454.000; -525.000
246.669; -226.200; -889.000; -780.000
246.811;   74.100;  172.000;   -1.000
246.954; -119.600; -512.000; -426.000
247.096;  -45.000;  -84.000;   -6.000
247.239; -153.100; -482.000; -445.000
247.381; -154.200; -647.000; -488.000
247.524;  161.700;  645.000;  679.000
247.666;   13.000;   58.000;   11.000
247.809; -260.100; -887.000; -691.000
247.951;    5.500;  -75.000;  138.000
248.094;   18.200;  432.000;  308.000
248.236; -337.200;-1262.000;-1238.000
248.378;  -75.100; -356.000;  -81.000
248.521;  -73.900; -334.000; -337.000
248.663;  -47.800; -236.000; -267.000
248.806;  -68.400; -300.000; -266.000
248.948; -285.100; -886.000; -763.000
249.090; -131.600; -428.000; -398.000
249.233; -156.400; -344.000; -381.000
249.375; -139.700; -474.000; -451.000
249.518;  -49.800;  -83.000; -133.000
249.660;   39.000; -103.000;    3.000
249.802; -357.600;-1303.000;-1189.000
249.945; -160.000; -612.000; -540.000
250.087; -234.500; -834.000; -768.000
250.229; -112.100; -362.000; -480.000
250.371; -140.600; -494.000; -439.000
250.514;  -81.100; -310.000; -244.000
250.656;  -20.900;   69.000;  102.000
250.798; -225.000; -849.000; -800.000
250.940; -127.300; -322.000; -322.000
251.083;  -22.500; -335.000; -111.000
251.225;  148.600;  338.000;  310.000
251.367;  -55.800; -274.000; -373.000
251.509;  -60.200; -265.000; -210.000
251.651; -197.000; -731.000; -671.000
251.794;  120.200;  538.000;  632.000
251.936; -215.800; -821.000; -747.000
252.078; -159.400; -540.000; -461.000
252.220; -158.700; -645.000; -477.000
252.362;   80.400;  344.000;  462.000
252.504; -173.500; -677.000; -584.000
252.646; -231.400; -875.000; -722.000
252.788;  -11.300;   14.000; -128.000
252.931;  -97.700; -257.000; -253.000
253.073;  -89.900; -376.000; -317.000
253.215;   -7.700;  141.000;  122.000
253.357;  -18.000;   82.000; -153.000
253.499;  -93.200; -374.000; -234.000
253.641; -181.900; -749.000; -594.000
253.783; -198.000; -609.000; -527.000
253.925; -165.700; -586.000; -591.000
254.067; -246.400; -744.000; -667.000
254.209; -107.300; -391.000; -259.000
254.351; -292.200; -865.000; -883.000
254.493; -131.800; -441.000; -417.000
254.635; -256.500; -936.000; -818.000
254.777; -188.900; -752.000; -687.000
254.918; -148.400; -512.000; -430.000
255.060; -125.500; -551.000; -395.000
255.202; -116.200; -473.000; -261.000
255.344; -145.800; -658.000; -455.000
255.486; -162.600; -471.000; -406.000
255.628; -240.600; -780.000; -781.000
255.770; -208.300; -676.000; -536.000
255.912; -112.600; -559.000; -468.000
256.053; -193.000; -730.000; -508.000
256.195;  350.000; 1008.000;  903.000
256.337; -201.600; -861.000; -595.000
256.479;  156.200;  532.000;  416.000
256.621;  -95.500; -394.000; -212.000
256.762; -178.300; -789.000; -742.000
256.904;  108.800;  485.000;  487.000
257.046;  -90.000; -381.000; -271.000
257.188;  -89.100; -351.000; -264.000
257.329; -141.000; -525.000; -464.000
257.471; -241.100; -939.000; -807.000
257.613; -133.100; -584.000; -498.000
257.755; -305.200;-1073.000; -982.000
257.896;   74.400;  286.000;  392.000
258.038; -152.000; -403.000; -352.000
258.180;  -71.300; -354.000; -279.000
258.321; -199.100; -581.000; -457.000
258.463;  -13.900;  -71.000;  133.000
258.605; -179.500; -562.000; -570.000
258.746; -222.700; -886.000; -772.000
258.888; -289.900;-1026.000;-1020.000
259.029;   74.300;  121.000;   -8.000
259.171; -175.400; -614.000; -550.000
259.313;   25.000;  -49.000;  -47.000
259.454; -124.200; -536.000; -414.000
259.596; -126.500; -483.000; -390.000
259.737; -173.100; -590.000; -474.000
259.879;   96.200;  217.000;  311.000
260.020;  202.800;  901.000;  636.000
260.162;  -55.200; -146.000; -253.000
260.303; -251.600; -768.000; -687.000
260.445; -164.300; -609.000; -613.000
260.586;   61.300;  392.000;  157.000
260.728;  -93.700; -360.000; -248.000
260.869; -120.600; -350.000; -343.000
261.011;  186.400;  706.000;  537.000
261.152; -114.300; -479.000; -319.000
261.293; -147.000; -576.000; -595.000
261.435;  -58.700; -219.000; -184.000
261.576;  -86.600; -455.000; -325.000
261.718;  150.400;  420.000;  470.000
261.859; -244.100; -940.000; -949.000
262.000; -303.600; -951.000;-1016.000
262.142;   -8.900;  -52.000;  -60.000
262.283; -244.700; -808.000; -691.000
262.424; -169.800; -666.000; -625.000
262.566; -306.500;-1161.000; -983.000
262.707; -230.200; -840.000; -830.000
262.848; -235.300; -769.000; -726.000
262.990;  -75.100; -362.000; -345.000
263.131;  188.500;  650.000;  681.000
263.272;  -13.000;  -61.000;  -41.000
263.413; -168.000; -589.000; -561.000
263.555; -125.000; -669.000; -143.000
263.696; -170.700; -550.000; -641.000
263.837;  -99.200; -449.000; -551.000
263.978;   -0.300;   -5.000;  -77.000
264.119;  -77.200; -283.000; -264.000
264.261; -224.800; -847.000; -630.000
264.402;  -13.700;   33.000;   40.000
264.543; -181.900; -509.000; -524.000
264.684;   -4.800;   61.000;  -50.000
264.825; -144.800; -816.000; -538.000
264.966;   16.300;  -84.000;  -67.000
265.107; -229.200; -646.000; -670.000
265.248; -248.600; -825.000; -812.000
265.390;  -12.000;  152.000;   -9.000
265.531;  -45.300; -238.000; -107.000
265.672; -175.400; -557.000; -630.000
265.813;  161.600;  563.000;  439.000
265.954; -302.500; -959.000; -940.000
266.095;  -27.900; -372.000; -322.000
266.236; -216.500; -686.000; -548.000
266.377;  -88.600; -243.000; -297.000
266.518; -153.300; -619.000; -547.000
266.659;   75.200;  170.000;  268.000
266.800;   60.100;   83.000;   85.000
266.941; -158.100; -487.000; -478.000
267.082;   24.300;  354.000;   99.000
267.223;  -83.000; -344.000; -273.000
267.364; -213.200; -892.000; -686.000
267.504;   10.100;    3.000;  135.000
267.645;   -6.100;  160.000;   67.000
267.786;  -45.900; -147.000;  -86.000
267.927; -168.500; -473.000; -379.000
268.068;  -10.100; -186.000;  -61.000
268.209; -105.400; -175.000; -413.000
268.350;  -79.100; -388.000; -532.000
268.490; -175.500; -648.000; -521.000
268.631;   99.600;  127.000;  225.000
268.772; -234.600; -874.000; -647.000
268.913; -101.900; -328.000; -476.000
269.054;  -52.800; -117.000;   12.000
269.194;  -82.000; -418.000; -402.000
269.335; -329.700;-1137.000;-1074.000
269.476;  -57.200;   33.000;  -35.000
269.617;  -73.200; -347.000; -392.000
269.757; -178.600; -713.000; -646.000
269.898; -209.100; -856.000; -613.000
270.039; -122.900; -415.000; -405.000
270.180; -273.500; -952.000; -816.000
270.320;  -16.600; -190.000; -250.000
270.461;  -91.500; -277.000; -249.000
270.602;  -13.900; -186.000; -156.000
270.742; -270.500; -868.000; -943.000
270.883;  -88.400; -442.000; -390.000
271.023; -130.600; -358.000; -357.000
271.164; -151.700; -607.000; -528.000
271.305; -228.100; -666.000; -654.000
271.445; -203.500; -722.000; -683.000
271.586; -156.200; -462.000; -283.000
271.726;  -91.100; -397.000; -322.000
271.867; -179.100; -594.000; -534.000
272.008;  -64.500; -473.000; -285.000
272.148;   87.200;  462.000;  468.000
272.289;  -24.700; -113.000; -181.000
272.429;   -4.200;   19.000;  185.000
272.570; -197.700; -633.000; -737.000
272.710; -202.200; -825.000; -775.000
272.851;  -45.000;  113.000; -130.000
272.991; -333.300;-1173.000;-1077.000
273.131; -127.800; -419.000; -459.000
273.272; -193.300; -683.000; -723.000
273.412;   -3.600; -143.000;  -31.000
273.553; -158.200; -488.000; -507.000
273.693;  262.100;  913.000;  858.000
273.834; -250.900; -894.000; -692.000
273.974; -178.400; -664.000; -615.000
274.114; -228.900; -772.000; -560.000
274.255;  134.900;  414.000;  373.000
274.395;  -75.900; -180.000; -125.000
274.535;   70.600;  199.000;  350.000
274.676;   54.300;  225.000;   94.000
274.816;    0.500;  110.000;   34.000
274.956; -180.000; -624.000; -690.000
275.097; -264.600;-1014.000; -922.000
275.237; -274.100; -913.000; -803.000
275.377; -205.300; -778.000; -689.000
275.517; -323.900; -878.000; -937.000
275.658; -141.000; -590.000; -555.000
275.798; -149.700; -606.000; -413.000
275.938;   57.700;  215.000;  323.000
276.078; -198.400; -626.000; -395.000
276.218;   20.300;   99.000;  104.000
276.359; -292.900;-1026.000;-1024.000
276.499; -150.600; -605.000; -446.000
276.639;  -61.800; -305.000; -151.000
276.779; -102.900; -475.000; -357.000
276.919; -249.500; -783.000; -624.000
277.059;  -60.100; -261.000; -212.000
277.199; -109.400; -357.000; -259.000
277.340;  103.700;  287.000;  175.000
277.480; -232.500; -840.000; -693.000
277.620;   56.000;  192.000;   16.000
277.760; -444.000;-1533.000;-1294.000
277.900;   36.700;  113.000;   33.000
278.040;   -3.400;  137.000;  159.000
278.180;   44.400;  270.000;  170.000
278.320;  -20.200;   21.000;   56.000
278.460; -135.000; -443.000; -469.000
278.600; -178.500; -708.000; -598.000
278.740;  121.800;  448.000;  224.000
278.880; -269.200; -768.000; -791.000
279.020;  -10.700; -194.000; -144.000
279.160; -172.400; -672.000; -595.000
279.300; -243.300; -926.000; -873.000
279.440; -245.800; -709.000; -622.000
279.579; -269.700;-1014.000; -929.000
279.719; -132.700; -410.000; -394.000
279.859;   35.700;   -4.000;   41.000
279.999;  -44.900; -208.000;  101.000
280.139; -100.800; -435.000; -387.000
280.279; -230.100; -708.000; -745.000
280.419;  -36.500; -229.000; -147.000
280.559;  -77.200; -259.000; -180.000
280.698; -154.900; -790.000; -639.000
280.838; -259.500; -778.000; -800.000
280.978; -202.100; -846.000; -790.000
281.118; -240.800; -811.000; -704.000
281.257;   31.700;   24.000;    6.000
281.397; -318.700;-1094.000; -960.000
281.537; -203.100; -599.000; -712.000
281.677;  -52.700; -150.000; -101.000
281.816; -160.300; -700.000; -630.000
281.956;  -99.800; -193.000; -257.000
282.096; -123.900; -539.000; -396.000
282.235; -230.000; -672.000; -638.000
282.375;  -57.400; -243.000;  -98.000
282.515; -219.300; -715.000; -707.000
282.654;   27.600;   29.000;  106.000
282.794;   56.200;  388.000;  244.000
282.934; -146.400; -530.000; -491.000
283.073; -267.000;-1030.000; -857.000
283.213; -131.400; -460.000; -467.000
283.353;  -97.200; -408.000; -349.000
283.492;  -73.100; -264.000; -296.000
283.632;  -85.600; -254.000; -168.000
283.771; -212.900; -859.000; -730.000
283.911; -116.200; -369.000; -260.000
284.050; -190.800; -794.000; -748.000
284.190; -297.500;-1229.000;-1096.000
284.329; -294.300;-1055.000; -964.000
284.469; -201.200; -516.000; -591.000
284.608; -141.200; -559.000; -598.000
284.748; -186.200; -614.000; -570.000
284.887;  -15.500;  -87.000;  -20.000
285.027; -269.900; -844.000; -892.000
285.166;  -60.900; -192.000; -249.000
285.306;  -29.500; -116.000;  -33.000
285.445;  -88.100; -229.000; -343.000
285.584; -190.600; -630.000; -494.000
285.724;  -64.500; -282.000; -322.000
285.863; -225.400; -857.000; -507.000
286.002;  -76.200; -366.000; -276.000
286.142; -229.400; -715.000; -622.000
286.281; -130.500; -525.000; -493.000
286.420; -151.000; -554.000; -417.000
286.560;  224.400;  653.000;  623.000
286.699; -292.000; -958.000; -912.000
286.838; -158.800; -590.000; -591.000
286.978; -184.900; -533.000; -537.000
287.117; -254.500;-1085.000; -950.000
287.256;  -61.400; -228.000; -211.000
287.395;  -93.800; -197.000; -378.000
287.535; -119.000; -370.000; -298.000
287.674; -144.400; -509.000; -484.000
287.813;  133.100;  661.000;  533.000
287.952; -262.400;-1010.000; -871.000
288.091; -302.100;-1049.000; -915.000
288.231;   33.800;   13.000;   15.000
288.370; -365.800;-1217.000;-1200.000
288.509; -199.300; -728.000; -645.000
288.648; -177.900; -770.000; -548.000
288.787;  -58.700; -243.000;  -87.000
288.926; -155.500; -454.000; -475.000
289.065;  240.100;  859.000;  672.000
289.204; -109.300; -377.000; -217.000
289.344; -227.600; -791.000; -690.000
289.483;   16.000;  416.000;  304.000
289.622;  -47.100; -291.000; -149.000
289.761;  -40.900; -309.000; -166.000
289.900; -208.100; -785.000; -626.000
290.039;  -39.900;  -12.000;  -95.000
290.178;  -56.200; -274.000; -180.000
290.317; -156.800; -618.000; -479.000
290.456; -121.000; -463.000; -451.000
290.595; -306.500; -961.000; -833.000
290.734; -276.300; -904.000; -891.000
290.873; -138.500; -456.000; -420.000
291.011; -258.900; -833.000; -843.000
291.150; -234.700; -770.000; -682.000
291.289;  -48.800; -343.000; -110.000
291.428; -201.800; -599.000; -480.000
291.567; -123.500; -370.000; -442.000
291.706;   -1.700;  109.000;  154.000
291.845; -174.800; -597.000; -505.000
291.984; -365.400;-1234.000;-1061.000
292.122;  173.300;  602.000;  582.000
292.261;   88.000;  620.000;  463.000
292.400;   -2.000; -144.000;  211.000
292.539; -303.700; -959.000; -813.000
292.678;  -33.300; -325.000; -300.000
292.816; -309.700;-1136.000; -965.000
292.955; -219.600; -844.000; -684.000
293.094;  -71.400; -173.000; -337.000
293.233; -132.200; -556.000; -400.000
293.371;  -94.100; -225.000;  -84.000
293.510; -243.400; -866.000; -780.000
293.649; -276.300; -959.000; -924.000
293.787; -299.200;-1083.000;-1012.000
293.926;  -59.700; -113.000;  -32.000
294.065;  -95.900; -379.000; -290.000
294.203;  120.200;  298.000;  406.000
294.342;   29.400;   74.000;  156.000
294.481;14985.100;51180.000; -836.000
294.619;  -55.300; -425.000; -582.000
294.758; -344.100;-1230.000;-1137.000
294.896;   23.700; -125.000;    5.000
295.035; -310.500;-1040.000;-1006.000
295.174; -285.700;-1082.000; -954.000
295.312; -105.800; -323.000; -203.000
295.451;  -99.700; -307.000; -428.000
295.589; -170.400; -389.000; -518.000
295.728;    8.800; -292.000; -165.000
295.866;   -2.900;  -36.000;  -51.000
296.005; -165.000; -584.000; -341.000
296.143; -178.300; -558.000; -596.000
296.282; -232.200; -957.000; -881.000
296.420; -179.100; -657.000; -557.000
296.559; -208.700; -892.000; -633.000
296.697; -227.500; -847.000; -665.000
296.835; -312.600;-1141.000;-1002.000
296.974;   -4.700;  -23.000;   39.000
297.112; -147.100; -443.000; -504.000
297.251; -244.600; -815.000; -755.000
297.389; -153.800; -576.000; -438.000
297.527;  -35.400; -145.000;  -83.000
297.666; -142.400; -486.000; -438.000
297.804; -125.500; -404.000; -264.000
297.942;  -13.500; -136.000; -161.000
298.081;  -33.600; -183.000;   63.000
298.219;    9.300;  -17.000;  -19.000
298.357;  -94.300; -144.000;  -71.000
298.495; -226.900; -810.000; -812.000
298.634;   48.100;  245.000;  219.000
298.772;  -78.500; -220.000; -338.000
298.910; -115.400; -309.000; -182.000
299.048;  -36.100; -130.000; -153.000
299.187;  -90.900; -350.000; -250.000
299.325;   66.800;   52.000;  122.000
299.463; -122.900; -389.000; -299.000
299.601;  -92.500; -327.000; -271.000
299.739; -303.700; -908.000; -883.000
299.877; -194.800; -791.000; -703.000
300.016; -328.600;-1095.000; -935.000
300.154;   -2.700;  -19.000; -161.000
300.292; -154.600; -428.000; -348.000
300.430;  -92.200; -408.000; -291.000
300.568; -273.300; -940.000; -874.000
300.706; -150.300; -366.000; -469.000
300.844; -320.100;-1108.000; -979.000
300.982;  131.000;  246.000;  282.000
301.120; -278.400; -965.000; -866.000
301.258; -172.500; -812.000; -705.000
301.396;  -28.600;  104.000;  -41.000
301.534;  -52.200; -218.000; -293.000
301.672; -201.000; -664.000; -521.000
301.810; -168.900; -613.000; -545.000
301.948;   30.900;   53.000;  149.000
302.086;  -37.900; -250.000;  -32.000
302.224; -200.800; -610.000; -585.000
302.362; -177.700; -558.000; -622.000
302.500; -281.800; -923.000; -893.000
302.638;   27.300;  128.000;  245.000
302.776;  -66.300; -352.000; -408.000
302.913;   81.400;  447.000;  236.000
303.051;  -79.500;  -86.000;  -23.000
303.189;   43.500;   90.000;  118.000
303.327; -115.200; -341.000; -256.000
303.465; -184.100; -832.000; -588.000
303.603; -191.800; -805.000; -604.000
303.740;   91.400;  417.000;  241.000
303.878; -232.500; -800.000; -759.000
304.016; -194.000; -915.000; -790.000
304.154; -341.300;-1123.000;-1152.000
304.291; -128.500; -505.000; -554.000
304.429;    1.200;  102.000;   74.000
304.567; -270.900; -908.000; -893.000
304.705; -144.900; -408.000; -515.000
304.842; -196.000; -616.000; -540.000
304.980;   -1.700;  215.000;   35.000
305.118;  -85.200; -367.000; -365.000
305.255; -275.300; -945.000; -927.000
305.393;   79.900;  178.000;  239.000
305.531; -324.300;-1173.000; -956.000
305.668; -180.000; -663.000; -582.000
305.806; -141.400; -358.000; -439.000
305.943; -171.900; -629.000; -637.000
306.081; -101.000; -378.000; -267.000
306.219; -235.700; -863.000; -748.000
306.356;   16.200;  158.000;   27.000
306.494;  177.300;  981.000;  761.000
306.631;  -51.900;  -11.000;  -55.000
306.769; -115.700; -613.000; -485.000
306.906; -151.200; -284.000; -258.000
307.044; -122.900; -473.000; -488.000
307.181; -141.500; -410.000; -332.000
307.319;  108.900;  112.000;   87.000
307.456; -377.800;-1191.000;-1153.000
307.594; -229.700; -980.000; -727.000
307.731;  -87.600; -371.000; -164.000
307.868;   -8.700;  -15.000;   20.000
308.006; -283.400; -961.000; -847.000
308.143; -163.600; -618.000; -330.000
308.281;  -44.900;  -37.000; -254.000
308.418; -197.300; -748.000; -640.000
308.555; -178.900; -400.000; -250.000
308.693; -161.400; -577.000; -573.000
308.830; -215.100; -712.000; -657.000
308.967;  -28.500; -215.000;  -95.000
309.105; -127.800; -507.000; -396.000
309.242;  -81.600; -468.000; -367.000
309.379; -208.700; -577.000; -655.000
309.517; -297.600; -936.000; -948.000
309.654; -267.800; -910.000; -734.000
309.791; -160.800; -662.000; -580.000
309.928; -275.100; -977.000; -914.000
310.065;  181.300;  819.000;  697.000
310.203; -284.800; -825.000; -850.000
310.340; -150.400; -465.000; -321.000
310.477; -167.100; -412.000; -516.000
310.614; -120.100; -383.000; -473.000
310.751; -180.500; -427.000; -518.000
310.889;  -39.000;    1.000;   11.000
311.026; -343.700;-1161.000; -939.000
311.163; -117.700; -386.000; -380.000
311.300; -173.000; -512.000; -479.000
311.437; -166.000; -658.000; -619.000
311.574; -350.700;-1226.000; -985.000
311.711; -146.800; -595.000; -433.000
311.848;  -92.200; -380.000; -388.000
311.985;   10.900;  270.000;   93.000
312.122; -244.800; -932.000; -762.000
312.259; -258.200; -941.000; -994.000
312.396; -183.000; -508.000; -551.000
312.533; -202.500; -812.000; -790.000
312.670; -326.000;-1070.000; -898.000
312.807;  -86.200; -352.000; -367.000
312.944; -193.500; -513.000; -611.000
313.081; -107.200; -150.000; -415.000
313.218; -277.600;-1111.000; -867.000
313.355; -107.000; -531.000; -449.000
313.492; -115.000; -455.000; -292.000
313.629;  202.800;  815.000;  735.000
313.766; -368.100;-1176.000;-1008.000
313.902;  -13.400; -186.000;   21.000
314.039; -102.000; -372.000; -289.000
314.176;   60.900;  286.000;  192.000
314.313; -179.600; -569.000; -473.000
314.450; -222.000; -788.000; -684.000
314.587; -156.000; -468.000; -480.000
314.723;    1.900;  -78.000;  130.000
314.860;   45.000;  318.000;  332.000
314.997;   47.900;  223.000;  142.000
315.134; -143.000; -385.000; -368.000
315.270; -144.500; -480.000; -496.000
315.407; -322.300;-1094.000; -967.000
315.544; -162.600; -657.000; -538.000
315.681; -192.000; -681.000; -565.000
315.817;  -33.700; -133.000; -176.000
315.954; -153.400; -613.000; -392.000
316.091; -321.700;-1045.000;-1023.000
316.227;  -54.200;  -71.000; -179.000
316.364;   18.800;   23.000;    6.000
316.500;  -82.600; -113.000; -300.000
316.637;  -86.300; -181.000; -302.000
316.774; -153.900; -625.000; -358.000
316.910; -215.900; -598.000; -629.000
317.047; -194.000; -487.000; -351.000
317.183; -171.500; -435.000; -566.000
317.320; -149.200; -367.000; -321.000
317.456; -207.500; -733.000; -805.000
317.593; -210.300; -598.000; -641.000
317.729;   42.400;  168.000;  -67.000
317.866; -424.000;-1434.000;-1285.000
318.002; -201.000; -708.000; -948.000
318.139; -263.900; -883.000; -867.000
318.275; -235.200;-1003.000; -738.000
318.412; -175.000; -517.000; -336.000
318.548; -201.300; -751.000; -720.000
318.685; -283.100; -985.000; -888.000
318.821; -249.700; -762.000; -735.000
318.957;  -30.400;   34.000;  -23.000
319.094;  100.400;  297.000;  154.000
319.230; -265.100; -756.000; -742.000
319.367; -158.500; -471.000; -520.000
319.503; -150.700; -538.000; -436.000
319.639; -250.600; -877.000; -793.000
319.775; -219.300; -750.000; -685.000
319.912; -138.000; -424.000; -519.000
320.048; -336.300;-1184.000;-1184.000
320.184;   44.700;   59.000;   70.000
320.321; -165.700; -497.000; -467.000
320.457;  129.800;  475.000;  662.000
320.593; -120.800; -375.000; -382.000
320.729; -241.300; -732.000; -734.000
320.866; -219.500; -577.000; -635.000
321.002; -213.400; -759.000; -809.000
321.138; -109.500; -135.000; -211.000
321.274;  -39.900; -148.000; -115.000
321.410; -190.400; -585.000; -353.000
321.546; -278.700;-1011.000; -911.000
321.683;   71.100;  400.000;  185.000
321.819;   -9.000;  -48.000; -117.000
321.955; -258.100; -743.000; -722.000
322.091; -178.600; -585.000; -540.000
322.227;  -70.600; -382.000; -202.000
322.363; -109.800; -320.000; -215.000
322.499; -107.900; -343.000; -331.000
322.635;  156.400;  636.000;  443.000
322.771;  -67.800; -139.000;   12.000
322.907;   92.400;  129.000;  327.000
323.043;  -95.300; -115.000; -206.000
323.179; -111.100; -394.000; -363.000
323.315; -143.100; -401.000; -371.000
323.451;  -85.200; -328.000; -236.000
323.587;  -64.900;  -60.000;  -77.000
323.723; -193.700; -682.000; -601.000
323.859;  -75.300; -258.000;  -76.000
323.995; -113.500; -467.000; -409.000
324.131; -263.400; -967.000; -892.000
324.267;  -61.100; -254.000; -276.000
324.402; -311.800; -960.000; -983.000
324.538;  -91.500; -279.000; -104.000
324.674;   -8.000;  164.000;   77.000
324.810;   13.500;  226.000;  308.000
324.946; -129.400; -810.000; -658.000
325.082; -146.800; -568.000; -475.000
325.217;  -67.000;  -62.000;   16.000
325.353; -250.800; -764.000; -659.000
325.489; -189.700; -540.000; -506.000
325.625; -154.100; -579.000; -525.000
325.760;   72.400;  517.000;  376.000
325.896; -161.000; -515.000; -702.000
326.032; -106.100; -403.000; -352.000
326.168; -125.000; -462.000; -369.000
326.303; -119.300; -352.000; -461.000
326.439;  -33.800; -336.000; -276.000
326.575;   -7.800; -190.000;  -29.000
326.710;    2.900; -156.000;  -30.000
326.846;    2.900;  146.000;  103.000
326.982; -179.100; -530.000; -548.000
327.117; -167.500; -481.000; -442.000
327.253; -203.500; -745.000; -742.000
327.388; -314.100;-1137.000;-1153.000
327.524; -208.000; -811.000; -578.000
327.659;  -68.700;  -58.000;  -22.000
327.795;  -22.000;   69.000;   45.000
327.931; -206.700; -723.000; -499.000
328.066;  -64.500; -417.000; -276.000
328.202;  -99.900;   12.000; -129.000
328.337;  260.500;  957.000;  713.000
328.473;  -15.900;  -12.000;  -74.000
328.608;  -58.600; -256.000; -267.000
328.743; -249.000; -799.000; -664.000
328.879;   39.400;  214.000;  114.000
329.014; -145.600; -102.000; -122.000
329.150; -153.900; -358.000; -483.000
329.285; -172.700; -465.000; -466.000
329.421; -146.600; -548.000; -246.000
329.556;  -31.000;  -36.000;   85.000
329.691; -186.700; -633.000; -615.000
329.827; -188.300; -626.000; -480.000
329.962;  -99.200;  131.000; -301.000
330.097; -175.200; -673.000; -585.000
330.233;  -81.300; -410.000; -223.000
330.368; -269.000; -839.000; -628.000
330.503;    3.600;    3.000;   98.000
330.638;  -18.400;  -93.000; -125.000
330.774; -184.800; -609.000; -530.000
330.909;  -74.700; -434.000; -244.000
331.044; -190.900; -714.000; -708.000
331.179; -356.900;-1217.000;-1109.000
331.315;   20.900;   77.000;   20.000
331.450;   32.200;  157.000;  285.000
331.585; -217.400; -805.000; -706.000
331.720; -168.900; -510.000; -460.000
331.855;  -22.600;  -35.000; -102.000
331.990;  -28.000;   62.000;  138.000
332.126;   -9.800; -110.000;   71.000
332.261; -135.700; -379.000; -265.000
332.396;  -83.300; -135.000; -242.000
332.531; -323.500;-1074.000;-1031.000
332.666; -116.700; -519.000; -363.000
332.801; -253.300; -726.000; -807.000
332.936;  -20.900; -192.000; -122.000
333.071; -312.300; -870.000; -817.000
333.206;   60.900;  307.000;  379.000
333.341;   70.600;  344.000;  418.000
333.476; -212.300; -627.000; -623.000
333.611;  -80.700; -251.000; -173.000
333.746;  -82.100; -381.000; -464.000
333.881; -281.700; -973.000; -935.000
334.016; -292.200; -936.000; -917.000
334.151; -273.900; -746.000; -702.000
334.286;   18.700;  152.000;  186.000
334.421;  -33.300; -125.000; -178.000
334.556; -170.600; -611.000; -567.000
334.690; -183.000; -631.000; -577.000
334.825;  122.700;  381.000;   83.000
334.960; -145.600; -285.000; -413.000
335.095;   -5.000;  135.000;  -91.000
335.230; -260.300; -722.000; -738.000
335.365; -323.200;-1084.000; -990.000
335.499; -343.700;-1108.000;-1037.000
335.634;   28.700;    9.000;  534.000
335.769; -233.200; -755.000; -720.000
335.904; -194.900; -603.000; -561.000
336.038; -207.200; -735.000; -657.000
336.173; -351.700;-1206.000;-1194.000
336.308;  -91.100; -116.000; -189.000
336.443; -123.900; -544.000; -634.000
336.577; -269.800; -936.000; -787.000
336.712;    7.000;   -4.000;  -12.000
336.847; -232.200; -724.000; -607.000
336.981; -113.000; -272.000; -208.000
337.116;  112.800;  615.000;  501.000
337.250; -150.900; -434.000; -421.000
337.385;  -98.100; -297.000; -208.000
337.520; -192.400; -632.000; -603.000
337.654; -104.100; -215.000; -126.000
337.789; -278.300; -989.000; -933.000
337.923;  -76.600; -104.000; -205.000
338.058; -223.500; -673.000; -738.000
338.192; -192.400; -611.000; -488.000
338.327;  -25.300;  -18.000; -155.000
338.461; -184.700; -299.000; -469.000
338.596; -199.100; -780.000; -638.000
338.730; -231.600; -767.000; -803.000
338.865;  -31.900;  -46.000; -140.000
338.999; -257.500; -846.000; -702.000
339.134; -179.800; -634.000; -536.000
339.268; -215.600; -741.000; -603.000
339.403; -233.400; -740.000; -775.000
339.537; -256.700; -894.000; -820.000
339.671; -255.400; -829.000; -813.000
339.806; -205.300; -556.000; -512.000
339.940;  -88.500; -261.000; -235.000
340.074; -222.400; -685.000; -510.000
340.209;  -93.800; -351.000; -230.000
340.343; -189.700; -517.000; -573.000
340.477;  280.100;  998.000; 1036.000
340.612; -291.600;-1033.000; -900.000
340.746;  -85.900; -199.000; -243.000
340.880; -296.600; -924.000; -785.000
341.014;  -50.500;  -45.000; -154.000
341.149; -245.700; -756.000; -718.000
341.283; -254.600; -839.000; -754.000
341.417; -322.000;-1124.000; -938.000
341.551; -207.200; -768.000; -708.000
341.685; -188.500; -633.000; -611.000
341.820; -174.500; -562.000; -493.000
341.954; -148.000; -218.000; -349.000
342.088; -328.900;-1102.000;-1019.000
342.222;   67.500;  565.000;  618.000
342.356; -142.600; -395.000; -335.000
342.490; -267.300; -880.000; -841.000
342.624;  -94.300; -339.000; -242.000
342.758; -101.700; -364.000; -312.000
342.892; -186.900; -710.000; -585.000
343.026;  -77.000;  -58.000; -116.000
343.160; -105.000; -426.000; -376.000
343.294; -157.000; -474.000; -337.000
343.428; -160.600; -488.000; -448.000
343.562;  -39.600; -172.000;  -23.000
343.696; -124.900; -385.000; -314.000
343.830; -115.500; -362.000; -356.000
343.964;  -41.400; -231.000; -168.000
344.098;    4.600;  199.000;   70.000
344.232;  -47.300; -266.000; -127.000
344.366; -200.300; -567.000; -453.000
344.500; -211.000; -665.000; -744.000
344.634; -134.300; -324.000; -164.000
344.768; -134.200; -531.000; -341.000
344.902;   -4.600;  278.000;  256.000
345.035; -133.100; -556.000; -496.000
345.169; -280.600; -933.000; -656.000
345.303; -103.300; -308.000; -482.000
345.437; -274.400; -826.000; -717.000
345.571; -222.100; -675.000; -594.000
345.704; -178.300; -309.000; -532.000
345.838;  -96.700; -331.000; -284.000
345.972; -189.900; -543.000; -495.000
346.106;  -19.800; -179.000; -190.000
346.239;  -79.500; -312.000; -243.000
346.373; -116.500; -343.000; -302.000
346.507; -319.200; -950.000; -962.000
346.640;  -10.600;  -30.000;   13.000
346.774; -206.900; -650.000; -797.000
346.908;  -32.900; -138.000;  -11.000
347.041; -182.700; -646.000; -593.000
347.175;  -10.700;  259.000;   27.000
347.309; -215.900; -698.000; -628.000
347.442; -251.100; -883.000; -732.000
347.576;  160.800;  670.000;  668.000
347.709;  -15.600; -123.000;  -52.000
347.843; -286.800; -933.000; -825.000
347.976;   91.500;  235.000;  294.000
348.110; -364.400;-1268.000;-1186.000
348.243; -212.600; -679.000; -772.000
348.377;   13.900;  -26.000;   60.000
348.510;   84.600;  403.000;  540.000
348.644; -112.800;  -37.000; -159.000
348.777;   17.600;  180.000;  191.000
348.911;  -87.200; -142.000; -112.000
349.044;  115.800;  471.000;  448.000
349.178; -329.800;-1069.000;-1006.000
349.311;   45.900;  141.000;  255.000
349.444; -292.600; -927.000; -813.000
349.578;  -61.200; -347.000; -200.000
349.711; -276.000; -959.000; -862.000
349.845; -227.200; -661.000; -591.000
349.978; -366.700;-1224.000;-1137.000
350.111; -169.900; -546.000; -612.000
350.244; -233.200; -596.000; -700.000
350.378; -116.300; -392.000; -393.000
350.511; -168.100; -393.000; -426.000
350.644; -228.600; -808.000; -806.000
350.778;  -18.300;  168.000;  104.000
350.911;   -2.600;  134.000;  140.000
351.044; -214.800; -685.000; -615.000
351.177;  -76.500; -321.000; -281.000
351.310;  -31.800;    3.000; -131.000
351.444; -217.500; -888.000; -788.000
351.577;    9.800;  140.000;   90.000
351.710;  169.400;  593.000;  417.000
351.843;  -95.400; -165.000;  -77.000
351.976;   -0.300;  149.000;  -79.000
352.109; -211.800; -621.000; -612.000
352.242; -146.400; -464.000; -419.000
352.376; -229.000; -580.000; -636.000
352.509; -142.100; -437.000; -356.000
352.642; -334.500; -654.000; -604.000
352.775;  -76.500; -141.000;  -98.000
352.908; -278.700; -933.000; -904.000
353.041; -248.200; -814.000; -824.000
353.174; -155.200; -551.000; -424.000
353.307; -207.500; -753.000; -764.000
353.440;  116.200;  541.000;  453.000
353.573; -271.700; -957.000;-1008.000
353.706; -179.600; -384.000; -558.000
353.839;  -94.200; -264.000; -220.000
353.971; -209.400; -657.000; -512.000
354.104; -258.900; -896.000; -835.000
354.237; -218.000; -627.000; -662.000
354.370; -199.000; -846.000; -879.000
354.503; -423.300;-1231.000;-1308.000
354.636; -122.100; -529.000; -348.000
354.769; -315.900; -937.000; -860.000
354.902;  -89.800; -230.000; -139.000
355.034;  -96.800; -164.000; -220.000
355.167;  -69.100; -262.000; -162.000
355.300; -301.900;-1061.000; -880.000
355.433;  -26.400;  -71.000;  -14.000
355.565; -152.300; -402.000; -384.000
355.698; -103.000; -356.000; -296.000
355.831; -277.200; -882.000; -801.000
355.964;  -55.200; -285.000; -170.000
356.096; -270.900; -856.000; -843.000
356.229; -171.300; -523.000; -530.000
356.362; -121.800; -373.000; -266.000
356.494;  -64.800; -229.000; -162.000
356.627;   66.500;  269.000;  377.000
356.760;   57.500;  120.000;   53.000
356.892; -215.700; -286.000; -601.000
357.025;  104.800;  403.000;  389.000
357.157;  -77.400; -167.000; -179.000
357.290; -261.300; -856.000; -713.000
357.423; -228.800; -667.000; -556.000
357.555;  -78.200; -217.000; -228.000
357.688; -161.900; -483.000; -364.000
357.820; -278.200; -870.000; -877.000
357.953; -198.100; -563.000; -589.000
358.085; -207.300; -632.000; -612.000
358.218; -328.300;-1131.000; -932.000
358.350;  -35.900;  -58.000;  312.000
358.483; -413.400;-1300.000;-1187.000
358.615; -333.800;-1182.000;-1078.000
358.747; -366.000;-1187.000;-1058.000
358.880; -261.400; -810.000; -744.000
359.012; -138.500; -376.000; -202.000
359.145; -153.200; -480.000; -511.000
359.277; -304.600; -962.000; -913.000
359.409;   88.400;  536.000;  231.000
359.542; -223.600; -738.000; -688.000
359.674;  -10.200;   46.000;   13.000
359.806; -179.100; -565.000; -438.000
359.939; -136.200; -617.000; -516.000
360.071; -219.900; -583.000; -579.000
360.203; -122.500; -411.000; -364.000
360.335;  -10.200;  164.000;  -16.000
360.468;  -75.900; -249.000; -307.000
360.600; -175.400; -547.000; -454.000
360.732; -170.100; -546.000; -423.000
360.864; -376.700;-1216.000;-1044.000
360.996; -127.700; -516.000; -554.000
361.129; -174.700; -389.000; -598.000
361.261;  -33.900;  110.000; -113.000
361.393; -100.500; -252.000; -214.000
361.525;   14.600;   94.000;  244.000
361.657; -258.300; -821.000; -703.000
361.789;  -32.500; -139.000; -155.000
361.921; -208.700; -642.000; -593.000
362.053;  110.900;  524.000;  541.000
362.185;   13.400;  288.000;   72.000
362.318; -236.800; -709.000; -705.000
362.450;   64.000;  294.000;  444.000
362.582; -272.100; -913.000; -870.000
362.714; -111.300; -353.000; -332.000
362.846; -158.300; -606.000; -490.000
362.978; -288.300; -941.000; -811.000
363.109;  -94.300; -161.000; -260.000
363.241; -250.400; -739.000; -749.000
363.373; -178.100; -649.000; -564.000
363.505;  -85.700; -186.000;  -91.000
363.637; -197.600; -787.000; -601.000
363.769; -353.000;-1067.000;-1080.000
363.901; -193.600; -596.000; -654.000
364.033; -362.000;-1103.000;-1062.000
364.165;  -83.700; -283.000; -283.000
364.296; -118.000; -316.000; -177.000
364.428; -394.400;-1344.000;-1220.000
364.560; -185.800; -679.000; -661.000
364.692; -190.500; -738.000; -835.000
364.824; -186.900; -588.000; -456.000
364.955; -127.300; -402.000; -564.000
365.087; -357.500;-1097.000; -852.000
365.219; -220.800; -686.000; -816.000
365.351; -196.700; -526.000; -572.000
365.482;   59.600;  300.000;  240.000
365.614; -137.500; -402.000; -314.000
365.746; -182.800; -729.000; -752.000
365.877; -242.600; -706.000; -672.000
366.009;  -46.900;  -35.000;  -62.000
366.141; -367.500;-1249.000;-1134.000
366.272; -229.500; -803.000; -719.000
366.404; -265.400;-1005.000; -874.000
366.535;  -23.500; -139.000;  -12.000
366.667; -219.700; -644.000; -649.000
366.799;   70.000;  353.000;  203.000
366.930; -315.800; -862.000; -996.000
367.062; -157.600; -639.000; -613.000
367.193; -285.800; -872.000; -842.000
367.325; -199.100; -580.000; -684.000
367.456;  -97.900; -246.000;   31.000
367.588;  -79.800; -371.000; -318.000
367.719;  -85.500;  -44.000;  -45.000
367.851;  -68.800; -222.000; -241.000
367.982; -281.800; -875.000; -732.000
368.113; -129.800; -475.000; -358.000
368.245; -296.800; -960.000; -841.000
368.376;  -66.400; -254.000; -302.000
368.508; -127.500; -188.000; -263.000
368.639; -342.800;-1166.000;-1034.000
368.770; -199.200; -670.000; -589.000
368.902; -246.700; -836.000; -926.000
369.033; -295.100; -906.000; -855.000
369.164; -188.400; -720.000; -653.000
369.296; -245.900; -452.000; -601.000
369.427;  -66.100; -209.000; -144.000
369.558; -157.200; -593.000; -377.000
369.689; -183.300; -721.000; -569.000
369.821; -301.700; -951.000; -845.000
369.952;  -42.400;   42.000; -108.000
370.083;  -92.400; -229.000; -108.000
370.214; -207.400; -735.000; -650.000
370.345;  -51.700;   65.000;   81.000
370.477; -249.900; -810.000; -790.000
370.608;  -89.600; -328.000; -264.000
370.739; -335.800;-1233.000;-1292.000
370.870; -320.800;-1102.000; -923.000
371.001; -154.800; -378.000; -467.000
371.132; -229.000; -754.000; -735.000
371.263;  -16.900;  -42.000; -148.000
371.394; -267.500; -841.000; -748.000
371.525;   72.300;  345.000;  225.000
371.657; -285.800; -808.000; -670.000
371.788;   23.300;  103.000;  199.000
371.919; -125.100; -384.000; -304.000
372.050;  -18.700;  -91.000; -156.000
372.181;  -34.800; -188.000; -294.000
372.311;   -5.500;   42.000; -127.000
372.442; -149.200; -457.000; -451.000
372.573;  -88.300; -444.000; -340.000
372.704; -318.600;-1008.000; -980.000
372.835; -134.900; -228.000; -289.000
372.966; -195.100; -646.000; -554.000
373.097; -218.800; -575.000; -711.000
373.228; -213.300; -717.000; -542.000
373.359; -209.400; -824.000; -536.000
373.490; -264.800; -881.000; -727.000
373.620; -300.000;-1001.000; -803.000
373.751; -180.500; -332.000; -396.000
373.882; -181.300; -663.000; -733.000
374.013;  -95.000; -449.000; -262.000
374.143; -185.400; -581.000; -659.000
374.274; -317.300; -987.000; -908.000
374.405;  -77.800; -388.000; -276.000
374.536; -180.300; -526.000; -387.000
374.666; -223.300; -759.000; -807.000
374.797; -277.200; -817.000; -868.000
374.928; -212.800; -710.000; -560.000
375.058; -213.100; -535.000; -500.000
375.189;  -79.300;  -59.000;  -93.000
375.320; -344.900; -928.000;-1034.000
375.450; -177.200; -625.000; -616.000
375.581; -161.300; -526.000; -436.000
375.712;  -94.200; -574.000; -250.000
375.842; -173.200; -438.000; -415.000
375.973; -164.500; -554.000; -513.000
376.103; -208.400; -665.000; -648.000
376.234; -211.000; -531.000; -552.000
376.364; -298.200; -944.000; -867.000
376.495;  208.200;  925.000;  529.000
376.625; -157.300; -472.000; -485.000
376.756; -196.400; -709.000; -678.000
376.886; -359.800;-1178.000;-1026.000
377.017; -325.600;-1048.000;-1061.000
377.147; -307.600; -786.000; -782.000
377.278;    7.900;  174.000;  228.000
377.408; -263.100; -801.000; -815.000
377.538; -227.500; -707.000; -693.000
377.669; -234.400; -537.000; -613.000
377.799; -212.800; -645.000; -635.000
377.929; -192.000; -610.000; -428.000
378.060; -269.400; -781.000; -847.000
378.190; -205.500; -726.000; -531.000
378.320; -134.800; -401.000; -406.000
378.451;  -64.600; -131.000;  -22.000
378.581;  -45.200;  -67.000; -110.000
378.711;  244.200; 1035.000;  866.000
378.841; -212.100; -533.000; -675.000
378.972; -299.000; -871.000; -751.000
379.102; -199.700; -652.000; -579.000
379.232; -112.500; -126.000;  -73.000
379.362; -298.500;-1001.000; -885.000
379.492; -187.100; -373.000; -424.000
379.623;   35.300;    0.000;  111.000
379.753; -331.600;-1107.000; -974.000
379.883;   31.400;   59.000;  156.000
380.013; -331.200;-1081.000;-1017.000
380.143; -348.000;-1097.000;-1056.000
380.273; -289.900; -985.000; -861.000
380.403; -129.400; -344.000; -257.000
380.533; -245.500; -651.000; -664.000
380.663;   29.200;  173.000;  128.000
380.793; -348.500;-1027.000;-1074.000
380.923;  -59.100; -103.000;  -34.000
381.053; -234.700; -613.000; -623.000
381.183;  -99.100; -106.000; -248.000
381.313; -209.200; -656.000; -470.000
381.443; -161.200; -692.000; -473.000
381.573; -171.400; -402.000; -409.000
381.703; -368.800;-1249.000;-1095.000
381.833; -450.000;-1454.000;-1336.000
381.963;   -2.600; -134.000;  -87.000
382.093; -318.200; -925.000; -909.000
382.223; -206.200; -713.000; -602.000
382.353; -227.800; -801.000; -608.000
382.482; -316.900;-1091.000; -964.000
382.612; -240.300; -872.000; -644.000
382.742; -191.600; -695.000; -622.000
382.872; -150.300; -565.000; -551.000
383.002;   11.100;  347.000; -132.000
383.131; -131.500; -226.000; -160.000
383.261; -212.700; -706.000; -768.000
383.391; -186.700; -552.000; -377.000
383.521;   72.000;  451.000;  263.000
383.650; -299.500; -947.000; -904.000
383.780; -209.900; -783.000; -656.000
383.910;  140.900;  880.000;  802.000
384.039; -250.100; -794.000; -656.000
384.169; -360.700;-1205.000;-1017.000
384.299; -192.000; -650.000; -662.000
384.428; -243.700; -764.000; -680.000
384.558; -102.900; -308.000; -275.000
384.687; -136.400; -414.000; -334.000
384.817;    5.900;   75.000;   -2.000
384.947; -114.800; -234.000; -141.000
385.076;  250.900;  982.000;  912.000
385.206;   82.400;  369.000;  480.000
385.335; -122.600; -549.000; -417.000
385.465; -261.700; -655.000; -663.000
385.594;  -23.900;  -53.000;  -44.000
385.724; -315.200; -868.000; -838.000
385.853; -129.500; -296.000; -270.000
385.982; -240.700; -743.000; -787.000
386.112; -273.900;-1052.000; -871.000
386.241; -128.000; -307.000; -312.000
386.371;  -77.600; -174.000;  -87.000
386.500; -288.600; -825.000; -789.000
386.629; -234.100; -874.000; -817.000
386.759;  -32.500;  -43.000;   68.000
386.888;  -55.700; -170.000; -250.000
387.017; -200.000; -648.000; -620.000
387.147; -229.600; -771.000; -798.000
387.276; -201.200; -410.000; -397.000
387.405; -121.700; -398.000; -342.000
387.535; -206.000; -452.000; -361.000
387.664; -224.100; -692.000; -620.000
387.793;  -72.700; -198.000; -113.000
387.922;    2.400;  255.000;  200.000
388.052; -210.500; -576.000; -423.000
388.181; -125.700; -342.000; -472.000
388.310; -267.400; -889.000; -710.000
388.439; -267.400; -749.000; -742.000
388.568;  -10.600;  365.000;  244.000
388.697; -220.700; -756.000; -653.000
388.826; -222.400; -768.000; -666.000
388.956;  -98.400; -285.000; -307.000
389.085; -141.300; -347.000; -287.000
389.214; -293.400; -842.000; -872.000
389.343; -207.300; -645.000; -413.000
389.472;   51.200;  126.000;  149.000
389.601;  -19.500;   91.000;    0.000
389.730; -160.800; -568.000; -687.000
389.859;   58.500;  226.000;   46.000
389.988; -120.600; -423.000; -408.000
390.117; -110.900; -168.000; -146.000
390.246; -121.400; -331.000; -320.000
390.375; -226.600; -673.000; -626.000
390.504; -199.400; -703.000; -621.000
390.633; -270.600; -672.000; -726.000
390.761; -218.700; -732.000; -645.000
390.890;  -63.800;   -4.000; -130.000
391.019; -157.100; -421.000; -441.000
391.148; -310.600; -826.000; -855.000
391.277; -193.800; -576.000; -493.000
391.406; -295.100; -821.000; -805.000
391.534;   32.400;  574.000; -301.000
391.663; -215.200; -583.000; -645.000
391.792; -191.300; -673.000; -701.000
391.921;  -21.000;   -3.000;   15.000
392.050;  -84.700; -287.000; -228.000
392.178; -377.100;-1206.000;-1061.000
392.307; -231.000; -758.000; -712.000
392.436; -259.700; -427.000; -641.000
392.564;    5.800;  166.000;   -6.000
392.693; -289.500; -860.000; -682.000
392.822; -179.200; -529.000; -534.000
392.950; -253.300; -880.000; -714.000
393.079; -113.800; -188.000; -328.000
393.208; -168.800; -488.000; -511.000
393.336;  -43.800; -170.000; -145.000
393.465;  -87.600; -317.000; -199.000
393.593;   -6.600;   62.000;   79.000
393.722; -344.400;-1121.000; -916.000
393.850;  -67.200; -188.000;  -61.000
393.979; -299.700; -926.000; -805.000
394.107; -177.300; -517.000; -537.000
394.236; -197.000; -570.000; -507.000
394.364;   45.100;  383.000;  206.000
394.493; -272.800; -911.000; -767.000
394.621; -273.500; -955.000; -916.000
394.750; -294.200; -873.000; -923.000
394.878;  -63.400; -247.000; -149.000
395.007; -278.600; -721.000; -807.000
395.135; -216.300; -790.000; -721.000
395.263; -338.000;-1038.000;-1040.000
395.392;  -32.400;  -25.000; -107.000
395.520; -279.300; -818.000; -679.000
395.648; -296.000; -865.000; -915.000
395.777; -187.500; -366.000; -405.000
395.905; -180.600; -449.000; -564.000
396.033;    8.800;  217.000;  172.000
396.162; -143.000; -399.000; -453.000
396.290;  -41.400;  -17.000;   -2.000
396.418; -185.500; -555.000; -514.000
396.546; -265.000; -571.000; -466.000
396.674; -284.500; -850.000; -878.000
396.803;  -61.500;  -72.000;  -23.000
396.931;  -46.800; -179.000; -199.000
397.059; -346.800;-1026.000; -989.000
397.187; -289.500;-1026.000; -975.000
397.315; -295.100; -884.000; -649.000
397.443; -198.200; -592.000; -443.000
397.572; -181.100; -578.000; -424.000
397.700; -220.300; -607.000; -614.000
397.828;  -75.500;  120.000;  -90.000
397.956; -177.800; -508.000; -478.000
398.084; -252.200; -767.000; -626.000
398.212;   13.500;  137.000;  124.000
398.340;  -40.200;  -56.000;  159.000
398.468; -132.500; -390.000; -169.000
398.596; -295.100; -993.000; -953.000
398.724; -255.000; -762.000; -767.000
398.852; -316.400;-1024.000; -976.000
398.980; -180.200; -560.000; -560.000
399.108; -270.600; -982.000; -735.000
399.236;  -18.200;   13.000;    8.000
399.363;  -20.200;  222.000;  196.000
399.491; -166.200; -404.000; -398.000
399.619; -263.400; -829.000; -800.000
399.747; -229.700; -859.000; -771.000
399.875;   45.500;  220.000;  234.000
400.003;  -81.500; -359.000; -284.000
400.130; -188.300; -421.000; -341.000
400.258;  -30.100;  -83.000;   38.000
400.386;  -90.800; -352.000; -168.000
400.514; -204.300; -526.000; -587.000
400.641; -326.100; -928.000; -802.000
400.769; -282.400; -979.000; -888.000
400.897; -280.700; -838.000; -793.000
401.025;  -70.100; -166.000; -152.000
401.152;   12.200;  220.000;   38.000
401.280; -122.600; -430.000; -429.000
401.408; -267.000; -712.000; -576.000
401.535; -213.100; -735.000; -758.000
401.663; -380.500;-1134.000;-1054.000
401.790; -150.800; -514.000; -525.000
401.918;  101.800;  436.000;  405.000
402.046;    3.100;  134.000;  122.000
402.173;  -50.400;  -18.000;    7.000
402.301; -152.300; -519.000; -397.000
402.428;   86.200;  528.000;  383.000
402.556; -348.200;-1188.000; -913.000
402.683;  -97.100;  -20.000;   -1.000
402.811;  -51.200;  -37.000; -206.000
402.938;  -61.200;   20.000;   27.000
403.066; -196.500; -574.000; -558.000
403.193;  -27.300;  299.000;  239.000
403.321; -155.300; -396.000; -574.000
403.448;  -12.600;   83.000;   27.000
403.575;  -42.500;  -90.000;  -46.000
403.703; -254.800; -732.000; -557.000
403.830; -171.300; -531.000; -496.000
403.957; -349.000;-1117.000;-1023.000
404.085;  -81.600;  -61.000; -172.000
404.212;  -26.700;  -50.000;   63.000
404.339; -127.000; -566.000; -306.000
404.467; -161.500; -612.000; -524.000
404.594;  -97.100; -287.000; -227.000
404.721; -239.300; -869.000; -764.000
404.848;  -31.300; -113.000; -202.000
404.976; -302.200; -856.000; -783.000
405.103;  -23.000;  -14.000;  -82.000
405.230;  -30.300;  190.000;  226.000
405.357;  -24.300;  117.000;   44.000
405.484;  -62.800;  -49.000;    5.000
405.612; -181.700; -548.000; -563.000
405.739; -130.000; -488.000; -243.000
405.866;  117.100;  669.000;  385.000
405.993; -132.300; -398.000; -102.000
406.120; -294.400; -801.000; -887.000
406.247; -175.300; -323.000; -342.000
406.374;  137.500;  540.000;  629.000
406.501; -252.900; -632.000; -702.000
406.628; -148.000; -621.000; -589.000
406.755; -240.700; -803.000; -620.000
406.882; -108.900; -228.000; -277.000
407.009; -236.400; -719.000; -628.000
407.136; -136.300; -480.000; -401.000
407.263; -304.500; -939.000; -829.000
407.390; -229.900; -692.000; -614.000
407.517; -398.700;-1139.000;-1187.000
407.644; -145.100; -332.000; -256.000
407.771; -161.300; -249.000; -287.000
407.898;    2.800;  168.000;  328.000
408.025; -176.000; -421.000; -313.000
408.151;  -19.000;   82.000;  153.000
408.278; -136.000; -267.000; -216.000
408.405; -267.700; -931.000; -899.000
408.532; -180.700; -549.000; -542.000
408.659; -247.600; -677.000; -648.000
408.785; -429.000;-1298.000;-1170.000
408.912; -115.900; -412.000; -296.000
409.039; -210.800; -610.000; -686.000
409.166; -185.500; -591.000; -555.000
409.292; -192.500; -571.000; -534.000
409.419; -203.200; -665.000; -649.000
409.546; -144.400; -431.000; -192.000
409.672; -217.100; -713.000; -545.000
409.799;  -61.000;  -36.000;   34.000
409.926; -108.300; -180.000; -179.000
410.052; -387.000;-1127.000;-1091.000
410.179; -141.400; -368.000; -392.000
410.305; -136.400; -375.000; -493.000
410.432; -133.900; -220.000; -333.000
410.558; -181.200; -305.000; -380.000
410.685; -201.400; -688.000; -431.000
410.812; -204.900; -409.000; -588.000
410.938; -281.800; -964.000; -808.000
411.065; -244.200; -671.000; -645.000
411.191; -100.000; -189.000; -174.000
411.317; -278.300; -823.000; -742.000
411.444; -134.100; -317.000; -246.000
411.570; -133.300; -339.000; -294.000
411.697; -228.500; -758.000; -752.000
411.823; -356.000; -989.000; -999.000
411.949;  -41.200;  -56.000;   17.000
412.076; -241.800; -539.000; -519.000
412.202; -244.500; -758.000; -757.000
412.329; -294.100; -798.000; -752.000
412.455; -222.300; -821.000; -657.000
412.581;  -30.400;  -15.000;  172.000
412.707; -207.000; -540.000; -457.000
412.834;   17.700;  156.000;  219.000
412.960; -257.500; -785.000; -784.000
413.086; -260.900; -743.000; -701.000
413.212;  118.200;  604.000;  578.000
413.339; -256.400; -685.000; -701.000
413.465; -152.900; -364.000; -310.000
413.591; -245.200; -757.000; -474.000
413.717; -135.500; -358.000; -366.000
413.843; -286.000; -839.000; -861.000
413.969; -120.800;  -47.000; -292.000
414.096; -241.500; -679.000; -679.000
414.222;  -22.400;  -33.000;   85.000
414.348; -194.500; -652.000; -385.000
414.474;  -78.100;   38.000;  -52.000
414.600; -105.500; -126.000; -144.000
414.726;  -38.600;  -96.000;  -55.000
414.852; -193.500; -365.000; -342.000
414.978;    0.400;  104.000;  -18.000
415.104;  -30.100;   38.000;   80.000
415.230; -117.400; -329.000; -330.000
415.356; -178.900; -409.000; -514.000
415.482;  -54.000;   13.000;  -35.000
415.608; -111.200; -247.000; -323.000
415.734;  -38.000;   67.000;   38.000
415.860; -296.300; -875.000; -767.000
415.986; -241.200; -685.000; -607.000
416.111; -285.900; -798.000; -652.000
416.237; -162.100; -424.000; -571.000
416.363; -281.800; -765.000; -733.000
416.489; -107.400; -324.000; -251.000
416.615; -269.700; -707.000; -742.000
416.741; -209.900; -677.000; -784.000
416.866; -237.600; -673.000; -736.000
416.992; -285.100; -801.000; -818.000
417.118;  -86.100;  -41.000;  -80.000
417.244; -227.900; -798.000; -531.000
417.369; -257.700; -801.000; -612.000
417.495; -136.200; -325.000; -254.000
417.621; -318.400;-1015.000; -803.000
417.746; -186.000; -579.000; -572.000
417.872; -118.900; -254.000; -144.000
417.998; -172.800; -515.000; -530.000
418.123; -333.100;-1073.000; -845.000
418.249; -213.800; -512.000; -601.000
418.374; -298.400; -916.000; -824.000
418.500; -165.400; -383.000; -482.000
418.626;   -6.100;   70.000;  -59.000
418.751; -174.300; -549.000; -448.000
418.877; -248.300; -637.000; -643.000
419.002; -164.300; -688.000; -560.000
419.128; -292.800; -930.000; -721.000
419.253; -276.800; -967.000; -837.000
419.379; -186.400; -391.000; -338.000
419.504;   56.000;  325.000;  415.000
419.629; -126.000; -393.000; -212.000
419.755; -121.100; -317.000; -254.000
419.880;  -95.400;  -98.000;   67.000
420.006;  -91.000; -280.000; -221.000
420.131; -219.000; -662.000; -775.000
420.256; -110.400; -315.000; -316.000
420.382; -244.500; -665.000; -687.000
420.507; -269.800; -649.000; -778.000
420.632; -171.300; -337.000; -339.000
420.758;  -95.900; -251.000; -425.000
420.883; -262.500; -876.000; -672.000
421.008; -226.400; -775.000; -619.000
421.133; -178.200; -509.000; -467.000
421.259; -131.000; -325.000; -259.000
421.384; -291.300; -834.000; -693.000
421.509; -269.400;-1052.000; -862.000
421.634; -309.700; -936.000; -820.000
421.759; -179.900; -359.000; -327.000
421.885; -263.700; -717.000; -656.000
422.010; -197.000; -673.000; -542.000
422.135; -317.500; -695.000; -727.000
422.260;   75.300;  340.000;  280.000
422.385; -103.600;   12.000;  -98.000
422.510;   29.200;  151.000;  -26.000
422.635;  -53.600;  -87.000;  -43.000
422.760; -235.100; -766.000; -791.000
422.885;  -35.300;  -57.000;  -80.000
423.010;  -77.700; -112.000; -169.000
423.135; -190.700; -481.000; -561.000
423.260;  -81.500; -150.000; -245.000
423.385;   57.100;  476.000;  222.000
423.510;  -27.700;   71.000;  -22.000
423.635;  -43.500;  133.000;   45.000
423.760;   62.000;  383.000;  328.000
423.885;   59.300;  336.000;  391.000
424.010;  -24.000;  -68.000;  -13.000
424.135;  -62.500;    5.000;  -33.000
424.259; -193.300; -654.000; -457.000
424.384; -156.100; -279.000; -272.000
424.509;  -77.900; -260.000; -186.000
424.634; -259.100; -761.000; -623.000
424.759; -208.600; -688.000; -544.000
424.883; -192.400; -506.000; -527.000
425.008; -197.300; -502.000; -410.000
425.133; -257.800; -679.000; -653.000
425.258; -182.000; -517.000; -381.000
425.382; -253.700; -867.000; -774.000
425.507; -220.400; -487.000; -543.000
425.632; -283.100; -802.000; -663.000
425.756;  -90.400; -256.000; -146.000
425.881; -285.800; -831.000; -857.000
426.006; -188.700; -604.000; -355.000
426.130; -253.600; -696.000; -508.000
426.255; -195.500; -611.000; -491.000
426.379; -133.800; -189.000; -577.000
426.504;  115.800;  660.000;  544.000
426.629; -231.600; -519.000; -466.000
426.753;  -58.200;   64.000;  -46.000
426.878; -145.100; -252.000; -288.000
427.002; -203.900; -651.000; -668.000
427.127; -113.100;  -35.000; -158.000
427.251;   47.100;  372.000;  401.000
427.375; -135.800; -191.000; -173.000
427.500; -199.400; -616.000; -610.000
427.624; -152.300; -234.000; -400.000
427.749; -101.300; -216.000; -225.000
427.873; -177.400; -499.000; -412.000
427.997;  -79.100; -222.000; -230.000
428.122;  130.200;  795.000;  703.000
428.246;   87.300;  433.000;  434.000
428.371; -314.700; -869.000; -773.000
428.495; -210.400; -624.000; -646.000
428.619; -107.000; -186.000; -117.000
428.743;    5.300;   65.000;  132.000
428.868; -254.400; -732.000; -643.000
428.992; -115.200; -219.000; -326.000
429.116; -150.100; -329.000; -357.000
429.240;   73.100;  419.000;  426.000
429.365; -169.500; -454.000; -574.000
429.489; -245.500; -638.000; -647.000
429.613;  -95.100; -236.000; -177.000
429.737; -169.800; -563.000; -432.000
429.861; -116.700; -247.000; -133.000
429.985; -192.700; -425.000; -305.000
430.109; -324.900; -770.000; -908.000
430.234;  -10.000;   76.000;  -50.000
430.358; -152.200; -250.000; -160.000
430.482; -242.200; -672.000; -564.000
430.606; -219.000; -655.000; -375.000
430.730; -166.500; -437.000; -388.000
430.854; -317.100; -909.000; -835.000
430.978; -249.400; -795.000; -764.000
431.102; -219.400; -499.000; -422.000
431.226; -285.300; -874.000; -815.000
431.350;   27.900;  345.000;  422.000
431.474; -186.300; -661.000; -373.000
431.597; -339.600;-1060.000; -848.000
431.721; -118.300; -276.000; -267.000
431.845; -257.600; -704.000; -472.000
431.969; -132.400; -304.000; -349.000
432.093; -163.300; -395.000; -317.000
432.217;    4.500;   32.000;   82.000
432.341; -195.800; -523.000; -518.000
432.464;  -59.200;   96.000;   40.000
432.588; -205.600; -401.000; -329.000
432.712;  -63.500;  -52.000;  -52.000
432.836;    0.100;  213.000;  263.000
432.959; -137.800; -372.000; -311.000
433.083;  -49.900;   11.000;    2.000
433.207;   97.200;  285.000;  930.000
433.330; -133.200; -391.000; -200.000
433.454; -179.200; -654.000; -638.000
433.578;  102.300;  583.000;  278.000
433.701; -256.700; -623.000; -675.000
433.825; -153.900; -292.000; -299.000
433.949;  -89.300;   28.000;  -72.000
434.072; -162.500; -410.000; -323.000
434.196; -110.600; -309.000; -117.000
434.319; 7800.100;25482.000;25124.000
434.443; -202.700; -656.000; -603.000
434.566;  -46.700;  281.000;   62.000
434.690; -185.100; -637.000; -383.000
434.813; -113.600; -251.000; -173.000
434.937; -213.000; -569.000; -696.000
435.060; -161.000; -423.000; -332.000
435.184; -158.600; -492.000; -217.000
435.307;  -54.900;  159.000;  102.000
435.431;  -61.000;  -40.000;   24.000
435.554; -163.500; -399.000; -240.000
435.677; -129.700; -350.000; -258.000
435.801;  -56.600;  -25.000;   49.000
435.924;  -91.800;    1.000;  -67.000
436.048; -284.200;-1019.000; -732.000
436.171; -105.400; -240.000;  -66.000
436.294; -152.500; -248.000; -229.000
436.417; -319.400; -963.000; -849.000
436.541; -295.900; -814.000; -840.000
436.664;  -71.100; -242.000; -316.000
436.787;  -25.800;   13.000;  113.000
436.910; -227.200; -792.000; -422.000
437.034;  -49.200;  142.000;  143.000
437.157;  -55.100;  -11.000;    0.000
437.280; -195.700; -392.000; -292.000
437.403; -303.100; -982.000; -869.000
437.526; -342.500; -903.000; -865.000
437.649; -184.200; -505.000; -332.000
437.772; -264.700; -692.000; -540.000
437.896;  122.700;  700.000;  544.000
438.019; -251.500; -758.000; -503.000
438.142; -204.500; -596.000; -506.000
438.265; -259.300; -639.000; -670.000
438.388; -172.100; -520.000; -410.000
438.511; -215.400; -597.000; -394.000
438.634; -139.200; -247.000; -125.000
438.757; -254.700; -693.000; -619.000
438.880;  -57.900;  -34.000;  -57.000
439.003; -206.900; -417.000; -437.000
439.126;  -96.100; -287.000; -167.000
439.248;  -97.100;  -98.000; -139.000
439.371;  -32.900;    9.000;  -53.000
439.494;  100.800;  510.000;  439.000
439.617;  -49.000;   65.000;  -88.000
439.740; -340.300; -968.000; -816.000
439.863; -251.200; -755.000; -595.000
439.986; -219.300; -476.000; -431.000
440.108;  -78.800; -161.000; -112.000
440.231; -334.400; -950.000; -836.000
440.354;  -69.200;  -64.000; -150.000
440.477; -259.200; -566.000; -542.000
440.599; -166.700; -200.000; -225.000
440.722; -250.100; -709.000; -586.000
440.845;  188.900;  751.000;  928.000
440.968; -174.200; -415.000; -311.000
441.090;  -83.300; -199.000;  -33.000
441.213; -332.900;-1021.000; -825.000
441.336;  -70.600; -159.000;   -5.000
441.458; -179.600; -549.000; -396.000
441.581; -259.800; -628.000; -629.000
441.703; -133.300; -152.000;   13.000
441.826; -183.900; -557.000; -400.000
441.948;  -84.600;   56.000;   51.000
442.071;   94.100;  555.000;  424.000
442.193; -247.900; -531.000; -485.000
442.316;  -16.600;  152.000;   97.000
442.438; -126.000; -233.000;  -10.000
442.561;   31.300;  272.000;  262.000
442.683; -291.700; -809.000; -522.000
442.806;  -35.400;   -8.000;   74.000
442.928; -293.400; -859.000; -604.000
443.051; -189.000; -577.000; -373.000
443.173; -210.400; -341.000; -339.000
443.295; -171.200; -263.000; -371.000
443.418; -134.900; -321.000;  -29.000
443.540;  -52.000; -106.000;   -4.000
443.662; -218.100; -563.000; -465.000
443.785;    9.300;  335.000;  199.000
443.907; -183.200; -362.000; -208.000
444.029; -217.900; -767.000; -494.000
444.152; -273.900; -644.000; -554.000
444.274;  -23.400;  -18.000;  -24.000
444.396; -195.500; -461.000; -221.000
444.518; -210.400; -691.000; -454.000
444.640; -209.600; -268.000; -111.000
444.763;  -22.100;  388.000;  249.000
444.885; -217.400; -432.000; -392.000
445.007;  -18.500;   35.000;   86.000
445.129; -222.500; -610.000; -515.000
445.251; -180.700; -372.000; -439.000
445.373; -272.700; -537.000; -386.000
445.495;   27.100;  242.000;  350.000
445.617;  123.900;  853.000;  753.000
445.739; -102.000; -215.000;  -97.000
445.861;  -91.000; -245.000; -112.000
445.984; -124.700; -267.000; -101.000
446.105; -192.300; -418.000; -251.000
446.227; -103.500; -176.000;  -19.000
446.349; -229.900; -358.000; -249.000
446.471; -214.100; -615.000; -448.000
446.593; -142.800; -316.000;   19.000
446.715;  -65.300;  -67.000;   41.000
446.837;  147.200;  697.000;  832.000
446.959; -206.100; -457.000; -478.000
447.081; -237.000; -628.000; -518.000
447.203;  163.600;  862.000;  834.000
447.325; -147.600; -270.000;   42.000
447.446;   36.300;  286.000;  530.000
447.568; -314.400; -921.000; -803.000
447.690; -151.600; -236.000; -245.000
447.812; -273.200; -798.000; -519.000
447.933;  -28.600;  155.000;  127.000
448.055; -124.800; -306.000; -261.000
448.177;    3.700;   31.000;   79.000
448.299; -347.000; -935.000; -727.000
448.420;    0.200;  -25.000;  159.000
448.542;  -98.700;   -3.000;   33.000
448.664;   -9.900;  109.000;  322.000
448.785;  -52.300;  265.000;   83.000
448.907; -203.000; -614.000; -353.000
449.028; -257.800; -771.000; -471.000
449.150;  128.700;  492.000;  589.000
449.272; -331.900;-1044.000; -913.000
449.393;  123.500;  612.000;  694.000
449.515; -304.900; -634.000; -581.000
449.636; -137.600; -264.000; -155.000
449.758;  147.500;  763.000;  622.000
449.879; -190.300; -498.000; -396.000
450.001; -126.900; -149.000;  -49.000
450.122;  -66.600;  -95.000;  162.000
450.244;  -59.400;   37.000;  364.000
450.365; -183.900; -495.000; -301.000
450.486;  -71.300;   80.000;  268.000
450.608;   38.100;  393.000;  326.000
450.729;   64.800;  578.000;  645.000
450.850; -227.800; -574.000; -466.000
450.972; -287.600; -552.000; -389.000
451.093;   23.900;  190.000;  588.000
451.214; -199.600; -516.000; -337.000
451.336;   95.200;  773.000;  579.000
451.457;   32.300;  264.000;  393.000
451.578; -108.000; -118.000;  -74.000
451.699; -214.300; -546.000; -540.000
451.821; -104.500; -284.000;  -50.000
451.942;   -3.500;  278.000;  285.000
452.063;    0.800;  228.000;  419.000
452.184; -130.000;  -54.000;  -49.000
452.305;  -42.400;  103.000;  170.000
452.427; -204.200; -549.000; -301.000
452.548;  -72.300;   23.000;   79.000
452.669; -122.100; -257.000;  -89.000
452.790;  -91.800;    3.000;  -18.000
452.911;  -39.300;  195.000;  259.000
453.032; -130.700; -289.000;  -60.000
453.153;  -87.900;  -29.000;   81.000
453.274;  149.400;  737.000;  868.000
453.395;  -65.500;  -51.000;  175.000
453.516;  255.400; 1317.000; 1388.000
453.637; -170.500; -205.000; -150.000
453.758;  -82.000;   15.000;   69.000
453.879; -185.200; -462.000; -250.000
454.000;  222.700; 1086.000;  948.000
454.121; -265.800; -554.000; -326.000
454.242; -228.900; -599.000; -383.000
454.362;  -84.300;  -99.000;  114.000
454.483; -157.900; -309.000; -229.000
454.604;   20.900;  512.000;  580.000
454.725; -266.400; -627.000; -555.000
454.846; -196.500; -474.000; -406.000
454.967;  -11.400;  230.000;  539.000
455.087;  -44.400;  179.000;  153.000
455.208;  100.000;  554.000;  856.000
455.329; -102.500;  -22.000;   82.000
455.450;   69.700;  473.000;  633.000
455.570; -158.200; -234.000; -211.000
455.691;  -19.900;  201.000;  407.000
455.812; -171.500; -270.000;  -92.000
455.932;  -70.000;  107.000;  -97.000
456.053; -113.400;   36.000;   24.000
456.173; -226.400; -433.000; -355.000
456.294; -264.300; -476.000; -303.000
456.415;  -53.600;  -73.000;   70.000
456.535;  -18.600;  297.000;  273.000
456.656;  -40.700;  132.000;  240.000
456.776;  -92.200;    3.000;  298.000
456.897;   40.200;  308.000;  513.000
457.017; -116.400; -153.000;   -3.000
457.138; -213.600; -402.000; -249.000
457.258;  -31.800;  263.000;  224.000
457.379;   32.800;  509.000;  521.000
457.499;    5.200;  443.000;  432.000
457.620; -197.400; -407.000; -231.000
457.740; -160.600; -132.000;  -11.000
457.860;  -51.000;   87.000;   44.000
457.981;  -86.500;  132.000;  124.000
458.101; -130.400;  -89.000;   40.000
458.221;   10.200;  336.000;  402.000
458.342;  -97.300;   -4.000;  -37.000
458.462;    0.000;  617.000;  352.000
458.582; -181.700; -302.000; -294.000
458.703;  -66.900;  303.000;  154.000
458.823;  -88.600;   22.000;  163.000
458.943;  -19.700;  341.000;  467.000
459.063;  -53.100; 1124.000;  192.000
459.183;  -60.200;  328.000;  313.000
459.304;   91.900;  315.000;  517.000
459.424; -158.400; -246.000;  -89.000
459.544;   68.500;  388.000;  764.000
459.664;   24.700;  499.000;  506.000
459.784;  220.100; 1004.000; 1175.000
459.904;  126.400;  867.000;  744.000
460.024;  155.500;  867.000;  684.000
460.144;    7.800;  449.000;  554.000
460.264;   57.700;  515.000;  327.000
460.385; -132.800; -145.000; -119.000
460.505;   95.300;  905.000;  858.000
460.625; -163.100;  -17.000;  -68.000
460.745;   18.100;  396.000;  541.000
460.864;  -83.800;  153.000;  469.000
460.984;   17.500;  499.000;  573.000
461.104;  286.200; 1656.000; 1775.000
461.224;  100.400;  657.000;  650.000
461.344;  -28.000;  431.000;  360.000
461.464;  -57.900;  258.000;  513.000
461.584;  -31.600;  283.000;  466.000
461.704; -106.300;   58.000;  108.000
461.824;  -84.400;  238.000;  259.000
461.943;  -56.300;  191.000;  130.000
462.063; -130.100;    2.000;  324.000
462.183;   96.600;  639.000;  717.000
462.303;  241.600; 1678.000; 1230.000
462.422;   74.200;  781.000;  840.000
462.542;  -89.700;  271.000;  391.000
462.662;   15.300;  353.000;  380.000
462.782;   57.500;  833.000;  572.000
462.901;   26.800;  545.000;  717.000
463.021;  307.300; 1702.000; 1638.000
463.141;   -9.400;  337.000;  770.000
463.260;    0.800;  614.000;  474.000
463.380;   84.200;  902.000;  884.000
463.499;   -4.500;  342.000;  332.000
463.619;  -27.900;  581.000;  559.000
463.738;  245.300; 1644.000;  903.000
463.858;   54.900;  657.000;  811.000
463.978;  -47.300;  542.000;  396.000
464.097;  163.600;  921.000; 1114.000
464.217;  204.000; 1196.000; 1143.000
464.336;  195.400; 1068.000; 1130.000
464.455;  -48.900;  328.000;  659.000
464.575;   48.400;  597.000;  602.000
464.694;  197.400; 1204.000; 1179.000
464.814;  144.900; 1190.000; 1138.000
464.933;  158.500; 1095.000; 1027.000
465.052;  229.600; 1412.000; 1054.000
465.172;   64.500;  922.000;  799.000
465.291;  230.400; 1376.000; 1320.000
465.410;   44.100;  462.000;  735.000
465.530;  196.400; 1355.000; 1310.000
465.649;  149.200; 1209.000; 1273.000
465.768;  301.600; 1673.000; 1508.000
465.888;   99.800;  941.000; 1174.000
466.007;  236.000; 1335.000; 1440.000
466.126;   33.100;  721.000;  641.000
466.245;  144.000; 1176.000; 1187.000
466.364;   40.700;  950.000; 1060.000
466.484;  152.500; 1024.000; 1213.000
466.603;   97.000; 1101.000; 1222.000
466.722;  276.800; 1490.000; 1769.000
466.841;  144.100; 1151.000; 1401.000
466.960;  117.600; 1069.000;  972.000
467.079;  370.500; 1971.000; 1786.000
467.198;  168.500; 1238.000; 1181.000
467.317;  238.400; 1768.000; 1162.000
467.436;  196.700; 1709.000; 1261.000
467.555;  313.700; 1796.000; 1746.000
467.674;  161.300; 1227.000; 1329.000
467.793;  124.400; 1376.000; 1374.000
467.912;  232.000; 1658.000; 1539.000
468.031;  329.500; 2038.000; 1930.000
468.150;  324.000; 1842.000; 1837.000
468.269;  448.400; 2313.000; 2090.000
468.388;  423.000; 2168.000; 2339.000
468.507;  631.000; 2884.000; 2903.000
468.626;  559.900; 2555.000; 2541.000
468.744;  308.300; 2018.000; 2174.000
468.863;  466.500; 2312.000; 2523.000
468.982;  241.900; 1503.000; 1555.000
469.101;  538.700; 2788.000; 2692.000
469.220;  379.200; 2333.000; 2176.000
469.338;  571.800; 2935.000; 3051.000
469.457;  429.800; 2719.000; 2545.000
469.576;  784.700; 3953.000; 3784.000
469.695;  495.900; 2877.000; 3066.000
469.813;  914.900; 4148.000; 4192.000
469.932;  848.600; 4255.000; 4485.000
470.051;  774.500; 4075.000; 4161.000
470.169;  819.800; 4470.000; 4338.000
470.288;  939.400; 4700.000; 4809.000
470.406;  989.700; 5059.000; 5194.000
470.525; 1219.400; 6101.000; 5787.000
470.644; 1363.400; 6847.000; 6794.000
470.762; 1666.700; 8397.000; 7873.000
470.881; 1746.800; 8651.000; 8464.000
470.999; 2014.600; 9685.000; 9151.000
471.118; 2223.800;11174.000;10711.000

