
Integration time [ms]: 200.000
Averaging Nr. [scans]: 10
Smoothing Nr. [pixels]: 0
Data measured with spectrometer [name]: 2101012U2
Wave   ;Sample   ;Dark     ;Reference
[nm]   ;[counts] ;[counts] ;[counts] 

197.733;  128.600;  516.000;  404.000
197.879; -211.900; -610.000; -634.000
198.025; -104.700; -475.000; -420.000
198.171; -168.800; -602.000; -612.000
198.317;  -62.800; -401.000; -316.000
198.463; -143.500; -655.000; -404.000
198.609;   57.300;  181.000; -137.000
198.755; -154.800; -644.000; -410.000
198.901; -139.200; -505.000; -424.000
199.047; -140.400; -615.000; -488.000
199.193;  -87.200; -230.000; -468.000
199.339;  -96.200; -222.000; -369.000
199.485;   66.400;  330.000;  271.000
199.631;   19.400;  227.000;  310.000
199.777; -105.800; -466.000; -398.000
199.923; -136.900; -610.000; -424.000
200.069;  -44.300; -141.000;  -58.000
200.215;  116.500;  128.000;  453.000
200.361;   71.900;  243.000;  477.000
200.507; -136.500; -600.000; -373.000
200.653;  -71.400; -371.000; -194.000
200.798;  -64.600; -215.000; -125.000
200.944;   -4.900; -146.000;  -41.000
201.090;   81.400;   61.000;  222.000
201.236;  -15.100; -116.000; -158.000
201.382;  247.500;  874.000;  903.000
201.528;   16.500;  -58.000;  -48.000
201.674; -116.500; -386.000; -293.000
201.819; -142.100; -540.000; -439.000
201.965; -183.100; -699.000; -447.000
202.111;  -54.300; -273.000; -226.000
202.257; -105.200; -250.000; -238.000
202.402;   -2.800;   13.000;  -36.000
202.548;  -49.500; -169.000; -116.000
202.694;  173.000;  410.000; -183.000
202.840; -154.700; -603.000; -531.000
202.985; -162.200; -681.000; -639.000
203.131; -232.200; -832.000; -666.000
203.277;  -40.900; -199.000; -262.000
203.423; -130.800; -434.000; -520.000
203.568;  -77.800; -462.000; -237.000
203.714; -126.900; -535.000; -542.000
203.860; -177.500; -682.000; -641.000
204.005;   36.000;  112.000;  167.000
204.151;  145.000;  561.000;  556.000
204.296; -104.700; -354.000; -221.000
204.442; -139.900; -600.000; -547.000
204.588; -158.700; -592.000; -579.000
204.733;   45.900;  178.000;  168.000
204.879; -260.100;-1018.000; -822.000
205.025;   12.400;  -99.000;  126.000
205.170;    7.700;  -17.000;   94.000
205.316;  162.800;  438.000;  661.000
205.461; -170.600; -698.000; -554.000
205.607;  182.100;  609.000;  665.000
205.752; -156.300; -626.000; -551.000
205.898; -124.400; -501.000; -391.000
206.043; -141.600; -578.000; -506.000
206.189;  -78.300; -243.000; -285.000
206.334;  197.300;  554.000;  606.000
206.480;  168.800;  409.000;  239.000
206.625; -186.900; -529.000; -552.000
206.771;  -93.800; -451.000; -373.000
206.916;  -27.500; -210.000; -537.000
207.062; -154.500; -545.000; -591.000
207.207; -158.500; -546.000; -443.000
207.353;  103.900;  185.000;  460.000
207.498;   26.300;  196.000;   85.000
207.643; -120.300; -501.000; -370.000
207.789; -259.000;-1069.000; -910.000
207.934; -174.600; -665.000; -713.000
208.080;  -73.100; -154.000;   66.000
208.225;  -13.300;  -22.000;  -57.000
208.370; -154.300; -727.000; -619.000
208.516; -123.300; -741.000; -487.000
208.661;  -59.100; -127.000;  -69.000
208.806;  -38.600; -165.000; -171.000
208.952; -259.800;-1044.000; -731.000
209.097;  163.600;  378.000;  349.000
209.242;  -81.400; -307.000; -382.000
209.387;  118.000;  392.000;  350.000
209.533; -126.200; -321.000; -350.000
209.678;  173.600;  472.000;  543.000
209.823; -118.100; -408.000; -310.000
209.969; -205.500; -860.000; -757.000
210.114; -229.800; -907.000; -719.000
210.259; -251.000; -939.000; -889.000
210.404;   20.000; -171.000;  103.000
210.549;   11.000;  108.000;    3.000
210.695;  -31.300;   -3.000;  -95.000
210.840;   90.200;   94.000;   67.000
210.985; -136.400; -484.000; -303.000
211.130;  146.500;  268.000;  406.000
211.275;    4.100;  207.000;  199.000
211.420; -107.900; -300.000; -289.000
211.566; -131.000; -536.000; -489.000
211.711;   54.200;  218.000;  157.000
211.856; -125.100; -545.000; -519.000
212.001;   -5.700;  151.000;   44.000
212.146;   32.400;  153.000;   49.000
212.291;  -49.300; -210.000; -186.000
212.436;  -61.700; -280.000;   -6.000
212.581; -154.200; -685.000; -653.000
212.726; -164.300; -487.000; -538.000
212.871; -101.800; -552.000; -217.000
213.016; -293.600;-1172.000;-1029.000
213.161;  138.100;  406.000;  291.000
213.306; -151.900; -435.000; -577.000
213.451; -211.500; -778.000; -689.000
213.596;  -91.200; -455.000; -347.000
213.741;  -98.200; -448.000; -538.000
213.886; -159.600; -498.000; -517.000
214.031;  -55.000; -294.000; -124.000
214.176; -118.900; -408.000; -341.000
214.321;  -52.000; -296.000; -157.000
214.466;  -46.800; -163.000;  -43.000
214.611;   12.300;  -61.000;  -10.000
214.756; -255.800; -948.000; -858.000
214.901;  -58.100; -388.000; -226.000
215.046; -266.100; -797.000; -825.000
215.191;   33.100;  128.000;   35.000
215.336;  -28.900; -157.000;  -19.000
215.480; -167.600; -684.000; -505.000
215.625;   -7.300; -175.000;  -19.000
215.770; -172.600; -757.000; -662.000
215.915;    1.900;   -5.000;  -97.000
216.060;    9.300; -113.000;  -21.000
216.205; -234.500; -731.000; -779.000
216.349; -159.000; -470.000; -533.000
216.494; -251.200; -939.000; -867.000
216.639; -211.900; -823.000; -888.000
216.784; -183.800; -577.000; -525.000
216.929;  146.700;  392.000;  281.000
217.073;    4.000; -244.000;  -31.000
217.218;   32.200;   78.000;  -47.000
217.363; -204.600; -656.000; -618.000
217.507; -150.600; -623.000; -588.000
217.652; -241.700; -845.000; -874.000
217.797; -190.400; -708.000; -659.000
217.942; -219.900; -856.000; -720.000
218.086;  165.500;  608.000;  539.000
218.231;  -53.700; -174.000;  -26.000
218.376;  -73.700; -337.000; -229.000
218.520;    2.300;  -41.000;   96.000
218.665;  -81.300; -338.000; -204.000
218.810;  -82.500; -275.000; -233.000
218.954;   66.900;  201.000;   35.000
219.099; -246.400; -713.000; -963.000
219.243; -160.800; -589.000; -554.000
219.388;  -52.000; -264.000; -136.000
219.532;    6.500; -116.000; -116.000
219.677; -169.200; -564.000; -521.000
219.822;   26.200;   33.000;   89.000
219.966;   23.100;   17.000;  -99.000
220.111;  -67.100; -328.000;  -40.000
220.255; -186.800; -797.000; -750.000
220.400;  -48.400; -180.000; -146.000
220.544; -144.400; -516.000; -450.000
220.689;  -96.200; -422.000; -451.000
220.833;  -44.000; -123.000;  -58.000
220.978;  -67.400; -393.000; -563.000
221.122;   75.400;  319.000;  307.000
221.267; -249.600; -906.000; -837.000
221.411; -127.400; -478.000; -394.000
221.555;  -28.000; -104.000;  -23.000
221.700;  -79.900; -329.000; -222.000
221.844;   52.200;  255.000;  272.000
221.989;  -88.100; -328.000; -311.000
222.133;  -90.000; -289.000; -307.000
222.277;  -13.400;    5.000;   78.000
222.422;   25.300;  227.000;  113.000
222.566;  -83.000; -381.000; -214.000
222.711; -112.700; -414.000; -479.000
222.855; -153.300; -643.000; -586.000
222.999; -170.600; -642.000; -717.000
223.144;  -54.500; -195.000; -194.000
223.288;  136.100;  423.000;  251.000
223.432;   53.500;  184.000;  230.000
223.576;   16.700;  152.000;  -21.000
223.721;   97.200;  364.000;  273.000
223.865; -114.200; -472.000; -475.000
224.009;  466.500; 1673.000; 1631.000
224.153; -150.400; -660.000; -671.000
224.298; -153.300; -531.000; -489.000
224.442;  -30.800;  -74.000;  -33.000
224.586;  -13.500; -169.000; -106.000
224.730; -198.400; -858.000; -670.000
224.875; -243.000; -739.000; -688.000
225.019;   61.400;  102.000;  188.000
225.163;  128.000;  208.000;  341.000
225.307;   30.100;   97.000;  -91.000
225.451;   92.900;  360.000;  481.000
225.595;  108.200;  264.000;  176.000
225.739;  -22.900; -170.000;  -94.000
225.884;   43.300;   86.000;    5.000
226.028; -220.100; -760.000; -626.000
226.172;  -70.400; -260.000; -273.000
226.316; -237.100; -941.000; -902.000
226.460; -139.400; -645.000; -493.000
226.604; -118.400; -406.000; -400.000
226.748; -216.000; -836.000; -733.000
226.892;  -76.800; -227.000; -181.000
227.036; -104.900; -537.000; -447.000
227.180; -104.500; -551.000; -375.000
227.324; -147.600; -561.000; -580.000
227.468; -273.800; -819.000; -717.000
227.612;    5.300;  242.000;  -28.000
227.756; -184.800; -845.000; -698.000
227.900;  114.300;  342.000;  441.000
228.044; -126.700; -509.000; -290.000
228.188;  145.300;  448.000;  568.000
228.332; -159.500; -546.000; -472.000
228.476;  -46.700; -223.000; -149.000
228.620;  -54.400; -210.000; -150.000
228.764;  151.000;  431.000;  349.000
228.908;  -44.100; -155.000;   30.000
229.052; -135.800; -615.000; -528.000
229.195;  -38.000; -172.000;   13.000
229.339;  -65.300; -235.000; -305.000
229.483;  -60.500;    5.000; -162.000
229.627;    2.700; -156.000;  139.000
229.771; -107.700; -218.000; -294.000
229.915;   14.300;  230.000;   79.000
230.059; -190.300; -648.000; -663.000
230.202;  -87.900; -370.000; -317.000
230.346;  -14.400; -107.000;  107.000
230.490; -129.200; -489.000; -521.000
230.634; -203.800; -736.000; -553.000
230.777;  141.800;  478.000;  509.000
230.921; -100.500; -450.000; -359.000
231.065;  -86.900; -246.000; -286.000
231.209;  100.100;  261.000;  265.000
231.352;   52.700;   54.000;   40.000
231.496;   49.100;  568.000;  188.000
231.640; -172.200; -693.000; -621.000
231.783;  160.800;  546.000;  525.000
231.927;  -86.500; -294.000; -365.000
232.071; -243.500; -962.000; -736.000
232.214; -231.000; -980.000; -764.000
232.358; -216.500; -683.000; -599.000
232.502;   12.200;  -19.000;    7.000
232.645; -292.200;-1090.000; -927.000
232.789;  -46.300; -257.000; -218.000
232.933;  -64.100; -407.000; -224.000
233.076; -257.400;-1038.000; -897.000
233.220; -222.700; -752.000; -777.000
233.363; -154.200; -669.000; -477.000
233.507;  122.400;  371.000;  129.000
233.650; -180.700; -764.000; -834.000
233.794;  113.600;  438.000;  461.000
233.938; -101.400; -530.000; -362.000
234.081;  -28.400;  -93.000;   31.000
234.225; -151.900; -631.000; -539.000
234.368; -226.400; -773.000; -723.000
234.512;  -72.800; -385.000; -299.000
234.655; -172.300; -582.000; -555.000
234.798; -163.500; -493.000; -466.000
234.942; -248.200; -884.000;-1002.000
235.085; -138.200; -651.000; -443.000
235.229; -123.000; -405.000; -410.000
235.372; -100.600; -247.000; -191.000
235.516; -131.900; -397.000; -321.000
235.659;   49.300;   92.000;  121.000
235.802;  -35.500;  -38.000;  -22.000
235.946;   62.600;  335.000;  215.000
236.089;   85.200;  126.000;  250.000
236.233;  118.400;  275.000;  298.000
236.376;  -78.700; -235.000; -378.000
236.519;  -98.100; -297.000; -319.000
236.663;  -43.300; -215.000; -117.000
236.806; -238.800;-1029.000; -999.000
236.949;  159.700;  543.000;  431.000
237.092;  154.400;  412.000;  391.000
237.236; -188.600; -589.000; -502.000
237.379;  161.700;  352.000;  428.000
237.522; -234.900; -879.000; -768.000
237.666;   -1.000; -271.000;   18.000
237.809; -241.900; -851.000; -823.000
237.952;  110.700;  469.000;  271.000
238.095; -138.500; -447.000; -442.000
238.238;  211.700;  688.000;  700.000
238.382;   34.200;  166.000;  103.000
238.525; -130.200; -598.000; -511.000
238.668; -273.200;-1060.000; -985.000
238.811; -162.500; -638.000; -643.000
238.954; -112.200; -483.000; -334.000
239.097;  218.300;  617.000;  664.000
239.241;   40.600;  394.000;  326.000
239.384;  -67.700; -254.000; -214.000
239.527; -114.400; -424.000; -224.000
239.670; -303.100; -994.000;-1091.000
239.813; -214.200; -696.000; -658.000
239.956;  171.300;  579.000;  473.000
240.099; -189.900; -778.000; -725.000
240.242;  168.700;  428.000;  432.000
240.385;  107.300;  466.000;  450.000
240.528; -168.200; -706.000; -473.000
240.671;   26.400;  189.000;  134.000
240.814;  -58.800; -441.000; -158.000
240.957; -175.100; -767.000; -578.000
241.100; -191.800; -779.000; -755.000
241.243; -290.000;-1234.000; -893.000
241.386;  -92.200; -508.000; -379.000
241.529; -197.200; -735.000; -547.000
241.672; -120.900; -566.000; -495.000
241.815; -228.000; -832.000; -808.000
241.958;  -30.500; -125.000; -182.000
242.101; -151.500; -545.000; -390.000
242.244;  -68.900; -270.000; -325.000
242.387;  -87.800; -304.000; -246.000
242.530;  119.100;  470.000;  134.000
242.673;  -59.000; -381.000; -309.000
242.815; -239.900; -925.000; -899.000
242.958; -135.800; -482.000; -381.000
243.101;   42.300;  132.000;  187.000
243.244; -149.700; -564.000; -521.000
243.387; -109.100; -313.000; -316.000
243.530; -186.300; -657.000; -674.000
243.672;   20.100;   43.000;  -92.000
243.815; -108.400; -355.000; -283.000
243.958;   39.300;   98.000;  -26.000
244.101;    1.200;   59.000;  -16.000
244.243;    1.000;  -47.000;  101.000
244.386; -220.100; -761.000; -630.000
244.529;  -38.500; -132.000; -139.000
244.672; -299.900;-1154.000; -951.000
244.814; -215.300; -621.000; -794.000
244.957;  -99.300; -380.000; -304.000
245.100; -139.300; -489.000; -489.000
245.242; -127.100; -387.000; -374.000
245.385;   13.100;  -59.000;  -39.000
245.528; -233.600; -871.000; -705.000
245.670;  224.400;  612.000;  634.000
245.813; -175.400; -599.000; -547.000
245.956;  -61.100; -324.000; -275.000
246.098; -163.200; -508.000; -650.000
246.241;   36.900;  194.000;   48.000
246.383;  -28.100; -119.000;  -73.000
246.526; -136.500; -454.000; -525.000
246.669; -232.500; -889.000; -780.000
246.811;   63.000;  172.000;   -1.000
246.954; -136.400; -512.000; -426.000
247.096;  -16.600;  -84.000;   -6.000
247.239; -147.400; -482.000; -445.000
247.381; -139.000; -647.000; -488.000
247.524;  184.500;  645.000;  679.000
247.666;   11.300;   58.000;   11.000
247.809; -230.200; -887.000; -691.000
247.951;  -25.800;  -75.000;  138.000
248.094;   91.700;  432.000;  308.000
248.236; -322.200;-1262.000;-1238.000
248.378;  -17.300; -356.000;  -81.000
248.521;  -53.000; -334.000; -337.000
248.663;  -71.000; -236.000; -267.000
248.806;  -25.500; -300.000; -266.000
248.948; -198.000; -886.000; -763.000
249.090; -114.300; -428.000; -398.000
249.233;  -97.700; -344.000; -381.000
249.375; -136.900; -474.000; -451.000
249.518;  -25.500;  -83.000; -133.000
249.660;   -6.500; -103.000;    3.000
249.802; -368.900;-1303.000;-1189.000
249.945; -148.900; -612.000; -540.000
250.087; -209.600; -834.000; -768.000
250.229;  -78.100; -362.000; -480.000
250.371; -139.100; -494.000; -439.000
250.514;  -92.400; -310.000; -244.000
250.656;   11.000;   69.000;  102.000
250.798; -214.100; -849.000; -800.000
250.940; -123.700; -322.000; -322.000
251.083;  -32.700; -335.000; -111.000
251.225;  132.500;  338.000;  310.000
251.367;  -83.200; -274.000; -373.000
251.509;  -52.600; -265.000; -210.000
251.651; -193.300; -731.000; -671.000
251.794;  133.100;  538.000;  632.000
251.936; -238.400; -821.000; -747.000
252.078; -162.700; -540.000; -461.000
252.220; -121.700; -645.000; -477.000
252.362;  160.700;  344.000;  462.000
252.504; -152.900; -677.000; -584.000
252.646; -242.900; -875.000; -722.000
252.788;    3.200;   14.000; -128.000
252.931;  -64.900; -257.000; -253.000
253.073;  -72.400; -376.000; -317.000
253.215;   -1.000;  141.000;  122.000
253.357;  -20.600;   82.000; -153.000
253.499;  -86.700; -374.000; -234.000
253.641; -179.000; -749.000; -594.000
253.783; -145.800; -609.000; -527.000
253.925; -162.200; -586.000; -591.000
254.067; -234.400; -744.000; -667.000
254.209;  -57.500; -391.000; -259.000
254.351; -274.300; -865.000; -883.000
254.493; -145.100; -441.000; -417.000
254.635; -226.400; -936.000; -818.000
254.777; -179.600; -752.000; -687.000
254.918; -146.200; -512.000; -430.000
255.060; -107.200; -551.000; -395.000
255.202; -138.700; -473.000; -261.000
255.344; -135.800; -658.000; -455.000
255.486; -133.800; -471.000; -406.000
255.628; -195.200; -780.000; -781.000
255.770; -199.100; -676.000; -536.000
255.912; -101.100; -559.000; -468.000
256.053; -158.100; -730.000; -508.000
256.195;  309.300; 1008.000;  903.000
256.337; -191.900; -861.000; -595.000
256.479;  160.300;  532.000;  416.000
256.621;  -73.200; -394.000; -212.000
256.762; -181.000; -789.000; -742.000
256.904;   90.900;  485.000;  487.000
257.046;  -94.500; -381.000; -271.000
257.188;  -86.700; -351.000; -264.000
257.329; -119.300; -525.000; -464.000
257.471; -269.200; -939.000; -807.000
257.613; -133.300; -584.000; -498.000
257.755; -320.400;-1073.000; -982.000
257.896;   95.700;  286.000;  392.000
258.038; -103.600; -403.000; -352.000
258.180;  -33.000; -354.000; -279.000
258.321; -147.200; -581.000; -457.000
258.463;   27.800;  -71.000;  133.000
258.605; -176.700; -562.000; -570.000
258.746; -217.100; -886.000; -772.000
258.888; -327.600;-1026.000;-1020.000
259.029;   61.100;  121.000;   -8.000
259.171; -172.400; -614.000; -550.000
259.313;   37.800;  -49.000;  -47.000
259.454; -113.300; -536.000; -414.000
259.596;  -81.200; -483.000; -390.000
259.737; -142.400; -590.000; -474.000
259.879;  114.700;  217.000;  311.000
260.020;  203.500;  901.000;  636.000
260.162;  -33.900; -146.000; -253.000
260.303; -231.000; -768.000; -687.000
260.445; -187.800; -609.000; -613.000
260.586;   74.200;  392.000;  157.000
260.728;  -70.800; -360.000; -248.000
260.869; -134.000; -350.000; -343.000
261.011;  160.500;  706.000;  537.000
261.152; -120.000; -479.000; -319.000
261.293; -151.800; -576.000; -595.000
261.435;  -52.800; -219.000; -184.000
261.576;  -91.800; -455.000; -325.000
261.718;  126.200;  420.000;  470.000
261.859; -285.300; -940.000; -949.000
262.000; -258.900; -951.000;-1016.000
262.142;  -33.000;  -52.000;  -60.000
262.283; -218.800; -808.000; -691.000
262.424; -146.200; -666.000; -625.000
262.566; -311.700;-1161.000; -983.000
262.707; -236.000; -840.000; -830.000
262.848; -229.900; -769.000; -726.000
262.990; -102.200; -362.000; -345.000
263.131;  152.200;  650.000;  681.000
263.272;   28.100;  -61.000;  -41.000
263.413; -206.400; -589.000; -561.000
263.555; -133.300; -669.000; -143.000
263.696; -154.200; -550.000; -641.000
263.837;  -95.000; -449.000; -551.000
263.978;   33.100;   -5.000;  -77.000
264.119;  -62.100; -283.000; -264.000
264.261; -228.900; -847.000; -630.000
264.402;   40.200;   33.000;   40.000
264.543; -164.000; -509.000; -524.000
264.684;   12.000;   61.000;  -50.000
264.825; -148.900; -816.000; -538.000
264.966;   20.700;  -84.000;  -67.000
265.107; -217.000; -646.000; -670.000
265.248; -218.200; -825.000; -812.000
265.390;   -1.600;  152.000;   -9.000
265.531;  -24.100; -238.000; -107.000
265.672; -153.000; -557.000; -630.000
265.813;  152.000;  563.000;  439.000
265.954; -305.600; -959.000; -940.000
266.095;  -11.700; -372.000; -322.000
266.236; -193.900; -686.000; -548.000
266.377;  -68.000; -243.000; -297.000
266.518; -126.500; -619.000; -547.000
266.659;   54.300;  170.000;  268.000
266.800;   30.000;   83.000;   85.000
266.941; -156.800; -487.000; -478.000
267.082;   36.700;  354.000;   99.000
267.223;  -90.500; -344.000; -273.000
267.364; -262.200; -892.000; -686.000
267.504;   -3.700;    3.000;  135.000
267.645;  -17.400;  160.000;   67.000
267.786;  -81.100; -147.000;  -86.000
267.927; -127.200; -473.000; -379.000
268.068;  -25.700; -186.000;  -61.000
268.209;  -87.100; -175.000; -413.000
268.350; -106.100; -388.000; -532.000
268.490; -153.600; -648.000; -521.000
268.631;   96.700;  127.000;  225.000
268.772; -216.700; -874.000; -647.000
268.913;  -79.400; -328.000; -476.000
269.054;    7.600; -117.000;   12.000
269.194;  -81.500; -418.000; -402.000
269.335; -311.200;-1137.000;-1074.000
269.476;   -6.800;   33.000;  -35.000
269.617;  -76.900; -347.000; -392.000
269.757; -143.400; -713.000; -646.000
269.898; -197.900; -856.000; -613.000
270.039;  -95.700; -415.000; -405.000
270.180; -274.700; -952.000; -816.000
270.320;  -16.500; -190.000; -250.000
270.461;  -63.300; -277.000; -249.000
270.602;  -18.200; -186.000; -156.000
270.742; -264.400; -868.000; -943.000
270.883; -102.100; -442.000; -390.000
271.023; -109.000; -358.000; -357.000
271.164; -120.900; -607.000; -528.000
271.305; -217.300; -666.000; -654.000
271.445; -155.300; -722.000; -683.000
271.586; -143.200; -462.000; -283.000
271.726;  -83.600; -397.000; -322.000
271.867; -113.500; -594.000; -534.000
272.008;  301.400; -473.000; -285.000
272.148;  221.200;  462.000;  468.000
272.289;   32.400; -113.000; -181.000
272.429;   66.100;   19.000;  185.000
272.570; -187.800; -633.000; -737.000
272.710; -212.100; -825.000; -775.000
272.851;   -8.000;  113.000; -130.000
272.991; -316.800;-1173.000;-1077.000
273.131; -105.200; -419.000; -459.000
273.272; -180.800; -683.000; -723.000
273.412;   -5.800; -143.000;  -31.000
273.553; -116.900; -488.000; -507.000
273.693;  264.300;  913.000;  858.000
273.834; -197.000; -894.000; -692.000
273.974; -144.200; -664.000; -615.000
274.114; -216.500; -772.000; -560.000
274.255;  141.500;  414.000;  373.000
274.395;   34.700; -180.000; -125.000
274.535;   92.900;  199.000;  350.000
274.676;   55.600;  225.000;   94.000
274.816;    8.300;  110.000;   34.000
274.956; -159.100; -624.000; -690.000
275.097; -180.400;-1014.000; -922.000
275.237; -205.700; -913.000; -803.000
275.377; -208.500; -778.000; -689.000
275.517; -279.200; -878.000; -937.000
275.658; -146.200; -590.000; -555.000
275.798; -128.200; -606.000; -413.000
275.938;   76.900;  215.000;  323.000
276.078; -145.900; -626.000; -395.000
276.218;   14.300;   99.000;  104.000
276.359; -255.500;-1026.000;-1024.000
276.499; -140.200; -605.000; -446.000
276.639;  -61.400; -305.000; -151.000
276.779; -105.700; -475.000; -357.000
276.919; -209.500; -783.000; -624.000
277.059;  -53.900; -261.000; -212.000
277.199;  -65.100; -357.000; -259.000
277.340;   98.900;  287.000;  175.000
277.480; -213.600; -840.000; -693.000
277.620;   74.200;  192.000;   16.000
277.760; -402.800;-1533.000;-1294.000
277.900;   37.400;  113.000;   33.000
278.040;   45.500;  137.000;  159.000
278.180;   97.000;  270.000;  170.000
278.320;   31.900;   21.000;   56.000
278.460; -134.600; -443.000; -469.000
278.600; -148.700; -708.000; -598.000
278.740;  127.900;  448.000;  224.000
278.880; -147.200; -768.000; -791.000
279.020;   27.500; -194.000; -144.000
279.160; -188.600; -672.000; -595.000
279.300; -241.900; -926.000; -873.000
279.440; -162.900; -709.000; -622.000
279.579;  -63.500;-1014.000; -929.000
279.719; -111.200; -410.000; -394.000
279.859;  149.400;   -4.000;   41.000
279.999;   51.400; -208.000;  101.000
280.139;  -72.700; -435.000; -387.000
280.279; -174.300; -708.000; -745.000
280.419;   -6.000; -229.000; -147.000
280.559;  -34.000; -259.000; -180.000
280.698; -178.900; -790.000; -639.000
280.838; -188.200; -778.000; -800.000
280.978; -207.000; -846.000; -790.000
281.118; -205.200; -811.000; -704.000
281.257;   23.200;   24.000;    6.000
281.397; -246.400;-1094.000; -960.000
281.537; -166.300; -599.000; -712.000
281.677;  -14.400; -150.000; -101.000
281.816; -141.800; -700.000; -630.000
281.956;  -53.900; -193.000; -257.000
282.096; -124.000; -539.000; -396.000
282.235; -212.000; -672.000; -638.000
282.375;  -11.900; -243.000;  -98.000
282.515; -173.300; -715.000; -707.000
282.654;   77.500;   29.000;  106.000
282.794;   71.000;  388.000;  244.000
282.934;  -91.500; -530.000; -491.000
283.073; -254.200;-1030.000; -857.000
283.213; -103.700; -460.000; -467.000
283.353;  -75.800; -408.000; -349.000
283.492;  -51.800; -264.000; -296.000
283.632;  -48.800; -254.000; -168.000
283.771; -178.400; -859.000; -730.000
283.911;  -93.500; -369.000; -260.000
284.050; -185.800; -794.000; -748.000
284.190; -293.800;-1229.000;-1096.000
284.329; -269.600;-1055.000; -964.000
284.469; -152.700; -516.000; -591.000
284.608; -101.100; -559.000; -598.000
284.748; -162.900; -614.000; -570.000
284.887;  -18.200;  -87.000;  -20.000
285.027; -233.500; -844.000; -892.000
285.166;  -28.400; -192.000; -249.000
285.306;   38.100; -116.000;  -33.000
285.445;  -53.400; -229.000; -343.000
285.584; -161.200; -630.000; -494.000
285.724;  -70.100; -282.000; -322.000
285.863; -191.400; -857.000; -507.000
286.002;  -95.000; -366.000; -276.000
286.142; -217.400; -715.000; -622.000
286.281; -127.700; -525.000; -493.000
286.420; -129.200; -554.000; -417.000
286.560;  209.200;  653.000;  623.000
286.699; -258.000; -958.000; -912.000
286.838; -159.200; -590.000; -591.000
286.978; -217.000; -533.000; -537.000
287.117; -250.200;-1085.000; -950.000
287.256;  -47.700; -228.000; -211.000
287.395;  -82.700; -197.000; -378.000
287.535;  -68.800; -370.000; -298.000
287.674; -128.100; -509.000; -484.000
287.813;  135.200;  661.000;  533.000
287.952; -245.500;-1010.000; -871.000
288.091; -278.700;-1049.000; -915.000
288.231;   56.300;   13.000;   15.000
288.370; -347.800;-1217.000;-1200.000
288.509; -194.500; -728.000; -645.000
288.648; -167.900; -770.000; -548.000
288.787;  -25.200; -243.000;  -87.000
288.926; -110.500; -454.000; -475.000
289.065;  296.000;  859.000;  672.000
289.204;  -71.800; -377.000; -217.000
289.344; -177.100; -791.000; -690.000
289.483;   52.500;  416.000;  304.000
289.622;  -35.600; -291.000; -149.000
289.761;   -6.800; -309.000; -166.000
289.900; -210.600; -785.000; -626.000
290.039;   -4.100;  -12.000;  -95.000
290.178;  -59.000; -274.000; -180.000
290.317; -190.400; -618.000; -479.000
290.456; -124.100; -463.000; -451.000
290.595; -280.300; -961.000; -833.000
290.734; -248.400; -904.000; -891.000
290.873; -126.600; -456.000; -420.000
291.011; -190.900; -833.000; -843.000
291.150; -191.700; -770.000; -682.000
291.289;  -28.100; -343.000; -110.000
291.428; -198.000; -599.000; -480.000
291.567; -100.400; -370.000; -442.000
291.706;   -0.700;  109.000;  154.000
291.845; -166.000; -597.000; -505.000
291.984; -308.300;-1234.000;-1061.000
292.122;  182.300;  602.000;  582.000
292.261;  129.100;  620.000;  463.000
292.400;    8.400; -144.000;  211.000
292.539; -234.200; -959.000; -813.000
292.678;  -43.800; -325.000; -300.000
292.816; -320.200;-1136.000; -965.000
292.955; -178.500; -844.000; -684.000
293.094;   -6.600; -173.000; -337.000
293.233; -106.400; -556.000; -400.000
293.371;  -43.300; -225.000;  -84.000
293.510; -224.200; -866.000; -780.000
293.649; -258.000; -959.000; -924.000
293.787; -121.800;-1083.000;-1012.000
293.926;    0.400; -113.000;  -32.000
294.065;  -56.600; -379.000; -290.000
294.203;  136.800;  298.000;  406.000
294.342;   35.500;   74.000;  156.000
294.481;11667.800;51180.000; -836.000
294.619;  -23.100; -425.000; -582.000
294.758; -328.900;-1230.000;-1137.000
294.896;  130.400; -125.000;    5.000
295.035; -238.600;-1040.000;-1006.000
295.174; -237.800;-1082.000; -954.000
295.312;  -92.200; -323.000; -203.000
295.451;  -18.700; -307.000; -428.000
295.589; -114.800; -389.000; -518.000
295.728;   47.100; -292.000; -165.000
295.866;   11.100;  -36.000;  -51.000
296.005; -125.100; -584.000; -341.000
296.143; -144.700; -558.000; -596.000
296.282; -216.400; -957.000; -881.000
296.420; -166.100; -657.000; -557.000
296.559; -173.800; -892.000; -633.000
296.697;    3.300; -847.000; -665.000
296.835;   51.700;-1141.000;-1002.000
296.974;  135.100;  -23.000;   39.000
297.112;   23.400; -443.000; -504.000
297.251; -160.700; -815.000; -755.000
297.389;  107.900; -576.000; -438.000
297.527;   75.500; -145.000;  -83.000
297.666; -125.300; -486.000; -438.000
297.804;  -74.100; -404.000; -264.000
297.942;   12.600; -136.000; -161.000
298.081;    2.200; -183.000;   63.000
298.219;  141.500;  -17.000;  -19.000
298.357;   69.500; -144.000;  -71.000
298.495;   29.500; -810.000; -812.000
298.634;  142.500;  245.000;  219.000
298.772;   92.700; -220.000; -338.000
298.910;  -80.700; -309.000; -182.000
299.048;  -17.100; -130.000; -153.000
299.187;  -48.700; -350.000; -250.000
299.325;   70.300;   52.000;  122.000
299.463;   24.900; -389.000; -299.000
299.601;  178.100; -327.000; -271.000
299.739; -237.400; -908.000; -883.000
299.877; -154.200; -791.000; -703.000
300.016; -143.800;-1095.000; -935.000
300.154;  297.300;  -19.000; -161.000
300.292;   78.900; -428.000; -348.000
300.430;   50.400; -408.000; -291.000
300.568; -213.800; -940.000; -874.000
300.706;  -99.200; -366.000; -469.000
300.844; -175.300;-1108.000; -979.000
300.982;  246.100;  246.000;  282.000
301.120; -216.800; -965.000; -866.000
301.258; -116.600; -812.000; -705.000
301.396;   85.400;  104.000;  -41.000
301.534;  121.900; -218.000; -293.000
301.672;  -50.500; -664.000; -521.000
301.810;    1.400; -613.000; -545.000
301.948;  239.100;   53.000;  149.000
302.086;  958.600; -250.000;  -32.000
302.224; 1513.300; -610.000; -585.000
302.362;   80.200; -558.000; -622.000
302.500;  -74.900; -923.000; -893.000
302.638;  184.400;  128.000;  245.000
302.776;   -6.600; -352.000; -408.000
302.913;  122.300;  447.000;  236.000
303.051;   -7.200;  -86.000;  -23.000
303.189;  132.300;   90.000;  118.000
303.327;  -64.200; -341.000; -256.000
303.465; -176.200; -832.000; -588.000
303.603; -175.600; -805.000; -604.000
303.740;  177.900;  417.000;  241.000
303.878;    2.200; -800.000; -759.000
304.016; -191.500; -915.000; -790.000
304.154; -281.300;-1123.000;-1152.000
304.291;  -64.500; -505.000; -554.000
304.429;   58.200;  102.000;   74.000
304.567; -237.900; -908.000; -893.000
304.705;  -85.800; -408.000; -515.000
304.842;  126.800; -616.000; -540.000
304.980;  102.100;  215.000;   35.000
305.118;   54.300; -367.000; -365.000
305.255; -136.800; -945.000; -927.000
305.393;  130.300;  178.000;  239.000
305.531; -225.800;-1173.000; -956.000
305.668; -153.300; -663.000; -582.000
305.806;  137.900; -358.000; -439.000
305.943;  182.600; -629.000; -637.000
306.081;  106.300; -378.000; -267.000
306.219; -183.500; -863.000; -748.000
306.356;   18.600;  158.000;   27.000
306.494;  270.200;  981.000;  761.000
306.631;   42.200;  -11.000;  -55.000
306.769;   25.300; -613.000; -485.000
306.906;    4.700; -284.000; -258.000
307.044;  -98.100; -473.000; -488.000
307.181;  -89.700; -410.000; -332.000
307.319;  117.700;  112.000;   87.000
307.456; -307.800;-1191.000;-1153.000
307.594; -197.800; -980.000; -727.000
307.731;   -8.400; -371.000; -164.000
307.868;    6.600;  -15.000;   20.000
308.006; -227.300; -961.000; -847.000
308.143; -110.500; -618.000; -330.000
308.281;  381.100;  -37.000; -254.000
308.418;   17.000; -748.000; -640.000
308.555; -126.000; -400.000; -250.000
308.693; -149.900; -577.000; -573.000
308.830; -195.100; -712.000; -657.000
308.967;   12.400; -215.000;  -95.000
309.105;  -38.700; -507.000; -396.000
309.242;   89.200; -468.000; -367.000
309.379;  645.500; -577.000; -655.000
309.517;  -90.300; -936.000; -948.000
309.654; -171.200; -910.000; -734.000
309.791; -122.100; -662.000; -580.000
309.928; -230.000; -977.000; -914.000
310.065;  381.100;  819.000;  697.000
310.203;  -46.500; -825.000; -850.000
310.340;   -2.200; -465.000; -321.000
310.477; -152.400; -412.000; -516.000
310.614; -105.300; -383.000; -473.000
310.751;  -85.800; -427.000; -518.000
310.889;  -35.000;    1.000;   11.000
311.026; -295.400;-1161.000; -939.000
311.163;  -77.900; -386.000; -380.000
311.300; -112.400; -512.000; -479.000
311.437; -104.700; -658.000; -619.000
311.574; -301.400;-1226.000; -985.000
311.711;  -85.400; -595.000; -433.000
311.848;  -44.800; -380.000; -388.000
311.985;   83.200;  270.000;   93.000
312.122; -216.500; -932.000; -762.000
312.259; -229.300; -941.000; -994.000
312.396; -116.400; -508.000; -551.000
312.533; -139.200; -812.000; -790.000
312.670; -244.500;-1070.000; -898.000
312.807;  -60.600; -352.000; -367.000
312.944; -127.000; -513.000; -611.000
313.081;  -27.900; -150.000; -415.000
313.218; -186.300;-1111.000; -867.000
313.355;   40.200; -531.000; -449.000
313.492;   23.400; -455.000; -292.000
313.629;  292.800;  815.000;  735.000
313.766; -289.700;-1176.000;-1008.000
313.902;    2.400; -186.000;   21.000
314.039;  -68.400; -372.000; -289.000
314.176;   94.300;  286.000;  192.000
314.313; -125.300; -569.000; -473.000
314.450; -142.500; -788.000; -684.000
314.587;  -97.400; -468.000; -480.000
314.723;   25.000;  -78.000;  130.000
314.860;   99.800;  318.000;  332.000
314.997;   99.400;  223.000;  142.000
315.134;  -33.000; -385.000; -368.000
315.270;  -48.900; -480.000; -496.000
315.407; -232.100;-1094.000; -967.000
315.544;  -64.900; -657.000; -538.000
315.681; -128.500; -681.000; -565.000
315.817;   78.400; -133.000; -176.000
315.954;   15.500; -613.000; -392.000
316.091; -232.400;-1045.000;-1023.000
316.227;   -0.400;  -71.000; -179.000
316.364;   20.600;   23.000;    6.000
316.500;  -69.400; -113.000; -300.000
316.637;  -49.300; -181.000; -302.000
316.774; -182.400; -625.000; -358.000
316.910; -164.200; -598.000; -629.000
317.047; -109.700; -487.000; -351.000
317.183;  -95.000; -435.000; -566.000
317.320;    1.800; -367.000; -321.000
317.456; -123.300; -733.000; -805.000
317.593; -158.800; -598.000; -641.000
317.729;   50.300;  168.000;  -67.000
317.866; -399.200;-1434.000;-1285.000
318.002; -169.400; -708.000; -948.000
318.139; -179.900; -883.000; -867.000
318.275; -185.300;-1003.000; -738.000
318.412;  -88.400; -517.000; -336.000
318.548;  -90.100; -751.000; -720.000
318.685; -193.100; -985.000; -888.000
318.821; -150.700; -762.000; -735.000
318.957;   27.300;   34.000;  -23.000
319.094;   96.700;  297.000;  154.000
319.230; -125.900; -756.000; -742.000
319.367;  191.500; -471.000; -520.000
319.503;   88.700; -538.000; -436.000
319.639; -190.300; -877.000; -793.000
319.775; -123.500; -750.000; -685.000
319.912;  -69.400; -424.000; -519.000
320.048; -175.500;-1184.000;-1184.000
320.184;  166.200;   59.000;   70.000
320.321; -108.700; -497.000; -467.000
320.457;  173.600;  475.000;  662.000
320.593; -101.300; -375.000; -382.000
320.729; -193.700; -732.000; -734.000
320.866; -126.000; -577.000; -635.000
321.002; -165.800; -759.000; -809.000
321.138;  -12.900; -135.000; -211.000
321.274;  161.300; -148.000; -115.000
321.410;  -69.500; -585.000; -353.000
321.546;  -97.800;-1011.000; -911.000
321.683;  138.500;  400.000;  185.000
321.819;   12.900;  -48.000; -117.000
321.955; -197.300; -743.000; -722.000
322.091;  -72.600; -585.000; -540.000
322.227;   -3.700; -382.000; -202.000
322.363;   10.200; -320.000; -215.000
322.499;  -78.500; -343.000; -331.000
322.635;  323.400;  636.000;  443.000
322.771;   62.900; -139.000;   12.000
322.907;  215.900;  129.000;  327.000
323.043;  -30.500; -115.000; -206.000
323.179;  -48.500; -394.000; -363.000
323.315;    9.600; -401.000; -371.000
323.451;  123.900; -328.000; -236.000
323.587;  115.200;  -60.000;  -77.000
323.723;    4.400; -682.000; -601.000
323.859;  -21.900; -258.000;  -76.000
323.995;  -62.300; -467.000; -409.000
324.131; -232.300; -967.000; -892.000
324.267;  -57.100; -254.000; -276.000
324.402; -250.400; -960.000; -983.000
324.538;   23.500; -279.000; -104.000
324.674;   64.900;  164.000;   77.000
324.810;  238.000;  226.000;  308.000
324.946;   -9.600; -810.000; -658.000
325.082; -121.100; -568.000; -475.000
325.217;   15.300;  -62.000;   16.000
325.353; -189.300; -764.000; -659.000
325.489; -159.600; -540.000; -506.000
325.625; -111.700; -579.000; -525.000
325.760;  157.000;  517.000;  376.000
325.896;  -34.400; -515.000; -702.000
326.032;  -54.400; -403.000; -352.000
326.168;  -80.400; -462.000; -369.000
326.303; -101.600; -352.000; -461.000
326.439;   11.800; -336.000; -276.000
326.575;    6.600; -190.000;  -29.000
326.710;   34.400; -156.000;  -30.000
326.846;   29.700;  146.000;  103.000
326.982; -167.500; -530.000; -548.000
327.117; -131.200; -481.000; -442.000
327.253; -133.600; -745.000; -742.000
327.388; -244.000;-1137.000;-1153.000
327.524;  -69.400; -811.000; -578.000
327.659;  -31.500;  -58.000;  -22.000
327.795;    1.600;   69.000;   45.000
327.931; -125.400; -723.000; -499.000
328.066;  -13.200; -417.000; -276.000
328.202;   -4.200;   12.000; -129.000
328.337;  275.500;  957.000;  713.000
328.473;   17.000;  -12.000;  -74.000
328.608;  -16.400; -256.000; -267.000
328.743; -161.400; -799.000; -664.000
328.879;   84.200;  214.000;  114.000
329.014;  -95.400; -102.000; -122.000
329.150; -132.800; -358.000; -483.000
329.285;  -96.100; -465.000; -466.000
329.421;  -61.000; -548.000; -246.000
329.556;   -4.700;  -36.000;   85.000
329.691; -162.000; -633.000; -615.000
329.827; -151.200; -626.000; -480.000
329.962;  -52.500;  131.000; -301.000
330.097; -138.500; -673.000; -585.000
330.233;  -68.300; -410.000; -223.000
330.368; -206.400; -839.000; -628.000
330.503;   24.600;    3.000;   98.000
330.638;   70.000;  -93.000; -125.000
330.774;  -95.600; -609.000; -530.000
330.909;  -25.300; -434.000; -244.000
331.044; -155.100; -714.000; -708.000
331.179; -331.700;-1217.000;-1109.000
331.315;   68.500;   77.000;   20.000
331.450;   39.100;  157.000;  285.000
331.585; -164.600; -805.000; -706.000
331.720; -147.400; -510.000; -460.000
331.855;   23.000;  -35.000; -102.000
331.990;  467.100;   62.000;  138.000
332.126;  307.800; -110.000;   71.000
332.261;  -23.200; -379.000; -265.000
332.396;    7.800; -135.000; -242.000
332.531; -198.200;-1074.000;-1031.000
332.666;   67.700; -519.000; -363.000
332.801; -198.900; -726.000; -807.000
332.936;    5.800; -192.000; -122.000
333.071; -277.800; -870.000; -817.000
333.206;   42.900;  307.000;  379.000
333.341;  115.000;  344.000;  418.000
333.476; -162.500; -627.000; -623.000
333.611;  -59.400; -251.000; -173.000
333.746;  -80.400; -381.000; -464.000
333.881; -214.200; -973.000; -935.000
334.016; -231.100; -936.000; -917.000
334.151; -226.600; -746.000; -702.000
334.286;   95.600;  152.000;  186.000
334.421;   -8.300; -125.000; -178.000
334.556; -139.500; -611.000; -567.000
334.690; -140.400; -631.000; -577.000
334.825;  148.300;  381.000;   83.000
334.960;  -89.000; -285.000; -413.000
335.095;   22.000;  135.000;  -91.000
335.230; -190.100; -722.000; -738.000
335.365; -250.300;-1084.000; -990.000
335.499; -284.300;-1108.000;-1037.000
335.634;   83.300;    9.000;  534.000
335.769; -211.800; -755.000; -720.000
335.904;  -96.200; -603.000; -561.000
336.038; -104.800; -735.000; -657.000
336.173; -254.600;-1206.000;-1194.000
336.308;   23.300; -116.000; -189.000
336.443;   58.700; -544.000; -634.000
336.577; -171.600; -936.000; -787.000
336.712;  134.600;   -4.000;  -12.000
336.847; -109.200; -724.000; -607.000
336.981;  104.500; -272.000; -208.000
337.116;  483.900;  615.000;  501.000
337.250;  231.400; -434.000; -421.000
337.385;  459.100; -297.000; -208.000
337.520;  177.500; -632.000; -603.000
337.654;  -59.100; -215.000; -126.000
337.789; -229.600; -989.000; -933.000
337.923;  -34.600; -104.000; -205.000
338.058; -179.000; -673.000; -738.000
338.192;  -69.100; -611.000; -488.000
338.327;   16.500;  -18.000; -155.000
338.461; -113.800; -299.000; -469.000
338.596; -174.200; -780.000; -638.000
338.730; -195.600; -767.000; -803.000
338.865;  185.500;  -46.000; -140.000
338.999; -110.800; -846.000; -702.000
339.134;  -33.200; -634.000; -536.000
339.268;   31.400; -741.000; -603.000
339.403;  662.300; -740.000; -775.000
339.537;  227.100; -894.000; -820.000
339.671; -181.100; -829.000; -813.000
339.806; -103.400; -556.000; -512.000
339.940;   53.500; -261.000; -235.000
340.074; -185.000; -685.000; -510.000
340.209;  -29.200; -351.000; -230.000
340.343; -130.900; -517.000; -573.000
340.477;  353.000;  998.000; 1036.000
340.612; -122.600;-1033.000; -900.000
340.746;  253.100; -199.000; -243.000
340.880; -154.200; -924.000; -785.000
341.014;   13.900;  -45.000; -154.000
341.149; -197.600; -756.000; -718.000
341.283; -173.700; -839.000; -754.000
341.417; -217.900;-1124.000; -938.000
341.551;  177.300; -768.000; -708.000
341.685;  -56.800; -633.000; -611.000
341.820;  -71.300; -562.000; -493.000
341.954;  -63.500; -218.000; -349.000
342.088; -261.000;-1102.000;-1019.000
342.222;  129.800;  565.000;  618.000
342.356; -113.700; -395.000; -335.000
342.490; -165.400; -880.000; -841.000
342.624;  -91.700; -339.000; -242.000
342.758;    1.800; -364.000; -312.000
342.892; -119.200; -710.000; -585.000
343.026;  -56.800;  -58.000; -116.000
343.160;  -90.200; -426.000; -376.000
343.294; -139.500; -474.000; -337.000
343.428;  -54.000; -488.000; -448.000
343.562;    1.100; -172.000;  -23.000
343.696;  -31.600; -385.000; -314.000
343.830;    3.900; -362.000; -356.000
343.964;   32.500; -231.000; -168.000
344.098; 1395.800;  199.000;   70.000
344.232; 1204.700; -266.000; -127.000
344.366;  125.100; -567.000; -453.000
344.500;   92.300; -665.000; -744.000
344.634;   67.000; -324.000; -164.000
344.768;  -34.800; -531.000; -341.000
344.902;   63.500;  278.000;  256.000
345.035; -140.200; -556.000; -496.000
345.169; -251.000; -933.000; -656.000
345.303;  -42.000; -308.000; -482.000
345.437; -120.900; -826.000; -717.000
345.571; -126.500; -675.000; -594.000
345.704;  -88.600; -309.000; -532.000
345.838;   16.800; -331.000; -284.000
345.972;  -59.000; -543.000; -495.000
346.106;  306.000; -179.000; -190.000
346.239;  773.800; -312.000; -243.000
346.373;   14.200; -343.000; -302.000
346.507; -266.200; -950.000; -962.000
346.640;  225.100;  -30.000;   13.000
346.774; -113.200; -650.000; -797.000
346.908;    3.200; -138.000;  -11.000
347.041; -163.300; -646.000; -593.000
347.175;   71.600;  259.000;   27.000
347.309; -143.500; -698.000; -628.000
347.442; -176.100; -883.000; -732.000
347.576;  513.800;  670.000;  668.000
347.709;  346.500; -123.000;  -52.000
347.843; -168.900; -933.000; -825.000
347.976;  122.800;  235.000;  294.000
348.110; -336.900;-1268.000;-1186.000
348.243; -163.100; -679.000; -772.000
348.377;   47.000;  -26.000;   60.000
348.510;  171.100;  403.000;  540.000
348.644;  -53.500;  -37.000; -159.000
348.777;   53.300;  180.000;  191.000
348.911;  -51.800; -142.000; -112.000
349.044;  315.200;  471.000;  448.000
349.178;  182.100;-1069.000;-1006.000
349.311;  267.400;  141.000;  255.000
349.444;  -38.900; -927.000; -813.000
349.578;  -14.700; -347.000; -200.000
349.711; -207.300; -959.000; -862.000
349.845;   -8.600; -661.000; -591.000
349.978; -298.500;-1224.000;-1137.000
350.111; -117.600; -546.000; -612.000
350.244; -154.600; -596.000; -700.000
350.378;   18.000; -392.000; -393.000
350.511;  -90.100; -393.000; -426.000
350.644; -164.400; -808.000; -806.000
350.778;   61.700;  168.000;  104.000
350.911;   63.200;  134.000;  140.000
351.044; -166.500; -685.000; -615.000
351.177;  -29.600; -321.000; -281.000
351.310;  -14.900;    3.000; -131.000
351.444; -177.600; -888.000; -788.000
351.577;  216.100;  140.000;   90.000
351.710;  234.300;  593.000;  417.000
351.843;  -22.000; -165.000;  -77.000
351.976;   36.700;  149.000;  -79.000
352.109; -165.700; -621.000; -612.000
352.242;  -25.200; -464.000; -419.000
352.376; -140.200; -580.000; -636.000
352.509;  268.400; -437.000; -356.000
352.642;  -37.800; -654.000; -604.000
352.775;  125.900; -141.000;  -98.000
352.908; -223.900; -933.000; -904.000
353.041; -167.700; -814.000; -824.000
353.174; -100.100; -551.000; -424.000
353.307; -154.300; -753.000; -764.000
353.440;  203.400;  541.000;  453.000
353.573; -209.000; -957.000;-1008.000
353.706;  -96.400; -384.000; -558.000
353.839;  -26.100; -264.000; -220.000
353.971; -107.400; -657.000; -512.000
354.104; -155.100; -896.000; -835.000
354.237;  -62.600; -627.000; -662.000
354.370; -141.700; -846.000; -879.000
354.503; -344.400;-1231.000;-1308.000
354.636;  -43.200; -529.000; -348.000
354.769; -249.100; -937.000; -860.000
354.902;  -21.600; -230.000; -139.000
355.034;  -15.700; -164.000; -220.000
355.167;   29.600; -262.000; -162.000
355.300; -151.000;-1061.000; -880.000
355.433; 1873.300;  -71.000;  -14.000
355.565; 2812.300; -402.000; -384.000
355.698;  701.500; -356.000; -296.000
355.831;  -22.400; -882.000; -801.000
355.964;  142.300; -285.000; -170.000
356.096; -172.700; -856.000; -843.000
356.229;   12.800; -523.000; -530.000
356.362;  643.400; -373.000; -266.000
356.494; 1155.700; -229.000; -162.000
356.627;  823.000;  269.000;  377.000
356.760; 1254.500;  120.000;   53.000
356.892; 1814.700; -286.000; -601.000
357.025; 1091.300;  403.000;  389.000
357.157;  942.000; -167.000; -179.000
357.290; 1268.700; -856.000; -713.000
357.423;  354.600; -667.000; -556.000
357.555;  176.400; -217.000; -228.000
357.688;  186.900; -483.000; -364.000
357.820;  707.400; -870.000; -877.000
357.953; 5818.600; -563.000; -589.000
358.085; 1226.700; -632.000; -612.000
358.218; 1720.100;-1131.000; -932.000
358.350;  353.400;  -58.000;  312.000
358.483; -222.400;-1300.000;-1187.000
358.615;  -94.900;-1182.000;-1078.000
358.747; -141.200;-1187.000;-1058.000
358.880;   37.600; -810.000; -744.000
359.012;    9.700; -376.000; -202.000
359.145;  -40.600; -480.000; -511.000
359.277;   61.600; -962.000; -913.000
359.409; 4827.200;  536.000;  231.000
359.542; 1199.900; -738.000; -688.000
359.674;  149.500;   46.000;   13.000
359.806; -114.900; -565.000; -438.000
359.939;  -76.100; -617.000; -516.000
360.071;    8.000; -583.000; -579.000
360.203;  -11.600; -411.000; -364.000
360.335;  105.800;  164.000;  -16.000
360.468;  344.600; -249.000; -307.000
360.600; 3906.500; -547.000; -454.000
360.732; 5313.200; -546.000; -423.000
360.864;  687.500;-1216.000;-1044.000
360.996;  443.000; -516.000; -554.000
361.129;   98.200; -389.000; -598.000
361.261;   62.600;  110.000; -113.000
361.393;  -25.600; -252.000; -214.000
361.525;   94.600;   94.000;  244.000
361.657;  -55.300; -821.000; -703.000
361.789;   56.800; -139.000; -155.000
361.921;  355.900; -642.000; -593.000
362.053;  441.200;  524.000;  541.000
362.185;  131.300;  288.000;   72.000
362.318; -164.900; -709.000; -705.000
362.450;  233.800;  294.000;  444.000
362.582;   90.500; -913.000; -870.000
362.714;  -25.000; -353.000; -332.000
362.846; -119.000; -606.000; -490.000
362.978; -220.400; -941.000; -811.000
363.109;   90.900; -161.000; -260.000
363.241;  695.200; -739.000; -749.000
363.373;  798.400; -649.000; -564.000
363.505; 1313.400; -186.000;  -91.000
363.637;  292.600; -787.000; -601.000
363.769; -223.800;-1067.000;-1080.000
363.901; -104.300; -596.000; -654.000
364.033; -272.300;-1103.000;-1062.000
364.165;   50.300; -283.000; -283.000
364.296;  182.900; -316.000; -177.000
364.428;   99.000;-1344.000;-1220.000
364.560;  -90.200; -679.000; -661.000
364.692; -105.000; -738.000; -835.000
364.824;  412.200; -588.000; -456.000
364.955;  818.300; -402.000; -564.000
365.087; 1743.200;-1097.000; -852.000
365.219;   43.800; -686.000; -816.000
365.351; -108.100; -526.000; -572.000
365.482;  165.200;  300.000;  240.000
365.614;  -55.800; -402.000; -314.000
365.746; -160.400; -729.000; -752.000
365.877; -169.200; -706.000; -672.000
366.009;  531.900;  -35.000;  -62.000
366.141; -175.100;-1249.000;-1134.000
366.272; -180.600; -803.000; -719.000
366.404; -199.400;-1005.000; -874.000
366.535;   23.000; -139.000;  -12.000
366.667; -171.900; -644.000; -649.000
366.799;  136.300;  353.000;  203.000
366.930; -214.200; -862.000; -996.000
367.062;  231.100; -639.000; -613.000
367.193;  270.900; -872.000; -842.000
367.325;  -92.900; -580.000; -684.000
367.456;   86.200; -246.000;   31.000
367.588;  323.500; -371.000; -318.000
367.719;   97.700;  -44.000;  -45.000
367.851;   -4.100; -222.000; -241.000
367.982;  -82.700; -875.000; -732.000
368.113;  176.800; -475.000; -358.000
368.245; -223.500; -960.000; -841.000
368.376;  -11.200; -254.000; -302.000
368.508;  -39.900; -188.000; -263.000
368.639; -240.300;-1166.000;-1034.000
368.770;  -37.500; -670.000; -589.000
368.902; -155.700; -836.000; -926.000
369.033; -184.400; -906.000; -855.000
369.164;  -74.800; -720.000; -653.000
369.296; -199.200; -452.000; -601.000
369.427;   48.300; -209.000; -144.000
369.558;  -63.000; -593.000; -377.000
369.689; -117.700; -721.000; -569.000
369.821; -261.900; -951.000; -845.000
369.952;   31.800;   42.000; -108.000
370.083;  -22.100; -229.000; -108.000
370.214; -147.900; -735.000; -650.000
370.345;   78.200;   65.000;   81.000
370.477; -172.400; -810.000; -790.000
370.608;  339.900; -328.000; -264.000
370.739; -136.300;-1233.000;-1292.000
370.870; -113.500;-1102.000; -923.000
371.001;  176.100; -378.000; -467.000
371.132; -146.900; -754.000; -735.000
371.263;    8.700;  -42.000; -148.000
371.394; -191.800; -841.000; -748.000
371.525;   85.000;  345.000;  225.000
371.657; -155.600; -808.000; -670.000
371.788;  148.600;  103.000;  199.000
371.919;  297.000; -384.000; -304.000
372.050; 5831.700;  -91.000; -156.000
372.181; 1642.200; -188.000; -294.000
372.311;  643.300;   42.000; -127.000
372.442;   20.500; -457.000; -451.000
372.573;  -39.500; -444.000; -340.000
372.704; -214.300;-1008.000; -980.000
372.835;  157.800; -228.000; -289.000
372.966;  -96.100; -646.000; -554.000
373.097; -101.200; -575.000; -711.000
373.228;  -79.300; -717.000; -542.000
373.359;  191.500; -824.000; -536.000
373.490; 1450.500; -881.000; -727.000
373.620; 1766.900;-1001.000; -803.000
373.751; 2748.800; -332.000; -396.000
373.882; 1171.800; -663.000; -733.000
374.013;  100.100; -449.000; -262.000
374.143;  -83.000; -581.000; -659.000
374.274; -194.400; -987.000; -908.000
374.405;  294.500; -388.000; -276.000
374.536;  717.800; -526.000; -387.000
374.666; 1645.400; -759.000; -807.000
374.797;  317.100; -817.000; -868.000
374.928; 1342.300; -710.000; -560.000
375.058; 1370.700; -535.000; -500.000
375.189;  128.100;  -59.000;  -93.000
375.320; -187.100; -928.000;-1034.000
375.450;  -46.700; -625.000; -616.000
375.581;  -55.300; -526.000; -436.000
375.712;  -24.100; -574.000; -250.000
375.842;  489.700; -438.000; -415.000
375.973;  328.100; -554.000; -513.000
376.103;  -58.600; -665.000; -648.000
376.234; -127.000; -531.000; -552.000
376.364;  -85.400; -944.000; -867.000
376.495;  597.600;  925.000;  529.000
376.625;  -43.200; -472.000; -485.000
376.756;  100.500; -709.000; -678.000
376.886; -156.300;-1178.000;-1026.000
377.017;  145.600;-1048.000;-1061.000
377.147;  678.100; -786.000; -782.000
377.278;  171.200;  174.000;  228.000
377.408; -201.700; -801.000; -815.000
377.538; -158.200; -707.000; -693.000
377.669; -121.700; -537.000; -613.000
377.799; -153.700; -645.000; -635.000
377.929;  -70.800; -610.000; -428.000
378.060; -202.600; -781.000; -847.000
378.190;  -75.900; -726.000; -531.000
378.320;  -77.800; -401.000; -406.000
378.451;   20.700; -131.000;  -22.000
378.581;   21.000;  -67.000; -110.000
378.711;  309.500; 1035.000;  866.000
378.841;  -29.600; -533.000; -675.000
378.972; -159.000; -871.000; -751.000
379.102;   -5.700; -652.000; -579.000
379.232;   -2.000; -126.000;  -73.000
379.362; -209.600;-1001.000; -885.000
379.492;    6.700; -373.000; -424.000
379.623;  227.900;    0.000;  111.000
379.753; -164.200;-1107.000; -974.000
379.883;  366.800;   59.000;  156.000
380.013;  -50.300;-1081.000;-1017.000
380.143; -205.700;-1097.000;-1056.000
380.273; -189.600; -985.000; -861.000
380.403;    1.900; -344.000; -257.000
380.533;  -57.800; -651.000; -664.000
380.663;  166.200;  173.000;  128.000
380.793; -207.500;-1027.000;-1074.000
380.923;  -15.900; -103.000;  -34.000
381.053; -154.700; -613.000; -623.000
381.183;    3.600; -106.000; -248.000
381.313;   73.800; -656.000; -470.000
381.443;   87.300; -692.000; -473.000
381.573;  322.200; -402.000; -409.000
381.703;  327.300;-1249.000;-1095.000
381.833; -267.900;-1454.000;-1336.000
381.963;  193.600; -134.000;  -87.000
382.093; 2215.300; -925.000; -909.000
382.223;  648.000; -713.000; -602.000
382.353;  -42.500; -801.000; -608.000
382.482;  520.300;-1091.000; -964.000
382.612; 1186.300; -872.000; -644.000
382.742;  672.300; -695.000; -622.000
382.872;  398.100; -565.000; -551.000
383.002;  148.500;  347.000; -132.000
383.131;   24.700; -226.000; -160.000
383.261;  -81.600; -706.000; -768.000
383.391;  496.200; -552.000; -377.000
383.521; 6228.000;  451.000;  263.000
383.650; 1341.900; -947.000; -904.000
383.780;    2.100; -783.000; -656.000
383.910;  286.400;  880.000;  802.000
384.039;   18.700; -794.000; -656.000
384.169;  247.800;-1205.000;-1017.000
384.299;  -40.800; -650.000; -662.000
384.428; -146.300; -764.000; -680.000
384.558;  -36.900; -308.000; -275.000
384.687;  -47.700; -414.000; -334.000
384.817;   78.400;   75.000;   -2.000
384.947;   47.900; -234.000; -141.000
385.076;  578.300;  982.000;  912.000
385.206;  234.600;  369.000;  480.000
385.335;  -45.000; -549.000; -417.000
385.465; -122.400; -655.000; -663.000
385.594;  265.200;  -53.000;  -44.000
385.724;  607.100; -868.000; -838.000
385.853;  205.200; -296.000; -270.000
385.982; 2124.300; -743.000; -787.000
386.112; 3199.500;-1052.000; -871.000
386.241;  223.000; -307.000; -312.000
386.371;   53.100; -174.000;  -87.000
386.500;  -12.400; -825.000; -789.000
386.629;   67.700; -874.000; -817.000
386.759;  178.500;  -43.000;   68.000
386.888;   38.000; -170.000; -250.000
387.017; -105.200; -648.000; -620.000
387.147; -149.000; -771.000; -798.000
387.276;   -1.300; -410.000; -397.000
387.405;   41.300; -398.000; -342.000
387.535;  -24.200; -452.000; -361.000
387.664; -100.300; -692.000; -620.000
387.793;  145.500; -198.000; -113.000
387.922;  831.400;  255.000;  200.000
388.052;   28.500; -576.000; -423.000
388.181;   42.100; -342.000; -472.000
388.310;  -20.200; -889.000; -710.000
388.439;  -64.800; -749.000; -742.000
388.568;  349.800;  365.000;  244.000
388.697; 1607.200; -756.000; -653.000
388.826;  295.000; -768.000; -666.000
388.956;  105.600; -285.000; -307.000
389.085;  -74.700; -347.000; -287.000
389.214; -196.400; -842.000; -872.000
389.343;  -85.200; -645.000; -413.000
389.472;  848.300;  126.000;  149.000
389.601;  979.700;   91.000;    0.000
389.730;   -6.000; -568.000; -687.000
389.859;  152.400;  226.000;   46.000
389.988;  291.500; -423.000; -408.000
390.117;  239.800; -168.000; -146.000
390.246;   24.100; -331.000; -320.000
390.375;  147.300; -673.000; -626.000
390.504;  -86.800; -703.000; -621.000
390.633; -140.700; -672.000; -726.000
390.761; -128.000; -732.000; -645.000
390.890;   80.300;   -4.000; -130.000
391.019;  -34.200; -421.000; -441.000
391.148; -231.100; -826.000; -855.000
391.277;  -95.300; -576.000; -493.000
391.406; -160.200; -821.000; -805.000
391.534;  101.200;  574.000; -301.000
391.663;  -94.300; -583.000; -645.000
391.792; -116.000; -673.000; -701.000
391.921;  191.000;   -3.000;   15.000
392.050;  258.800; -287.000; -228.000
392.178; -120.700;-1206.000;-1061.000
392.307;  187.400; -758.000; -712.000
392.436;   93.400; -427.000; -641.000
392.564;   88.200;  166.000;   -6.000
392.693; -158.800; -860.000; -682.000
392.822;  337.000; -529.000; -534.000
392.950;  138.500; -880.000; -714.000
393.079;  538.700; -188.000; -328.000
393.208;   52.100; -488.000; -511.000
393.336;   34.400; -170.000; -145.000
393.465;  -45.900; -317.000; -199.000
393.593;   66.700;   62.000;   79.000
393.722; -285.600;-1121.000; -916.000
393.850;   21.500; -188.000;  -61.000
393.979; -268.600; -926.000; -805.000
394.107;  -98.000; -517.000; -537.000
394.236;  -51.500; -570.000; -507.000
394.364;  520.300;  383.000;  206.000
394.493;  728.300; -911.000; -767.000
394.621;  -14.600; -955.000; -916.000
394.750; 1398.100; -873.000; -923.000
394.878; 5781.100; -247.000; -149.000
395.007; 7400.200; -721.000; -807.000
395.135;  573.800; -790.000; -721.000
395.263; -145.100;-1038.000;-1040.000
395.392;   75.700;  -25.000; -107.000
395.520; -253.700; -818.000; -679.000
395.648; -153.600; -865.000; -915.000
395.777;   33.600; -366.000; -405.000
395.905; -104.900; -449.000; -564.000
396.033;   76.400;  217.000;  172.000
396.162; 1313.500; -399.000; -453.000
396.290; 1021.300;  -17.000;   -2.000
396.418;  155.800; -555.000; -514.000
396.546; -142.100; -571.000; -466.000
396.674; -185.400; -850.000; -878.000
396.803;   67.800;  -72.000;  -23.000
396.931;  185.800; -179.000; -199.000
397.059;   22.900;-1026.000; -989.000
397.187; -200.100;-1026.000; -975.000
397.315; -214.400; -884.000; -649.000
397.443; -114.500; -592.000; -443.000
397.572; -126.700; -578.000; -424.000
397.700;  -20.600; -607.000; -614.000
397.828;   44.300;  120.000;  -90.000
397.956;  -47.900; -508.000; -478.000
398.084; -113.700; -767.000; -626.000
398.212;  126.100;  137.000;  124.000
398.340;   84.600;  -56.000;  159.000
398.468;   23.300; -390.000; -169.000
398.596; -261.200; -993.000; -953.000
398.724; -187.600; -762.000; -767.000
398.852; -312.100;-1024.000; -976.000
398.980;  -78.100; -560.000; -560.000
399.108;  -92.100; -982.000; -735.000
399.236;   76.400;   13.000;    8.000
399.363;   60.700;  222.000;  196.000
399.491;  -67.700; -404.000; -398.000
399.619; -207.100; -829.000; -800.000
399.747; -163.500; -859.000; -771.000
399.875;  173.000;  220.000;  234.000
400.003;  -68.700; -359.000; -284.000
400.130; -141.100; -421.000; -341.000
400.258;    3.800;  -83.000;   38.000
400.386;  -74.300; -352.000; -168.000
400.514;  -52.200; -526.000; -587.000
400.641; -158.100; -928.000; -802.000
400.769; -240.200; -979.000; -888.000
400.897; -184.400; -838.000; -793.000
401.025;  -14.400; -166.000; -152.000
401.152;   20.400;  220.000;   38.000
401.280; -133.800; -430.000; -429.000
401.408; -176.200; -712.000; -576.000
401.535; -166.800; -735.000; -758.000
401.663; -352.900;-1134.000;-1054.000
401.790; -122.500; -514.000; -525.000
401.918;  163.400;  436.000;  405.000
402.046;   40.300;  134.000;  122.000
402.173;  -23.900;  -18.000;    7.000
402.301;  -92.600; -519.000; -397.000
402.428;  136.800;  528.000;  383.000
402.556; -271.200;-1188.000; -913.000
402.683;   32.800;  -20.000;   -1.000
402.811;   -8.400;  -37.000; -206.000
402.938;    9.100;   20.000;   27.000
403.066;  307.200; -574.000; -558.000
403.193;  494.500;  299.000;  239.000
403.321;  413.700; -396.000; -574.000
403.448;  525.000;   83.000;   27.000
403.575;  249.700;  -90.000;  -46.000
403.703; -140.700; -732.000; -557.000
403.830;  -94.900; -531.000; -496.000
403.957; -240.900;-1117.000;-1023.000
404.085;   97.000;  -61.000; -172.000
404.212;  245.500;  -50.000;   63.000
404.339;  559.200; -566.000; -306.000
404.467;11395.800; -612.000; -524.000
404.594; 6733.500; -287.000; -227.000
404.721; 1484.700; -869.000; -764.000
404.848;  178.200; -113.000; -202.000
404.976; -158.300; -856.000; -783.000
405.103;   39.000;  -14.000;  -82.000
405.230;   53.800;  190.000;  226.000
405.357;   81.700;  117.000;   44.000
405.484;  533.700;  -49.000;    5.000
405.612;  107.000; -548.000; -563.000
405.739;  -93.400; -488.000; -243.000
405.866;  223.400;  669.000;  385.000
405.993;  -27.600; -398.000; -102.000
406.120; -217.400; -801.000; -887.000
406.247;  -85.500; -323.000; -342.000
406.374;  798.000;  540.000;  629.000
406.501;  126.100; -632.000; -702.000
406.628; -114.500; -621.000; -589.000
406.755; -160.900; -803.000; -620.000
406.882;  -35.500; -228.000; -277.000
407.009; -162.500; -719.000; -628.000
407.136;  103.100; -480.000; -401.000
407.263;  202.700; -939.000; -829.000
407.390; -162.600; -692.000; -614.000
407.517; -300.800;-1139.000;-1187.000
407.644;  -51.400; -332.000; -256.000
407.771;  -98.100; -249.000; -287.000
407.898;   63.900;  168.000;  328.000
408.025;  -86.900; -421.000; -313.000
408.151;   25.200;   82.000;  153.000
408.278;  -60.400; -267.000; -216.000
408.405; -182.600; -931.000; -899.000
408.532; -116.400; -549.000; -542.000
408.659; -175.500; -677.000; -648.000
408.785; -353.300;-1298.000;-1170.000
408.912;  -77.800; -412.000; -296.000
409.039; -161.800; -610.000; -686.000
409.166; -152.400; -591.000; -555.000
409.292; -150.400; -571.000; -534.000
409.419; -203.200; -665.000; -649.000
409.546; -120.400; -431.000; -192.000
409.672; -148.000; -713.000; -545.000
409.799;   11.700;  -36.000;   34.000
409.926;  -55.800; -180.000; -179.000
410.052; -317.900;-1127.000;-1091.000
410.179;  -86.900; -368.000; -392.000
410.305; -105.600; -375.000; -493.000
410.432;  -61.300; -220.000; -333.000
410.558; -122.600; -305.000; -380.000
410.685; -178.300; -688.000; -431.000
410.812; -167.600; -409.000; -588.000
410.938; -243.700; -964.000; -808.000
411.065; -140.600; -671.000; -645.000
411.191;  -18.300; -189.000; -174.000
411.317; -191.700; -823.000; -742.000
411.444;  -66.300; -317.000; -246.000
411.570;  -79.200; -339.000; -294.000
411.697; -214.400; -758.000; -752.000
411.823; -308.400; -989.000; -999.000
411.949;   11.500;  -56.000;   17.000
412.076; -190.700; -539.000; -519.000
412.202; -193.800; -758.000; -757.000
412.329; -204.900; -798.000; -752.000
412.455; -195.600; -821.000; -657.000
412.581;    6.600;  -15.000;  172.000
412.707;  -95.600; -540.000; -457.000
412.834;   97.800;  156.000;  219.000
412.960; -150.600; -785.000; -784.000
413.086; -144.300; -743.000; -701.000
413.212;  314.000;  604.000;  578.000
413.339; -121.600; -685.000; -701.000
413.465;   26.900; -364.000; -310.000
413.591; -173.200; -757.000; -474.000
413.717;  -51.700; -358.000; -366.000
413.843; -235.000; -839.000; -861.000
413.969;  -44.300;  -47.000; -292.000
414.096; -144.500; -679.000; -679.000
414.222;   37.700;  -33.000;   85.000
414.348;  -53.600; -652.000; -385.000
414.474;  213.500;   38.000;  -52.000
414.600;   32.000; -126.000; -144.000
414.726;   13.900;  -96.000;  -55.000
414.852;  -79.600; -365.000; -342.000
414.978;  119.600;  104.000;  -18.000
415.104;  108.300;   38.000;   80.000
415.230;   70.100; -329.000; -330.000
415.356;  118.900; -409.000; -514.000
415.482;  424.100;   13.000;  -35.000
415.608;  570.500; -247.000; -323.000
415.734; 1963.200;   67.000;   38.000
415.860;39738.600; -875.000; -767.000
415.986;26154.000; -685.000; -607.000
416.111; 2121.100; -798.000; -652.000
416.237;  525.200; -424.000; -571.000
416.363; 2394.100; -765.000; -733.000
416.489; 7986.500; -324.000; -251.000
416.615;  820.600; -707.000; -742.000
416.741;  -18.100; -677.000; -784.000
416.866; -135.500; -673.000; -736.000
416.992; -208.300; -801.000; -818.000
417.118;   18.600;  -41.000;  -80.000
417.244; -109.000; -798.000; -531.000
417.369;  -98.800; -801.000; -612.000
417.495;   24.700; -325.000; -254.000
417.621; -127.800;-1015.000; -803.000
417.746;   17.800; -579.000; -572.000
417.872;  131.500; -254.000; -144.000
417.998;  131.500; -515.000; -530.000
418.123; 2229.400;-1073.000; -845.000
418.249;10371.000; -512.000; -601.000
418.374; 1336.300; -916.000; -824.000
418.500;  173.500; -383.000; -482.000
418.626;  285.200;   70.000;  -59.000
418.751;  270.900; -549.000; -448.000
418.877;  425.400; -637.000; -643.000
419.002; 3948.200; -688.000; -560.000
419.128;24384.800; -930.000; -721.000
419.253; 5333.200; -967.000; -837.000
419.379;  749.300; -391.000; -338.000
419.504;  813.400;  325.000;  415.000
419.629; 1041.300; -393.000; -212.000
419.755; 7531.100; -317.000; -254.000
419.880;40259.400;  -98.000;   67.000
420.006;22655.900; -280.000; -221.000
420.131;54533.800; -662.000; -775.000
420.256; 7111.100; -315.000; -316.000
420.382; 1009.300; -665.000; -687.000
420.507;  144.600; -649.000; -778.000
420.632;  225.100; -337.000; -339.000
420.758;  366.700; -251.000; -425.000
420.883; -135.700; -876.000; -672.000
421.008; -140.300; -775.000; -619.000
421.133;  -97.100; -509.000; -467.000
421.259;  -58.100; -325.000; -259.000
421.384; -195.500; -834.000; -693.000
421.509;  -98.400;-1052.000; -862.000
421.634; 1729.000; -936.000; -820.000
421.759;  656.400; -359.000; -327.000
421.885; -104.800; -717.000; -656.000
422.010; -107.200; -673.000; -542.000
422.135; -216.200; -695.000; -727.000
422.260;  141.600;  340.000;  280.000
422.385;   -7.800;   12.000;  -98.000
422.510;   74.200;  151.000;  -26.000
422.635;   85.700;  -87.000;  -43.000
422.760;  202.800; -766.000; -791.000
422.885;  162.400;  -57.000;  -80.000
423.010;   13.700; -112.000; -169.000
423.135; -138.500; -481.000; -561.000
423.260;    9.200; -150.000; -245.000
423.385;  164.100;  476.000;  222.000
423.510;   85.400;   71.000;  -22.000
423.635;  139.400;  133.000;   45.000
423.760;  181.800;  383.000;  328.000
423.885;  153.300;  336.000;  391.000
424.010;   85.800;  -68.000;  -13.000
424.135;   14.700;    5.000;  -33.000
424.259; -116.100; -654.000; -457.000
424.384;  -63.000; -279.000; -272.000
424.509;   -8.300; -260.000; -186.000
424.634; -149.300; -761.000; -623.000
424.759;  -18.200; -688.000; -544.000
424.883;   13.100; -506.000; -527.000
425.008;  394.200; -502.000; -410.000
425.133; 3991.500; -679.000; -653.000
425.258; 1645.600; -517.000; -381.000
425.382; 1743.600; -867.000; -774.000
425.507; 3897.000; -487.000; -543.000
425.632;  670.100; -802.000; -663.000
425.756;  899.600; -256.000; -146.000
425.881;13786.800; -831.000; -857.000
426.006;33412.600; -604.000; -355.000
426.130; 4690.900; -696.000; -508.000
426.255;  684.500; -611.000; -491.000
426.379;  371.700; -189.000; -577.000
426.504;  838.500;  660.000;  544.000
426.629; 8075.600; -519.000; -466.000
426.753; 5005.800;   64.000;  -46.000
426.878;  608.000; -252.000; -288.000
427.002;  278.800; -651.000; -668.000
427.127; 3347.500;  -35.000; -158.000
427.251;22205.200;  372.000;  401.000
427.375; 5482.900; -191.000; -173.000
427.500; 3656.000; -616.000; -610.000
427.624; 1131.500; -234.000; -400.000
427.749;  165.900; -216.000; -225.000
427.873;  -54.400; -499.000; -412.000
427.997;  -39.100; -222.000; -230.000
428.122;  201.900;  795.000;  703.000
428.246;  173.300;  433.000;  434.000
428.371; -198.000; -869.000; -773.000
428.495; -134.000; -624.000; -646.000
428.619;  -15.500; -186.000; -117.000
428.743;  104.300;   65.000;  132.000
428.868;   28.400; -732.000; -643.000
428.992; 2226.500; -219.000; -326.000
429.116;  816.400; -329.000; -357.000
429.240;  446.800;  419.000;  426.000
429.365;    5.200; -454.000; -574.000
429.489;  -59.100; -638.000; -647.000
429.613;  102.000; -236.000; -177.000
429.737;   96.600; -563.000; -432.000
429.861;  594.000; -247.000; -133.000
429.985;11379.000; -425.000; -305.000
430.109;11249.400; -770.000; -908.000
430.234; 1279.700;   76.000;  -50.000
430.358;  179.800; -250.000; -160.000
430.482;  -65.800; -672.000; -564.000
430.606;  -72.100; -655.000; -375.000
430.730;   80.000; -437.000; -388.000
430.854;  151.500; -909.000; -835.000
430.978; -109.700; -795.000; -764.000
431.102; -118.600; -499.000; -422.000
431.226; -178.700; -874.000; -815.000
431.350;  108.300;  345.000;  422.000
431.474;  -93.100; -661.000; -373.000
431.597; -289.700;-1060.000; -848.000
431.721;  -98.600; -276.000; -267.000
431.845; -225.200; -704.000; -472.000
431.969; -102.600; -304.000; -349.000
432.093; -141.600; -395.000; -317.000
432.217;   39.100;   32.000;   82.000
432.341; -113.100; -523.000; -518.000
432.464;   47.400;   96.000;   40.000
432.588;  373.800; -401.000; -329.000
432.712;  188.800;  -52.000;  -52.000
432.836;  157.300;  213.000;  263.000
432.959;   12.100; -372.000; -311.000
433.083;  222.100;   11.000;    2.000
433.207;  849.200;  285.000;  930.000
433.330;10403.900; -391.000; -200.000
433.454;11601.800; -654.000; -638.000
433.578; 6793.200;  583.000;  278.000
433.701; 1115.200; -623.000; -675.000
433.825;  218.700; -292.000; -299.000
433.949;  268.200;   28.000;  -72.000
434.072;  104.500; -410.000; -323.000
434.196;   12.300; -309.000; -117.000
434.319; 7875.700;25482.000;25124.000
434.443; 1448.900; -656.000; -603.000
434.566; 5008.200;  281.000;   62.000
434.690;  756.100; -637.000; -383.000
434.813;  110.500; -251.000; -173.000
434.937;  -96.700; -569.000; -696.000
435.060;  -49.000; -423.000; -332.000
435.184;  429.400; -492.000; -217.000
435.307;  247.000;  159.000;  102.000
435.431;   58.300;  -40.000;   24.000
435.554;  -81.800; -399.000; -240.000
435.677;  -94.500; -350.000; -258.000
435.801;  -42.200;  -25.000;   49.000
435.924;   -9.900;    1.000;  -67.000
436.048; -211.900;-1019.000; -732.000
436.171;  -96.500; -240.000;  -66.000
436.294;   -4.700; -248.000; -229.000
436.417;  219.100; -963.000; -849.000
436.541; -153.600; -814.000; -840.000
436.664;  -55.000; -242.000; -316.000
436.787;   25.400;   13.000;  113.000
436.910; -163.400; -792.000; -422.000
437.034;   92.000;  142.000;  143.000
437.157;  124.800;  -11.000;    0.000
437.280;  -91.800; -392.000; -292.000
437.403; -209.200; -982.000; -869.000
437.526;  895.300; -903.000; -865.000
437.649; 3132.500; -505.000; -332.000
437.772;  348.600; -692.000; -540.000
437.896;  260.300;  700.000;  544.000
438.019; -161.200; -758.000; -503.000
438.142; -124.500; -596.000; -506.000
438.265;   -1.700; -639.000; -670.000
438.388;  904.300; -520.000; -410.000
438.511;   72.400; -597.000; -394.000
438.634;  -79.900; -247.000; -125.000
438.757; -206.500; -693.000; -619.000
438.880;  -46.700;  -34.000;  -57.000
439.003; -117.500; -417.000; -437.000
439.126;  -73.000; -287.000; -167.000
439.248;  -67.800;  -98.000; -139.000
439.371;  -23.700;    9.000;  -53.000
439.494;  105.000;  510.000;  439.000
439.617;  -60.000;   65.000;  -88.000
439.740; -305.500; -968.000; -816.000
439.863; -259.400; -755.000; -595.000
439.986; -193.700; -476.000; -431.000
440.108;  -36.600; -161.000; -112.000
440.231; -278.400; -950.000; -836.000
440.354;  -52.300;  -64.000; -150.000
440.477;   61.300; -566.000; -542.000
440.599;   41.600; -200.000; -225.000
440.722; -203.000; -709.000; -586.000
440.845;  215.100;  751.000;  928.000
440.968; -170.500; -415.000; -311.000
441.090;  -91.300; -199.000;  -33.000
441.213; -304.400;-1021.000; -825.000
441.336;  -56.200; -159.000;   -5.000
441.458; -101.300; -549.000; -396.000
441.581; -136.900; -628.000; -629.000
441.703;  -51.900; -152.000;   13.000
441.826; -165.900; -557.000; -400.000
441.948;  -19.800;   56.000;   51.000
442.071;  104.600;  555.000;  424.000
442.193; -195.900; -531.000; -485.000
442.316;  111.400;  152.000;   97.000
442.438;  131.700; -233.000;  -10.000
442.561;  186.400;  272.000;  262.000
442.683;  831.800; -809.000; -522.000
442.806; 1610.700;   -8.000;   74.000
442.928;  -46.700; -859.000; -604.000
443.051;  -92.200; -577.000; -373.000
443.173; -116.600; -341.000; -339.000
443.295; -123.200; -263.000; -371.000
443.418;  -99.400; -321.000;  -29.000
443.540;   57.800; -106.000;   -4.000
443.662; -150.000; -563.000; -465.000
443.785;   56.300;  335.000;  199.000
443.907; -164.200; -362.000; -208.000
444.029; -221.500; -767.000; -494.000
444.152; -229.500; -644.000; -554.000
444.274;    2.100;  -18.000;  -24.000
444.396; -166.200; -461.000; -221.000
444.518; -209.000; -691.000; -454.000
444.640; -150.400; -268.000; -111.000
444.763;   51.500;  388.000;  249.000
444.885; -191.700; -432.000; -392.000
445.007;    3.800;   35.000;   86.000
445.129; -165.800; -610.000; -515.000
445.251; -143.900; -372.000; -439.000
445.373; -240.700; -537.000; -386.000
445.495;   72.800;  242.000;  350.000
445.617;  163.200;  853.000;  753.000
445.739;  -63.600; -215.000;  -97.000
445.861;  -23.200; -245.000; -112.000
445.984;  -33.100; -267.000; -101.000
446.105;  350.900; -418.000; -251.000
446.227;  915.800; -176.000;  -19.000
446.349;  -58.500; -358.000; -249.000
446.471; -136.300; -615.000; -448.000
446.593;  -89.100; -316.000;   19.000
446.715;   23.300;  -67.000;   41.000
446.837;  198.300;  697.000;  832.000
446.959; -150.300; -457.000; -478.000
447.081; -225.800; -628.000; -518.000
447.203;  172.700;  862.000;  834.000
447.325; -104.600; -270.000;   42.000
447.446;   64.100;  286.000;  530.000
447.568; -265.000; -921.000; -803.000
447.690; -102.800; -236.000; -245.000
447.812; -230.200; -798.000; -519.000
447.933;   15.200;  155.000;  127.000
448.055;  -42.600; -306.000; -261.000
448.177;  253.600;   31.000;   79.000
448.299;   50.000; -935.000; -727.000
448.420;   97.500;  -25.000;  159.000
448.542;  -37.300;   -3.000;   33.000
448.664;   -3.100;  109.000;  322.000
448.785;  -27.200;  265.000;   83.000
448.907; -139.600; -614.000; -353.000
449.028;  -36.700; -771.000; -471.000
449.150;  190.800;  492.000;  589.000
449.272; -311.600;-1044.000; -913.000
449.393;  102.200;  612.000;  694.000
449.515; -254.500; -634.000; -581.000
449.636;  -72.800; -264.000; -155.000
449.758;  189.400;  763.000;  622.000
449.879; -116.400; -498.000; -396.000
450.001;  -82.200; -149.000;  -49.000
450.122;    3.100;  -95.000;  162.000
450.244;   40.200;   37.000;  364.000
450.365; -121.800; -495.000; -301.000
450.486;  -15.000;   80.000;  268.000
450.608;  118.400;  393.000;  326.000
450.729;  200.100;  578.000;  645.000
450.850;   66.400; -574.000; -466.000
450.972; 1671.500; -552.000; -389.000
451.093; 9774.700;  190.000;  588.000
451.214; 3802.600; -516.000; -337.000
451.336;  678.700;  773.000;  579.000
451.457;  168.000;  264.000;  393.000
451.578;   -4.100; -118.000;  -74.000
451.699; -199.100; -546.000; -540.000
451.821;  -89.800; -284.000;  -50.000
451.942;   47.900;  278.000;  285.000
452.063;  140.900;  228.000;  419.000
452.184; 1252.600;  -54.000;  -49.000
452.305; 2145.600;  103.000;  170.000
452.427;  212.700; -549.000; -301.000
452.548;   28.700;   23.000;   79.000
452.669;  -25.700; -257.000;  -89.000
452.790;  -22.900;    3.000;  -18.000
452.911;   49.700;  195.000;  259.000
453.032; -111.800; -289.000;  -60.000
453.153;  -27.800;  -29.000;   81.000
453.274;  196.000;  737.000;  868.000
453.395;  -46.200;  -51.000;  175.000
453.516;  275.800; 1317.000; 1388.000
453.637;  -80.600; -205.000; -150.000
453.758;  -62.800;   15.000;   69.000
453.879; -176.100; -462.000; -250.000
454.000;  223.200; 1086.000;  948.000
454.121; -179.000; -554.000; -326.000
454.242; -187.100; -599.000; -383.000
454.362;  -19.300;  -99.000;  114.000
454.483;  -15.200; -309.000; -229.000
454.604;  139.100;  512.000;  580.000
454.725; -192.400; -627.000; -555.000
454.846; -154.500; -474.000; -406.000
454.967;   -8.700;  230.000;  539.000
455.087;  -22.500;  179.000;  153.000
455.208;  117.700;  554.000;  856.000
455.329;  -54.400;  -22.000;   82.000
455.450;  146.200;  473.000;  633.000
455.570;  -88.700; -234.000; -211.000
455.691;  -24.500;  201.000;  407.000
455.812; -117.600; -270.000;  -92.000
455.932;  -39.700;  107.000;  -97.000
456.053;  -74.900;   36.000;   24.000
456.173; -179.000; -433.000; -355.000
456.294; -193.700; -476.000; -303.000
456.415;  -73.800;  -73.000;   70.000
456.535;   -0.800;  297.000;  273.000
456.656;  -18.200;  132.000;  240.000
456.776;  -80.700;    3.000;  298.000
456.897;   54.600;  308.000;  513.000
457.017;  -92.600; -153.000;   -3.000
457.138; -163.000; -402.000; -249.000
457.258;   -7.900;  263.000;  224.000
457.379;   42.500;  509.000;  521.000
457.499;   -1.200;  443.000;  432.000
457.620; -214.000; -407.000; -231.000
457.740; -126.200; -132.000;  -11.000
457.860;  -40.400;   87.000;   44.000
457.981;  -32.800;  132.000;  124.000
458.101; -119.900;  -89.000;   40.000
458.221;   41.100;  336.000;  402.000
458.342;  -57.900;   -4.000;  -37.000
458.462;  111.900;  617.000;  352.000
458.582;  -42.000; -302.000; -294.000
458.703;   88.700;  303.000;  154.000
458.823;  -10.000;   22.000;  163.000
458.943;  118.500;  341.000;  467.000
459.063;   -0.900; 1124.000;  192.000
459.183;   32.900;  328.000;  313.000
459.304;   91.500;  315.000;  517.000
459.424;  -51.200; -246.000;  -89.000
459.544;  756.600;  388.000;  764.000
459.664; 1659.900;  499.000;  506.000
459.784;  622.300; 1004.000; 1175.000
459.904;  154.400;  867.000;  744.000
460.024;  196.500;  867.000;  684.000
460.144;   80.300;  449.000;  554.000
460.264;   44.900;  515.000;  327.000
460.385; -140.000; -145.000; -119.000
460.505;  158.600;  905.000;  858.000
460.625; -124.100;  -17.000;  -68.000
460.745;   33.700;  396.000;  541.000
460.864;  -28.400;  153.000;  469.000
460.984;   46.500;  499.000;  573.000
461.104;  330.900; 1656.000; 1775.000
461.224;  103.300;  657.000;  650.000
461.344;  -12.700;  431.000;  360.000
461.464;   -8.500;  258.000;  513.000
461.584;   21.800;  283.000;  466.000
461.704;  -71.000;   58.000;  108.000
461.824;  -82.200;  238.000;  259.000
461.943;  -55.400;  191.000;  130.000
462.063;  -80.400;    2.000;  324.000
462.183;  120.700;  639.000;  717.000
462.303;  269.500; 1678.000; 1230.000
462.422;  141.300;  781.000;  840.000
462.542;   -7.700;  271.000;  391.000
462.662;  117.600;  353.000;  380.000
462.782;  564.500;  833.000;  572.000
462.901;  977.100;  545.000;  717.000
463.021;  570.400; 1702.000; 1638.000
463.141;   55.100;  337.000;  770.000
463.260;    3.700;  614.000;  474.000
463.380;  101.900;  902.000;  884.000
463.499;   -5.900;  342.000;  332.000
463.619;  -18.200;  581.000;  559.000
463.738;  270.700; 1644.000;  903.000
463.858;   95.500;  657.000;  811.000
463.978;   -0.900;  542.000;  396.000
464.097;  165.600;  921.000; 1114.000
464.217;  332.000; 1196.000; 1143.000
464.336;  289.100; 1068.000; 1130.000
464.455;    9.600;  328.000;  659.000
464.575;  110.000;  597.000;  602.000
464.694;  376.700; 1204.000; 1179.000
464.814;  313.100; 1190.000; 1138.000
464.933;  222.800; 1095.000; 1027.000
465.052;  304.900; 1412.000; 1054.000
465.172;  214.500;  922.000;  799.000
465.291;  308.500; 1376.000; 1320.000
465.410;   80.700;  462.000;  735.000
465.530;  265.400; 1355.000; 1310.000
465.649;  215.500; 1209.000; 1273.000
465.768;  339.400; 1673.000; 1508.000
465.888;  141.900;  941.000; 1174.000
466.007;  253.700; 1335.000; 1440.000
466.126;   81.700;  721.000;  641.000
466.245;  179.100; 1176.000; 1187.000
466.364;  114.500;  950.000; 1060.000
466.484;  166.000; 1024.000; 1213.000
466.603;  139.800; 1101.000; 1222.000
466.722;  316.100; 1490.000; 1769.000
466.841;  242.800; 1151.000; 1401.000
466.960;  121.000; 1069.000;  972.000
467.079;  354.100; 1971.000; 1786.000
467.198;  186.400; 1238.000; 1181.000
467.317;  299.900; 1768.000; 1162.000
467.436;  185.700; 1709.000; 1261.000
467.555;  349.100; 1796.000; 1746.000
467.674;  227.200; 1227.000; 1329.000
467.793;  170.500; 1376.000; 1374.000
467.912;  247.300; 1658.000; 1539.000
468.031;  317.700; 2038.000; 1930.000
468.150;  352.500; 1842.000; 1837.000
468.269;  465.500; 2313.000; 2090.000
468.388;  451.900; 2168.000; 2339.000
468.507;  585.200; 2884.000; 2903.000
468.626;  644.000; 2555.000; 2541.000
468.744;  356.200; 2018.000; 2174.000
468.863;  486.600; 2312.000; 2523.000
468.982;  245.300; 1503.000; 1555.000
469.101;  538.100; 2788.000; 2692.000
469.220;  378.000; 2333.000; 2176.000
469.338;  599.000; 2935.000; 3051.000
469.457;  464.100; 2719.000; 2545.000
469.576;  800.400; 3953.000; 3784.000
469.695;  552.100; 2877.000; 3066.000
469.813;  918.600; 4148.000; 4192.000
469.932;  891.600; 4255.000; 4485.000
470.051;  896.400; 4075.000; 4161.000
470.169; 1851.000; 4470.000; 4338.000
470.288; 3023.100; 4700.000; 4809.000
470.406; 1691.700; 5059.000; 5194.000
470.525; 1349.400; 6101.000; 5787.000
470.644; 1410.200; 6847.000; 6794.000
470.762; 1783.800; 8397.000; 7873.000
470.881; 1851.100; 8651.000; 8464.000
470.999; 2112.200; 9685.000; 9151.000
471.118; 2326.400;11174.000;10711.000

