
Integration time [ms]: 100.000
Averaging Nr. [scans]: 40
Smoothing Nr. [pixels]: 0
Data measured with spectrometer [name]: 2101012U2
Wave   ;Sample   ;Dark     ;Reference
[nm]   ;[counts] ;[counts] ;[counts] 

197.733;   49.800;  516.000;  404.000
197.879;  -80.500; -610.000; -634.000
198.025;  -46.700; -475.000; -420.000
198.171;  -68.300; -602.000; -612.000
198.317;  -27.900; -401.000; -316.000
198.463;  -71.400; -655.000; -404.000
198.609;   28.150;  181.000; -137.000
198.755;  -84.600; -644.000; -410.000
198.901;  -71.600; -505.000; -424.000
199.047;  -70.650; -615.000; -488.000
199.193;  -50.650; -230.000; -468.000
199.339;  -36.525; -222.000; -369.000
199.485;   34.725;  330.000;  271.000
199.631;   12.025;  227.000;  310.000
199.777;  -50.475; -466.000; -398.000
199.923;  -65.225; -610.000; -424.000
200.069;  -12.800; -141.000;  -58.000
200.215;   64.125;  128.000;  453.000
200.361;   40.425;  243.000;  477.000
200.507;  -60.825; -600.000; -373.000
200.653;  -38.450; -371.000; -194.000
200.798;  -40.250; -215.000; -125.000
200.944;   -9.850; -146.000;  -41.000
201.090;   37.550;   61.000;  222.000
201.236;   -7.450; -116.000; -158.000
201.382;  122.800;  874.000;  903.000
201.528;   -3.750;  -58.000;  -48.000
201.674;  -43.450; -386.000; -293.000
201.819;  -77.500; -540.000; -439.000
201.965;  -87.750; -699.000; -447.000
202.111;  -34.450; -273.000; -226.000
202.257;  -40.400; -250.000; -238.000
202.402;   -2.650;   13.000;  -36.000
202.548;  -25.375; -169.000; -116.000
202.694;   76.925;  410.000; -183.000
202.840;  -77.725; -603.000; -531.000
202.985;  -82.850; -681.000; -639.000
203.131;  -95.700; -832.000; -666.000
203.277;  -39.275; -199.000; -262.000
203.423;  -55.850; -434.000; -520.000
203.568;  -50.050; -462.000; -237.000
203.714;  -70.025; -535.000; -542.000
203.860;  -88.575; -682.000; -641.000
204.005;   17.275;  112.000;  167.000
204.151;   78.525;  561.000;  556.000
204.296;  -42.000; -354.000; -221.000
204.442;  -84.150; -600.000; -547.000
204.588;  -71.900; -592.000; -579.000
204.733;   26.350;  178.000;  168.000
204.879; -127.400;-1018.000; -822.000
205.025;    5.150;  -99.000;  126.000
205.170;    1.000;  -17.000;   94.000
205.316;   74.650;  438.000;  661.000
205.461;  -90.000; -698.000; -554.000
205.607;   78.600;  609.000;  665.000
205.752;  -77.425; -626.000; -551.000
205.898;  -54.625; -501.000; -391.000
206.043;  -56.325; -578.000; -506.000
206.189;  -53.475; -243.000; -285.000
206.334;   83.025;  554.000;  606.000
206.480;   82.150;  409.000;  239.000
206.625;  -79.800; -529.000; -552.000
206.771;  -56.350; -451.000; -373.000
206.916;  -20.600; -210.000; -537.000
207.062;  -84.875; -545.000; -591.000
207.207;  -64.075; -546.000; -443.000
207.353;   54.650;  185.000;  460.000
207.498;   13.525;  196.000;   85.000
207.643;  -45.675; -501.000; -370.000
207.789; -135.225;-1069.000; -910.000
207.934;  -96.950; -665.000; -713.000
208.080;  -16.250; -154.000;   66.000
208.225;   -0.850;  -22.000;  -57.000
208.370;  -93.850; -727.000; -619.000
208.516;  -73.200; -741.000; -487.000
208.661;  -26.350; -127.000;  -69.000
208.806;  -33.800; -165.000; -171.000
208.952; -123.725;-1044.000; -731.000
209.097;   77.825;  378.000;  349.000
209.242;  -45.775; -307.000; -382.000
209.387;   65.350;  392.000;  350.000
209.533;  -58.100; -321.000; -350.000
209.678;   68.375;  472.000;  543.000
209.823;  -60.475; -408.000; -310.000
209.969; -104.475; -860.000; -757.000
210.114; -108.100; -907.000; -719.000
210.259; -119.925; -939.000; -889.000
210.404;  -14.775; -171.000;  103.000
210.549;    1.750;  108.000;    3.000
210.695;  -31.450;   -3.000;  -95.000
210.840;   39.200;   94.000;   67.000
210.985;  -66.275; -484.000; -303.000
211.130;   56.375;  268.000;  406.000
211.275;   23.525;  207.000;  199.000
211.420;  -46.875; -300.000; -289.000
211.566;  -73.550; -536.000; -489.000
211.711;    6.450;  218.000;  157.000
211.856;  -64.300; -545.000; -519.000
212.001;   11.150;  151.000;   44.000
212.146;   16.825;  153.000;   49.000
212.291;  -31.925; -210.000; -186.000
212.436;  -32.575; -280.000;   -6.000
212.581;  -89.725; -685.000; -653.000
212.726;  -93.325; -487.000; -538.000
212.871;  -53.900; -552.000; -217.000
213.016; -150.725;-1172.000;-1029.000
213.161;   52.175;  406.000;  291.000
213.306;  -75.125; -435.000; -577.000
213.451;  -93.700; -778.000; -689.000
213.596;  -43.700; -455.000; -347.000
213.741;  -73.850; -448.000; -538.000
213.886;  -73.575; -498.000; -517.000
214.031;  -31.275; -294.000; -124.000
214.176;  -62.875; -408.000; -341.000
214.321;  -16.575; -296.000; -157.000
214.466;  -19.575; -163.000;  -43.000
214.611;   -9.200;  -61.000;  -10.000
214.756; -125.375; -948.000; -858.000
214.901;  -38.475; -388.000; -226.000
215.046; -120.775; -797.000; -825.000
215.191;    7.650;  128.000;   35.000
215.336;  -14.775; -157.000;  -19.000
215.480;  -72.425; -684.000; -505.000
215.625;  -11.325; -175.000;  -19.000
215.770;  -96.200; -757.000; -662.000
215.915;   -0.150;   -5.000;  -97.000
216.060;   11.025; -113.000;  -21.000
216.205; -125.500; -731.000; -779.000
216.349;  -77.500; -470.000; -533.000
216.494; -130.425; -939.000; -867.000
216.639; -125.525; -823.000; -888.000
216.784;  -82.625; -577.000; -525.000
216.929;   52.725;  392.000;  281.000
217.073;   -6.025; -244.000;  -31.000
217.218;   11.825;   78.000;  -47.000
217.363;  -91.225; -656.000; -618.000
217.507;  -81.700; -623.000; -588.000
217.652; -131.050; -845.000; -874.000
217.797;  -96.575; -708.000; -659.000
217.942; -118.050; -856.000; -720.000
218.086;   76.150;  608.000;  539.000
218.231;  -14.575; -174.000;  -26.000
218.376;  -41.125; -337.000; -229.000
218.520;   -1.100;  -41.000;   96.000
218.665;  -27.200; -338.000; -204.000
218.810;  -44.375; -275.000; -233.000
218.954;   21.625;  201.000;   35.000
219.099; -113.025; -713.000; -963.000
219.243;  -82.600; -589.000; -554.000
219.388;  -34.350; -264.000; -136.000
219.532;   -7.750; -116.000; -116.000
219.677;  -73.250; -564.000; -521.000
219.822;   10.775;   33.000;   89.000
219.966;    5.225;   17.000;  -99.000
220.111;  -36.950; -328.000;  -40.000
220.255; -106.300; -797.000; -750.000
220.400;  -24.900; -180.000; -146.000
220.544;  -60.300; -516.000; -450.000
220.689;  -58.625; -422.000; -451.000
220.833;  -23.375; -123.000;  -58.000
220.978;  -39.900; -393.000; -563.000
221.122;   22.800;  319.000;  307.000
221.267; -120.650; -906.000; -837.000
221.411;  -73.350; -478.000; -394.000
221.555;   -7.125; -104.000;  -23.000
221.700;  -54.250; -329.000; -222.000
221.844;   33.925;  255.000;  272.000
221.989;  -52.250; -328.000; -311.000
222.133;  -44.825; -289.000; -307.000
222.277;    5.325;    5.000;   78.000
222.422;    8.975;  227.000;  113.000
222.566;  -32.875; -381.000; -214.000
222.711;  -56.175; -414.000; -479.000
222.855;  -84.600; -643.000; -586.000
222.999;  -94.475; -642.000; -717.000
223.144;  -41.325; -195.000; -194.000
223.288;   49.900;  423.000;  251.000
223.432;   26.825;  184.000;  230.000
223.576;   15.125;  152.000;  -21.000
223.721;   38.000;  364.000;  273.000
223.865;  -69.525; -472.000; -475.000
224.009;  220.375; 1673.000; 1631.000
224.153;  -87.250; -660.000; -671.000
224.298;  -78.225; -531.000; -489.000
224.442;  -23.275;  -74.000;  -33.000
224.586;  -10.850; -169.000; -106.000
224.730; -100.825; -858.000; -670.000
224.875; -112.100; -739.000; -688.000
225.019;   -2.425;  102.000;  188.000
225.163;   66.025;  208.000;  341.000
225.307;    3.825;   97.000;  -91.000
225.451;   43.700;  360.000;  481.000
225.595;   31.475;  264.000;  176.000
225.739;  -32.000; -170.000;  -94.000
225.884;    5.600;   86.000;    5.000
226.028; -101.425; -760.000; -626.000
226.172;  -38.550; -260.000; -273.000
226.316; -129.550; -941.000; -902.000
226.460;  -79.500; -645.000; -493.000
226.604;  -57.250; -406.000; -400.000
226.748; -110.350; -836.000; -733.000
226.892;  -47.400; -227.000; -181.000
227.036;  -52.600; -537.000; -447.000
227.180;  -60.900; -551.000; -375.000
227.324;  -73.250; -561.000; -580.000
227.468; -114.400; -819.000; -717.000
227.612;   11.950;  242.000;  -28.000
227.756; -100.600; -845.000; -698.000
227.900;   55.050;  342.000;  441.000
228.044;  -69.175; -509.000; -290.000
228.188;   58.725;  448.000;  568.000
228.332;  -97.750; -546.000; -472.000
228.476;  -27.275; -223.000; -149.000
228.620;  -26.875; -210.000; -150.000
228.764;   86.550;  431.000;  349.000
228.908;  -24.375; -155.000;   30.000
229.052;  -70.700; -615.000; -528.000
229.195;  -28.050; -172.000;   13.000
229.339;  -32.350; -235.000; -305.000
229.483;  -33.900;    5.000; -162.000
229.627;   -9.475; -156.000;  139.000
229.771;  -53.600; -218.000; -294.000
229.915;    6.700;  230.000;   79.000
230.059;  -98.250; -648.000; -663.000
230.202;  -27.300; -370.000; -317.000
230.346;  -13.250; -107.000;  107.000
230.490;  -65.650; -489.000; -521.000
230.634; -113.650; -736.000; -553.000
230.777;   69.900;  478.000;  509.000
230.921;  -55.150; -450.000; -359.000
231.065;  -59.200; -246.000; -286.000
231.209;   14.025;  261.000;  265.000
231.352;   25.525;   54.000;   40.000
231.496;   16.500;  568.000;  188.000
231.640;  -84.400; -693.000; -621.000
231.783;   71.650;  546.000;  525.000
231.927;  -48.950; -294.000; -365.000
232.071; -123.950; -962.000; -736.000
232.214; -108.425; -980.000; -764.000
232.358;  -95.150; -683.000; -599.000
232.502;   -8.825;  -19.000;    7.000
232.645; -147.350;-1090.000; -927.000
232.789;  -30.975; -257.000; -218.000
232.933;  -50.650; -407.000; -224.000
233.076; -125.400;-1038.000; -897.000
233.220; -110.075; -752.000; -777.000
233.363;  -84.600; -669.000; -477.000
233.507;   53.500;  371.000;  129.000
233.650; -103.750; -764.000; -834.000
233.794;   36.150;  438.000;  461.000
233.938;  -73.450; -530.000; -362.000
234.081;  -15.800;  -93.000;   31.000
234.225;  -69.450; -631.000; -539.000
234.368; -116.875; -773.000; -723.000
234.512;  -50.175; -385.000; -299.000
234.655;  -96.800; -582.000; -555.000
234.798;  -66.825; -493.000; -466.000
234.942; -130.575; -884.000;-1002.000
235.085;  -83.150; -651.000; -443.000
235.229;  -89.500; -405.000; -410.000
235.372;  -53.825; -247.000; -191.000
235.516;  -64.100; -397.000; -321.000
235.659;    8.325;   92.000;  121.000
235.802;  -18.125;  -38.000;  -22.000
235.946;   33.625;  335.000;  215.000
236.089;   37.575;  126.000;  250.000
236.233;   52.000;  275.000;  298.000
236.376;  -51.400; -235.000; -378.000
236.519;  -38.850; -297.000; -319.000
236.663;  -22.850; -215.000; -117.000
236.806; -147.425;-1029.000; -999.000
236.949;   53.500;  543.000;  431.000
237.092;   60.100;  412.000;  391.000
237.236;  -79.050; -589.000; -502.000
237.379;   63.900;  352.000;  428.000
237.522; -120.175; -879.000; -768.000
237.666;  -31.825; -271.000;   18.000
237.809; -121.200; -851.000; -823.000
237.952;   40.900;  469.000;  271.000
238.095;  -68.000; -447.000; -442.000
238.238;   87.000;  688.000;  700.000
238.382;   -6.475;  166.000;  103.000
238.525;  -74.200; -598.000; -511.000
238.668; -137.900;-1060.000; -985.000
238.811;  -95.375; -638.000; -643.000
238.954;  -58.250; -483.000; -334.000
239.097;  105.225;  617.000;  664.000
239.241;   16.200;  394.000;  326.000
239.384;  -40.925; -254.000; -214.000
239.527;  -67.275; -424.000; -224.000
239.670; -151.775; -994.000;-1091.000
239.813;  -97.450; -696.000; -658.000
239.956;   69.275;  579.000;  473.000
240.099; -117.300; -778.000; -725.000
240.242;   55.900;  428.000;  432.000
240.385;   51.725;  466.000;  450.000
240.528;  -77.400; -706.000; -473.000
240.671;    6.325;  189.000;  134.000
240.814;  -45.575; -441.000; -158.000
240.957;  -98.800; -767.000; -578.000
241.100; -106.525; -779.000; -755.000
241.243; -148.425;-1234.000; -893.000
241.386;  -67.250; -508.000; -379.000
241.529;  -92.875; -735.000; -547.000
241.672;  -58.350; -566.000; -495.000
241.815; -132.350; -832.000; -808.000
241.958;  -32.800; -125.000; -182.000
242.101;  -90.900; -545.000; -390.000
242.244;  -42.075; -270.000; -325.000
242.387;  -45.625; -304.000; -246.000
242.530;   53.375;  470.000;  134.000
242.673;  -44.800; -381.000; -309.000
242.815; -127.725; -925.000; -899.000
242.958;  -61.775; -482.000; -381.000
243.101;    4.900;  132.000;  187.000
243.244;  -85.875; -564.000; -521.000
243.387;  -50.650; -313.000; -316.000
243.530; -104.250; -657.000; -674.000
243.672;    8.100;   43.000;  -92.000
243.815;  -58.975; -355.000; -283.000
243.958;    2.250;   98.000;  -26.000
244.101;   -4.200;   59.000;  -16.000
244.243;  -11.700;  -47.000;  101.000
244.386; -106.800; -761.000; -630.000
244.529;  -27.200; -132.000; -139.000
244.672; -160.450;-1154.000; -951.000
244.814; -112.725; -621.000; -794.000
244.957;  -60.850; -380.000; -304.000
245.100;  -82.875; -489.000; -489.000
245.242;  -49.950; -387.000; -374.000
245.385;  -13.925;  -59.000;  -39.000
245.528; -127.825; -871.000; -705.000
245.670;   88.175;  612.000;  634.000
245.813;  -92.925; -599.000; -547.000
245.956;  -31.450; -324.000; -275.000
246.098;  -68.750; -508.000; -650.000
246.241;    4.250;  194.000;   48.000
246.383;  -11.450; -119.000;  -73.000
246.526;  -86.825; -454.000; -525.000
246.669; -121.050; -889.000; -780.000
246.811;   17.175;  172.000;   -1.000
246.954;  -70.175; -512.000; -426.000
247.096;  -28.850;  -84.000;   -6.000
247.239;  -70.600; -482.000; -445.000
247.381;  -81.175; -647.000; -488.000
247.524;  101.800;  645.000;  679.000
247.666;   -1.300;   58.000;   11.000
247.809; -121.250; -887.000; -691.000
247.951;  -15.175;  -75.000;  138.000
248.094;   32.300;  432.000;  308.000
248.236; -165.875;-1262.000;-1238.000
248.378;   -1.175; -356.000;  -81.000
248.521;  -30.125; -334.000; -337.000
248.663;  -46.150; -236.000; -267.000
248.806;  -33.425; -300.000; -266.000
248.948; -107.950; -886.000; -763.000
249.090;  -58.025; -428.000; -398.000
249.233;  -70.775; -344.000; -381.000
249.375;  -69.825; -474.000; -451.000
249.518;  -19.150;  -83.000; -133.000
249.660;  -20.575; -103.000;    3.000
249.802; -174.850;-1303.000;-1189.000
249.945;  -81.075; -612.000; -540.000
250.087; -114.050; -834.000; -768.000
250.229;  -59.050; -362.000; -480.000
250.371;  -80.175; -494.000; -439.000
250.514;  -46.050; -310.000; -244.000
250.656;  -12.000;   69.000;  102.000
250.798; -126.300; -849.000; -800.000
250.940;  -67.675; -322.000; -322.000
251.083;  -21.525; -335.000; -111.000
251.225;   56.950;  338.000;  310.000
251.367;  -44.575; -274.000; -373.000
251.509;  -46.050; -265.000; -210.000
251.651; -101.375; -731.000; -671.000
251.794;   50.325;  538.000;  632.000
251.936; -119.900; -821.000; -747.000
252.078;  -65.925; -540.000; -461.000
252.220;  -76.025; -645.000; -477.000
252.362;   92.450;  344.000;  462.000
252.504;  -78.575; -677.000; -584.000
252.646; -114.625; -875.000; -722.000
252.788;    2.650;   14.000; -128.000
252.931;  -55.175; -257.000; -253.000
253.073;  -52.375; -376.000; -317.000
253.215;  -16.575;  141.000;  122.000
253.357;  -15.200;   82.000; -153.000
253.499;  -60.050; -374.000; -234.000
253.641; -102.500; -749.000; -594.000
253.783;  -87.750; -609.000; -527.000
253.925;  -90.175; -586.000; -591.000
254.067; -123.125; -744.000; -667.000
254.209;  -30.175; -391.000; -259.000
254.351; -131.100; -865.000; -883.000
254.493;  -68.050; -441.000; -417.000
254.635; -145.125; -936.000; -818.000
254.777;  -95.725; -752.000; -687.000
254.918;  -56.100; -512.000; -430.000
255.060;  -68.750; -551.000; -395.000
255.202;  -64.450; -473.000; -261.000
255.344;  -86.750; -658.000; -455.000
255.486;  -67.500; -471.000; -406.000
255.628; -121.400; -780.000; -781.000
255.770; -119.150; -676.000; -536.000
255.912;  -68.500; -559.000; -468.000
256.053;  -84.450; -730.000; -508.000
256.195;  152.800; 1008.000;  903.000
256.337;  -94.525; -861.000; -595.000
256.479;   55.125;  532.000;  416.000
256.621;  -48.675; -394.000; -212.000
256.762; -118.625; -789.000; -742.000
256.904;   47.600;  485.000;  487.000
257.046;  -43.675; -381.000; -271.000
257.188;  -48.775; -351.000; -264.000
257.329;  -84.925; -525.000; -464.000
257.471; -120.425; -939.000; -807.000
257.613;  -78.475; -584.000; -498.000
257.755; -158.900;-1073.000; -982.000
257.896;   39.525;  286.000;  392.000
258.038;  -79.350; -403.000; -352.000
258.180;  -41.475; -354.000; -279.000
258.321;  -80.625; -581.000; -457.000
258.463;   -2.350;  -71.000;  133.000
258.605;  -94.650; -562.000; -570.000
258.746; -118.250; -886.000; -772.000
258.888; -155.550;-1026.000;-1020.000
259.029;   16.950;  121.000;   -8.000
259.171;  -91.950; -614.000; -550.000
259.313;  -19.450;  -49.000;  -47.000
259.454;  -83.275; -536.000; -414.000
259.596;  -60.675; -483.000; -390.000
259.737;  -85.875; -590.000; -474.000
259.879;   12.750;  217.000;  311.000
260.020;   93.125;  901.000;  636.000
260.162;  -38.800; -146.000; -253.000
260.303; -123.700; -768.000; -687.000
260.445;  -95.475; -609.000; -613.000
260.586;   18.800;  392.000;  157.000
260.728;  -46.050; -360.000; -248.000
260.869; -125.525; -350.000; -343.000
261.011;   63.050;  706.000;  537.000
261.152;  -64.575; -479.000; -319.000
261.293;  -81.675; -576.000; -595.000
261.435;  -42.050; -219.000; -184.000
261.576;  -64.750; -455.000; -325.000
261.718;   52.275;  420.000;  470.000
261.859; -142.175; -940.000; -949.000
262.000; -134.000; -951.000;-1016.000
262.142;  -24.800;  -52.000;  -60.000
262.283; -132.450; -808.000; -691.000
262.424;  -96.600; -666.000; -625.000
262.566; -162.475;-1161.000; -983.000
262.707; -116.675; -840.000; -830.000
262.848; -121.475; -769.000; -726.000
262.990;  -39.375; -362.000; -345.000
263.131;   85.450;  650.000;  681.000
263.272;   -6.525;  -61.000;  -41.000
263.413;  -98.850; -589.000; -561.000
263.555;  -76.000; -669.000; -143.000
263.696;  -84.200; -550.000; -641.000
263.837;  -65.250; -449.000; -551.000
263.978;  -13.250;   -5.000;  -77.000
264.119;  -34.950; -283.000; -264.000
264.261; -124.125; -847.000; -630.000
264.402;  -17.250;   33.000;   40.000
264.543;  -78.550; -509.000; -524.000
264.684;  -25.225;   61.000;  -50.000
264.825;  -72.700; -816.000; -538.000
264.966;   -9.675;  -84.000;  -67.000
265.107; -123.950; -646.000; -670.000
265.248; -133.075; -825.000; -812.000
265.390;  -17.275;  152.000;   -9.000
265.531;  -30.650; -238.000; -107.000
265.672;  -90.425; -557.000; -630.000
265.813;   60.325;  563.000;  439.000
265.954; -149.275; -959.000; -940.000
266.095;  -24.450; -372.000; -322.000
266.236; -102.925; -686.000; -548.000
266.377;  -39.000; -243.000; -297.000
266.518;  -82.225; -619.000; -547.000
266.659;   22.000;  170.000;  268.000
266.800;    5.575;   83.000;   85.000
266.941;  -84.850; -487.000; -478.000
267.082;   33.050;  354.000;   99.000
267.223;  -49.250; -344.000; -273.000
267.364; -124.775; -892.000; -686.000
267.504;  -20.850;    3.000;  135.000
267.645;    5.200;  160.000;   67.000
267.786;  -43.300; -147.000;  -86.000
267.927;  -77.100; -473.000; -379.000
268.068;  -23.375; -186.000;  -61.000
268.209;  -47.975; -175.000; -413.000
268.350;  -75.425; -388.000; -532.000
268.490;  -90.400; -648.000; -521.000
268.631;   33.600;  127.000;  225.000
268.772; -114.750; -874.000; -647.000
268.913;  -46.650; -328.000; -476.000
269.054;   -9.375; -117.000;   12.000
269.194;  -57.825; -418.000; -402.000
269.335; -180.400;-1137.000;-1074.000
269.476;  -24.275;   33.000;  -35.000
269.617;  -57.775; -347.000; -392.000
269.757;  -98.325; -713.000; -646.000
269.898; -112.725; -856.000; -613.000
270.039;  -79.425; -415.000; -405.000
270.180; -143.150; -952.000; -816.000
270.320;  -46.125; -190.000; -250.000
270.461;  -55.775; -277.000; -249.000
270.602;  -33.100; -186.000; -156.000
270.742; -134.350; -868.000; -943.000
270.883;  -69.475; -442.000; -390.000
271.023;  -69.800; -358.000; -357.000
271.164;  -87.925; -607.000; -528.000
271.305; -112.225; -666.000; -654.000
271.445;  -97.225; -722.000; -683.000
271.586;  -88.975; -462.000; -283.000
271.726;  -59.625; -397.000; -322.000
271.867;  -74.175; -594.000; -534.000
272.008;  155.500; -473.000; -285.000
272.148;  117.925;  462.000;  468.000
272.289;   -8.325; -113.000; -181.000
272.429;    7.150;   19.000;  185.000
272.570; -104.650; -633.000; -737.000
272.710;  -99.700; -825.000; -775.000
272.851;  -38.875;  113.000; -130.000
272.991; -178.250;-1173.000;-1077.000
273.131;  -88.450; -419.000; -459.000
273.272; -109.925; -683.000; -723.000
273.412;    1.850; -143.000;  -31.000
273.553;  -66.650; -488.000; -507.000
273.693;  127.300;  913.000;  858.000
273.834; -109.775; -894.000; -692.000
273.974;  -71.600; -664.000; -615.000
274.114; -111.000; -772.000; -560.000
274.255;   59.625;  414.000;  373.000
274.395;   -5.100; -180.000; -125.000
274.535;   31.825;  199.000;  350.000
274.676;   14.000;  225.000;   94.000
274.816;  -10.200;  110.000;   34.000
274.956; -100.450; -624.000; -690.000
275.097;  -75.375;-1014.000; -922.000
275.237; -120.400; -913.000; -803.000
275.377; -115.800; -778.000; -689.000
275.517; -161.300; -878.000; -937.000
275.658;  -61.125; -590.000; -555.000
275.798;  -79.675; -606.000; -413.000
275.938;   21.075;  215.000;  323.000
276.078; -107.450; -626.000; -395.000
276.218;    5.950;   99.000;  104.000
276.359; -139.000;-1026.000;-1024.000
276.499;  -83.850; -605.000; -446.000
276.639;  -28.600; -305.000; -151.000
276.779;  -67.475; -475.000; -357.000
276.919; -109.175; -783.000; -624.000
277.059;  -35.950; -261.000; -212.000
277.199;  -52.300; -357.000; -259.000
277.340;   41.400;  287.000;  175.000
277.480; -121.600; -840.000; -693.000
277.620;   25.225;  192.000;   16.000
277.760; -214.875;-1533.000;-1294.000
277.900;   18.200;  113.000;   33.000
278.040;    0.075;  137.000;  159.000
278.180;   14.325;  270.000;  170.000
278.320;   -0.700;   21.000;   56.000
278.460;  -73.050; -443.000; -469.000
278.600; -103.075; -708.000; -598.000
278.740;   48.725;  448.000;  224.000
278.880;  -94.075; -768.000; -791.000
279.020;  -17.325; -194.000; -144.000
279.160; -104.425; -672.000; -595.000
279.300; -135.475; -926.000; -873.000
279.440; -101.725; -709.000; -622.000
279.579;  -27.300;-1014.000; -929.000
279.719;  -54.300; -410.000; -394.000
279.859;   52.975;   -4.000;   41.000
279.999;    8.225; -208.000;  101.000
280.139;  -39.250; -435.000; -387.000
280.279;  -93.075; -708.000; -745.000
280.419;  -21.725; -229.000; -147.000
280.559;  -51.450; -259.000; -180.000
280.698; -102.375; -790.000; -639.000
280.838; -108.975; -778.000; -800.000
280.978; -107.500; -846.000; -790.000
281.118; -112.100; -811.000; -704.000
281.257;   -1.350;   24.000;    6.000
281.397; -134.650;-1094.000; -960.000
281.537;  -99.125; -599.000; -712.000
281.677;  -29.400; -150.000; -101.000
281.816;  -98.475; -700.000; -630.000
281.956;  -32.475; -193.000; -257.000
282.096;  -58.550; -539.000; -396.000
282.235; -115.500; -672.000; -638.000
282.375;  -34.700; -243.000;  -98.000
282.515; -120.200; -715.000; -707.000
282.654;    9.625;   29.000;  106.000
282.794;    6.825;  388.000;  244.000
282.934;  -75.750; -530.000; -491.000
283.073; -140.675;-1030.000; -857.000
283.213;  -63.550; -460.000; -467.000
283.353;  -60.950; -408.000; -349.000
283.492;  -37.600; -264.000; -296.000
283.632;  -61.700; -254.000; -168.000
283.771; -108.500; -859.000; -730.000
283.911;  -65.550; -369.000; -260.000
284.050; -118.850; -794.000; -748.000
284.190; -168.975;-1229.000;-1096.000
284.329; -160.175;-1055.000; -964.000
284.469;  -65.300; -516.000; -591.000
284.608;  -64.125; -559.000; -598.000
284.748;  -90.950; -614.000; -570.000
284.887;  -11.325;  -87.000;  -20.000
285.027; -129.700; -844.000; -892.000
285.166;  -38.000; -192.000; -249.000
285.306;    3.775; -116.000;  -33.000
285.445;  -56.175; -229.000; -343.000
285.584; -111.150; -630.000; -494.000
285.724;  -52.475; -282.000; -322.000
285.863; -117.275; -857.000; -507.000
286.002;  -68.050; -366.000; -276.000
286.142; -114.650; -715.000; -622.000
286.281;  -88.925; -525.000; -493.000
286.420;  -78.650; -554.000; -417.000
286.560;   85.075;  653.000;  623.000
286.699; -146.250; -958.000; -912.000
286.838;  -94.900; -590.000; -591.000
286.978; -104.050; -533.000; -537.000
287.117; -148.950;-1085.000; -950.000
287.256;  -33.925; -228.000; -211.000
287.395;  -62.975; -197.000; -378.000
287.535;  -67.150; -370.000; -298.000
287.674;  -95.250; -509.000; -484.000
287.813;   42.925;  661.000;  533.000
287.952; -146.875;-1010.000; -871.000
288.091; -158.825;-1049.000; -915.000
288.231;    4.150;   13.000;   15.000
288.370; -196.650;-1217.000;-1200.000
288.509; -101.375; -728.000; -645.000
288.648;  -97.950; -770.000; -548.000
288.787;  -42.750; -243.000;  -87.000
288.926;  -65.450; -454.000; -475.000
289.065;  111.000;  859.000;  672.000
289.204;  -48.625; -377.000; -217.000
289.344; -109.150; -791.000; -690.000
289.483;   14.900;  416.000;  304.000
289.622;  -37.175; -291.000; -149.000
289.761;  -25.825; -309.000; -166.000
289.900; -112.500; -785.000; -626.000
290.039;  -15.475;  -12.000;  -95.000
290.178;  -43.850; -274.000; -180.000
290.317;  -90.525; -618.000; -479.000
290.456;  -75.125; -463.000; -451.000
290.595; -147.050; -961.000; -833.000
290.734; -149.275; -904.000; -891.000
290.873;  -80.500; -456.000; -420.000
291.011; -132.275; -833.000; -843.000
291.150; -124.325; -770.000; -682.000
291.289;  -41.075; -343.000; -110.000
291.428; -103.575; -599.000; -480.000
291.567;  -62.400; -370.000; -442.000
291.706;   -2.050;  109.000;  154.000
291.845; -102.500; -597.000; -505.000
291.984; -173.675;-1234.000;-1061.000
292.122;   65.500;  602.000;  582.000
292.261;   37.025;  620.000;  463.000
292.400;    2.250; -144.000;  211.000
292.539; -132.100; -959.000; -813.000
292.678;  -39.750; -325.000; -300.000
292.816; -165.825;-1136.000; -965.000
292.955; -114.750; -844.000; -684.000
293.094;  -30.850; -173.000; -337.000
293.233;  -62.825; -556.000; -400.000
293.371;  -59.975; -225.000;  -84.000
293.510; -119.650; -866.000; -780.000
293.649; -138.350; -959.000; -924.000
293.787;  -90.400;-1083.000;-1012.000
293.926;   -9.325; -113.000;  -32.000
294.065;  -48.725; -379.000; -290.000
294.203;   41.450;  298.000;  406.000
294.342;    8.925;   74.000;  156.000
294.481; 5066.850;51180.000; -836.000
294.619;  -48.925; -425.000; -582.000
294.758; -164.975;-1230.000;-1137.000
294.896;   46.475; -125.000;    5.000
295.035; -142.875;-1040.000;-1006.000
295.174; -128.100;-1082.000; -954.000
295.312;  -43.475; -323.000; -203.000
295.451;  -35.525; -307.000; -428.000
295.589;  -69.550; -389.000; -518.000
295.728;   -1.975; -292.000; -165.000
295.866;    6.175;  -36.000;  -51.000
296.005;  -89.300; -584.000; -341.000
296.143;  -83.450; -558.000; -596.000
296.282; -115.950; -957.000; -881.000
296.420;  -99.675; -657.000; -557.000
296.559;  -97.250; -892.000; -633.000
296.697;  -24.575; -847.000; -665.000
296.835;    9.525;-1141.000;-1002.000
296.974;   29.825;  -23.000;   39.000
297.112;  -20.125; -443.000; -504.000
297.251;  -91.800; -815.000; -755.000
297.389;   43.150; -576.000; -438.000
297.527;   29.725; -145.000;  -83.000
297.666;  -64.225; -486.000; -438.000
297.804;  -70.300; -404.000; -264.000
297.942;  -14.425; -136.000; -161.000
298.081;  -23.100; -183.000;   63.000
298.219;   39.825;  -17.000;  -19.000
298.357;   22.750; -144.000;  -71.000
298.495;   -6.300; -810.000; -812.000
298.634;   46.650;  245.000;  219.000
298.772;   26.650; -220.000; -338.000
298.910;  -59.550; -309.000; -182.000
299.048;  -21.600; -130.000; -153.000
299.187;  -35.375; -350.000; -250.000
299.325;   16.475;   52.000;  122.000
299.463;   18.575; -389.000; -299.000
299.601;   75.950; -327.000; -271.000
299.739; -124.025; -908.000; -883.000
299.877;  -96.350; -791.000; -703.000
300.016;  -72.025;-1095.000; -935.000
300.154;  122.800;  -19.000; -161.000
300.292;   30.825; -428.000; -348.000
300.430;   -0.475; -408.000; -291.000
300.568; -124.850; -940.000; -874.000
300.706;  -56.325; -366.000; -469.000
300.844; -116.100;-1108.000; -979.000
300.982;  100.550;  246.000;  282.000
301.120; -122.875; -965.000; -866.000
301.258;  -89.425; -812.000; -705.000
301.396;   22.125;  104.000;  -41.000
301.534;   28.600; -218.000; -293.000
301.672;  -38.375; -664.000; -521.000
301.810;  -10.400; -613.000; -545.000
301.948;   71.050;   53.000;  149.000
302.086;  519.500; -250.000;  -32.000
302.224;  771.825; -610.000; -585.000
302.362;   -4.875; -558.000; -622.000
302.500;  -55.275; -923.000; -893.000
302.638;   80.175;  128.000;  245.000
302.776;  -22.400; -352.000; -408.000
302.913;   34.775;  447.000;  236.000
303.051;  -19.775;  -86.000;  -23.000
303.189;   28.525;   90.000;  118.000
303.327;  -30.775; -341.000; -256.000
303.465; -105.350; -832.000; -588.000
303.603;  -97.600; -805.000; -604.000
303.740;   81.850;  417.000;  241.000
303.878;  -14.775; -800.000; -759.000
304.016; -116.700; -915.000; -790.000
304.154; -141.600;-1123.000;-1152.000
304.291;  -55.625; -505.000; -554.000
304.429;   -1.775;  102.000;   74.000
304.567; -129.975; -908.000; -893.000
304.705;  -62.100; -408.000; -515.000
304.842;   57.925; -616.000; -540.000
304.980;   31.750;  215.000;   35.000
305.118;   15.675; -367.000; -365.000
305.255; -103.825; -945.000; -927.000
305.393;   41.475;  178.000;  239.000
305.531; -113.275;-1173.000; -956.000
305.668;  -91.150; -663.000; -582.000
305.806;   61.525; -358.000; -439.000
305.943;   65.050; -629.000; -637.000
306.081;   18.200; -378.000; -267.000
306.219; -113.675; -863.000; -748.000
306.356;   -4.550;  158.000;   27.000
306.494;   94.675;  981.000;  761.000
306.631;   -1.175;  -11.000;  -55.000
306.769;  -21.925; -613.000; -485.000
306.906;  -33.075; -284.000; -258.000
307.044;  -86.600; -473.000; -488.000
307.181;  -72.700; -410.000; -332.000
307.319;    2.450;  112.000;   87.000
307.456; -180.175;-1191.000;-1153.000
307.594; -127.575; -980.000; -727.000
307.731;  -20.475; -371.000; -164.000
307.868;   -5.850;  -15.000;   20.000
308.006; -154.475; -961.000; -847.000
308.143;  -99.275; -618.000; -330.000
308.281;   78.900;  -37.000; -254.000
308.418;  -46.875; -748.000; -640.000
308.555;  -92.400; -400.000; -250.000
308.693;  -79.325; -577.000; -573.000
308.830;  -97.150; -712.000; -657.000
308.967;  -34.225; -215.000;  -95.000
309.105;  -69.600; -507.000; -396.000
309.242;   -8.300; -468.000; -367.000
309.379;  164.950; -577.000; -655.000
309.517;  -91.075; -936.000; -948.000
309.654; -112.650; -910.000; -734.000
309.791;  -83.175; -662.000; -580.000
309.928; -139.550; -977.000; -914.000
310.065;  152.575;  819.000;  697.000
310.203;  -45.475; -825.000; -850.000
310.340;  -35.225; -465.000; -321.000
310.477;  -93.525; -412.000; -516.000
310.614;  -96.475; -383.000; -473.000
310.751;  -98.175; -427.000; -518.000
310.889;  -30.075;    1.000;   11.000
311.026; -158.650;-1161.000; -939.000
311.163;  -58.550; -386.000; -380.000
311.300;  -84.400; -512.000; -479.000
311.437;  -93.850; -658.000; -619.000
311.574; -164.475;-1226.000; -985.000
311.711;  -77.175; -595.000; -433.000
311.848;  -43.675; -380.000; -388.000
311.985;   11.475;  270.000;   93.000
312.122; -129.125; -932.000; -762.000
312.259; -133.750; -941.000; -994.000
312.396; -101.125; -508.000; -551.000
312.533; -108.075; -812.000; -790.000
312.670; -139.900;-1070.000; -898.000
312.807;  -55.375; -352.000; -367.000
312.944;  -94.175; -513.000; -611.000
313.081;  -55.225; -150.000; -415.000
313.218; -124.100;-1111.000; -867.000
313.355;   -6.475; -531.000; -449.000
313.492;  -17.000; -455.000; -292.000
313.629;  109.450;  815.000;  735.000
313.766; -168.700;-1176.000;-1008.000
313.902;  -30.800; -186.000;   21.000
314.039;  -64.725; -372.000; -289.000
314.176;   17.625;  286.000;  192.000
314.313;  -95.225; -569.000; -473.000
314.450;  -88.600; -788.000; -684.000
314.587;  -56.925; -468.000; -480.000
314.723;  -18.375;  -78.000;  130.000
314.860;   27.925;  318.000;  332.000
314.997;    3.000;  223.000;  142.000
315.134;  -52.000; -385.000; -368.000
315.270;  -46.775; -480.000; -496.000
315.407; -138.400;-1094.000; -967.000
315.544;  -60.650; -657.000; -538.000
315.681;  -81.600; -681.000; -565.000
315.817;    7.000; -133.000; -176.000
315.954;   -6.600; -613.000; -392.000
316.091; -151.725;-1045.000;-1023.000
316.227;  -31.375;  -71.000; -179.000
316.364;  -15.650;   23.000;    6.000
316.500;  -49.525; -113.000; -300.000
316.637;  -58.500; -181.000; -302.000
316.774;  -79.975; -625.000; -358.000
316.910;  -97.650; -598.000; -629.000
317.047;  -89.425; -487.000; -351.000
317.183;  -64.175; -435.000; -566.000
317.320;  -21.275; -367.000; -321.000
317.456;  -83.375; -733.000; -805.000
317.593; -102.900; -598.000; -641.000
317.729;  -12.300;  168.000;  -67.000
317.866; -202.475;-1434.000;-1285.000
318.002; -100.725; -708.000; -948.000
318.139; -123.325; -883.000; -867.000
318.275; -117.000;-1003.000; -738.000
318.412;  -74.200; -517.000; -336.000
318.548;  -73.300; -751.000; -720.000
318.685; -106.375; -985.000; -888.000
318.821; -105.800; -762.000; -735.000
318.957;  -26.450;   34.000;  -23.000
319.094;   31.875;  297.000;  154.000
319.230;  -91.125; -756.000; -742.000
319.367;   91.050; -471.000; -520.000
319.503;   34.850; -538.000; -436.000
319.639; -104.575; -877.000; -793.000
319.775;  -86.675; -750.000; -685.000
319.912;  -69.875; -424.000; -519.000
320.048; -101.775;-1184.000;-1184.000
320.184;   51.600;   59.000;   70.000
320.321;  -79.275; -497.000; -467.000
320.457;   65.250;  475.000;  662.000
320.593;  -86.575; -375.000; -382.000
320.729; -124.975; -732.000; -734.000
320.866;  -85.350; -577.000; -635.000
321.002;  -91.575; -759.000; -809.000
321.138;  -39.275; -135.000; -211.000
321.274;   60.725; -148.000; -115.000
321.410;  -42.625; -585.000; -353.000
321.546;  -60.725;-1011.000; -911.000
321.683;   34.425;  400.000;  185.000
321.819;    1.050;  -48.000; -117.000
321.955; -127.200; -743.000; -722.000
322.091;  -67.450; -585.000; -540.000
322.227;  -26.575; -382.000; -202.000
322.363;  -19.550; -320.000; -215.000
322.499;  -55.375; -343.000; -331.000
322.635;  149.150;  636.000;  443.000
322.771;   13.175; -139.000;   12.000
322.907;   61.675;  129.000;  327.000
323.043;  -34.650; -115.000; -206.000
323.179;  -52.275; -394.000; -363.000
323.315;   -1.400; -401.000; -371.000
323.451;   52.975; -328.000; -236.000
323.587;   53.175;  -60.000;  -77.000
323.723;  -15.100; -682.000; -601.000
323.859;  -13.300; -258.000;  -76.000
323.995;  -43.050; -467.000; -409.000
324.131; -137.650; -967.000; -892.000
324.267;  -46.025; -254.000; -276.000
324.402; -147.000; -960.000; -983.000
324.538;  -29.650; -279.000; -104.000
324.674;   14.300;  164.000;   77.000
324.810;   81.975;  226.000;  308.000
324.946;  -37.525; -810.000; -658.000
325.082;  -93.325; -568.000; -475.000
325.217;   -5.325;  -62.000;   16.000
325.353; -121.400; -764.000; -659.000
325.489;  -83.775; -540.000; -506.000
325.625;  -83.475; -579.000; -525.000
325.760;   54.275;  517.000;  376.000
325.896;  -32.350; -515.000; -702.000
326.032;  -67.650; -403.000; -352.000
326.168;  -74.800; -462.000; -369.000
326.303;  -77.075; -352.000; -461.000
326.439;  -38.125; -336.000; -276.000
326.575;  -10.200; -190.000;  -29.000
326.710;  -23.250; -156.000;  -30.000
326.846;   -9.125;  146.000;  103.000
326.982;  -95.325; -530.000; -548.000
327.117;  -76.100; -481.000; -442.000
327.253; -107.525; -745.000; -742.000
327.388; -179.950;-1137.000;-1153.000
327.524;  -90.750; -811.000; -578.000
327.659;  -27.725;  -58.000;  -22.000
327.795;  -34.825;   69.000;   45.000
327.931;  -92.825; -723.000; -499.000
328.066;  -52.775; -417.000; -276.000
328.202;  -25.700;   12.000; -129.000
328.337;   92.075;  957.000;  713.000
328.473;   23.950;  -12.000;  -74.000
328.608;  -42.800; -256.000; -267.000
328.743; -112.925; -799.000; -664.000
328.879;   16.325;  214.000;  114.000
329.014;  -35.725; -102.000; -122.000
329.150;  -85.425; -358.000; -483.000
329.285;  -92.725; -465.000; -466.000
329.421;  -72.925; -548.000; -246.000
329.556;  -32.600;  -36.000;   85.000
329.691; -105.875; -633.000; -615.000
329.827;  -94.950; -626.000; -480.000
329.962;  -47.525;  131.000; -301.000
330.097;  -95.550; -673.000; -585.000
330.233;  -69.200; -410.000; -223.000
330.368; -137.425; -839.000; -628.000
330.503;  -12.000;    3.000;   98.000
330.638;   -3.050;  -93.000; -125.000
330.774;  -78.075; -609.000; -530.000
330.909;  -55.325; -434.000; -244.000
331.044; -102.100; -714.000; -708.000
331.179; -190.025;-1217.000;-1109.000
331.315;    6.300;   77.000;   20.000
331.450;   19.525;  157.000;  285.000
331.585; -100.300; -805.000; -706.000
331.720;  -98.650; -510.000; -460.000
331.855;  -24.125;  -35.000; -102.000
331.990;  249.025;   62.000;  138.000
332.126;  128.950; -110.000;   71.000
332.261;  -20.800; -379.000; -265.000
332.396;  -15.900; -135.000; -242.000
332.531; -116.325;-1074.000;-1031.000
332.666;   22.800; -519.000; -363.000
332.801; -116.375; -726.000; -807.000
332.936;  -34.575; -192.000; -122.000
333.071; -143.275; -870.000; -817.000
333.206;   -4.000;  307.000;  379.000
333.341;   19.350;  344.000;  418.000
333.476; -106.300; -627.000; -623.000
333.611;  -64.250; -251.000; -173.000
333.746;  -63.100; -381.000; -464.000
333.881; -128.875; -973.000; -935.000
334.016; -149.200; -936.000; -917.000
334.151; -127.900; -746.000; -702.000
334.286;    9.175;  152.000;  186.000
334.421;  -39.275; -125.000; -178.000
334.556;  -98.875; -611.000; -567.000
334.690;  -89.500; -631.000; -577.000
334.825;   36.150;  381.000;   83.000
334.960;  -88.675; -285.000; -413.000
335.095;   -1.750;  135.000;  -91.000
335.230; -110.525; -722.000; -738.000
335.365; -152.675;-1084.000; -990.000
335.499; -146.825;-1108.000;-1037.000
335.634;    4.400;    9.000;  534.000
335.769; -116.125; -755.000; -720.000
335.904;  -74.550; -603.000; -561.000
336.038;  -69.275; -735.000; -657.000
336.173; -154.175;-1206.000;-1194.000
336.308;  -12.675; -116.000; -189.000
336.443;   -5.025; -544.000; -634.000
336.577;  -88.750; -936.000; -787.000
336.712;   38.000;   -4.000;  -12.000
336.847;  -57.975; -724.000; -607.000
336.981;   30.750; -272.000; -208.000
337.116;  228.700;  615.000;  501.000
337.250;  106.150; -434.000; -421.000
337.385;  259.475; -297.000; -208.000
337.520;   86.025; -632.000; -603.000
337.654;  -44.925; -215.000; -126.000
337.789; -130.025; -989.000; -933.000
337.923;  -33.700; -104.000; -205.000
338.058;  -97.950; -673.000; -738.000
338.192;  -55.975; -611.000; -488.000
338.327;  -17.750;  -18.000; -155.000
338.461;  -83.725; -299.000; -469.000
338.596; -103.275; -780.000; -638.000
338.730; -101.950; -767.000; -803.000
338.865;   87.625;  -46.000; -140.000
338.999;  -65.525; -846.000; -702.000
339.134;  -43.800; -634.000; -536.000
339.268;    2.875; -741.000; -603.000
339.403;  353.000; -740.000; -775.000
339.537;  118.625; -894.000; -820.000
339.671; -117.925; -829.000; -813.000
339.806;  -71.200; -556.000; -512.000
339.940;   -0.950; -261.000; -235.000
340.074; -104.250; -685.000; -510.000
340.209;  -53.725; -351.000; -230.000
340.343; -107.025; -517.000; -573.000
340.477;  140.125;  998.000; 1036.000
340.612;  -66.025;-1033.000; -900.000
340.746;  131.050; -199.000; -243.000
340.880;  -96.575; -924.000; -785.000
341.014;  -29.625;  -45.000; -154.000
341.149; -132.400; -756.000; -718.000
341.283; -122.300; -839.000; -754.000
341.417; -118.125;-1124.000; -938.000
341.551;   62.450; -768.000; -708.000
341.685;  -54.450; -633.000; -611.000
341.820;  -64.900; -562.000; -493.000
341.954;  -64.600; -218.000; -349.000
342.088; -163.050;-1102.000;-1019.000
342.222;   45.000;  565.000;  618.000
342.356;  -86.425; -395.000; -335.000
342.490; -113.325; -880.000; -841.000
342.624;  -64.250; -339.000; -242.000
342.758;  -34.350; -364.000; -312.000
342.892;  -89.575; -710.000; -585.000
343.026;  -42.175;  -58.000; -116.000
343.160;  -70.075; -426.000; -376.000
343.294;  -94.825; -474.000; -337.000
343.428;  -45.925; -488.000; -448.000
343.562;  -27.150; -172.000;  -23.000
343.696;  -55.975; -385.000; -314.000
343.830;  -34.600; -362.000; -356.000
343.964;   -1.250; -231.000; -168.000
344.098;  750.050;  199.000;   70.000
344.232;  601.375; -266.000; -127.000
344.366;   57.800; -567.000; -453.000
344.500;   15.100; -665.000; -744.000
344.634;   -8.350; -324.000; -164.000
344.768;  -38.025; -531.000; -341.000
344.902;    7.650;  278.000;  256.000
345.035;  -93.250; -556.000; -496.000
345.169; -137.100; -933.000; -656.000
345.303;  -50.875; -308.000; -482.000
345.437; -101.225; -826.000; -717.000
345.571;  -87.850; -675.000; -594.000
345.704;  -74.925; -309.000; -532.000
345.838;  -36.000; -331.000; -284.000
345.972;  -65.225; -543.000; -495.000
346.106;  141.425; -179.000; -190.000
346.239;  378.000; -312.000; -243.000
346.373;  -11.950; -343.000; -302.000
346.507; -162.725; -950.000; -962.000
346.640;   99.150;  -30.000;   13.000
346.774;  -83.175; -650.000; -797.000
346.908;  -20.050; -138.000;  -11.000
347.041; -114.825; -646.000; -593.000
347.175;  -17.775;  259.000;   27.000
347.309;  -93.250; -698.000; -628.000
347.442; -119.400; -883.000; -732.000
347.576;  228.275;  670.000;  668.000
347.709;  133.925; -123.000;  -52.000
347.843; -104.150; -933.000; -825.000
347.976;   20.500;  235.000;  294.000
348.110; -188.375;-1268.000;-1186.000
348.243; -114.175; -679.000; -772.000
348.377;   -2.675;  -26.000;   60.000
348.510;   44.100;  403.000;  540.000
348.644;  -43.900;  -37.000; -159.000
348.777;   -5.175;  180.000;  191.000
348.911;  -58.425; -142.000; -112.000
349.044;  139.100;  471.000;  448.000
349.178;   98.400;-1069.000;-1006.000
349.311;  104.625;  141.000;  255.000
349.444;  -12.650; -927.000; -813.000
349.578;  -28.500; -347.000; -200.000
349.711; -125.875; -959.000; -862.000
349.845;  -40.875; -661.000; -591.000
349.978; -163.425;-1224.000;-1137.000
350.111;  -98.650; -546.000; -612.000
350.244; -104.200; -596.000; -700.000
350.378;  -20.425; -392.000; -393.000
350.511;  -74.750; -393.000; -426.000
350.644; -116.525; -808.000; -806.000
350.778;    6.450;  168.000;  104.000
350.911;   -9.625;  134.000;  140.000
351.044; -104.250; -685.000; -615.000
351.177;  -47.575; -321.000; -281.000
351.310;  -32.575;    3.000; -131.000
351.444;  -96.225; -888.000; -788.000
351.577;   79.325;  140.000;   90.000
351.710;   73.650;  593.000;  417.000
351.843;  -47.225; -165.000;  -77.000
351.976;  -20.050;  149.000;  -79.000
352.109; -102.325; -621.000; -612.000
352.242;  -56.250; -464.000; -419.000
352.376;  -79.500; -580.000; -636.000
352.509;  104.000; -437.000; -356.000
352.642;  -36.850; -654.000; -604.000
352.775;   30.025; -141.000;  -98.000
352.908; -140.575; -933.000; -904.000
353.041; -108.575; -814.000; -824.000
353.174;  -74.075; -551.000; -424.000
353.307; -122.550; -753.000; -764.000
353.440;   54.300;  541.000;  453.000
353.573; -123.675; -957.000;-1008.000
353.706;  -78.675; -384.000; -558.000
353.839;  -35.475; -264.000; -220.000
353.971;  -95.725; -657.000; -512.000
354.104; -105.125; -896.000; -835.000
354.237;  -51.050; -627.000; -662.000
354.370;  -97.525; -846.000; -879.000
354.503; -196.400;-1231.000;-1308.000
354.636;  -60.325; -529.000; -348.000
354.769; -145.300; -937.000; -860.000
354.902;  -30.475; -230.000; -139.000
355.034;  -29.325; -164.000; -220.000
355.167;  -31.475; -262.000; -162.000
355.300;  -90.200;-1061.000; -880.000
355.433;  969.475;  -71.000;  -14.000
355.565; 1523.050; -402.000; -384.000
355.698;  374.575; -356.000; -296.000
355.831;  -41.325; -882.000; -801.000
355.964;   40.825; -285.000; -170.000
356.096; -111.800; -856.000; -843.000
356.229;  -37.725; -523.000; -530.000
356.362;  319.775; -373.000; -266.000
356.494;  619.250; -229.000; -162.000
356.627;  406.975;  269.000;  377.000
356.760;  637.725;  120.000;   53.000
356.892;  987.200; -286.000; -601.000
357.025;  551.500;  403.000;  389.000
357.157;  481.925; -167.000; -179.000
357.290;  699.850; -856.000; -713.000
357.423;  191.125; -667.000; -556.000
357.555;   79.375; -217.000; -228.000
357.688;   95.475; -483.000; -364.000
357.820;  368.125; -870.000; -877.000
357.953; 3271.950; -563.000; -589.000
358.085;  658.675; -632.000; -612.000
358.218;  810.425;-1131.000; -932.000
358.350;  137.650;  -58.000;  312.000
358.483; -139.125;-1300.000;-1187.000
358.615;  -68.375;-1182.000;-1078.000
358.747;  -95.300;-1187.000;-1058.000
358.880;  -22.725; -810.000; -744.000
359.012;  -31.725; -376.000; -202.000
359.145;  -52.550; -480.000; -511.000
359.277;   19.350; -962.000; -913.000
359.409; 2703.150;  536.000;  231.000
359.542;  659.150; -738.000; -688.000
359.674;   54.700;   46.000;   13.000
359.806;  -78.750; -565.000; -438.000
359.939;  -58.575; -617.000; -516.000
360.071;  -20.800; -583.000; -579.000
360.203;  -50.850; -411.000; -364.000
360.335;   37.075;  164.000;  -16.000
360.468;  153.000; -249.000; -307.000
360.600; 2187.025; -547.000; -454.000
360.732; 2958.200; -546.000; -423.000
360.864;  378.425;-1216.000;-1044.000
360.996;  181.350; -516.000; -554.000
361.129;    5.950; -389.000; -598.000
361.261;   11.900;  110.000; -113.000
361.393;  -39.750; -252.000; -214.000
361.525;    5.900;   94.000;  244.000
361.657;  -60.850; -821.000; -703.000
361.789;   -3.950; -139.000; -155.000
361.921;  146.400; -642.000; -593.000
362.053;  206.650;  524.000;  541.000
362.185;   17.425;  288.000;   72.000
362.318; -110.025; -709.000; -705.000
362.450;   81.400;  294.000;  444.000
362.582;   17.750; -913.000; -870.000
362.714;  -56.700; -353.000; -332.000
362.846;  -80.925; -606.000; -490.000
362.978; -148.400; -941.000; -811.000
363.109;    8.900; -161.000; -260.000
363.241;  310.000; -739.000; -749.000
363.373;  415.850; -649.000; -564.000
363.505;  673.475; -186.000;  -91.000
363.637;  121.375; -787.000; -601.000
363.769; -143.475;-1067.000;-1080.000
363.901;  -88.175; -596.000; -654.000
364.033; -140.800;-1103.000;-1062.000
364.165;  -23.625; -283.000; -283.000
364.296;   58.800; -316.000; -177.000
364.428;   60.850;-1344.000;-1220.000
364.560;  -78.900; -679.000; -661.000
364.692;  -81.750; -738.000; -835.000
364.824;  171.350; -588.000; -456.000
364.955;  423.450; -402.000; -564.000
365.087; 1001.925;-1097.000; -852.000
365.219;   18.525; -686.000; -816.000
365.351;  -70.400; -526.000; -572.000
365.482;   54.225;  300.000;  240.000
365.614;  -65.425; -402.000; -314.000
365.746; -129.625; -729.000; -752.000
365.877; -104.950; -706.000; -672.000
366.009;  265.650;  -35.000;  -62.000
366.141; -102.725;-1249.000;-1134.000
366.272; -122.200; -803.000; -719.000
366.404; -151.075;-1005.000; -874.000
366.535;  -23.125; -139.000;  -12.000
366.667; -101.875; -644.000; -649.000
366.799;   16.150;  353.000;  203.000
366.930; -145.075; -862.000; -996.000
367.062;  100.050; -639.000; -613.000
367.193;  160.925; -872.000; -842.000
367.325;  -60.700; -580.000; -684.000
367.456;   14.625; -246.000;   31.000
367.588;  150.000; -371.000; -318.000
367.719;    2.600;  -44.000;  -45.000
367.851;  -31.550; -222.000; -241.000
367.982;  -89.525; -875.000; -732.000
368.113;   53.475; -475.000; -358.000
368.245; -139.350; -960.000; -841.000
368.376;  -31.050; -254.000; -302.000
368.508;  -61.750; -188.000; -263.000
368.639; -156.425;-1166.000;-1034.000
368.770;  -31.075; -670.000; -589.000
368.902;  -87.325; -836.000; -926.000
369.033; -126.650; -906.000; -855.000
369.164;  -68.350; -720.000; -653.000
369.296; -121.125; -452.000; -601.000
369.427;  -13.950; -209.000; -144.000
369.558;  -83.125; -593.000; -377.000
369.689; -102.825; -721.000; -569.000
369.821; -147.350; -951.000; -845.000
369.952;  -29.175;   42.000; -108.000
370.083;  -58.625; -229.000; -108.000
370.214; -105.725; -735.000; -650.000
370.345;   -9.825;   65.000;   81.000
370.477; -102.525; -810.000; -790.000
370.608;  168.200; -328.000; -264.000
370.739;  -93.825;-1233.000;-1292.000
370.870;  -83.675;-1102.000; -923.000
371.001;   37.575; -378.000; -467.000
371.132;  -92.550; -754.000; -735.000
371.263;  -36.475;  -42.000; -148.000
371.394; -145.325; -841.000; -748.000
371.525;   23.575;  345.000;  225.000
371.657; -101.525; -808.000; -670.000
371.788;   51.925;  103.000;  199.000
371.919;  124.025; -384.000; -304.000
372.050; 3106.975;  -91.000; -156.000
372.181;  903.100; -188.000; -294.000
372.311;  272.900;   42.000; -127.000
372.442;    4.525; -457.000; -451.000
372.573;  -43.900; -444.000; -340.000
372.704; -132.050;-1008.000; -980.000
372.835;   47.600; -228.000; -289.000
372.966;  -73.400; -646.000; -554.000
373.097;  -87.575; -575.000; -711.000
373.228;  -62.550; -717.000; -542.000
373.359;   67.450; -824.000; -536.000
373.490;  707.175; -881.000; -727.000
373.620;  917.850;-1001.000; -803.000
373.751; 1421.450; -332.000; -396.000
373.882;  609.225; -663.000; -733.000
374.013;   27.175; -449.000; -262.000
374.143;  -66.400; -581.000; -659.000
374.274; -128.500; -987.000; -908.000
374.405;  115.875; -388.000; -276.000
374.536;  324.450; -526.000; -387.000
374.666;  831.600; -759.000; -807.000
374.797;  153.150; -817.000; -868.000
374.928;  666.550; -710.000; -560.000
375.058;  676.375; -535.000; -500.000
375.189;   51.475;  -59.000;  -93.000
375.320; -139.600; -928.000;-1034.000
375.450;  -62.900; -625.000; -616.000
375.581;  -67.150; -526.000; -436.000
375.712;  -52.525; -574.000; -250.000
375.842;  202.900; -438.000; -415.000
375.973;  127.775; -554.000; -513.000
376.103;  -67.850; -665.000; -648.000
376.234; -108.450; -531.000; -552.000
376.364;  -67.600; -944.000; -867.000
376.495;  262.850;  925.000;  529.000
376.625;  -45.900; -472.000; -485.000
376.756;    7.450; -709.000; -678.000
376.886; -120.925;-1178.000;-1026.000
377.017;   38.450;-1048.000;-1061.000
377.147;  371.275; -786.000; -782.000
377.278;   50.450;  174.000;  228.000
377.408; -135.950; -801.000; -815.000
377.538; -105.800; -707.000; -693.000
377.669;  -80.675; -537.000; -613.000
377.799; -124.150; -645.000; -635.000
377.929;  -88.525; -610.000; -428.000
378.060; -147.525; -781.000; -847.000
378.190;  -63.550; -726.000; -531.000
378.320;  -59.925; -401.000; -406.000
378.451;  -21.775; -131.000;  -22.000
378.581;  -21.675;  -67.000; -110.000
378.711;  137.900; 1035.000;  866.000
378.841;  -48.875; -533.000; -675.000
378.972;  -95.375; -871.000; -751.000
379.102;  -44.050; -652.000; -579.000
379.232;  -33.625; -126.000;  -73.000
379.362; -131.250;-1001.000; -885.000
379.492;  -18.500; -373.000; -424.000
379.623;   60.250;    0.000;  111.000
379.753; -132.225;-1107.000; -974.000
379.883;  138.950;   59.000;  156.000
380.013;  -36.775;-1081.000;-1017.000
380.143; -129.525;-1097.000;-1056.000
380.273; -110.150; -985.000; -861.000
380.403;  -19.475; -344.000; -257.000
380.533;  -50.425; -651.000; -664.000
380.663;   39.500;  173.000;  128.000
380.793; -135.825;-1027.000;-1074.000
380.923;  -34.750; -103.000;  -34.000
381.053; -107.700; -613.000; -623.000
381.183;  -35.550; -106.000; -248.000
381.313;    5.800; -656.000; -470.000
381.443;   -9.875; -692.000; -473.000
381.573;  100.375; -402.000; -409.000
381.703;  153.000;-1249.000;-1095.000
381.833; -168.550;-1454.000;-1336.000
381.963;   89.550; -134.000;  -87.000
382.093; 1196.250; -925.000; -909.000
382.223;  320.125; -713.000; -602.000
382.353;  -54.400; -801.000; -608.000
382.482;  240.075;-1091.000; -964.000
382.612;  620.575; -872.000; -644.000
382.742;  302.950; -695.000; -622.000
382.872;  171.325; -565.000; -551.000
383.002;   28.750;  347.000; -132.000
383.131;  -40.050; -226.000; -160.000
383.261;  -58.950; -706.000; -768.000
383.391;  261.600; -552.000; -377.000
383.521; 3402.550;  451.000;  263.000
383.650;  782.300; -947.000; -904.000
383.780;  -41.575; -783.000; -656.000
383.910;  100.650;  880.000;  802.000
384.039;  -17.425; -794.000; -656.000
384.169;  115.000;-1205.000;-1017.000
384.299;  -57.825; -650.000; -662.000
384.428; -110.275; -764.000; -680.000
384.558;  -73.550; -308.000; -275.000
384.687;  -72.625; -414.000; -334.000
384.817;    1.025;   75.000;   -2.000
384.947;   -3.800; -234.000; -141.000
385.076;  226.975;  982.000;  912.000
385.206;   73.750;  369.000;  480.000
385.335;  -57.125; -549.000; -417.000
385.465; -108.300; -655.000; -663.000
385.594;   77.650;  -53.000;  -44.000
385.724;  306.500; -868.000; -838.000
385.853;   66.125; -296.000; -270.000
385.982; 1134.600; -743.000; -787.000
386.112; 1736.875;-1052.000; -871.000
386.241;   80.050; -307.000; -312.000
386.371;  -26.050; -174.000;  -87.000
386.500;  -52.600; -825.000; -789.000
386.629;   -6.325; -874.000; -817.000
386.759;   53.850;  -43.000;   68.000
386.888;  -30.675; -170.000; -250.000
387.017; -112.825; -648.000; -620.000
387.147; -125.425; -771.000; -798.000
387.276;  -39.600; -410.000; -397.000
387.405;  -27.750; -398.000; -342.000
387.535;  -59.550; -452.000; -361.000
387.664;  -68.050; -692.000; -620.000
387.793;   33.550; -198.000; -113.000
387.922;  400.750;  255.000;  200.000
388.052;  -29.425; -576.000; -423.000
388.181;  -39.925; -342.000; -472.000
388.310;  -57.775; -889.000; -710.000
388.439;  -92.250; -749.000; -742.000
388.568;  138.575;  365.000;  244.000
388.697;  829.075; -756.000; -653.000
388.826;  129.400; -768.000; -666.000
388.956;   13.875; -285.000; -307.000
389.085;  -52.125; -347.000; -287.000
389.214; -140.450; -842.000; -872.000
389.343;  -93.925; -645.000; -413.000
389.472;  403.225;  126.000;  149.000
389.601;  485.550;   91.000;    0.000
389.730;  -20.225; -568.000; -687.000
389.859;   45.900;  226.000;   46.000
389.988;  126.675; -423.000; -408.000
390.117;   83.825; -168.000; -146.000
390.246;  -36.875; -331.000; -320.000
390.375;   35.625; -673.000; -626.000
390.504;  -89.300; -703.000; -621.000
390.633; -114.650; -672.000; -726.000
390.761;  -96.000; -732.000; -645.000
390.890;  -11.675;   -4.000; -130.000
391.019;  -64.925; -421.000; -441.000
391.148; -151.975; -826.000; -855.000
391.277;  -98.225; -576.000; -493.000
391.406; -112.300; -821.000; -805.000
391.534;    1.250;  574.000; -301.000
391.663;  -89.300; -583.000; -645.000
391.792; -110.350; -673.000; -701.000
391.921;   56.200;   -3.000;   15.000
392.050;  115.050; -287.000; -228.000
392.178;  -85.850;-1206.000;-1061.000
392.307;   97.450; -758.000; -712.000
392.436;   29.400; -427.000; -641.000
392.564;   -1.800;  166.000;   -6.000
392.693; -103.325; -860.000; -682.000
392.822;  132.325; -529.000; -534.000
392.950;   33.950; -880.000; -714.000
393.079;  226.475; -188.000; -328.000
393.208;   -9.000; -488.000; -511.000
393.336;  -48.175; -170.000; -145.000
393.465;  -63.625; -317.000; -199.000
393.593;  -14.675;   62.000;   79.000
393.722; -178.525;-1121.000; -916.000
393.850;  -45.325; -188.000;  -61.000
393.979; -162.825; -926.000; -805.000
394.107;  -81.900; -517.000; -537.000
394.236;  -53.925; -570.000; -507.000
394.364;  129.975;  383.000;  206.000
394.493;  201.475; -911.000; -767.000
394.621;  -44.650; -955.000; -916.000
394.750;  728.950; -873.000; -923.000
394.878; 3051.200; -247.000; -149.000
395.007; 4083.200; -721.000; -807.000
395.135;  282.600; -790.000; -721.000
395.263;  -98.950;-1038.000;-1040.000
395.392;   -9.400;  -25.000; -107.000
395.520; -157.775; -818.000; -679.000
395.648; -106.925; -865.000; -915.000
395.777;  -54.200; -366.000; -405.000
395.905;  -79.400; -449.000; -564.000
396.033;   -9.275;  217.000;  172.000
396.162;  341.525; -399.000; -453.000
396.290;  295.000;  -17.000;   -2.000
396.418;   48.075; -555.000; -514.000
396.546; -106.750; -571.000; -466.000
396.674; -126.150; -850.000; -878.000
396.803;   -6.350;  -72.000;  -23.000
396.931;   47.025; -179.000; -199.000
397.059;  -19.750;-1026.000; -989.000
397.187; -144.000;-1026.000; -975.000
397.315; -148.275; -884.000; -649.000
397.443; -115.925; -592.000; -443.000
397.572; -116.925; -578.000; -424.000
397.700;  -57.325; -607.000; -614.000
397.828;   -6.850;  120.000;  -90.000
397.956;  -61.300; -508.000; -478.000
398.084;  -72.200; -767.000; -626.000
398.212;   22.300;  137.000;  124.000
398.340;  -18.825;  -56.000;  159.000
398.468;  -14.125; -390.000; -169.000
398.596; -159.250; -993.000; -953.000
398.724; -150.425; -762.000; -767.000
398.852; -181.000;-1024.000; -976.000
398.980;  -84.225; -560.000; -560.000
399.108;  -81.750; -982.000; -735.000
399.236;    5.950;   13.000;    8.000
399.363;    9.275;  222.000;  196.000
399.491;  -86.650; -404.000; -398.000
399.619; -136.875; -829.000; -800.000
399.747; -132.475; -859.000; -771.000
399.875;   49.250;  220.000;  234.000
400.003;  -70.350; -359.000; -284.000
400.130;  -98.950; -421.000; -341.000
400.258;  -45.725;  -83.000;   38.000
400.386;  -79.525; -352.000; -168.000
400.514;  -75.950; -526.000; -587.000
400.641; -121.275; -928.000; -802.000
400.769; -157.075; -979.000; -888.000
400.897; -135.575; -838.000; -793.000
401.025;  -43.400; -166.000; -152.000
401.152;  -18.725;  220.000;   38.000
401.280;  -94.975; -430.000; -429.000
401.408; -131.000; -712.000; -576.000
401.535; -131.150; -735.000; -758.000
401.663; -205.475;-1134.000;-1054.000
401.790;  -97.825; -514.000; -525.000
401.918;   32.275;  436.000;  405.000
402.046;  -41.550;  134.000;  122.000
402.173;  -34.800;  -18.000;    7.000
402.301;  -92.600; -519.000; -397.000
402.428;   21.075;  528.000;  383.000
402.556; -157.100;-1188.000; -913.000
402.683;  -32.450;  -20.000;   -1.000
402.811;  -39.425;  -37.000; -206.000
402.938;   -8.725;   20.000;   27.000
403.066;  134.175; -574.000; -558.000
403.193;  260.475;  299.000;  239.000
403.321;  192.100; -396.000; -574.000
403.448;  252.850;   83.000;   27.000
403.575;  101.100;  -90.000;  -46.000
403.703; -117.675; -732.000; -557.000
403.830;  -71.425; -531.000; -496.000
403.957; -153.250;-1117.000;-1023.000
404.085;   10.500;  -61.000; -172.000
404.212;   78.900;  -50.000;   63.000
404.339;  276.475; -566.000; -306.000
404.467; 6106.750; -612.000; -524.000
404.594; 3675.025; -287.000; -227.000
404.721;  779.075; -869.000; -764.000
404.848;   45.975; -113.000; -202.000
404.976; -131.575; -856.000; -783.000
405.103;  -31.925;  -14.000;  -82.000
405.230;  -13.625;  190.000;  226.000
405.357;    2.200;  117.000;   44.000
405.484;  281.300;  -49.000;    5.000
405.612;   15.100; -548.000; -563.000
405.739;  -65.575; -488.000; -243.000
405.866;   65.125;  669.000;  385.000
405.993;  -58.500; -398.000; -102.000
406.120; -162.175; -801.000; -887.000
406.247;  -66.975; -323.000; -342.000
406.374;  322.125;  540.000;  629.000
406.501;   30.125; -632.000; -702.000
406.628; -102.525; -621.000; -589.000
406.755; -130.300; -803.000; -620.000
406.882;  -54.475; -228.000; -277.000
407.009; -135.275; -719.000; -628.000
407.136;    6.175; -480.000; -401.000
407.263;   44.700; -939.000; -829.000
407.390;  -97.975; -692.000; -614.000
407.517; -180.850;-1139.000;-1187.000
407.644;  -89.625; -332.000; -256.000
407.771; -146.150; -249.000; -287.000
407.898;  -13.350;  168.000;  328.000
408.025;  -81.900; -421.000; -313.000
408.151;  -27.975;   82.000;  153.000
408.278;  -75.125; -267.000; -216.000
408.405; -135.125; -931.000; -899.000
408.532;  -83.075; -549.000; -542.000
408.659; -133.575; -677.000; -648.000
408.785; -223.100;-1298.000;-1170.000
408.912;  -88.700; -412.000; -296.000
409.039; -115.950; -610.000; -686.000
409.166; -123.025; -591.000; -555.000
409.292; -127.850; -571.000; -534.000
409.419; -134.300; -665.000; -649.000
409.546; -100.675; -431.000; -192.000
409.672; -124.050; -713.000; -545.000
409.799;  -35.150;  -36.000;   34.000
409.926;  -47.225; -180.000; -179.000
410.052; -197.925;-1127.000;-1091.000
410.179;  -73.350; -368.000; -392.000
410.305; -111.525; -375.000; -493.000
410.432;  -57.925; -220.000; -333.000
410.558; -103.275; -305.000; -380.000
410.685; -120.250; -688.000; -431.000
410.812; -113.475; -409.000; -588.000
410.938; -159.825; -964.000; -808.000
411.065; -126.525; -671.000; -645.000
411.191;  -38.425; -189.000; -174.000
411.317; -136.400; -823.000; -742.000
411.444;  -69.050; -317.000; -246.000
411.570;  -95.775; -339.000; -294.000
411.697; -142.975; -758.000; -752.000
411.823; -182.175; -989.000; -999.000
411.949;  -64.275;  -56.000;   17.000
412.076; -123.700; -539.000; -519.000
412.202; -130.650; -758.000; -757.000
412.329; -142.300; -798.000; -752.000
412.455; -116.600; -821.000; -657.000
412.581;  -32.300;  -15.000;  172.000
412.707;  -86.850; -540.000; -457.000
412.834;  -10.125;  156.000;  219.000
412.960; -113.600; -785.000; -784.000
413.086; -116.500; -743.000; -701.000
413.212;  113.650;  604.000;  578.000
413.339;  -86.825; -685.000; -701.000
413.465;  -31.625; -364.000; -310.000
413.591; -110.850; -757.000; -474.000
413.717;  -59.100; -358.000; -366.000
413.843; -157.125; -839.000; -861.000
413.969;  -64.750;  -47.000; -292.000
414.096; -117.525; -679.000; -679.000
414.222;  -30.675;  -33.000;   85.000
414.348;  -67.250; -652.000; -385.000
414.474;   48.575;   38.000;  -52.000
414.600;  -28.825; -126.000; -144.000
414.726;  -18.450;  -96.000;  -55.000
414.852;  -71.625; -365.000; -342.000
414.978;   22.325;  104.000;  -18.000
415.104;   31.875;   38.000;   80.000
415.230;   11.000; -329.000; -330.000
415.356;   24.600; -409.000; -514.000
415.482;  187.950;   13.000;  -35.000
415.608;  263.825; -247.000; -323.000
415.734;  980.050;   67.000;   38.000
415.860;20616.000; -875.000; -767.000
415.986;14421.275; -685.000; -607.000
416.111; 1194.775; -798.000; -652.000
416.237;  239.025; -424.000; -571.000
416.363; 1197.600; -765.000; -733.000
416.489; 4340.275; -324.000; -251.000
416.615;  428.750; -707.000; -742.000
416.741;  -39.350; -677.000; -784.000
416.866;  -99.275; -673.000; -736.000
416.992; -126.800; -801.000; -818.000
417.118;  -38.750;  -41.000;  -80.000
417.244; -101.250; -798.000; -531.000
417.369; -108.900; -801.000; -612.000
417.495;  -17.300; -325.000; -254.000
417.621; -118.400;-1015.000; -803.000
417.746;  -20.150; -579.000; -572.000
417.872;   44.425; -254.000; -144.000
417.998;   45.225; -515.000; -530.000
418.123; 1117.875;-1073.000; -845.000
418.249; 5614.825; -512.000; -601.000
418.374;  725.575; -916.000; -824.000
418.500;  114.800; -383.000; -482.000
418.626;  102.550;   70.000;  -59.000
418.751;  101.300; -549.000; -448.000
418.877;  191.925; -637.000; -643.000
419.002; 1909.975; -688.000; -560.000
419.128;13089.875; -930.000; -721.000
419.253; 3113.450; -967.000; -837.000
419.379;  408.025; -391.000; -338.000
419.504;  366.550;  325.000;  415.000
419.629;  534.550; -393.000; -212.000
419.755; 3866.750; -317.000; -254.000
419.880;22524.200;  -98.000;   67.000
420.006;11966.725; -280.000; -221.000
420.131;30277.200; -662.000; -775.000
420.256; 4182.050; -315.000; -316.000
420.382;  565.600; -665.000; -687.000
420.507;   61.800; -649.000; -778.000
420.632;   85.675; -337.000; -339.000
420.758;  151.325; -251.000; -425.000
420.883; -109.325; -876.000; -672.000
421.008; -109.050; -775.000; -619.000
421.133;  -96.700; -509.000; -467.000
421.259;  -57.275; -325.000; -259.000
421.384; -141.325; -834.000; -693.000
421.509;  -72.925;-1052.000; -862.000
421.634;  836.325; -936.000; -820.000
421.759;  324.975; -359.000; -327.000
421.885;  -86.625; -717.000; -656.000
422.010;  -98.175; -673.000; -542.000
422.135; -166.200; -695.000; -727.000
422.260;    6.025;  340.000;  280.000
422.385;  -52.900;   12.000;  -98.000
422.510;    0.225;  151.000;  -26.000
422.635;  -10.000;  -87.000;  -43.000
422.760;   58.475; -766.000; -791.000
422.885;   32.750;  -57.000;  -80.000
423.010;  -49.050; -112.000; -169.000
423.135; -102.325; -481.000; -561.000
423.260;  -29.000; -150.000; -245.000
423.385;   50.175;  476.000;  222.000
423.510;    2.925;   71.000;  -22.000
423.635;   52.925;  133.000;   45.000
423.760;   58.675;  383.000;  328.000
423.885;   42.325;  336.000;  391.000
424.010;  -13.700;  -68.000;  -13.000
424.135;  -30.225;    5.000;  -33.000
424.259; -106.725; -654.000; -457.000
424.384;  -67.850; -279.000; -272.000
424.509;  -36.900; -260.000; -186.000
424.634; -111.900; -761.000; -623.000
424.759;  -40.100; -688.000; -544.000
424.883;  -21.525; -506.000; -527.000
425.008;  153.050; -502.000; -410.000
425.133; 2061.075; -679.000; -653.000
425.258;  918.975; -517.000; -381.000
425.382;  905.625; -867.000; -774.000
425.507; 2208.175; -487.000; -543.000
425.632;  378.275; -802.000; -663.000
425.756;  453.350; -256.000; -146.000
425.881; 7297.400; -831.000; -857.000
426.006;19096.750; -604.000; -355.000
426.130; 2833.425; -696.000; -508.000
426.255;  350.050; -611.000; -491.000
426.379;  163.675; -189.000; -577.000
426.504;  375.450;  660.000;  544.000
426.629; 4173.250; -519.000; -466.000
426.753; 2773.375;   64.000;  -46.000
426.878;  315.000; -252.000; -288.000
427.002;  169.050; -651.000; -668.000
427.127; 1659.850;  -35.000; -158.000
427.251;11901.225;  372.000;  401.000
427.375; 3217.325; -191.000; -173.000
427.500; 1996.900; -616.000; -610.000
427.624;  619.825; -234.000; -400.000
427.749;   54.150; -216.000; -225.000
427.873;  -61.275; -499.000; -412.000
427.997;  -55.200; -222.000; -230.000
428.122;   65.975;  795.000;  703.000
428.246;   59.500;  433.000;  434.000
428.371; -142.800; -869.000; -773.000
428.495; -118.975; -624.000; -646.000
428.619;  -57.075; -186.000; -117.000
428.743;   14.575;   65.000;  132.000
428.868;  -19.275; -732.000; -643.000
428.992; 1164.550; -219.000; -326.000
429.116;  425.825; -329.000; -357.000
429.240;  200.325;  419.000;  426.000
429.365;  -41.850; -454.000; -574.000
429.489;  -74.250; -638.000; -647.000
429.613;  -11.750; -236.000; -177.000
429.737;   26.200; -563.000; -432.000
429.861;  260.125; -247.000; -133.000
429.985; 5841.525; -425.000; -305.000
430.109; 6224.625; -770.000; -908.000
430.234;  678.100;   76.000;  -50.000
430.358;   43.550; -250.000; -160.000
430.482;  -89.675; -672.000; -564.000
430.606;  -74.075; -655.000; -375.000
430.730;  -29.075; -437.000; -388.000
430.854;   35.475; -909.000; -835.000
430.978; -107.625; -795.000; -764.000
431.102; -105.400; -499.000; -422.000
431.226; -136.150; -874.000; -815.000
431.350;   12.175;  345.000;  422.000
431.474;  -93.225; -661.000; -373.000
431.597; -172.700;-1060.000; -848.000
431.721;  -94.175; -276.000; -267.000
431.845; -159.050; -704.000; -472.000
431.969;  -87.150; -304.000; -349.000
432.093; -102.150; -395.000; -317.000
432.217;  -37.175;   32.000;   82.000
432.341;  -95.425; -523.000; -518.000
432.464;  -13.850;   96.000;   40.000
432.588;  103.275; -401.000; -329.000
432.712;   49.875;  -52.000;  -52.000
432.836;   35.725;  213.000;  263.000
432.959;  -35.575; -372.000; -311.000
433.083;   79.925;   11.000;    2.000
433.207;  367.650;  285.000;  930.000
433.330; 5393.175; -391.000; -200.000
433.454; 6445.575; -654.000; -638.000
433.578; 3716.850;  583.000;  278.000
433.701;  631.650; -623.000; -675.000
433.825;   99.425; -292.000; -299.000
433.949;  104.075;   28.000;  -72.000
434.072;    0.250; -410.000; -323.000
434.196;  -38.475; -309.000; -117.000
434.319; 3829.400;25482.000;25124.000
434.443;  700.200; -656.000; -603.000
434.566; 2720.075;  281.000;   62.000
434.690;  433.450; -637.000; -383.000
434.813;   31.975; -251.000; -173.000
434.937;  -90.675; -569.000; -696.000
435.060;  -79.925; -423.000; -332.000
435.184;  164.300; -492.000; -217.000
435.307;   82.850;  159.000;  102.000
435.431;  -36.100;  -40.000;   24.000
435.554;  -89.825; -399.000; -240.000
435.677;  -84.350; -350.000; -258.000
435.801;  -56.100;  -25.000;   49.000
435.924;  -45.975;    1.000;  -67.000
436.048; -141.850;-1019.000; -732.000
436.171;  -77.550; -240.000;  -66.000
436.294;  -37.750; -248.000; -229.000
436.417;   77.025; -963.000; -849.000
436.541; -105.050; -814.000; -840.000
436.664;  -62.375; -242.000; -316.000
436.787;  -41.600;   13.000;  113.000
436.910; -127.550; -792.000; -422.000
437.034;  -11.525;  142.000;  143.000
437.157;   16.700;  -11.000;    0.000
437.280;  -84.200; -392.000; -292.000
437.403; -119.000; -982.000; -869.000
437.526;  414.775; -903.000; -865.000
437.649; 1585.550; -505.000; -332.000
437.772;  170.625; -692.000; -540.000
437.896;   88.125;  700.000;  544.000
438.019; -116.525; -758.000; -503.000
438.142; -102.175; -596.000; -506.000
438.265;  -54.475; -639.000; -670.000
438.388;  366.850; -520.000; -410.000
438.511;   16.850; -597.000; -394.000
438.634;  -70.100; -247.000; -125.000
438.757; -147.900; -693.000; -619.000
438.880;  -36.950;  -34.000;  -57.000
439.003; -105.925; -417.000; -437.000
439.126;  -79.875; -287.000; -167.000
439.248;  -73.350;  -98.000; -139.000
439.371;  -54.675;    9.000;  -53.000
439.494;   17.875;  510.000;  439.000
439.617;  -69.300;   65.000;  -88.000
439.740; -197.650; -968.000; -816.000
439.863; -152.150; -755.000; -595.000
439.986; -135.850; -476.000; -431.000
440.108;  -59.825; -161.000; -112.000
440.231; -196.075; -950.000; -836.000
440.354;  -53.650;  -64.000; -150.000
440.477;  -35.975; -566.000; -542.000
440.599;  -44.250; -200.000; -225.000
440.722; -140.325; -709.000; -586.000
440.845;   57.200;  751.000;  928.000
440.968; -114.950; -415.000; -311.000
441.090;  -92.375; -199.000;  -33.000
441.213; -185.125;-1021.000; -825.000
441.336;  -67.625; -159.000;   -5.000
441.458; -113.900; -549.000; -396.000
441.581; -100.250; -628.000; -629.000
441.703;  -91.625; -152.000;   13.000
441.826; -129.175; -557.000; -400.000
441.948;  -65.700;   56.000;   51.000
442.071;   29.050;  555.000;  424.000
442.193; -129.500; -531.000; -485.000
442.316;  -13.100;  152.000;   97.000
442.438;   29.875; -233.000;  -10.000
442.561;   41.375;  272.000;  262.000
442.683;  358.850; -809.000; -522.000
442.806;  801.425;   -8.000;   74.000
442.928;  -39.525; -859.000; -604.000
443.051;  -79.800; -577.000; -373.000
443.173; -102.750; -341.000; -339.000
443.295; -122.475; -263.000; -371.000
443.418;  -90.475; -321.000;  -29.000
443.540;  -30.925; -106.000;   -4.000
443.662; -142.050; -563.000; -465.000
443.785;  -30.750;  335.000;  199.000
443.907; -125.825; -362.000; -208.000
444.029; -139.675; -767.000; -494.000
444.152; -156.425; -644.000; -554.000
444.274;  -57.725;  -18.000;  -24.000
444.396; -120.900; -461.000; -221.000
444.518; -140.425; -691.000; -454.000
444.640; -117.400; -268.000; -111.000
444.763;  -35.275;  388.000;  249.000
444.885; -138.175; -432.000; -392.000
445.007;  -51.600;   35.000;   86.000
445.129; -128.825; -610.000; -515.000
445.251; -120.375; -372.000; -439.000
445.373; -148.750; -537.000; -386.000
445.495;   -6.350;  242.000;  350.000
445.617;   52.600;  853.000;  753.000
445.739;  -77.300; -215.000;  -97.000
445.861;  -41.625; -245.000; -112.000
445.984;  -63.200; -267.000; -101.000
446.105;  101.175; -418.000; -251.000
446.227;  426.625; -176.000;  -19.000
446.349;  -49.325; -358.000; -249.000
446.471; -115.925; -615.000; -448.000
446.593;  -86.600; -316.000;   19.000
446.715;  -30.425;  -67.000;   41.000
446.837;   63.525;  697.000;  832.000
446.959; -121.850; -457.000; -478.000
447.081; -141.925; -628.000; -518.000
447.203;   39.850;  862.000;  834.000
447.325;  -96.825; -270.000;   42.000
447.446;  -26.575;  286.000;  530.000
447.568; -177.350; -921.000; -803.000
447.690;  -90.050; -236.000; -245.000
447.812; -155.600; -798.000; -519.000
447.933;  -46.200;  155.000;  127.000
448.055;  -76.900; -306.000; -261.000
448.177;   84.725;   31.000;   79.000
448.299;    4.825; -935.000; -727.000
448.420;    3.500;  -25.000;  159.000
448.542;  -65.275;   -3.000;   33.000
448.664;  -39.400;  109.000;  322.000
448.785;  -52.925;  265.000;   83.000
448.907;  -96.300; -614.000; -353.000
449.028;  -68.175; -771.000; -471.000
449.150;   48.900;  492.000;  589.000
449.272; -187.775;-1044.000; -913.000
449.393;    4.900;  612.000;  694.000
449.515; -150.200; -634.000; -581.000
449.636;  -72.550; -264.000; -155.000
449.758;   57.650;  763.000;  622.000
449.879; -100.775; -498.000; -396.000
450.001;  -81.475; -149.000;  -49.000
450.122;  -49.500;  -95.000;  162.000
450.244;  -37.900;   37.000;  364.000
450.365; -101.825; -495.000; -301.000
450.486;  -39.925;   80.000;  268.000
450.608;   23.550;  393.000;  326.000
450.729;   55.950;  578.000;  645.000
450.850;    1.525; -574.000; -466.000
450.972;  825.125; -552.000; -389.000
451.093; 5250.900;  190.000;  588.000
451.214; 2208.500; -516.000; -337.000
451.336;  391.975;  773.000;  579.000
451.457;   56.325;  264.000;  393.000
451.578;  -52.675; -118.000;  -74.000
451.699; -141.475; -546.000; -540.000
451.821;  -85.325; -284.000;  -50.000
451.942;   -1.925;  278.000;  285.000
452.063;   24.625;  228.000;  419.000
452.184;  585.850;  -54.000;  -49.000
452.305; 1122.725;  103.000;  170.000
452.427;  109.500; -549.000; -301.000
452.548;  -13.125;   23.000;   79.000
452.669;  -72.175; -257.000;  -89.000
452.790;  -66.350;    3.000;  -18.000
452.911;  -15.675;  195.000;  259.000
453.032;  -78.750; -289.000;  -60.000
453.153;  -57.425;  -29.000;   81.000
453.274;   53.000;  737.000;  868.000
453.395;  -70.575;  -51.000;  175.000
453.516;  102.000; 1317.000; 1388.000
453.637;  -84.725; -205.000; -150.000
453.758;  -69.600;   15.000;   69.000
453.879; -137.025; -462.000; -250.000
454.000;   70.200; 1086.000;  948.000
454.121; -139.225; -554.000; -326.000
454.242; -135.725; -599.000; -383.000
454.362;  -74.600;  -99.000;  114.000
454.483;  -61.000; -309.000; -229.000
454.604;   44.800;  512.000;  580.000
454.725; -148.300; -627.000; -555.000
454.846; -151.425; -474.000; -406.000
454.967;  -27.100;  230.000;  539.000
455.087;  -59.025;  179.000;  153.000
455.208;    9.075;  554.000;  856.000
455.329;  -83.200;  -22.000;   82.000
455.450;   20.300;  473.000;  633.000
455.570;  -96.500; -234.000; -211.000
455.691;  -48.775;  201.000;  407.000
455.812; -119.475; -270.000;  -92.000
455.932;  -77.425;  107.000;  -97.000
456.053;  -92.625;   36.000;   24.000
456.173; -118.025; -433.000; -355.000
456.294; -151.125; -476.000; -303.000
456.415;  -86.175;  -73.000;   70.000
456.535;  -66.525;  297.000;  273.000
456.656;  -47.175;  132.000;  240.000
456.776;  -79.075;    3.000;  298.000
456.897;  -16.950;  308.000;  513.000
457.017;  -88.800; -153.000;   -3.000
457.138; -127.675; -402.000; -249.000
457.258;  -40.175;  263.000;  224.000
457.379;  -28.300;  509.000;  521.000
457.499;  -42.625;  443.000;  432.000
457.620; -145.750; -407.000; -231.000
457.740; -115.125; -132.000;  -11.000
457.860;  -63.800;   87.000;   44.000
457.981;  -66.150;  132.000;  124.000
458.101; -109.775;  -89.000;   40.000
458.221;  -24.225;  336.000;  402.000
458.342;  -79.775;   -4.000;  -37.000
458.462;   21.075;  617.000;  352.000
458.582;  -40.025; -302.000; -294.000
458.703;    3.250;  303.000;  154.000
458.823;  -31.500;   22.000;  163.000
458.943;   18.200;  341.000;  467.000
459.063;  -34.000; 1124.000;  192.000
459.183;  -36.550;  328.000;  313.000
459.304;    4.000;  315.000;  517.000
459.424;  -57.650; -246.000;  -89.000
459.544;  319.925;  388.000;  764.000
459.664;  866.975;  499.000;  506.000
459.784;  298.300; 1004.000; 1175.000
459.904;   40.425;  867.000;  744.000
460.024;   54.800;  867.000;  684.000
460.144;    0.100;  449.000;  554.000
460.264;  -14.025;  515.000;  327.000
460.385; -106.675; -145.000; -119.000
460.505;   22.225;  905.000;  858.000
460.625;  -97.250;  -17.000;  -68.000
460.745;  -26.200;  396.000;  541.000
460.864;  -63.625;  153.000;  469.000
460.984;  -14.725;  499.000;  573.000
461.104;  142.150; 1656.000; 1775.000
461.224;    6.600;  657.000;  650.000
461.344;  -43.825;  431.000;  360.000
461.464;  -37.225;  258.000;  513.000
461.584;  -11.725;  283.000;  466.000
461.704;  -65.650;   58.000;  108.000
461.824;  -59.550;  238.000;  259.000
461.943;  -56.000;  191.000;  130.000
462.063;  -90.650;    2.000;  324.000
462.183;   19.275;  639.000;  717.000
462.303;   94.675; 1678.000; 1230.000
462.422;   19.050;  781.000;  840.000
462.542;  -57.900;  271.000;  391.000
462.662;   25.475;  353.000;  380.000
462.782;  235.850;  833.000;  572.000
462.901;  497.400;  545.000;  717.000
463.021;  278.475; 1702.000; 1638.000
463.141;  -19.125;  337.000;  770.000
463.260;  -14.325;  614.000;  474.000
463.380;   -3.175;  902.000;  884.000
463.499;  -55.700;  342.000;  332.000
463.619;  -43.025;  581.000;  559.000
463.738;  102.400; 1644.000;  903.000
463.858;    9.375;  657.000;  811.000
463.978;  -41.450;  542.000;  396.000
464.097;   51.675;  921.000; 1114.000
464.217;  105.375; 1196.000; 1143.000
464.336;  111.475; 1068.000; 1130.000
464.455;  -35.675;  328.000;  659.000
464.575;   17.775;  597.000;  602.000
464.694;  132.200; 1204.000; 1179.000
464.814;  105.075; 1190.000; 1138.000
464.933;   72.125; 1095.000; 1027.000
465.052;   75.900; 1412.000; 1054.000
465.172;   75.125;  922.000;  799.000
465.291;  118.850; 1376.000; 1320.000
465.410;   -2.000;  462.000;  735.000
465.530;   71.650; 1355.000; 1310.000
465.649;   55.400; 1209.000; 1273.000
465.768;  130.625; 1673.000; 1508.000
465.888;   35.575;  941.000; 1174.000
466.007;   87.150; 1335.000; 1440.000
466.126;  -15.975;  721.000;  641.000
466.245;   20.500; 1176.000; 1187.000
466.364;   11.175;  950.000; 1060.000
466.484;   43.875; 1024.000; 1213.000
466.603;   28.175; 1101.000; 1222.000
466.722;   94.675; 1490.000; 1769.000
466.841;   48.600; 1151.000; 1401.000
466.960;   15.125; 1069.000;  972.000
467.079;  125.800; 1971.000; 1786.000
467.198;   37.750; 1238.000; 1181.000
467.317;   75.225; 1768.000; 1162.000
467.436;   57.700; 1709.000; 1261.000
467.555;  129.800; 1796.000; 1746.000
467.674;   54.550; 1227.000; 1329.000
467.793;   37.000; 1376.000; 1374.000
467.912;   67.875; 1658.000; 1539.000
468.031;  127.500; 2038.000; 1930.000
468.150;  134.275; 1842.000; 1837.000
468.269;  194.300; 2313.000; 2090.000
468.388;  169.525; 2168.000; 2339.000
468.507;  247.375; 2884.000; 2903.000
468.626;  223.900; 2555.000; 2541.000
468.744;  116.250; 2018.000; 2174.000
468.863;  177.625; 2312.000; 2523.000
468.982;   87.825; 1503.000; 1555.000
469.101;  196.950; 2788.000; 2692.000
469.220;  156.025; 2333.000; 2176.000
469.338;  240.700; 2935.000; 3051.000
469.457;  198.475; 2719.000; 2545.000
469.576;  342.300; 3953.000; 3784.000
469.695;  221.925; 2877.000; 3066.000
469.813;  435.400; 4148.000; 4192.000
469.932;  402.700; 4255.000; 4485.000
470.051;  439.800; 4075.000; 4161.000
470.169;  890.900; 4470.000; 4338.000
470.288; 1491.275; 4700.000; 4809.000
470.406;  860.250; 5059.000; 5194.000
470.525;  625.475; 6101.000; 5787.000
470.644;  647.950; 6847.000; 6794.000
470.762;  817.375; 8397.000; 7873.000
470.881;  916.525; 8651.000; 8464.000
470.999; 1045.325; 9685.000; 9151.000
471.118; 1118.200;11174.000;10711.000

