
Integration time [ms]: 100.000
Averaging Nr. [scans]: 40
Smoothing Nr. [pixels]: 0
Data measured with spectrometer [name]: 2101012U2
Wave   ;Sample   ;Dark     ;Reference
[nm]   ;[counts] ;[counts] ;[counts] 

197.733;   58.350;  516.000;  404.000
197.879;  -92.025; -610.000; -634.000
198.025;  -45.300; -475.000; -420.000
198.171;  -69.250; -602.000; -612.000
198.317;  -29.500; -401.000; -316.000
198.463;  -64.450; -655.000; -404.000
198.609;   37.025;  181.000; -137.000
198.755;  -70.450; -644.000; -410.000
198.901;  -57.050; -505.000; -424.000
199.047;  -55.150; -615.000; -488.000
199.193;  -26.925; -230.000; -468.000
199.339;  -34.775; -222.000; -369.000
199.485;   35.775;  330.000;  271.000
199.631;   13.525;  227.000;  310.000
199.777;  -45.150; -466.000; -398.000
199.923;  -55.500; -610.000; -424.000
200.069;    8.525; -141.000;  -58.000
200.215;   64.775;  128.000;  453.000
200.361;   46.900;  243.000;  477.000
200.507;  -58.125; -600.000; -373.000
200.653;  -26.100; -371.000; -194.000
200.798;  -30.200; -215.000; -125.000
200.944;  -10.725; -146.000;  -41.000
201.090;   35.575;   61.000;  222.000
201.236;    1.250; -116.000; -158.000
201.382;  127.475;  874.000;  903.000
201.528;    7.850;  -58.000;  -48.000
201.674;  -44.625; -386.000; -293.000
201.819;  -58.200; -540.000; -439.000
201.965;  -79.675; -699.000; -447.000
202.111;  -18.375; -273.000; -226.000
202.257;  -41.650; -250.000; -238.000
202.402;    8.950;   13.000;  -36.000
202.548;  -35.450; -169.000; -116.000
202.694;   86.550;  410.000; -183.000
202.840;  -66.675; -603.000; -531.000
202.985;  -82.400; -681.000; -639.000
203.131; -104.800; -832.000; -666.000
203.277;  -25.275; -199.000; -262.000
203.423;  -53.900; -434.000; -520.000
203.568;  -29.575; -462.000; -237.000
203.714;  -56.775; -535.000; -542.000
203.860;  -78.800; -682.000; -641.000
204.005;   33.725;  112.000;  167.000
204.151;   65.775;  561.000;  556.000
204.296;  -49.600; -354.000; -221.000
204.442;  -69.575; -600.000; -547.000
204.588;  -69.575; -592.000; -579.000
204.733;   23.100;  178.000;  168.000
204.879; -131.050;-1018.000; -822.000
205.025;   22.950;  -99.000;  126.000
205.170;   18.200;  -17.000;   94.000
205.316;   75.125;  438.000;  661.000
205.461;  -76.225; -698.000; -554.000
205.607;   83.900;  609.000;  665.000
205.752;  -70.550; -626.000; -551.000
205.898;  -54.575; -501.000; -391.000
206.043;  -53.750; -578.000; -506.000
206.189;  -33.325; -243.000; -285.000
206.334;   73.575;  554.000;  606.000
206.480;   65.725;  409.000;  239.000
206.625;  -78.375; -529.000; -552.000
206.771;  -39.300; -451.000; -373.000
206.916;  -36.725; -210.000; -537.000
207.062;  -62.975; -545.000; -591.000
207.207;  -54.775; -546.000; -443.000
207.353;   62.625;  185.000;  460.000
207.498;   19.875;  196.000;   85.000
207.643;  -53.975; -501.000; -370.000
207.789; -117.125;-1069.000; -910.000
207.934;  -92.725; -665.000; -713.000
208.080;  -21.250; -154.000;   66.000
208.225;    0.150;  -22.000;  -57.000
208.370;  -86.675; -727.000; -619.000
208.516;  -68.550; -741.000; -487.000
208.661;  -18.400; -127.000;  -69.000
208.806;  -20.325; -165.000; -171.000
208.952; -102.350;-1044.000; -731.000
209.097;   67.125;  378.000;  349.000
209.242;  -47.675; -307.000; -382.000
209.387;   64.700;  392.000;  350.000
209.533;  -66.075; -321.000; -350.000
209.678;   83.600;  472.000;  543.000
209.823;  -51.225; -408.000; -310.000
209.969;  -90.850; -860.000; -757.000
210.114;  -96.425; -907.000; -719.000
210.259; -112.225; -939.000; -889.000
210.404;  -17.000; -171.000;  103.000
210.549;    6.925;  108.000;    3.000
210.695;  -21.175;   -3.000;  -95.000
210.840;   39.675;   94.000;   67.000
210.985;  -50.175; -484.000; -303.000
211.130;   56.975;  268.000;  406.000
211.275;   16.750;  207.000;  199.000
211.420;  -48.500; -300.000; -289.000
211.566;  -62.625; -536.000; -489.000
211.711;   28.475;  218.000;  157.000
211.856;  -69.825; -545.000; -519.000
212.001;    6.225;  151.000;   44.000
212.146;   15.175;  153.000;   49.000
212.291;  -22.700; -210.000; -186.000
212.436;  -14.025; -280.000;   -6.000
212.581;  -69.375; -685.000; -653.000
212.726;  -60.625; -487.000; -538.000
212.871;  -47.950; -552.000; -217.000
213.016; -145.300;-1172.000;-1029.000
213.161;   64.500;  406.000;  291.000
213.306;  -73.300; -435.000; -577.000
213.451;  -88.775; -778.000; -689.000
213.596;  -47.275; -455.000; -347.000
213.741;  -62.575; -448.000; -538.000
213.886;  -74.825; -498.000; -517.000
214.031;  -24.200; -294.000; -124.000
214.176;  -49.575; -408.000; -341.000
214.321;  -15.075; -296.000; -157.000
214.466;  -18.800; -163.000;  -43.000
214.611;    6.300;  -61.000;  -10.000
214.756; -120.375; -948.000; -858.000
214.901;  -22.100; -388.000; -226.000
215.046; -112.450; -797.000; -825.000
215.191;   13.675;  128.000;   35.000
215.336;    2.325; -157.000;  -19.000
215.480;  -74.200; -684.000; -505.000
215.625;  -27.375; -175.000;  -19.000
215.770;  -91.025; -757.000; -662.000
215.915;   -4.400;   -5.000;  -97.000
216.060;   -9.600; -113.000;  -21.000
216.205; -110.600; -731.000; -779.000
216.349;  -77.100; -470.000; -533.000
216.494; -117.875; -939.000; -867.000
216.639; -103.900; -823.000; -888.000
216.784;  -85.900; -577.000; -525.000
216.929;   54.100;  392.000;  281.000
217.073;   -7.825; -244.000;  -31.000
217.218;   13.400;   78.000;  -47.000
217.363;  -91.075; -656.000; -618.000
217.507;  -70.975; -623.000; -588.000
217.652; -110.875; -845.000; -874.000
217.797;  -82.950; -708.000; -659.000
217.942; -119.525; -856.000; -720.000
218.086;   68.575;  608.000;  539.000
218.231;  -23.825; -174.000;  -26.000
218.376;  -20.675; -337.000; -229.000
218.520;   -5.500;  -41.000;   96.000
218.665;  -30.125; -338.000; -204.000
218.810;  -37.225; -275.000; -233.000
218.954;   16.475;  201.000;   35.000
219.099; -108.225; -713.000; -963.000
219.243;  -74.150; -589.000; -554.000
219.388;  -29.250; -264.000; -136.000
219.532;   -5.275; -116.000; -116.000
219.677;  -69.500; -564.000; -521.000
219.822;    7.975;   33.000;   89.000
219.966;   -0.375;   17.000;  -99.000
220.111;  -27.800; -328.000;  -40.000
220.255;  -89.500; -797.000; -750.000
220.400;  -15.675; -180.000; -146.000
220.544;  -68.650; -516.000; -450.000
220.689;  -48.025; -422.000; -451.000
220.833;  -14.950; -123.000;  -58.000
220.978;  -45.300; -393.000; -563.000
221.122;   23.975;  319.000;  307.000
221.267; -115.875; -906.000; -837.000
221.411;  -68.350; -478.000; -394.000
221.555;   -5.175; -104.000;  -23.000
221.700;  -52.550; -329.000; -222.000
221.844;   30.025;  255.000;  272.000
221.989;  -57.975; -328.000; -311.000
222.133;  -37.450; -289.000; -307.000
222.277;  -16.325;    5.000;   78.000
222.422;   20.900;  227.000;  113.000
222.566;  -39.050; -381.000; -214.000
222.711;  -60.075; -414.000; -479.000
222.855;  -68.575; -643.000; -586.000
222.999;  -86.950; -642.000; -717.000
223.144;  -29.125; -195.000; -194.000
223.288;   42.325;  423.000;  251.000
223.432;   21.000;  184.000;  230.000
223.576;   19.875;  152.000;  -21.000
223.721;   30.975;  364.000;  273.000
223.865;  -57.950; -472.000; -475.000
224.009;  241.350; 1673.000; 1631.000
224.153;  -66.075; -660.000; -671.000
224.298;  -72.325; -531.000; -489.000
224.442;  -19.350;  -74.000;  -33.000
224.586;   -8.025; -169.000; -106.000
224.730;  -90.125; -858.000; -670.000
224.875; -113.050; -739.000; -688.000
225.019;   11.150;  102.000;  188.000
225.163;   56.525;  208.000;  341.000
225.307;   12.425;   97.000;  -91.000
225.451;   54.275;  360.000;  481.000
225.595;   39.450;  264.000;  176.000
225.739;  -13.525; -170.000;  -94.000
225.884;   -3.875;   86.000;    5.000
226.028; -102.300; -760.000; -626.000
226.172;  -33.575; -260.000; -273.000
226.316; -121.275; -941.000; -902.000
226.460;  -65.125; -645.000; -493.000
226.604;  -44.125; -406.000; -400.000
226.748;  -98.825; -836.000; -733.000
226.892;  -40.425; -227.000; -181.000
227.036;  -61.725; -537.000; -447.000
227.180;  -45.750; -551.000; -375.000
227.324;  -65.275; -561.000; -580.000
227.468; -109.500; -819.000; -717.000
227.612;    7.925;  242.000;  -28.000
227.756;  -79.775; -845.000; -698.000
227.900;   57.875;  342.000;  441.000
228.044;  -53.725; -509.000; -290.000
228.188;   61.250;  448.000;  568.000
228.332;  -76.425; -546.000; -472.000
228.476;  -31.500; -223.000; -149.000
228.620;  -30.750; -210.000; -150.000
228.764;   57.550;  431.000;  349.000
228.908;   -6.475; -155.000;   30.000
229.052;  -54.125; -615.000; -528.000
229.195;  -11.575; -172.000;   13.000
229.339;  -18.275; -235.000; -305.000
229.483;  -12.475;    5.000; -162.000
229.627;   -5.100; -156.000;  139.000
229.771;  -47.775; -218.000; -294.000
229.915;   13.025;  230.000;   79.000
230.059;  -89.875; -648.000; -663.000
230.202;  -32.425; -370.000; -317.000
230.346;  -18.100; -107.000;  107.000
230.490;  -59.475; -489.000; -521.000
230.634; -111.900; -736.000; -553.000
230.777;   70.250;  478.000;  509.000
230.921;  -54.375; -450.000; -359.000
231.065;  -44.900; -246.000; -286.000
231.209;   21.225;  261.000;  265.000
231.352;   25.850;   54.000;   40.000
231.496;   18.625;  568.000;  188.000
231.640;  -77.450; -693.000; -621.000
231.783;   58.075;  546.000;  525.000
231.927;  -27.850; -294.000; -365.000
232.071; -113.450; -962.000; -736.000
232.214;  -99.200; -980.000; -764.000
232.358;  -87.650; -683.000; -599.000
232.502;    2.125;  -19.000;    7.000
232.645; -134.525;-1090.000; -927.000
232.789;  -27.350; -257.000; -218.000
232.933;  -41.125; -407.000; -224.000
233.076; -120.475;-1038.000; -897.000
233.220; -108.100; -752.000; -777.000
233.363;  -67.825; -669.000; -477.000
233.507;   48.350;  371.000;  129.000
233.650;  -84.625; -764.000; -834.000
233.794;   35.800;  438.000;  461.000
233.938;  -56.675; -530.000; -362.000
234.081;  -23.275;  -93.000;   31.000
234.225;  -69.375; -631.000; -539.000
234.368; -116.050; -773.000; -723.000
234.512;  -34.050; -385.000; -299.000
234.655;  -92.250; -582.000; -555.000
234.798;  -70.000; -493.000; -466.000
234.942; -121.650; -884.000;-1002.000
235.085;  -77.600; -651.000; -443.000
235.229;  -63.475; -405.000; -410.000
235.372;  -39.400; -247.000; -191.000
235.516;  -68.475; -397.000; -321.000
235.659;   28.350;   92.000;  121.000
235.802;  -11.250;  -38.000;  -22.000
235.946;   26.025;  335.000;  215.000
236.089;   27.625;  126.000;  250.000
236.233;   55.525;  275.000;  298.000
236.376;  -55.275; -235.000; -378.000
236.519;  -39.525; -297.000; -319.000
236.663;  -15.850; -215.000; -117.000
236.806; -121.550;-1029.000; -999.000
236.949;   58.450;  543.000;  431.000
237.092;   70.600;  412.000;  391.000
237.236;  -90.775; -589.000; -502.000
237.379;   51.900;  352.000;  428.000
237.522; -118.900; -879.000; -768.000
237.666;   -5.500; -271.000;   18.000
237.809; -114.150; -851.000; -823.000
237.952;   29.425;  469.000;  271.000
238.095;  -69.925; -447.000; -442.000
238.238;   93.275;  688.000;  700.000
238.382;  -13.400;  166.000;  103.000
238.525;  -59.525; -598.000; -511.000
238.668; -136.350;-1060.000; -985.000
238.811;  -80.400; -638.000; -643.000
238.954;  -60.575; -483.000; -334.000
239.097;   90.025;  617.000;  664.000
239.241;   36.650;  394.000;  326.000
239.384;  -43.400; -254.000; -214.000
239.527;  -53.925; -424.000; -224.000
239.670; -136.675; -994.000;-1091.000
239.813; -116.000; -696.000; -658.000
239.956;   81.250;  579.000;  473.000
240.099; -101.350; -778.000; -725.000
240.242;   62.275;  428.000;  432.000
240.385;   43.200;  466.000;  450.000
240.528;  -70.825; -706.000; -473.000
240.671;   16.675;  189.000;  134.000
240.814;  -32.050; -441.000; -158.000
240.957;  -97.775; -767.000; -578.000
241.100;  -89.250; -779.000; -755.000
241.243; -140.150;-1234.000; -893.000
241.386;  -63.950; -508.000; -379.000
241.529;  -92.700; -735.000; -547.000
241.672;  -55.125; -566.000; -495.000
241.815; -121.050; -832.000; -808.000
241.958;  -17.225; -125.000; -182.000
242.101;  -76.425; -545.000; -390.000
242.244;  -46.050; -270.000; -325.000
242.387;  -39.025; -304.000; -246.000
242.530;   63.200;  470.000;  134.000
242.673;  -46.625; -381.000; -309.000
242.815; -102.250; -925.000; -899.000
242.958;  -65.775; -482.000; -381.000
243.101;    8.750;  132.000;  187.000
243.244;  -81.950; -564.000; -521.000
243.387;  -49.200; -313.000; -316.000
243.530;  -95.475; -657.000; -674.000
243.672;    5.550;   43.000;  -92.000
243.815;  -70.925; -355.000; -283.000
243.958;   -5.475;   98.000;  -26.000
244.101;    2.375;   59.000;  -16.000
244.243;   -2.950;  -47.000;  101.000
244.386; -100.675; -761.000; -630.000
244.529;  -17.600; -132.000; -139.000
244.672; -154.275;-1154.000; -951.000
244.814;  -84.600; -621.000; -794.000
244.957;  -50.275; -380.000; -304.000
245.100;  -52.000; -489.000; -489.000
245.242;  -52.025; -387.000; -374.000
245.385;  -10.475;  -59.000;  -39.000
245.528; -123.675; -871.000; -705.000
245.670;   71.950;  612.000;  634.000
245.813;  -94.750; -599.000; -547.000
245.956;  -27.550; -324.000; -275.000
246.098;  -75.650; -508.000; -650.000
246.241;   20.800;  194.000;   48.000
246.383;   -4.675; -119.000;  -73.000
246.526;  -71.600; -454.000; -525.000
246.669; -120.300; -889.000; -780.000
246.811;   11.775;  172.000;   -1.000
246.954;  -64.850; -512.000; -426.000
247.096;  -18.175;  -84.000;   -6.000
247.239;  -71.550; -482.000; -445.000
247.381;  -63.300; -647.000; -488.000
247.524;   74.225;  645.000;  679.000
247.666;  -18.100;   58.000;   11.000
247.809; -116.250; -887.000; -691.000
247.951;    9.850;  -75.000;  138.000
248.094;   17.300;  432.000;  308.000
248.236; -152.550;-1262.000;-1238.000
248.378;    6.500; -356.000;  -81.000
248.521;  -27.275; -334.000; -337.000
248.663;  -61.800; -236.000; -267.000
248.806;  -24.000; -300.000; -266.000
248.948;  -83.750; -886.000; -763.000
249.090;  -39.600; -428.000; -398.000
249.233;  -41.125; -344.000; -381.000
249.375;  -51.725; -474.000; -451.000
249.518;  -32.950;  -83.000; -133.000
249.660;    8.475; -103.000;    3.000
249.802; -152.925;-1303.000;-1189.000
249.945;  -68.125; -612.000; -540.000
250.087; -101.175; -834.000; -768.000
250.229;  -44.550; -362.000; -480.000
250.371;  -72.000; -494.000; -439.000
250.514;  -41.575; -310.000; -244.000
250.656;    3.725;   69.000;  102.000
250.798; -120.675; -849.000; -800.000
250.940;  -63.725; -322.000; -322.000
251.083;  -30.600; -335.000; -111.000
251.225;   59.275;  338.000;  310.000
251.367;  -46.525; -274.000; -373.000
251.509;  -36.625; -265.000; -210.000
251.651;  -96.000; -731.000; -671.000
251.794;   49.975;  538.000;  632.000
251.936; -100.025; -821.000; -747.000
252.078;  -81.400; -540.000; -461.000
252.220;  -79.025; -645.000; -477.000
252.362;   79.500;  344.000;  462.000
252.504;  -74.500; -677.000; -584.000
252.646; -115.725; -875.000; -722.000
252.788;    7.625;   14.000; -128.000
252.931;  -27.175; -257.000; -253.000
253.073;  -49.250; -376.000; -317.000
253.215;   -8.125;  141.000;  122.000
253.357;   -7.750;   82.000; -153.000
253.499;  -63.850; -374.000; -234.000
253.641;  -82.125; -749.000; -594.000
253.783;  -82.950; -609.000; -527.000
253.925;  -88.350; -586.000; -591.000
254.067;  -98.975; -744.000; -667.000
254.209;  -24.200; -391.000; -259.000
254.351; -132.275; -865.000; -883.000
254.493;  -59.325; -441.000; -417.000
254.635; -124.400; -936.000; -818.000
254.777;  -81.950; -752.000; -687.000
254.918;  -60.775; -512.000; -430.000
255.060;  -67.375; -551.000; -395.000
255.202;  -64.375; -473.000; -261.000
255.344;  -60.075; -658.000; -455.000
255.486;  -70.750; -471.000; -406.000
255.628; -109.775; -780.000; -781.000
255.770;  -95.025; -676.000; -536.000
255.912;  -62.900; -559.000; -468.000
256.053;  -88.700; -730.000; -508.000
256.195;  156.650; 1008.000;  903.000
256.337;  -92.425; -861.000; -595.000
256.479;   61.450;  532.000;  416.000
256.621;  -55.025; -394.000; -212.000
256.762;  -90.175; -789.000; -742.000
256.904;   46.725;  485.000;  487.000
257.046;  -39.875; -381.000; -271.000
257.188;  -53.475; -351.000; -264.000
257.329;  -73.875; -525.000; -464.000
257.471; -110.850; -939.000; -807.000
257.613;  -57.175; -584.000; -498.000
257.755; -156.575;-1073.000; -982.000
257.896;   39.250;  286.000;  392.000
258.038;  -67.175; -403.000; -352.000
258.180;  -53.100; -354.000; -279.000
258.321;  -73.500; -581.000; -457.000
258.463;  -10.675;  -71.000;  133.000
258.605;  -77.950; -562.000; -570.000
258.746;  -93.275; -886.000; -772.000
258.888; -146.625;-1026.000;-1020.000
259.029;   18.725;  121.000;   -8.000
259.171;  -93.800; -614.000; -550.000
259.313;   -3.650;  -49.000;  -47.000
259.454;  -73.250; -536.000; -414.000
259.596;  -55.375; -483.000; -390.000
259.737;  -74.000; -590.000; -474.000
259.879;   47.225;  217.000;  311.000
260.020;   83.400;  901.000;  636.000
260.162;  -40.125; -146.000; -253.000
260.303; -113.125; -768.000; -687.000
260.445;  -91.575; -609.000; -613.000
260.586;   30.150;  392.000;  157.000
260.728;  -34.175; -360.000; -248.000
260.869; -103.025; -350.000; -343.000
261.011;   75.075;  706.000;  537.000
261.152;  -66.925; -479.000; -319.000
261.293;  -81.300; -576.000; -595.000
261.435;  -30.925; -219.000; -184.000
261.576;  -41.425; -455.000; -325.000
261.718;   40.025;  420.000;  470.000
261.859; -123.700; -940.000; -949.000
262.000; -134.775; -951.000;-1016.000
262.142;  -28.250;  -52.000;  -60.000
262.283; -110.700; -808.000; -691.000
262.424;  -95.750; -666.000; -625.000
262.566; -142.950;-1161.000; -983.000
262.707; -107.200; -840.000; -830.000
262.848; -130.025; -769.000; -726.000
262.990;  -42.000; -362.000; -345.000
263.131;   66.050;  650.000;  681.000
263.272;   -7.850;  -61.000;  -41.000
263.413;  -85.675; -589.000; -561.000
263.555;  -62.050; -669.000; -143.000
263.696;  -82.650; -550.000; -641.000
263.837;  -61.675; -449.000; -551.000
263.978;   -1.475;   -5.000;  -77.000
264.119;  -45.750; -283.000; -264.000
264.261; -110.625; -847.000; -630.000
264.402;    7.400;   33.000;   40.000
264.543;  -83.575; -509.000; -524.000
264.684;  -21.225;   61.000;  -50.000
264.825;  -66.250; -816.000; -538.000
264.966;    2.850;  -84.000;  -67.000
265.107; -113.225; -646.000; -670.000
265.248; -118.200; -825.000; -812.000
265.390;   -7.725;  152.000;   -9.000
265.531;  -19.600; -238.000; -107.000
265.672;  -84.875; -557.000; -630.000
265.813;   69.775;  563.000;  439.000
265.954; -138.750; -959.000; -940.000
266.095;   -6.325; -372.000; -322.000
266.236; -107.725; -686.000; -548.000
266.377;  -51.600; -243.000; -297.000
266.518;  -74.250; -619.000; -547.000
266.659;   31.025;  170.000;  268.000
266.800;    0.575;   83.000;   85.000
266.941;  -74.075; -487.000; -478.000
267.082;   15.750;  354.000;   99.000
267.223;  -49.625; -344.000; -273.000
267.364; -122.925; -892.000; -686.000
267.504;  -13.350;    3.000;  135.000
267.645;  -14.000;  160.000;   67.000
267.786;  -34.975; -147.000;  -86.000
267.927;  -65.875; -473.000; -379.000
268.068;   -9.000; -186.000;  -61.000
268.209;  -45.475; -175.000; -413.000
268.350;  -63.025; -388.000; -532.000
268.490;  -86.750; -648.000; -521.000
268.631;   33.500;  127.000;  225.000
268.772; -106.600; -874.000; -647.000
268.913;  -52.425; -328.000; -476.000
269.054;   -5.925; -117.000;   12.000
269.194;  -49.875; -418.000; -402.000
269.335; -151.725;-1137.000;-1074.000
269.476;  -22.775;   33.000;  -35.000
269.617;  -44.850; -347.000; -392.000
269.757;  -78.675; -713.000; -646.000
269.898; -107.200; -856.000; -613.000
270.039;  -61.550; -415.000; -405.000
270.180; -141.400; -952.000; -816.000
270.320;  -24.175; -190.000; -250.000
270.461;  -31.125; -277.000; -249.000
270.602;  -17.975; -186.000; -156.000
270.742; -118.600; -868.000; -943.000
270.883;  -54.475; -442.000; -390.000
271.023;  -59.700; -358.000; -357.000
271.164;  -79.525; -607.000; -528.000
271.305;  -88.475; -666.000; -654.000
271.445;  -93.325; -722.000; -683.000
271.586;  -50.625; -462.000; -283.000
271.726;  -34.000; -397.000; -322.000
271.867;  -57.900; -594.000; -534.000
272.008;  199.600; -473.000; -285.000
272.148;  137.150;  462.000;  468.000
272.289;   13.000; -113.000; -181.000
272.429;    9.075;   19.000;  185.000
272.570;  -74.825; -633.000; -737.000
272.710;  -99.900; -825.000; -775.000
272.851;  -16.675;  113.000; -130.000
272.991; -171.700;-1173.000;-1077.000
273.131;  -62.175; -419.000; -459.000
273.272;  -89.250; -683.000; -723.000
273.412;   10.600; -143.000;  -31.000
273.553;  -50.700; -488.000; -507.000
273.693;  144.100;  913.000;  858.000
273.834;  -83.750; -894.000; -692.000
273.974;  -66.525; -664.000; -615.000
274.114;  -82.950; -772.000; -560.000
274.255;   94.350;  414.000;  373.000
274.395;   20.775; -180.000; -125.000
274.535;   50.600;  199.000;  350.000
274.676;   34.375;  225.000;   94.000
274.816;   15.350;  110.000;   34.000
274.956;  -73.550; -624.000; -690.000
275.097;  -37.600;-1014.000; -922.000
275.237;  -99.725; -913.000; -803.000
275.377; -100.475; -778.000; -689.000
275.517; -156.600; -878.000; -937.000
275.658;  -51.550; -590.000; -555.000
275.798;  -63.625; -606.000; -413.000
275.938;   26.175;  215.000;  323.000
276.078;  -94.050; -626.000; -395.000
276.218;   12.600;   99.000;  104.000
276.359; -128.300;-1026.000;-1024.000
276.499;  -69.375; -605.000; -446.000
276.639;  -30.750; -305.000; -151.000
276.779;  -39.925; -475.000; -357.000
276.919; -104.875; -783.000; -624.000
277.059;  -20.950; -261.000; -212.000
277.199;  -38.925; -357.000; -259.000
277.340;   59.025;  287.000;  175.000
277.480; -110.975; -840.000; -693.000
277.620;   32.325;  192.000;   16.000
277.760; -191.600;-1533.000;-1294.000
277.900;   31.600;  113.000;   33.000
278.040;   30.825;  137.000;  159.000
278.180;   40.200;  270.000;  170.000
278.320;    1.000;   21.000;   56.000
278.460;  -70.000; -443.000; -469.000
278.600;  -82.825; -708.000; -598.000
278.740;   59.000;  448.000;  224.000
278.880;  -42.575; -768.000; -791.000
279.020;   17.300; -194.000; -144.000
279.160;  -89.125; -672.000; -595.000
279.300; -108.100; -926.000; -873.000
279.440;  -79.150; -709.000; -622.000
279.579;    3.650;-1014.000; -929.000
279.719;  -41.375; -410.000; -394.000
279.859;   85.700;   -4.000;   41.000
279.999;   35.975; -208.000;  101.000
280.139;    2.975; -435.000; -387.000
280.279;  -63.925; -708.000; -745.000
280.419;  -19.525; -229.000; -147.000
280.559;  -35.650; -259.000; -180.000
280.698;  -69.275; -790.000; -639.000
280.838;  -90.450; -778.000; -800.000
280.978;  -90.000; -846.000; -790.000
281.118; -118.925; -811.000; -704.000
281.257;    5.975;   24.000;    6.000
281.397; -106.775;-1094.000; -960.000
281.537;  -77.050; -599.000; -712.000
281.677;  -27.850; -150.000; -101.000
281.816;  -89.175; -700.000; -630.000
281.956;  -27.900; -193.000; -257.000
282.096;  -57.150; -539.000; -396.000
282.235;  -92.650; -672.000; -638.000
282.375;  -15.050; -243.000;  -98.000
282.515; -101.975; -715.000; -707.000
282.654;   41.500;   29.000;  106.000
282.794;   21.500;  388.000;  244.000
282.934;  -61.175; -530.000; -491.000
283.073; -117.050;-1030.000; -857.000
283.213;  -43.425; -460.000; -467.000
283.353;  -12.300; -408.000; -349.000
283.492;  -25.825; -264.000; -296.000
283.632;  -53.750; -254.000; -168.000
283.771;  -84.925; -859.000; -730.000
283.911;  -54.300; -369.000; -260.000
284.050;  -93.925; -794.000; -748.000
284.190; -151.775;-1229.000;-1096.000
284.329; -132.300;-1055.000; -964.000
284.469;  -37.050; -516.000; -591.000
284.608;  -55.150; -559.000; -598.000
284.748;  -78.650; -614.000; -570.000
284.887;   -9.825;  -87.000;  -20.000
285.027; -119.375; -844.000; -892.000
285.166;  -26.475; -192.000; -249.000
285.306;   12.250; -116.000;  -33.000
285.445;  -34.875; -229.000; -343.000
285.584; -100.650; -630.000; -494.000
285.724;  -42.575; -282.000; -322.000
285.863; -106.325; -857.000; -507.000
286.002;  -50.075; -366.000; -276.000
286.142; -102.375; -715.000; -622.000
286.281;  -65.450; -525.000; -493.000
286.420;  -67.450; -554.000; -417.000
286.560;   98.300;  653.000;  623.000
286.699; -134.350; -958.000; -912.000
286.838;  -90.150; -590.000; -591.000
286.978;  -94.850; -533.000; -537.000
287.117; -140.100;-1085.000; -950.000
287.256;  -35.475; -228.000; -211.000
287.395;  -54.825; -197.000; -378.000
287.535;  -49.050; -370.000; -298.000
287.674;  -59.200; -509.000; -484.000
287.813;   50.425;  661.000;  533.000
287.952; -128.650;-1010.000; -871.000
288.091; -141.200;-1049.000; -915.000
288.231;   15.950;   13.000;   15.000
288.370; -166.950;-1217.000;-1200.000
288.509;  -82.575; -728.000; -645.000
288.648; -103.000; -770.000; -548.000
288.787;  -30.100; -243.000;  -87.000
288.926;  -61.675; -454.000; -475.000
289.065;  106.100;  859.000;  672.000
289.204;  -50.025; -377.000; -217.000
289.344;  -79.800; -791.000; -690.000
289.483;   32.450;  416.000;  304.000
289.622;  -21.000; -291.000; -149.000
289.761;  -21.575; -309.000; -166.000
289.900;  -91.775; -785.000; -626.000
290.039;  -18.375;  -12.000;  -95.000
290.178;  -26.825; -274.000; -180.000
290.317;  -73.250; -618.000; -479.000
290.456;  -67.850; -463.000; -451.000
290.595; -109.025; -961.000; -833.000
290.734; -134.700; -904.000; -891.000
290.873;  -63.075; -456.000; -420.000
291.011; -105.025; -833.000; -843.000
291.150; -103.875; -770.000; -682.000
291.289;  -21.050; -343.000; -110.000
291.428;  -73.675; -599.000; -480.000
291.567;  -57.250; -370.000; -442.000
291.706;   -6.525;  109.000;  154.000
291.845;  -75.825; -597.000; -505.000
291.984; -160.875;-1234.000;-1061.000
292.122;   76.575;  602.000;  582.000
292.261;   56.500;  620.000;  463.000
292.400;   22.500; -144.000;  211.000
292.539; -109.725; -959.000; -813.000
292.678;  -13.900; -325.000; -300.000
292.816; -152.550;-1136.000; -965.000
292.955;  -80.550; -844.000; -684.000
293.094;  -34.650; -173.000; -337.000
293.233;  -46.375; -556.000; -400.000
293.371;  -37.350; -225.000;  -84.000
293.510; -102.950; -866.000; -780.000
293.649; -121.325; -959.000; -924.000
293.787;  -40.725;-1083.000;-1012.000
293.926;   -2.950; -113.000;  -32.000
294.065;  -32.375; -379.000; -290.000
294.203;   64.900;  298.000;  406.000
294.342;   40.150;   74.000;  156.000
294.481; 5310.825;51180.000; -836.000
294.619;  -35.550; -425.000; -582.000
294.758; -122.650;-1230.000;-1137.000
294.896;   89.525; -125.000;    5.000
295.035; -120.900;-1040.000;-1006.000
295.174; -105.575;-1082.000; -954.000
295.312;  -18.600; -323.000; -203.000
295.451;   13.400; -307.000; -428.000
295.589;  -40.025; -389.000; -518.000
295.728;   23.625; -292.000; -165.000
295.866;    7.775;  -36.000;  -51.000
296.005;  -55.450; -584.000; -341.000
296.143;  -61.625; -558.000; -596.000
296.282;  -96.200; -957.000; -881.000
296.420;  -73.225; -657.000; -557.000
296.559;  -67.425; -892.000; -633.000
296.697;   53.275; -847.000; -665.000
296.835;  108.900;-1141.000;-1002.000
296.974;   44.125;  -23.000;   39.000
297.112;   31.325; -443.000; -504.000
297.251;  -73.800; -815.000; -755.000
297.389;  130.725; -576.000; -438.000
297.527;   45.875; -145.000;  -83.000
297.666;  -46.975; -486.000; -438.000
297.804;  -41.375; -404.000; -264.000
297.942;    7.475; -136.000; -161.000
298.081;   -4.725; -183.000;   63.000
298.219;   99.350;  -17.000;  -19.000
298.357;   74.050; -144.000;  -71.000
298.495;   68.575; -810.000; -812.000
298.634;   99.025;  245.000;  219.000
298.772;   87.350; -220.000; -338.000
298.910;  -24.650; -309.000; -182.000
299.048;    4.800; -130.000; -153.000
299.187;  -32.075; -350.000; -250.000
299.325;   27.100;   52.000;  122.000
299.463;   92.700; -389.000; -299.000
299.601;  158.025; -327.000; -271.000
299.739;  -85.400; -908.000; -883.000
299.877;  -75.200; -791.000; -703.000
300.016;  -27.525;-1095.000; -935.000
300.154;  187.075;  -19.000; -161.000
300.292;   66.525; -428.000; -348.000
300.430;   43.725; -408.000; -291.000
300.568; -102.975; -940.000; -874.000
300.706;  -42.850; -366.000; -469.000
300.844;  -61.125;-1108.000; -979.000
300.982;  125.475;  246.000;  282.000
301.120; -102.575; -965.000; -866.000
301.258;  -50.500; -812.000; -705.000
301.396;   32.150;  104.000;  -41.000
301.534;  128.025; -218.000; -293.000
301.672;   18.250; -664.000; -521.000
301.810;   68.725; -613.000; -545.000
301.948;  154.450;   53.000;  149.000
302.086;  737.100; -250.000;  -32.000
302.224; 1136.550; -610.000; -585.000
302.362;   78.925; -558.000; -622.000
302.500;   16.975; -923.000; -893.000
302.638;  137.925;  128.000;  245.000
302.776;    3.875; -352.000; -408.000
302.913;   52.175;  447.000;  236.000
303.051;    2.425;  -86.000;  -23.000
303.189;   68.600;   90.000;  118.000
303.327;  -27.250; -341.000; -256.000
303.465;  -66.325; -832.000; -588.000
303.603;  -84.975; -805.000; -604.000
303.740;  117.900;  417.000;  241.000
303.878;   48.825; -800.000; -759.000
304.016;  -75.975; -915.000; -790.000
304.154; -104.000;-1123.000;-1152.000
304.291;  -22.200; -505.000; -554.000
304.429;   21.700;  102.000;   74.000
304.567; -111.675; -908.000; -893.000
304.705;  -53.475; -408.000; -515.000
304.842;  134.150; -616.000; -540.000
304.980;   68.600;  215.000;   35.000
305.118;   92.325; -367.000; -365.000
305.255;  -57.850; -945.000; -927.000
305.393;   74.200;  178.000;  239.000
305.531;  -76.450;-1173.000; -956.000
305.668;  -64.150; -663.000; -582.000
305.806;  122.775; -358.000; -439.000
305.943;  154.775; -629.000; -637.000
306.081;   64.875; -378.000; -267.000
306.219;  -88.900; -863.000; -748.000
306.356;   11.500;  158.000;   27.000
306.494;  120.575;  981.000;  761.000
306.631;   -4.400;  -11.000;  -55.000
306.769;   21.975; -613.000; -485.000
306.906;    3.375; -284.000; -258.000
307.044;  -58.475; -473.000; -488.000
307.181;  -66.275; -410.000; -332.000
307.319;   22.700;  112.000;   87.000
307.456; -165.200;-1191.000;-1153.000
307.594;  -85.200; -980.000; -727.000
307.731;    6.850; -371.000; -164.000
307.868;    1.375;  -15.000;   20.000
308.006; -120.850; -961.000; -847.000
308.143;  -58.725; -618.000; -330.000
308.281;  217.225;  -37.000; -254.000
308.418;    2.975; -748.000; -640.000
308.555;  -49.700; -400.000; -250.000
308.693;  -62.875; -577.000; -573.000
308.830; -102.050; -712.000; -657.000
308.967;   -9.100; -215.000;  -95.000
309.105;  -44.400; -507.000; -396.000
309.242;   66.050; -468.000; -367.000
309.379;  402.150; -577.000; -655.000
309.517;  -39.525; -936.000; -948.000
309.654;  -89.375; -910.000; -734.000
309.791;  -61.350; -662.000; -580.000
309.928; -104.725; -977.000; -914.000
310.065;  189.250;  819.000;  697.000
310.203;   11.725; -825.000; -850.000
310.340;   16.750; -465.000; -321.000
310.477;  -66.800; -412.000; -516.000
310.614;  -56.200; -383.000; -473.000
310.751;  -63.875; -427.000; -518.000
310.889;  -13.100;    1.000;   11.000
311.026; -144.425;-1161.000; -939.000
311.163;  -33.700; -386.000; -380.000
311.300;  -78.625; -512.000; -479.000
311.437;  -55.550; -658.000; -619.000
311.574; -147.800;-1226.000; -985.000
311.711;  -60.175; -595.000; -433.000
311.848;  -28.300; -380.000; -388.000
311.985;    9.325;  270.000;   93.000
312.122; -121.800; -932.000; -762.000
312.259; -106.225; -941.000; -994.000
312.396;  -69.925; -508.000; -551.000
312.533;  -78.750; -812.000; -790.000
312.670; -119.850;-1070.000; -898.000
312.807;  -36.875; -352.000; -367.000
312.944;  -67.975; -513.000; -611.000
313.081;  -36.900; -150.000; -415.000
313.218; -103.800;-1111.000; -867.000
313.355;   23.350; -531.000; -449.000
313.492;   21.775; -455.000; -292.000
313.629;  148.150;  815.000;  735.000
313.766; -153.400;-1176.000;-1008.000
313.902;   -9.675; -186.000;   21.000
314.039;  -40.050; -372.000; -289.000
314.176;   35.250;  286.000;  192.000
314.313;  -83.900; -569.000; -473.000
314.450;  -69.350; -788.000; -684.000
314.587;  -61.475; -468.000; -480.000
314.723;    6.325;  -78.000;  130.000
314.860;   49.975;  318.000;  332.000
314.997;   30.900;  223.000;  142.000
315.134;  -31.850; -385.000; -368.000
315.270;   -4.650; -480.000; -496.000
315.407; -119.875;-1094.000; -967.000
315.544;  -39.975; -657.000; -538.000
315.681;  -59.500; -681.000; -565.000
315.817;   43.625; -133.000; -176.000
315.954;   26.750; -613.000; -392.000
316.091; -111.125;-1045.000;-1023.000
316.227;  -25.650;  -71.000; -179.000
316.364;    1.500;   23.000;    6.000
316.500;  -50.500; -113.000; -300.000
316.637;  -43.775; -181.000; -302.000
316.774;  -72.925; -625.000; -358.000
316.910;  -91.425; -598.000; -629.000
317.047;  -61.175; -487.000; -351.000
317.183;  -45.375; -435.000; -566.000
317.320;   -8.400; -367.000; -321.000
317.456;  -62.625; -733.000; -805.000
317.593;  -89.900; -598.000; -641.000
317.729;    1.650;  168.000;  -67.000
317.866; -187.550;-1434.000;-1285.000
318.002;  -93.500; -708.000; -948.000
318.139;  -72.750; -883.000; -867.000
318.275;  -93.500;-1003.000; -738.000
318.412;  -61.550; -517.000; -336.000
318.548;  -14.750; -751.000; -720.000
318.685;  -75.125; -985.000; -888.000
318.821;  -84.625; -762.000; -735.000
318.957;  -10.400;   34.000;  -23.000
319.094;   50.000;  297.000;  154.000
319.230;  -46.600; -756.000; -742.000
319.367;  168.425; -471.000; -520.000
319.503;   73.000; -538.000; -436.000
319.639;  -66.050; -877.000; -793.000
319.775;  -45.000; -750.000; -685.000
319.912;  -47.900; -424.000; -519.000
320.048;  -63.125;-1184.000;-1184.000
320.184;   87.575;   59.000;   70.000
320.321;  -62.950; -497.000; -467.000
320.457;   68.275;  475.000;  662.000
320.593;  -59.850; -375.000; -382.000
320.729;  -86.775; -732.000; -734.000
320.866;  -67.300; -577.000; -635.000
321.002;  -49.075; -759.000; -809.000
321.138;   -9.675; -135.000; -211.000
321.274;   87.175; -148.000; -115.000
321.410;  -10.175; -585.000; -353.000
321.546;  -13.475;-1011.000; -911.000
321.683;   66.300;  400.000;  185.000
321.819;    3.950;  -48.000; -117.000
321.955;  -99.175; -743.000; -722.000
322.091;  -38.250; -585.000; -540.000
322.227;    6.750; -382.000; -202.000
322.363;   -2.750; -320.000; -215.000
322.499;  -35.875; -343.000; -331.000
322.635;  184.075;  636.000;  443.000
322.771;   37.800; -139.000;   12.000
322.907;  113.975;  129.000;  327.000
323.043;   -7.250; -115.000; -206.000
323.179;  -18.250; -394.000; -363.000
323.315;   52.425; -401.000; -371.000
323.451;  135.025; -328.000; -236.000
323.587;   79.700;  -60.000;  -77.000
323.723;   40.250; -682.000; -601.000
323.859;   11.250; -258.000;  -76.000
323.995;  -27.500; -467.000; -409.000
324.131; -103.375; -967.000; -892.000
324.267;  -38.550; -254.000; -276.000
324.402; -125.825; -960.000; -983.000
324.538;   -0.225; -279.000; -104.000
324.674;   30.850;  164.000;   77.000
324.810;  179.500;  226.000;  308.000
324.946;   33.175; -810.000; -658.000
325.082;  -49.625; -568.000; -475.000
325.217;   -3.075;  -62.000;   16.000
325.353; -104.250; -764.000; -659.000
325.489;  -67.700; -540.000; -506.000
325.625;  -72.050; -579.000; -525.000
325.760;   62.875;  517.000;  376.000
325.896;  -17.225; -515.000; -702.000
326.032;  -46.500; -403.000; -352.000
326.168;  -68.175; -462.000; -369.000
326.303;  -56.725; -352.000; -461.000
326.439;  -12.850; -336.000; -276.000
326.575;   15.575; -190.000;  -29.000
326.710;    5.650; -156.000;  -30.000
326.846;  -13.100;  146.000;  103.000
326.982;  -87.325; -530.000; -548.000
327.117;  -56.400; -481.000; -442.000
327.253;  -77.825; -745.000; -742.000
327.388; -151.100;-1137.000;-1153.000
327.524;  -28.425; -811.000; -578.000
327.659;  -20.275;  -58.000;  -22.000
327.795;  -30.500;   69.000;   45.000
327.931;  -86.025; -723.000; -499.000
328.066;  -20.100; -417.000; -276.000
328.202;    1.350;   12.000; -129.000
328.337;   99.550;  957.000;  713.000
328.473;   41.900;  -12.000;  -74.000
328.608;  -22.050; -256.000; -267.000
328.743;  -75.050; -799.000; -664.000
328.879;   14.350;  214.000;  114.000
329.014;  -42.725; -102.000; -122.000
329.150;  -76.675; -358.000; -483.000
329.285;  -68.875; -465.000; -466.000
329.421;  -59.725; -548.000; -246.000
329.556;   -4.975;  -36.000;   85.000
329.691;  -93.350; -633.000; -615.000
329.827;  -78.275; -626.000; -480.000
329.962;  -39.625;  131.000; -301.000
330.097;  -95.925; -673.000; -585.000
330.233;  -42.700; -410.000; -223.000
330.368; -112.650; -839.000; -628.000
330.503;  -11.000;    3.000;   98.000
330.638;   24.925;  -93.000; -125.000
330.774;  -43.325; -609.000; -530.000
330.909;  -42.575; -434.000; -244.000
331.044;  -82.050; -714.000; -708.000
331.179; -155.025;-1217.000;-1109.000
331.315;   15.100;   77.000;   20.000
331.450;   27.575;  157.000;  285.000
331.585;  -76.975; -805.000; -706.000
331.720;  -69.025; -510.000; -460.000
331.855;   -1.175;  -35.000; -102.000
331.990;  207.550;   62.000;  138.000
332.126;  126.400; -110.000;   71.000
332.261;   -2.500; -379.000; -265.000
332.396;    8.325; -135.000; -242.000
332.531;  -94.025;-1074.000;-1031.000
332.666;   39.800; -519.000; -363.000
332.801;  -98.875; -726.000; -807.000
332.936;  -31.225; -192.000; -122.000
333.071; -139.550; -870.000; -817.000
333.206;   29.200;  307.000;  379.000
333.341;   35.900;  344.000;  418.000
333.476;  -74.300; -627.000; -623.000
333.611;  -39.800; -251.000; -173.000
333.746;  -41.500; -381.000; -464.000
333.881;  -96.850; -973.000; -935.000
334.016; -125.650; -936.000; -917.000
334.151; -108.625; -746.000; -702.000
334.286;   33.050;  152.000;  186.000
334.421;   -7.550; -125.000; -178.000
334.556;  -65.125; -611.000; -567.000
334.690;  -80.600; -631.000; -577.000
334.825;   61.175;  381.000;   83.000
334.960;  -47.500; -285.000; -413.000
335.095;    8.350;  135.000;  -91.000
335.230;  -95.750; -722.000; -738.000
335.365; -125.800;-1084.000; -990.000
335.499; -118.300;-1108.000;-1037.000
335.634;   31.025;    9.000;  534.000
335.769;  -88.675; -755.000; -720.000
335.904;  -49.325; -603.000; -561.000
336.038;  -50.025; -735.000; -657.000
336.173;  -98.450;-1206.000;-1194.000
336.308;   12.450; -116.000; -189.000
336.443;   27.025; -544.000; -634.000
336.577;  -55.025; -936.000; -787.000
336.712;   86.175;   -4.000;  -12.000
336.847;   -0.125; -724.000; -607.000
336.981;   90.175; -272.000; -208.000
337.116;  322.350;  615.000;  501.000
337.250;  194.625; -434.000; -421.000
337.385;  230.925; -297.000; -208.000
337.520;   71.125; -632.000; -603.000
337.654;  -29.025; -215.000; -126.000
337.789; -112.150; -989.000; -933.000
337.923;  -18.200; -104.000; -205.000
338.058;  -68.025; -673.000; -738.000
338.192;  -13.200; -611.000; -488.000
338.327;   -4.875;  -18.000; -155.000
338.461;  -62.825; -299.000; -469.000
338.596;  -75.350; -780.000; -638.000
338.730;  -88.200; -767.000; -803.000
338.865;   77.500;  -46.000; -140.000
338.999;  -61.425; -846.000; -702.000
339.134;  -27.100; -634.000; -536.000
339.268;   23.150; -741.000; -603.000
339.403;  366.375; -740.000; -775.000
339.537;   96.450; -894.000; -820.000
339.671; -106.000; -829.000; -813.000
339.806;  -63.775; -556.000; -512.000
339.940;   16.975; -261.000; -235.000
340.074;  -94.250; -685.000; -510.000
340.209;  -44.225; -351.000; -230.000
340.343;  -82.875; -517.000; -573.000
340.477;  158.050;  998.000; 1036.000
340.612;  -60.475;-1033.000; -900.000
340.746;  118.200; -199.000; -243.000
340.880;  -39.600; -924.000; -785.000
341.014;  -18.375;  -45.000; -154.000
341.149; -110.625; -756.000; -718.000
341.283; -107.350; -839.000; -754.000
341.417;  -80.375;-1124.000; -938.000
341.551;  176.875; -768.000; -708.000
341.685;  -17.100; -633.000; -611.000
341.820;  -60.550; -562.000; -493.000
341.954;  -47.800; -218.000; -349.000
342.088; -139.725;-1102.000;-1019.000
342.222;   53.675;  565.000;  618.000
342.356;  -44.025; -395.000; -335.000
342.490;  -73.825; -880.000; -841.000
342.624;  -28.425; -339.000; -242.000
342.758;    8.875; -364.000; -312.000
342.892;  -72.450; -710.000; -585.000
343.026;  -45.675;  -58.000; -116.000
343.160;  -46.525; -426.000; -376.000
343.294;  -71.975; -474.000; -337.000
343.428;   -4.575; -488.000; -448.000
343.562;   -7.625; -172.000;  -23.000
343.696;  -10.600; -385.000; -314.000
343.830;  -25.175; -362.000; -356.000
343.964;   35.225; -231.000; -168.000
344.098; 1080.500;  199.000;   70.000
344.232;  895.525; -266.000; -127.000
344.366;  124.825; -567.000; -453.000
344.500;   94.725; -665.000; -744.000
344.634;   66.125; -324.000; -164.000
344.768;   11.500; -531.000; -341.000
344.902;   35.200;  278.000;  256.000
345.035;  -69.750; -556.000; -496.000
345.169; -118.200; -933.000; -656.000
345.303;  -22.000; -308.000; -482.000
345.437;  -58.475; -826.000; -717.000
345.571;  -59.875; -675.000; -594.000
345.704;  -60.275; -309.000; -532.000
345.838;  -17.150; -331.000; -284.000
345.972;  -30.975; -543.000; -495.000
346.106;  168.275; -179.000; -190.000
346.239;  454.250; -312.000; -243.000
346.373;   25.475; -343.000; -302.000
346.507; -140.025; -950.000; -962.000
346.640;  183.950;  -30.000;   13.000
346.774;  -19.725; -650.000; -797.000
346.908;   -5.875; -138.000;  -11.000
347.041;  -90.775; -646.000; -593.000
347.175;   17.875;  259.000;   27.000
347.309;  -74.525; -698.000; -628.000
347.442;  -74.700; -883.000; -732.000
347.576;  321.225;  670.000;  668.000
347.709;  248.200; -123.000;  -52.000
347.843;  -67.250; -933.000; -825.000
347.976;   43.300;  235.000;  294.000
348.110; -167.225;-1268.000;-1186.000
348.243;  -84.975; -679.000; -772.000
348.377;    9.050;  -26.000;   60.000
348.510;   48.150;  403.000;  540.000
348.644;  -30.250;  -37.000; -159.000
348.777;   -3.450;  180.000;  191.000
348.911;  -37.525; -142.000; -112.000
349.044;  188.325;  471.000;  448.000
349.178;  216.025;-1069.000;-1006.000
349.311;  123.775;  141.000;  255.000
349.444;   -5.175; -927.000; -813.000
349.578;   -7.825; -347.000; -200.000
349.711;  -80.225; -959.000; -862.000
349.845;   35.325; -661.000; -591.000
349.978; -127.850;-1224.000;-1137.000
350.111;  -76.975; -546.000; -612.000
350.244;  -65.625; -596.000; -700.000
350.378;   34.300; -392.000; -393.000
350.511;  -45.775; -393.000; -426.000
350.644; -101.200; -808.000; -806.000
350.778;   23.925;  168.000;  104.000
350.911;    9.050;  134.000;  140.000
351.044;  -84.900; -685.000; -615.000
351.177;  -20.600; -321.000; -281.000
351.310;   -5.525;    3.000; -131.000
351.444;  -58.150; -888.000; -788.000
351.577;  141.150;  140.000;   90.000
351.710;  104.425;  593.000;  417.000
351.843;  -29.250; -165.000;  -77.000
351.976;    5.200;  149.000;  -79.000
352.109;  -85.250; -621.000; -612.000
352.242;    9.375; -464.000; -419.000
352.376;  -44.075; -580.000; -636.000
352.509;  232.375; -437.000; -356.000
352.642;   58.875; -654.000; -604.000
352.775;   89.225; -141.000;  -98.000
352.908; -105.750; -933.000; -904.000
353.041;  -90.325; -814.000; -824.000
353.174;  -50.625; -551.000; -424.000
353.307;  -61.125; -753.000; -764.000
353.440;   75.325;  541.000;  453.000
353.573; -101.550; -957.000;-1008.000
353.706;  -12.400; -384.000; -558.000
353.839;    9.300; -264.000; -220.000
353.971;  -85.325; -657.000; -512.000
354.104;  -78.350; -896.000; -835.000
354.237;  -30.650; -627.000; -662.000
354.370;  -60.425; -846.000; -879.000
354.503; -160.875;-1231.000;-1308.000
354.636;  -17.725; -529.000; -348.000
354.769; -102.325; -937.000; -860.000
354.902;    0.825; -230.000; -139.000
355.034;  -20.900; -164.000; -220.000
355.167;   -7.600; -262.000; -162.000
355.300;  -87.250;-1061.000; -880.000
355.433;  931.500;  -71.000;  -14.000
355.565; 1431.525; -402.000; -384.000
355.698;  358.325; -356.000; -296.000
355.831;   18.350; -882.000; -801.000
355.964;  126.175; -285.000; -170.000
356.096;  -65.175; -856.000; -843.000
356.229;   40.300; -523.000; -530.000
356.362;  308.175; -373.000; -266.000
356.494;  565.150; -229.000; -162.000
356.627;  550.100;  269.000;  377.000
356.760;  638.250;  120.000;   53.000
356.892;  890.550; -286.000; -601.000
357.025;  763.125;  403.000;  389.000
357.157;  735.025; -167.000; -179.000
357.290;  596.075; -856.000; -713.000
357.423;  201.000; -667.000; -556.000
357.555;  159.600; -217.000; -228.000
357.688;  168.125; -483.000; -364.000
357.820;  546.375; -870.000; -877.000
357.953; 4184.900; -563.000; -589.000
358.085;  986.000; -632.000; -612.000
358.218; 1500.400;-1131.000; -932.000
358.350;  288.275;  -58.000;  312.000
358.483; -111.650;-1300.000;-1187.000
358.615;   35.500;-1182.000;-1078.000
358.747;  -20.325;-1187.000;-1058.000
358.880;   53.475; -810.000; -744.000
359.012;    8.525; -376.000; -202.000
359.145;  -19.075; -480.000; -511.000
359.277;   98.825; -962.000; -913.000
359.409; 3426.000;  536.000;  231.000
359.542;  954.875; -738.000; -688.000
359.674;   96.900;   46.000;   13.000
359.806;  -43.375; -565.000; -438.000
359.939;  -50.650; -617.000; -516.000
360.071;   -9.950; -583.000; -579.000
360.203;   -0.750; -411.000; -364.000
360.335;   74.750;  164.000;  -16.000
360.468;  228.400; -249.000; -307.000
360.600; 2710.675; -547.000; -454.000
360.732; 2651.450; -546.000; -423.000
360.864;  401.475;-1216.000;-1044.000
360.996;  389.800; -516.000; -554.000
361.129;   77.250; -389.000; -598.000
361.261;   23.400;  110.000; -113.000
361.393;  -26.025; -252.000; -214.000
361.525;   39.025;   94.000;  244.000
361.657;  -20.375; -821.000; -703.000
361.789;   34.250; -139.000; -155.000
361.921;  297.450; -642.000; -593.000
362.053;  307.675;  524.000;  541.000
362.185;   68.125;  288.000;   72.000
362.318;  -56.550; -709.000; -705.000
362.450;  163.875;  294.000;  444.000
362.582;  211.550; -913.000; -870.000
362.714;  -15.050; -353.000; -332.000
362.846;  -64.250; -606.000; -490.000
362.978; -142.725; -941.000; -811.000
363.109;   68.900; -161.000; -260.000
363.241;  549.625; -739.000; -749.000
363.373;  451.025; -649.000; -564.000
363.505;  606.850; -186.000;  -91.000
363.637;  165.825; -787.000; -601.000
363.769; -117.050;-1067.000;-1080.000
363.901;  -54.850; -596.000; -654.000
364.033; -107.575;-1103.000;-1062.000
364.165;    9.000; -283.000; -283.000
364.296;   78.050; -316.000; -177.000
364.428;   59.200;-1344.000;-1220.000
364.560;  -58.600; -679.000; -661.000
364.692;  -38.350; -738.000; -835.000
364.824;  363.900; -588.000; -456.000
364.955;  449.175; -402.000; -564.000
365.087;  821.050;-1097.000; -852.000
365.219;   40.725; -686.000; -816.000
365.351;  -50.725; -526.000; -572.000
365.482;   75.000;  300.000;  240.000
365.614;  -34.775; -402.000; -314.000
365.746;  -85.550; -729.000; -752.000
365.877;  -91.900; -706.000; -672.000
366.009;  230.825;  -35.000;  -62.000
366.141;  -71.950;-1249.000;-1134.000
366.272;  -91.125; -803.000; -719.000
366.404; -113.075;-1005.000; -874.000
366.535;   -0.525; -139.000;  -12.000
366.667;  -95.000; -644.000; -649.000
366.799;   36.025;  353.000;  203.000
366.930;  -99.675; -862.000; -996.000
367.062;  125.025; -639.000; -613.000
367.193;  134.175; -872.000; -842.000
367.325;  -66.850; -580.000; -684.000
367.456;   90.275; -246.000;   31.000
367.588;  150.675; -371.000; -318.000
367.719;   36.275;  -44.000;  -45.000
367.851;   -5.150; -222.000; -241.000
367.982;  -32.325; -875.000; -732.000
368.113;  141.400; -475.000; -358.000
368.245;  -95.975; -960.000; -841.000
368.376;   -4.575; -254.000; -302.000
368.508;  -32.775; -188.000; -263.000
368.639; -129.550;-1166.000;-1034.000
368.770;    9.825; -670.000; -589.000
368.902;  -33.125; -836.000; -926.000
369.033;  -91.575; -906.000; -855.000
369.164;  -41.000; -720.000; -653.000
369.296;  -96.475; -452.000; -601.000
369.427;   -1.400; -209.000; -144.000
369.558;  -37.400; -593.000; -377.000
369.689;  -74.575; -721.000; -569.000
369.821; -115.825; -951.000; -845.000
369.952;   -6.050;   42.000; -108.000
370.083;  -40.025; -229.000; -108.000
370.214;  -70.850; -735.000; -650.000
370.345;   12.475;   65.000;   81.000
370.477;  -57.425; -810.000; -790.000
370.608;  300.700; -328.000; -264.000
370.739;   10.700;-1233.000;-1292.000
370.870;  -12.875;-1102.000; -923.000
371.001;  132.350; -378.000; -467.000
371.132;  -54.550; -754.000; -735.000
371.263;   -8.575;  -42.000; -148.000
371.394; -125.750; -841.000; -748.000
371.525;   38.100;  345.000;  225.000
371.657;  -68.725; -808.000; -670.000
371.788;   90.875;  103.000;  199.000
371.919;  211.450; -384.000; -304.000
372.050; 4236.200;  -91.000; -156.000
372.181; 1323.875; -188.000; -294.000
372.311;  464.450;   42.000; -127.000
372.442;   69.775; -457.000; -451.000
372.573;    2.425; -444.000; -340.000
372.704; -103.150;-1008.000; -980.000
372.835;  132.575; -228.000; -289.000
372.966;  -46.875; -646.000; -554.000
373.097;  -31.350; -575.000; -711.000
373.228;  -20.150; -717.000; -542.000
373.359;  183.725; -824.000; -536.000
373.490; 1135.575; -881.000; -727.000
373.620; 1445.700;-1001.000; -803.000
373.751; 2150.675; -332.000; -396.000
373.882; 1000.775; -663.000; -733.000
374.013;   99.375; -449.000; -262.000
374.143;  -19.375; -581.000; -659.000
374.274;  -76.225; -987.000; -908.000
374.405;  219.375; -388.000; -276.000
374.536;  528.225; -526.000; -387.000
374.666; 1378.900; -759.000; -807.000
374.797;  309.225; -817.000; -868.000
374.928; 1081.900; -710.000; -560.000
375.058; 1112.825; -535.000; -500.000
375.189;  101.825;  -59.000;  -93.000
375.320;  -85.950; -928.000;-1034.000
375.450;  -23.825; -625.000; -616.000
375.581;  -40.275; -526.000; -436.000
375.712;  -12.275; -574.000; -250.000
375.842;  397.825; -438.000; -415.000
375.973;  319.475; -554.000; -513.000
376.103;  -14.250; -665.000; -648.000
376.234;  -62.975; -531.000; -552.000
376.364;   -9.300; -944.000; -867.000
376.495;  379.925;  925.000;  529.000
376.625;   22.925; -472.000; -485.000
376.756;  105.975; -709.000; -678.000
376.886;  -60.250;-1178.000;-1026.000
377.017;   52.725;-1048.000;-1061.000
377.147;  326.175; -786.000; -782.000
377.278;   66.375;  174.000;  228.000
377.408; -109.325; -801.000; -815.000
377.538;  -97.000; -707.000; -693.000
377.669;  -73.425; -537.000; -613.000
377.799;  -64.100; -645.000; -635.000
377.929;  -44.650; -610.000; -428.000
378.060; -112.775; -781.000; -847.000
378.190;  -48.325; -726.000; -531.000
378.320;  -36.925; -401.000; -406.000
378.451;  -19.875; -131.000;  -22.000
378.581;    1.500;  -67.000; -110.000
378.711;  168.075; 1035.000;  866.000
378.841;   -3.825; -533.000; -675.000
378.972;  -43.900; -871.000; -751.000
379.102;   28.925; -652.000; -579.000
379.232;   -6.950; -126.000;  -73.000
379.362;  -95.850;-1001.000; -885.000
379.492;   37.575; -373.000; -424.000
379.623;  126.650;    0.000;  111.000
379.753;  -68.800;-1107.000; -974.000
379.883;  218.225;   59.000;  156.000
380.013;   57.175;-1081.000;-1017.000
380.143;  -87.700;-1097.000;-1056.000
380.273;  -78.475; -985.000; -861.000
380.403;   20.600; -344.000; -257.000
380.533;   -5.875; -651.000; -664.000
380.663;  107.300;  173.000;  128.000
380.793;  -62.025;-1027.000;-1074.000
380.923;   -8.975; -103.000;  -34.000
381.053;  -75.750; -613.000; -623.000
381.183;  -26.250; -106.000; -248.000
381.313;   79.225; -656.000; -470.000
381.443;   81.750; -692.000; -473.000
381.573;  269.175; -402.000; -409.000
381.703;  416.375;-1249.000;-1095.000
381.833;  -92.475;-1454.000;-1336.000
381.963;  128.875; -134.000;  -87.000
382.093; 1630.650; -925.000; -909.000
382.223;  534.075; -713.000; -602.000
382.353;   -3.325; -801.000; -608.000
382.482;  479.925;-1091.000; -964.000
382.612;  940.675; -872.000; -644.000
382.742;  544.075; -695.000; -622.000
382.872;  351.500; -565.000; -551.000
383.002;   84.975;  347.000; -132.000
383.131;   -1.675; -226.000; -160.000
383.261;  -25.500; -706.000; -768.000
383.391;  304.850; -552.000; -377.000
383.521; 2931.400;  451.000;  263.000
383.650;  705.650; -947.000; -904.000
383.780;  -11.825; -783.000; -656.000
383.910;  119.175;  880.000;  802.000
384.039;   66.900; -794.000; -656.000
384.169;  304.425;-1205.000;-1017.000
384.299;   18.275; -650.000; -662.000
384.428;  -76.300; -764.000; -680.000
384.558;  -20.725; -308.000; -275.000
384.687;  -35.600; -414.000; -334.000
384.817;   30.975;   75.000;   -2.000
384.947;   47.700; -234.000; -141.000
385.076;  339.725;  982.000;  912.000
385.206;  131.525;  369.000;  480.000
385.335;  -16.500; -549.000; -417.000
385.465;  -50.525; -655.000; -663.000
385.594;  185.875;  -53.000;  -44.000
385.724;  575.500; -868.000; -838.000
385.853;  182.525; -296.000; -270.000
385.982; 1629.675; -743.000; -787.000
386.112; 2637.025;-1052.000; -871.000
386.241;  204.650; -307.000; -312.000
386.371;   38.600; -174.000;  -87.000
386.500;   34.375; -825.000; -789.000
386.629;   42.550; -874.000; -817.000
386.759;   85.300;  -43.000;   68.000
386.888;   32.625; -170.000; -250.000
387.017;  -40.425; -648.000; -620.000
387.147;  -47.875; -771.000; -798.000
387.276;   32.575; -410.000; -397.000
387.405;   47.575; -398.000; -342.000
387.535;  -31.750; -452.000; -361.000
387.664;  -34.450; -692.000; -620.000
387.793;  103.450; -198.000; -113.000
387.922;  639.600;  255.000;  200.000
388.052;   68.125; -576.000; -423.000
388.181;   72.625; -342.000; -472.000
388.310;   76.475; -889.000; -710.000
388.439;   -7.025; -749.000; -742.000
388.568;  227.825;  365.000;  244.000
388.697; 1289.525; -756.000; -653.000
388.826;  301.525; -768.000; -666.000
388.956;   84.300; -285.000; -307.000
389.085;  -17.350; -347.000; -287.000
389.214;  -93.150; -842.000; -872.000
389.343;  -54.775; -645.000; -413.000
389.472;  379.175;  126.000;  149.000
389.601;  533.425;   91.000;    0.000
389.730;   50.825; -568.000; -687.000
389.859;   68.850;  226.000;   46.000
389.988;  251.500; -423.000; -408.000
390.117;  169.475; -168.000; -146.000
390.246;   15.325; -331.000; -320.000
390.375;  156.550; -673.000; -626.000
390.504;  -44.400; -703.000; -621.000
390.633;  -88.750; -672.000; -726.000
390.761;  -59.875; -732.000; -645.000
390.890;   29.350;   -4.000; -130.000
391.019;   -5.350; -421.000; -441.000
391.148; -113.350; -826.000; -855.000
391.277;  -66.075; -576.000; -493.000
391.406;  -60.125; -821.000; -805.000
391.534;   32.625;  574.000; -301.000
391.663;  -45.475; -583.000; -645.000
391.792;  -64.100; -673.000; -701.000
391.921;  132.400;   -3.000;   15.000
392.050;  264.000; -287.000; -228.000
392.178;    3.800;-1206.000;-1061.000
392.307;  194.300; -758.000; -712.000
392.436;  127.300; -427.000; -641.000
392.564;   24.675;  166.000;   -6.000
392.693;  -78.300; -860.000; -682.000
392.822;  267.350; -529.000; -534.000
392.950;  156.525; -880.000; -714.000
393.079;  414.000; -188.000; -328.000
393.208;   62.825; -488.000; -511.000
393.336;   -5.700; -170.000; -145.000
393.465;  -41.900; -317.000; -199.000
393.593;   15.300;   62.000;   79.000
393.722; -154.725;-1121.000; -916.000
393.850;  -26.825; -188.000;  -61.000
393.979; -143.550; -926.000; -805.000
394.107;  -60.100; -517.000; -537.000
394.236;    7.800; -570.000; -507.000
394.364;  252.800;  383.000;  206.000
394.493;  441.625; -911.000; -767.000
394.621;  -18.200; -955.000; -916.000
394.750;  655.950; -873.000; -923.000
394.878; 2763.700; -247.000; -149.000
395.007; 3825.675; -721.000; -807.000
395.135;  319.125; -790.000; -721.000
395.263;  -82.325;-1038.000;-1040.000
395.392;    7.550;  -25.000; -107.000
395.520; -133.475; -818.000; -679.000
395.648;  -83.725; -865.000; -915.000
395.777;    5.075; -366.000; -405.000
395.905;  -20.075; -449.000; -564.000
396.033;   35.700;  217.000;  172.000
396.162;  704.800; -399.000; -453.000
396.290;  663.875;  -17.000;   -2.000
396.418;  148.100; -555.000; -514.000
396.546;  -56.750; -571.000; -466.000
396.674;  -80.150; -850.000; -878.000
396.803;   16.975;  -72.000;  -23.000
396.931;  122.400; -179.000; -199.000
397.059;  119.400;-1026.000; -989.000
397.187;  -97.925;-1026.000; -975.000
397.315; -116.750; -884.000; -649.000
397.443;  -85.675; -592.000; -443.000
397.572;  -87.525; -578.000; -424.000
397.700;   17.200; -607.000; -614.000
397.828;   55.500;  120.000;  -90.000
397.956;  -45.300; -508.000; -478.000
398.084;  -75.050; -767.000; -626.000
398.212;   44.600;  137.000;  124.000
398.340;   39.075;  -56.000;  159.000
398.468;   67.375; -390.000; -169.000
398.596; -124.550; -993.000; -953.000
398.724; -110.475; -762.000; -767.000
398.852; -149.450;-1024.000; -976.000
398.980;  -54.850; -560.000; -560.000
399.108;  -37.075; -982.000; -735.000
399.236;   57.675;   13.000;    8.000
399.363;   15.175;  222.000;  196.000
399.491;  -59.350; -404.000; -398.000
399.619; -121.950; -829.000; -800.000
399.747;  -95.525; -859.000; -771.000
399.875;   90.275;  220.000;  234.000
400.003;  -37.475; -359.000; -284.000
400.130;  -96.675; -421.000; -341.000
400.258;  -20.800;  -83.000;   38.000
400.386;  -67.925; -352.000; -168.000
400.514;  -29.375; -526.000; -587.000
400.641;  -61.850; -928.000; -802.000
400.769; -127.450; -979.000; -888.000
400.897; -100.575; -838.000; -793.000
401.025;  -13.925; -166.000; -152.000
401.152;    1.750;  220.000;   38.000
401.280;  -66.050; -430.000; -429.000
401.408; -111.925; -712.000; -576.000
401.535; -105.175; -735.000; -758.000
401.663; -188.450;-1134.000;-1054.000
401.790;  -80.325; -514.000; -525.000
401.918;   26.125;  436.000;  405.000
402.046;  -16.900;  134.000;  122.000
402.173;  -31.350;  -18.000;    7.000
402.301;  -61.300; -519.000; -397.000
402.428;   38.650;  528.000;  383.000
402.556; -130.525;-1188.000; -913.000
402.683;  -27.800;  -20.000;   -1.000
402.811;  -20.000;  -37.000; -206.000
402.938;  -13.525;   20.000;   27.000
403.066;  257.750; -574.000; -558.000
403.193;  439.475;  299.000;  239.000
403.321;  336.275; -396.000; -574.000
403.448;  407.175;   83.000;   27.000
403.575;  201.100;  -90.000;  -46.000
403.703;  -86.875; -732.000; -557.000
403.830;  -55.850; -531.000; -496.000
403.957; -118.975;-1117.000;-1023.000
404.085;   22.300;  -61.000; -172.000
404.212;  119.025;  -50.000;   63.000
404.339;  249.450; -566.000; -306.000
404.467; 5336.875; -612.000; -524.000
404.594; 3932.475; -287.000; -227.000
404.721; 1026.275; -869.000; -764.000
404.848;   97.475; -113.000; -202.000
404.976; -100.650; -856.000; -783.000
405.103;   -7.150;  -14.000;  -82.000
405.230;    2.225;  190.000;  226.000
405.357;   27.750;  117.000;   44.000
405.484;  267.775;  -49.000;    5.000
405.612;   61.125; -548.000; -563.000
405.739;  -45.775; -488.000; -243.000
405.866;   81.475;  669.000;  385.000
405.993;  -41.750; -398.000; -102.000
406.120; -119.675; -801.000; -887.000
406.247;  -40.950; -323.000; -342.000
406.374;  531.900;  540.000;  629.000
406.501;  192.825; -632.000; -702.000
406.628;  -63.750; -621.000; -589.000
406.755;  -73.050; -803.000; -620.000
406.882;  -27.650; -228.000; -277.000
407.009; -111.700; -719.000; -628.000
407.136;   77.700; -480.000; -401.000
407.263;  220.200; -939.000; -829.000
407.390;  -64.025; -692.000; -614.000
407.517; -151.550;-1139.000;-1187.000
407.644;  -52.625; -332.000; -256.000
407.771; -120.450; -249.000; -287.000
407.898;   23.650;  168.000;  328.000
408.025;  -64.575; -421.000; -313.000
408.151;  -15.075;   82.000;  153.000
408.278;  -58.400; -267.000; -216.000
408.405; -102.575; -931.000; -899.000
408.532;  -46.250; -549.000; -542.000
408.659; -101.225; -677.000; -648.000
408.785; -189.200;-1298.000;-1170.000
408.912;  -62.775; -412.000; -296.000
409.039; -117.850; -610.000; -686.000
409.166;  -97.025; -591.000; -555.000
409.292; -107.375; -571.000; -534.000
409.419; -109.725; -665.000; -649.000
409.546;  -76.825; -431.000; -192.000
409.672; -103.250; -713.000; -545.000
409.799;  -19.525;  -36.000;   34.000
409.926;  -34.225; -180.000; -179.000
410.052; -177.175;-1127.000;-1091.000
410.179;  -58.400; -368.000; -392.000
410.305;  -86.725; -375.000; -493.000
410.432;  -36.700; -220.000; -333.000
410.558;  -80.550; -305.000; -380.000
410.685; -112.825; -688.000; -431.000
410.812;  -94.525; -409.000; -588.000
410.938; -131.500; -964.000; -808.000
411.065;  -82.175; -671.000; -645.000
411.191;   -3.325; -189.000; -174.000
411.317; -101.850; -823.000; -742.000
411.444;  -47.750; -317.000; -246.000
411.570;  -70.150; -339.000; -294.000
411.697; -130.000; -758.000; -752.000
411.823; -170.350; -989.000; -999.000
411.949;  -10.450;  -56.000;   17.000
412.076; -100.025; -539.000; -519.000
412.202; -117.800; -758.000; -757.000
412.329; -119.775; -798.000; -752.000
412.455; -101.750; -821.000; -657.000
412.581;  -18.575;  -15.000;  172.000
412.707;  -56.675; -540.000; -457.000
412.834;   24.100;  156.000;  219.000
412.960;  -73.600; -785.000; -784.000
413.086;  -93.575; -743.000; -701.000
413.212;  173.450;  604.000;  578.000
413.339;  -50.675; -685.000; -701.000
413.465;   15.675; -364.000; -310.000
413.591;  -66.400; -757.000; -474.000
413.717;  -39.875; -358.000; -366.000
413.843; -117.575; -839.000; -861.000
413.969;  -53.075;  -47.000; -292.000
414.096; -101.375; -679.000; -679.000
414.222;   -2.250;  -33.000;   85.000
414.348;  -10.050; -652.000; -385.000
414.474;  129.925;   38.000;  -52.000
414.600;  -15.925; -126.000; -144.000
414.726;  -10.525;  -96.000;  -55.000
414.852;  -58.650; -365.000; -342.000
414.978;   31.475;  104.000;  -18.000
415.104;   40.900;   38.000;   80.000
415.230;   33.300; -329.000; -330.000
415.356;   51.850; -409.000; -514.000
415.482;  210.025;   13.000;  -35.000
415.608;  267.175; -247.000; -323.000
415.734;  926.550;   67.000;   38.000
415.860;18899.725; -875.000; -767.000
415.986;14740.375; -685.000; -607.000
416.111; 1268.100; -798.000; -652.000
416.237;  261.825; -424.000; -571.000
416.363;  988.925; -765.000; -733.000
416.489; 3967.125; -324.000; -251.000
416.615;  455.375; -707.000; -742.000
416.741;  -20.150; -677.000; -784.000
416.866;  -95.875; -673.000; -736.000
416.992; -114.250; -801.000; -818.000
417.118;  -17.900;  -41.000;  -80.000
417.244;  -38.975; -798.000; -531.000
417.369;  -73.400; -801.000; -612.000
417.495;   -6.900; -325.000; -254.000
417.621;  -70.150;-1015.000; -803.000
417.746;   20.125; -579.000; -572.000
417.872;   47.800; -254.000; -144.000
417.998;   68.025; -515.000; -530.000
418.123;  926.650;-1073.000; -845.000
418.249; 5128.650; -512.000; -601.000
418.374;  780.250; -916.000; -824.000
418.500;  124.225; -383.000; -482.000
418.626;  115.225;   70.000;  -59.000
418.751;  134.025; -549.000; -448.000
418.877;  189.475; -637.000; -643.000
419.002; 1602.125; -688.000; -560.000
419.128;11884.025; -930.000; -721.000
419.253; 3075.850; -967.000; -837.000
419.379;  393.475; -391.000; -338.000
419.504;  383.700;  325.000;  415.000
419.629;  480.825; -393.000; -212.000
419.755; 3106.200; -317.000; -254.000
419.880;19301.875;  -98.000;   67.000
420.006;10707.725; -280.000; -221.000
420.131;28579.225; -662.000; -775.000
420.256; 4414.375; -315.000; -316.000
420.382;  568.600; -665.000; -687.000
420.507;   85.250; -649.000; -778.000
420.632;  179.575; -337.000; -339.000
420.758;  330.150; -251.000; -425.000
420.883;  -55.200; -876.000; -672.000
421.008;  -98.925; -775.000; -619.000
421.133;  -57.650; -509.000; -467.000
421.259;  -37.800; -325.000; -259.000
421.384; -100.800; -834.000; -693.000
421.509;  -22.100;-1052.000; -862.000
421.634; 1464.125; -936.000; -820.000
421.759;  691.325; -359.000; -327.000
421.885;  -40.975; -717.000; -656.000
422.010;  -65.100; -673.000; -542.000
422.135; -129.075; -695.000; -727.000
422.260;   23.700;  340.000;  280.000
422.385;  -33.400;   12.000;  -98.000
422.510;   14.650;  151.000;  -26.000
422.635;   20.900;  -87.000;  -43.000
422.760;  112.875; -766.000; -791.000
422.885;   66.200;  -57.000;  -80.000
423.010;  -24.075; -112.000; -169.000
423.135;  -93.400; -481.000; -561.000
423.260;   -6.800; -150.000; -245.000
423.385;   84.025;  476.000;  222.000
423.510;   30.275;   71.000;  -22.000
423.635;  111.475;  133.000;   45.000
423.760;   66.275;  383.000;  328.000
423.885;   50.125;  336.000;  391.000
424.010;   27.275;  -68.000;  -13.000
424.135;  -17.000;    5.000;  -33.000
424.259;  -79.325; -654.000; -457.000
424.384;  -55.350; -279.000; -272.000
424.509;  -21.850; -260.000; -186.000
424.634;  -90.500; -761.000; -623.000
424.759;  -21.950; -688.000; -544.000
424.883;  -22.275; -506.000; -527.000
425.008;  164.200; -502.000; -410.000
425.133; 1886.425; -679.000; -653.000
425.258;  948.950; -517.000; -381.000
425.382; 1110.625; -867.000; -774.000
425.507; 3102.350; -487.000; -543.000
425.632;  494.525; -802.000; -663.000
425.756;  422.700; -256.000; -146.000
425.881; 5607.850; -831.000; -857.000
426.006;15989.225; -604.000; -355.000
426.130; 2747.375; -696.000; -508.000
426.255;  342.850; -611.000; -491.000
426.379;  168.450; -189.000; -577.000
426.504;  352.475;  660.000;  544.000
426.629; 3842.225; -519.000; -466.000
426.753; 2873.575;   64.000;  -46.000
426.878;  325.500; -252.000; -288.000
427.002;  154.375; -651.000; -668.000
427.127; 1463.800;  -35.000; -158.000
427.251;10695.675;  372.000;  401.000
427.375; 3335.850; -191.000; -173.000
427.500; 2639.975; -616.000; -610.000
427.624;  975.350; -234.000; -400.000
427.749;  132.425; -216.000; -225.000
427.873;  -30.750; -499.000; -412.000
427.997;  -34.050; -222.000; -230.000
428.122;   71.550;  795.000;  703.000
428.246;   83.100;  433.000;  434.000
428.371; -115.250; -869.000; -773.000
428.495;  -83.500; -624.000; -646.000
428.619;  -19.725; -186.000; -117.000
428.743;   29.575;   65.000;  132.000
428.868;   34.500; -732.000; -643.000
428.992; 1645.675; -219.000; -326.000
429.116;  734.950; -329.000; -357.000
429.240;  334.975;  419.000;  426.000
429.365;  -15.800; -454.000; -574.000
429.489;  -25.450; -638.000; -647.000
429.613;   28.000; -236.000; -177.000
429.737;   54.275; -563.000; -432.000
429.861;  260.600; -247.000; -133.000
429.985; 5103.700; -425.000; -305.000
430.109; 6027.250; -770.000; -908.000
430.234;  729.950;   76.000;  -50.000
430.358;   74.200; -250.000; -160.000
430.482;  -60.750; -672.000; -564.000
430.606;  -60.150; -655.000; -375.000
430.730;   46.325; -437.000; -388.000
430.854;  213.750; -909.000; -835.000
430.978;  -40.575; -795.000; -764.000
431.102;  -71.925; -499.000; -422.000
431.226; -102.025; -874.000; -815.000
431.350;   43.850;  345.000;  422.000
431.474;  -50.000; -661.000; -373.000
431.597; -130.075;-1060.000; -848.000
431.721;  -67.225; -276.000; -267.000
431.845; -113.550; -704.000; -472.000
431.969;  -75.850; -304.000; -349.000
432.093;  -88.300; -395.000; -317.000
432.217;  -15.275;   32.000;   82.000
432.341;  -81.000; -523.000; -518.000
432.464;   11.200;   96.000;   40.000
432.588;  271.975; -401.000; -329.000
432.712;  161.225;  -52.000;  -52.000
432.836;   43.650;  213.000;  263.000
432.959;  -13.825; -372.000; -311.000
433.083;   67.575;   11.000;    2.000
433.207;  341.925;  285.000;  930.000
433.330; 4590.175; -391.000; -200.000
433.454; 5996.600; -654.000; -638.000
433.578; 3456.075;  583.000;  278.000
433.701;  688.100; -623.000; -675.000
433.825;  172.925; -292.000; -299.000
433.949;  229.100;   28.000;  -72.000
434.072;  107.250; -410.000; -323.000
434.196;  -10.400; -309.000; -117.000
434.319; 3601.275;25482.000;25124.000
434.443;  718.450; -656.000; -603.000
434.566; 2569.875;  281.000;   62.000
434.690;  461.800; -637.000; -383.000
434.813;   48.450; -251.000; -173.000
434.937;  -59.600; -569.000; -696.000
435.060;  -15.025; -423.000; -332.000
435.184;  441.725; -492.000; -217.000
435.307;  257.625;  159.000;  102.000
435.431;    1.400;  -40.000;   24.000
435.554;  -67.375; -399.000; -240.000
435.677;  -79.825; -350.000; -258.000
435.801;  -35.025;  -25.000;   49.000
435.924;   -3.900;    1.000;  -67.000
436.048;  -85.275;-1019.000; -732.000
436.171;  -60.250; -240.000;  -66.000
436.294;  -25.625; -248.000; -229.000
436.417;   81.050; -963.000; -849.000
436.541;  -68.950; -814.000; -840.000
436.664;  -41.450; -242.000; -316.000
436.787;  -24.725;   13.000;  113.000
436.910;  -98.600; -792.000; -422.000
437.034;    9.200;  142.000;  143.000
437.157;   84.625;  -11.000;    0.000
437.280;  -20.800; -392.000; -292.000
437.403;  -54.850; -982.000; -869.000
437.526;  798.125; -903.000; -865.000
437.649; 2991.900; -505.000; -332.000
437.772;  527.950; -692.000; -540.000
437.896;  133.850;  700.000;  544.000
438.019;  -78.750; -758.000; -503.000
438.142;  -74.950; -596.000; -506.000
438.265;   15.775; -639.000; -670.000
438.388;  720.225; -520.000; -410.000
438.511;  185.150; -597.000; -394.000
438.634;  -19.800; -247.000; -125.000
438.757; -125.425; -693.000; -619.000
438.880;  -25.400;  -34.000;  -57.000
439.003;  -69.500; -417.000; -437.000
439.126;  -69.700; -287.000; -167.000
439.248;  -62.025;  -98.000; -139.000
439.371;  -33.900;    9.000;  -53.000
439.494;   20.900;  510.000;  439.000
439.617;  -45.175;   65.000;  -88.000
439.740; -181.775; -968.000; -816.000
439.863; -140.425; -755.000; -595.000
439.986; -130.325; -476.000; -431.000
440.108;  -54.325; -161.000; -112.000
440.231; -155.325; -950.000; -836.000
440.354;  -34.425;  -64.000; -150.000
440.477;   59.175; -566.000; -542.000
440.599;   40.800; -200.000; -225.000
440.722; -112.625; -709.000; -586.000
440.845;   68.725;  751.000;  928.000
440.968; -103.350; -415.000; -311.000
441.090;  -60.600; -199.000;  -33.000
441.213; -176.875;-1021.000; -825.000
441.336;  -50.100; -159.000;   -5.000
441.458;  -67.975; -549.000; -396.000
441.581;  -70.075; -628.000; -629.000
441.703;  -60.075; -152.000;   13.000
441.826; -105.350; -557.000; -400.000
441.948;  -50.250;   56.000;   51.000
442.071;   19.925;  555.000;  424.000
442.193; -115.125; -531.000; -485.000
442.316;   10.075;  152.000;   97.000
442.438;   37.550; -233.000;  -10.000
442.561;   88.600;  272.000;  262.000
442.683;  690.725; -809.000; -522.000
442.806; 1527.825;   -8.000;   74.000
442.928;  105.875; -859.000; -604.000
443.051;  -33.775; -577.000; -373.000
443.173;  -73.125; -341.000; -339.000
443.295;  -91.550; -263.000; -371.000
443.418;  -57.625; -321.000;  -29.000
443.540;   13.375; -106.000;   -4.000
443.662; -111.125; -563.000; -465.000
443.785;   -5.850;  335.000;  199.000
443.907; -104.025; -362.000; -208.000
444.029; -129.525; -767.000; -494.000
444.152; -143.800; -644.000; -554.000
444.274;  -25.975;  -18.000;  -24.000
444.396; -113.500; -461.000; -221.000
444.518; -129.050; -691.000; -454.000
444.640; -102.650; -268.000; -111.000
444.763;  -27.575;  388.000;  249.000
444.885; -115.100; -432.000; -392.000
445.007;  -23.500;   35.000;   86.000
445.129; -112.550; -610.000; -515.000
445.251;  -98.550; -372.000; -439.000
445.373; -131.225; -537.000; -386.000
445.495;   25.700;  242.000;  350.000
445.617;   47.850;  853.000;  753.000
445.739;  -70.375; -215.000;  -97.000
445.861;  -28.125; -245.000; -112.000
445.984;  -21.200; -267.000; -101.000
446.105;  250.425; -418.000; -251.000
446.227;  774.025; -176.000;  -19.000
446.349;   48.550; -358.000; -249.000
446.471;  -85.150; -615.000; -448.000
446.593;  -62.725; -316.000;   19.000
446.715;    4.725;  -67.000;   41.000
446.837;   57.475;  697.000;  832.000
446.959; -103.775; -457.000; -478.000
447.081; -129.750; -628.000; -518.000
447.203;   54.075;  862.000;  834.000
447.325;  -88.750; -270.000;   42.000
447.446;   -6.850;  286.000;  530.000
447.568; -146.375; -921.000; -803.000
447.690;  -72.075; -236.000; -245.000
447.812; -147.950; -798.000; -519.000
447.933;  -19.925;  155.000;  127.000
448.055;  -62.150; -306.000; -261.000
448.177;  185.375;   31.000;   79.000
448.299;  149.675; -935.000; -727.000
448.420;   43.175;  -25.000;  159.000
448.542;  -58.850;   -3.000;   33.000
448.664;  -17.125;  109.000;  322.000
448.785;  -41.725;  265.000;   83.000
448.907;  -68.125; -614.000; -353.000
449.028;  -18.925; -771.000; -471.000
449.150;   52.300;  492.000;  589.000
449.272; -167.925;-1044.000; -913.000
449.393;   28.900;  612.000;  694.000
449.515; -146.500; -634.000; -581.000
449.636;  -38.725; -264.000; -155.000
449.758;   66.300;  763.000;  622.000
449.879;  -81.775; -498.000; -396.000
450.001;  -73.550; -149.000;  -49.000
450.122;  -21.075;  -95.000;  162.000
450.244;  -30.025;   37.000;  364.000
450.365;  -96.400; -495.000; -301.000
450.486;  -35.825;   80.000;  268.000
450.608;   10.425;  393.000;  326.000
450.729;   64.900;  578.000;  645.000
450.850;  -10.200; -574.000; -466.000
450.972;  629.125; -552.000; -389.000
451.093; 4427.250;  190.000;  588.000
451.214; 2098.700; -516.000; -337.000
451.336;  395.975;  773.000;  579.000
451.457;   58.725;  264.000;  393.000
451.578;  -42.350; -118.000;  -74.000
451.699; -115.275; -546.000; -540.000
451.821;  -58.000; -284.000;  -50.000
451.942;  -11.125;  278.000;  285.000
452.063;   22.300;  228.000;  419.000
452.184;  496.225;  -54.000;  -49.000
452.305; 1045.175;  103.000;  170.000
452.427;  153.025; -549.000; -301.000
452.548;   -6.350;   23.000;   79.000
452.669;  -42.100; -257.000;  -89.000
452.790;  -30.350;    3.000;  -18.000
452.911;   -6.475;  195.000;  259.000
453.032;  -60.575; -289.000;  -60.000
453.153;  -39.525;  -29.000;   81.000
453.274;   61.025;  737.000;  868.000
453.395;  -33.075;  -51.000;  175.000
453.516;  131.450; 1317.000; 1388.000
453.637;  -56.975; -205.000; -150.000
453.758;  -49.325;   15.000;   69.000
453.879; -114.925; -462.000; -250.000
454.000;   72.225; 1086.000;  948.000
454.121;  -93.500; -554.000; -326.000
454.242; -110.775; -599.000; -383.000
454.362;  -54.575;  -99.000;  114.000
454.483;  -33.550; -309.000; -229.000
454.604;   57.350;  512.000;  580.000
454.725; -124.050; -627.000; -555.000
454.846; -121.250; -474.000; -406.000
454.967;  -18.425;  230.000;  539.000
455.087;  -34.400;  179.000;  153.000
455.208;   17.500;  554.000;  856.000
455.329;  -71.050;  -22.000;   82.000
455.450;   29.600;  473.000;  633.000
455.570;  -75.300; -234.000; -211.000
455.691;  -38.200;  201.000;  407.000
455.812; -109.250; -270.000;  -92.000
455.932;  -54.375;  107.000;  -97.000
456.053;  -85.325;   36.000;   24.000
456.173; -110.500; -433.000; -355.000
456.294; -126.825; -476.000; -303.000
456.415;  -57.125;  -73.000;   70.000
456.535;  -37.500;  297.000;  273.000
456.656;  -43.675;  132.000;  240.000
456.776;  -67.900;    3.000;  298.000
456.897;    3.475;  308.000;  513.000
457.017;  -73.475; -153.000;   -3.000
457.138;  -94.275; -402.000; -249.000
457.258;  -30.200;  263.000;  224.000
457.379;  -15.450;  509.000;  521.000
457.499;  -25.275;  443.000;  432.000
457.620; -118.900; -407.000; -231.000
457.740;  -88.425; -132.000;  -11.000
457.860;  -52.275;   87.000;   44.000
457.981;  -43.400;  132.000;  124.000
458.101;  -65.775;  -89.000;   40.000
458.221;  -16.875;  336.000;  402.000
458.342;  -59.425;   -4.000;  -37.000
458.462;   27.925;  617.000;  352.000
458.582;  -21.800; -302.000; -294.000
458.703;   -5.600;  303.000;  154.000
458.823;  -30.575;   22.000;  163.000
458.943;   14.575;  341.000;  467.000
459.063;   -1.025; 1124.000;  192.000
459.183;  -10.675;  328.000;  313.000
459.304;   14.275;  315.000;  517.000
459.424;  -65.150; -246.000;  -89.000
459.544;  301.300;  388.000;  764.000
459.664;  780.475;  499.000;  506.000
459.784;  308.750; 1004.000; 1175.000
459.904;   68.800;  867.000;  744.000
460.024;   77.250;  867.000;  684.000
460.144;    0.175;  449.000;  554.000
460.264;   -5.425;  515.000;  327.000
460.385;  -95.050; -145.000; -119.000
460.505;   45.175;  905.000;  858.000
460.625;  -98.475;  -17.000;  -68.000
460.745;  -24.475;  396.000;  541.000
460.864;  -54.525;  153.000;  469.000
460.984;   21.650;  499.000;  573.000
461.104;  145.275; 1656.000; 1775.000
461.224;   19.650;  657.000;  650.000
461.344;  -12.550;  431.000;  360.000
461.464;  -31.425;  258.000;  513.000
461.584;  -16.300;  283.000;  466.000
461.704;  -39.650;   58.000;  108.000
461.824;  -43.425;  238.000;  259.000
461.943;  -34.425;  191.000;  130.000
462.063;  -62.250;    2.000;  324.000
462.183;   33.050;  639.000;  717.000
462.303;  116.325; 1678.000; 1230.000
462.422;   41.925;  781.000;  840.000
462.542;  -46.925;  271.000;  391.000
462.662;   38.050;  353.000;  380.000
462.782;  233.800;  833.000;  572.000
462.901;  468.600;  545.000;  717.000
463.021;  280.425; 1702.000; 1638.000
463.141;   -3.925;  337.000;  770.000
463.260;  -21.725;  614.000;  474.000
463.380;    8.650;  902.000;  884.000
463.499;  -27.525;  342.000;  332.000
463.619;  -29.950;  581.000;  559.000
463.738;  108.275; 1644.000;  903.000
463.858;   15.500;  657.000;  811.000
463.978;  -19.725;  542.000;  396.000
464.097;   49.375;  921.000; 1114.000
464.217;  112.525; 1196.000; 1143.000
464.336;  107.475; 1068.000; 1130.000
464.455;  -36.725;  328.000;  659.000
464.575;   62.250;  597.000;  602.000
464.694;  193.225; 1204.000; 1179.000
464.814;  123.150; 1190.000; 1138.000
464.933;   84.025; 1095.000; 1027.000
465.052;  121.600; 1412.000; 1054.000
465.172;   85.600;  922.000;  799.000
465.291;  156.000; 1376.000; 1320.000
465.410;   23.050;  462.000;  735.000
465.530;   99.400; 1355.000; 1310.000
465.649;   77.900; 1209.000; 1273.000
465.768;  141.600; 1673.000; 1508.000
465.888;   56.100;  941.000; 1174.000
466.007;   89.850; 1335.000; 1440.000
466.126;   -5.075;  721.000;  641.000
466.245;   47.050; 1176.000; 1187.000
466.364;   27.150;  950.000; 1060.000
466.484;   72.300; 1024.000; 1213.000
466.603;   33.900; 1101.000; 1222.000
466.722;  130.825; 1490.000; 1769.000
466.841;   91.100; 1151.000; 1401.000
466.960;   43.525; 1069.000;  972.000
467.079;  130.925; 1971.000; 1786.000
467.198;   54.800; 1238.000; 1181.000
467.317;   83.025; 1768.000; 1162.000
467.436;   73.350; 1709.000; 1261.000
467.555;  127.600; 1796.000; 1746.000
467.674;   68.550; 1227.000; 1329.000
467.793;   55.475; 1376.000; 1374.000
467.912;   84.350; 1658.000; 1539.000
468.031;  141.425; 2038.000; 1930.000
468.150;  135.575; 1842.000; 1837.000
468.269;  206.975; 2313.000; 2090.000
468.388;  189.825; 2168.000; 2339.000
468.507;  240.875; 2884.000; 2903.000
468.626;  273.325; 2555.000; 2541.000
468.744;  134.950; 2018.000; 2174.000
468.863;  205.925; 2312.000; 2523.000
468.982;  117.925; 1503.000; 1555.000
469.101;  214.950; 2788.000; 2692.000
469.220;  156.425; 2333.000; 2176.000
469.338;  246.100; 2935.000; 3051.000
469.457;  188.175; 2719.000; 2545.000
469.576;  346.950; 3953.000; 3784.000
469.695;  247.975; 2877.000; 3066.000
469.813;  426.725; 4148.000; 4192.000
469.932;  407.675; 4255.000; 4485.000
470.051;  428.700; 4075.000; 4161.000
470.169;  821.425; 4470.000; 4338.000
470.288; 1422.000; 4700.000; 4809.000
470.406;  880.200; 5059.000; 5194.000
470.525;  612.725; 6101.000; 5787.000
470.644;  654.400; 6847.000; 6794.000
470.762;  844.075; 8397.000; 7873.000
470.881;  884.350; 8651.000; 8464.000
470.999; 1025.475; 9685.000; 9151.000
471.118; 1104.475;11174.000;10711.000

