
Integration time [ms]: 200.000
Averaging Nr. [scans]: 10
Smoothing Nr. [pixels]: 0
Data measured with spectrometer [name]: 2101012U2
Wave   ;Sample   ;Dark     ;Reference
[nm]   ;[counts] ;[counts] ;[counts] 

197.733;  116.800;  516.000;  404.000
197.879; -155.000; -610.000; -634.000
198.025; -129.800; -475.000; -420.000
198.171; -139.100; -602.000; -612.000
198.317;  -58.200; -401.000; -316.000
198.463; -154.200; -655.000; -404.000
198.609;   70.200;  181.000; -137.000
198.755; -171.100; -644.000; -410.000
198.901; -151.200; -505.000; -424.000
199.047; -135.700; -615.000; -488.000
199.193;  -82.800; -230.000; -468.000
199.339;  -97.400; -222.000; -369.000
199.485;   87.200;  330.000;  271.000
199.631;   46.300;  227.000;  310.000
199.777;  -91.800; -466.000; -398.000
199.923; -133.700; -610.000; -424.000
200.069;   13.200; -141.000;  -58.000
200.215;  115.600;  128.000;  453.000
200.361;   89.900;  243.000;  477.000
200.507; -133.700; -600.000; -373.000
200.653;  -83.300; -371.000; -194.000
200.798;  -71.400; -215.000; -125.000
200.944;  -15.300; -146.000;  -41.000
201.090;   73.000;   61.000;  222.000
201.236;   -2.200; -116.000; -158.000
201.382;  267.300;  874.000;  903.000
201.528;   -2.200;  -58.000;  -48.000
201.674; -115.000; -386.000; -293.000
201.819; -141.300; -540.000; -439.000
201.965; -164.700; -699.000; -447.000
202.111;  -68.800; -273.000; -226.000
202.257;  -67.500; -250.000; -238.000
202.402;   -2.500;   13.000;  -36.000
202.548;  -44.400; -169.000; -116.000
202.694;  174.900;  410.000; -183.000
202.840; -174.900; -603.000; -531.000
202.985; -162.400; -681.000; -639.000
203.131; -218.300; -832.000; -666.000
203.277;  -65.900; -199.000; -262.000
203.423; -106.200; -434.000; -520.000
203.568;  -76.800; -462.000; -237.000
203.714; -157.300; -535.000; -542.000
203.860; -178.900; -682.000; -641.000
204.005;   50.300;  112.000;  167.000
204.151;  118.800;  561.000;  556.000
204.296;  -54.100; -354.000; -221.000
204.442; -162.600; -600.000; -547.000
204.588; -154.000; -592.000; -579.000
204.733;   32.600;  178.000;  168.000
204.879; -268.400;-1018.000; -822.000
205.025;    5.200;  -99.000;  126.000
205.170;   13.100;  -17.000;   94.000
205.316;  143.400;  438.000;  661.000
205.461; -183.000; -698.000; -554.000
205.607;  195.800;  609.000;  665.000
205.752; -177.600; -626.000; -551.000
205.898;  -95.800; -501.000; -391.000
206.043; -124.000; -578.000; -506.000
206.189;  -91.400; -243.000; -285.000
206.334;  115.400;  554.000;  606.000
206.480;  127.600;  409.000;  239.000
206.625; -190.400; -529.000; -552.000
206.771;  -92.300; -451.000; -373.000
206.916;  -52.400; -210.000; -537.000
207.062; -132.300; -545.000; -591.000
207.207; -138.100; -546.000; -443.000
207.353;  140.300;  185.000;  460.000
207.498;   32.600;  196.000;   85.000
207.643; -106.300; -501.000; -370.000
207.789; -270.000;-1069.000; -910.000
207.934; -228.300; -665.000; -713.000
208.080;  -40.400; -154.000;   66.000
208.225;  -58.000;  -22.000;  -57.000
208.370; -168.500; -727.000; -619.000
208.516; -177.600; -741.000; -487.000
208.661;  -43.800; -127.000;  -69.000
208.806;  -31.500; -165.000; -171.000
208.952; -276.200;-1044.000; -731.000
209.097;  155.600;  378.000;  349.000
209.242;  -71.200; -307.000; -382.000
209.387;   88.400;  392.000;  350.000
209.533;  -72.600; -321.000; -350.000
209.678;  171.000;  472.000;  543.000
209.823;  -87.800; -408.000; -310.000
209.969; -186.700; -860.000; -757.000
210.114; -218.200; -907.000; -719.000
210.259; -273.100; -939.000; -889.000
210.404;  -29.000; -171.000;  103.000
210.549;   -8.500;  108.000;    3.000
210.695;  -38.700;   -3.000;  -95.000
210.840;   25.200;   94.000;   67.000
210.985; -141.100; -484.000; -303.000
211.130;  147.100;  268.000;  406.000
211.275;   73.500;  207.000;  199.000
211.420;  -94.200; -300.000; -289.000
211.566; -139.000; -536.000; -489.000
211.711;   52.000;  218.000;  157.000
211.856; -127.200; -545.000; -519.000
212.001;    7.000;  151.000;   44.000
212.146;   38.200;  153.000;   49.000
212.291;  -38.200; -210.000; -186.000
212.436;  -31.900; -280.000;   -6.000
212.581; -175.200; -685.000; -653.000
212.726; -152.800; -487.000; -538.000
212.871; -110.800; -552.000; -217.000
213.016; -294.200;-1172.000;-1029.000
213.161;  123.500;  406.000;  291.000
213.306; -156.000; -435.000; -577.000
213.451; -179.300; -778.000; -689.000
213.596; -114.300; -455.000; -347.000
213.741; -106.700; -448.000; -538.000
213.886; -173.000; -498.000; -517.000
214.031;  -46.000; -294.000; -124.000
214.176; -122.400; -408.000; -341.000
214.321;  -45.600; -296.000; -157.000
214.466;  -45.700; -163.000;  -43.000
214.611;  -14.100;  -61.000;  -10.000
214.756; -247.100; -948.000; -858.000
214.901;  -63.700; -388.000; -226.000
215.046; -246.600; -797.000; -825.000
215.191;   24.400;  128.000;   35.000
215.336;    3.800; -157.000;  -19.000
215.480; -170.400; -684.000; -505.000
215.625;  -30.900; -175.000;  -19.000
215.770; -184.200; -757.000; -662.000
215.915;   -6.200;   -5.000;  -97.000
216.060;  -14.500; -113.000;  -21.000
216.205; -238.200; -731.000; -779.000
216.349; -145.700; -470.000; -533.000
216.494; -290.600; -939.000; -867.000
216.639; -239.900; -823.000; -888.000
216.784; -151.800; -577.000; -525.000
216.929;  134.500;  392.000;  281.000
217.073;    9.100; -244.000;  -31.000
217.218;   17.300;   78.000;  -47.000
217.363; -171.100; -656.000; -618.000
217.507; -182.200; -623.000; -588.000
217.652; -243.500; -845.000; -874.000
217.797; -189.900; -708.000; -659.000
217.942; -231.900; -856.000; -720.000
218.086;  156.400;  608.000;  539.000
218.231;  -36.500; -174.000;  -26.000
218.376;  -88.300; -337.000; -229.000
218.520;   36.300;  -41.000;   96.000
218.665;  -57.000; -338.000; -204.000
218.810;  -66.100; -275.000; -233.000
218.954;   54.400;  201.000;   35.000
219.099; -263.800; -713.000; -963.000
219.243; -133.400; -589.000; -554.000
219.388;  -69.200; -264.000; -136.000
219.532;  -46.500; -116.000; -116.000
219.677; -148.500; -564.000; -521.000
219.822;   31.100;   33.000;   89.000
219.966;    8.500;   17.000;  -99.000
220.111;  -83.100; -328.000;  -40.000
220.255; -194.800; -797.000; -750.000
220.400;  -67.700; -180.000; -146.000
220.544; -155.400; -516.000; -450.000
220.689; -109.500; -422.000; -451.000
220.833;  -28.800; -123.000;  -58.000
220.978;  -96.400; -393.000; -563.000
221.122;   68.700;  319.000;  307.000
221.267; -232.900; -906.000; -837.000
221.411; -114.600; -478.000; -394.000
221.555;  -24.800; -104.000;  -23.000
221.700;  -99.900; -329.000; -222.000
221.844;   57.300;  255.000;  272.000
221.989;  -88.600; -328.000; -311.000
222.133;  -68.100; -289.000; -307.000
222.277;  -13.400;    5.000;   78.000
222.422;   22.900;  227.000;  113.000
222.566;  -81.200; -381.000; -214.000
222.711;  -90.900; -414.000; -479.000
222.855; -167.100; -643.000; -586.000
222.999; -193.900; -642.000; -717.000
223.144;  -49.000; -195.000; -194.000
223.288;   96.000;  423.000;  251.000
223.432;   26.100;  184.000;  230.000
223.576;   43.000;  152.000;  -21.000
223.721;   86.900;  364.000;  273.000
223.865; -161.100; -472.000; -475.000
224.009;  470.700; 1673.000; 1631.000
224.153; -182.200; -660.000; -671.000
224.298; -138.000; -531.000; -489.000
224.442;  -14.900;  -74.000;  -33.000
224.586;  -12.400; -169.000; -106.000
224.730; -196.700; -858.000; -670.000
224.875; -214.200; -739.000; -688.000
225.019;   18.100;  102.000;  188.000
225.163;  144.600;  208.000;  341.000
225.307;   19.000;   97.000;  -91.000
225.451;  115.100;  360.000;  481.000
225.595;   62.900;  264.000;  176.000
225.739;  -38.500; -170.000;  -94.000
225.884;    8.500;   86.000;    5.000
226.028; -167.800; -760.000; -626.000
226.172;  -89.300; -260.000; -273.000
226.316; -252.700; -941.000; -902.000
226.460; -118.300; -645.000; -493.000
226.604; -130.600; -406.000; -400.000
226.748; -220.000; -836.000; -733.000
226.892;  -67.900; -227.000; -181.000
227.036;  -97.600; -537.000; -447.000
227.180;  -77.700; -551.000; -375.000
227.324; -155.900; -561.000; -580.000
227.468; -198.100; -819.000; -717.000
227.612;   11.600;  242.000;  -28.000
227.756; -228.600; -845.000; -698.000
227.900;   90.100;  342.000;  441.000
228.044; -113.700; -509.000; -290.000
228.188;  122.500;  448.000;  568.000
228.332; -173.300; -546.000; -472.000
228.476;  -42.600; -223.000; -149.000
228.620;  -71.800; -210.000; -150.000
228.764;  154.300;  431.000;  349.000
228.908;  -27.100; -155.000;   30.000
229.052; -111.000; -615.000; -528.000
229.195;  -40.700; -172.000;   13.000
229.339;  -56.800; -235.000; -305.000
229.483;  -28.200;    5.000; -162.000
229.627;   22.700; -156.000;  139.000
229.771;  -94.300; -218.000; -294.000
229.915;   32.500;  230.000;   79.000
230.059; -174.800; -648.000; -663.000
230.202; -100.400; -370.000; -317.000
230.346;  -44.900; -107.000;  107.000
230.490; -137.000; -489.000; -521.000
230.634; -216.100; -736.000; -553.000
230.777;  170.100;  478.000;  509.000
230.921; -106.300; -450.000; -359.000
231.065; -100.400; -246.000; -286.000
231.209;   61.900;  261.000;  265.000
231.352;   19.100;   54.000;   40.000
231.496;   49.200;  568.000;  188.000
231.640; -173.900; -693.000; -621.000
231.783;  118.500;  546.000;  525.000
231.927;  -90.000; -294.000; -365.000
232.071; -249.100; -962.000; -736.000
232.214; -222.200; -980.000; -764.000
232.358; -196.400; -683.000; -599.000
232.502;   20.700;  -19.000;    7.000
232.645; -249.200;-1090.000; -927.000
232.789;  -56.400; -257.000; -218.000
232.933;  -76.700; -407.000; -224.000
233.076; -281.300;-1038.000; -897.000
233.220; -196.500; -752.000; -777.000
233.363; -147.900; -669.000; -477.000
233.507;  117.800;  371.000;  129.000
233.650; -203.800; -764.000; -834.000
233.794;  101.100;  438.000;  461.000
233.938; -122.800; -530.000; -362.000
234.081;  -30.900;  -93.000;   31.000
234.225; -152.300; -631.000; -539.000
234.368; -235.000; -773.000; -723.000
234.512;  -97.200; -385.000; -299.000
234.655; -188.600; -582.000; -555.000
234.798; -114.800; -493.000; -466.000
234.942; -247.800; -884.000;-1002.000
235.085; -166.400; -651.000; -443.000
235.229; -123.000; -405.000; -410.000
235.372;  -84.700; -247.000; -191.000
235.516; -131.200; -397.000; -321.000
235.659;   90.600;   92.000;  121.000
235.802;  -10.200;  -38.000;  -22.000
235.946;   92.200;  335.000;  215.000
236.089;   44.000;  126.000;  250.000
236.233;  127.700;  275.000;  298.000
236.376;  -64.700; -235.000; -378.000
236.519;  -87.200; -297.000; -319.000
236.663;  -42.900; -215.000; -117.000
236.806; -287.700;-1029.000; -999.000
236.949;  116.000;  543.000;  431.000
237.092;  140.000;  412.000;  391.000
237.236; -149.700; -589.000; -502.000
237.379;  124.000;  352.000;  428.000
237.522; -214.600; -879.000; -768.000
237.666;  -43.500; -271.000;   18.000
237.809; -250.300; -851.000; -823.000
237.952;   91.600;  469.000;  271.000
238.095; -116.400; -447.000; -442.000
238.238;  201.400;  688.000;  700.000
238.382;    7.800;  166.000;  103.000
238.525; -135.900; -598.000; -511.000
238.668; -273.600;-1060.000; -985.000
238.811; -162.000; -638.000; -643.000
238.954;  -87.700; -483.000; -334.000
239.097;  206.800;  617.000;  664.000
239.241;   42.600;  394.000;  326.000
239.384;  -43.300; -254.000; -214.000
239.527;  -98.500; -424.000; -224.000
239.670; -297.000; -994.000;-1091.000
239.813; -214.600; -696.000; -658.000
239.956;  183.000;  579.000;  473.000
240.099; -223.000; -778.000; -725.000
240.242;  115.300;  428.000;  432.000
240.385;  101.600;  466.000;  450.000
240.528; -169.400; -706.000; -473.000
240.671;   49.000;  189.000;  134.000
240.814;  -92.200; -441.000; -158.000
240.957; -186.700; -767.000; -578.000
241.100; -195.400; -779.000; -755.000
241.243; -296.900;-1234.000; -893.000
241.386; -125.900; -508.000; -379.000
241.529; -166.600; -735.000; -547.000
241.672; -122.700; -566.000; -495.000
241.815; -221.200; -832.000; -808.000
241.958;  -43.800; -125.000; -182.000
242.101; -158.800; -545.000; -390.000
242.244;  -98.200; -270.000; -325.000
242.387;  -59.600; -304.000; -246.000
242.530;  115.000;  470.000;  134.000
242.673;  -82.700; -381.000; -309.000
242.815; -269.600; -925.000; -899.000
242.958; -151.300; -482.000; -381.000
243.101;   36.700;  132.000;  187.000
243.244; -159.000; -564.000; -521.000
243.387; -103.500; -313.000; -316.000
243.530; -186.800; -657.000; -674.000
243.672;   19.000;   43.000;  -92.000
243.815; -113.700; -355.000; -283.000
243.958;   14.800;   98.000;  -26.000
244.101;   25.100;   59.000;  -16.000
244.243;  -45.400;  -47.000;  101.000
244.386; -209.900; -761.000; -630.000
244.529;  -50.000; -132.000; -139.000
244.672; -334.800;-1154.000; -951.000
244.814; -205.200; -621.000; -794.000
244.957;  -72.500; -380.000; -304.000
245.100; -146.800; -489.000; -489.000
245.242; -111.500; -387.000; -374.000
245.385;  -18.000;  -59.000;  -39.000
245.528; -217.200; -871.000; -705.000
245.670;  191.800;  612.000;  634.000
245.813; -168.500; -599.000; -547.000
245.956;  -68.600; -324.000; -275.000
246.098; -172.500; -508.000; -650.000
246.241;   21.600;  194.000;   48.000
246.383;  -25.000; -119.000;  -73.000
246.526; -170.200; -454.000; -525.000
246.669; -235.700; -889.000; -780.000
246.811;   30.400;  172.000;   -1.000
246.954; -141.000; -512.000; -426.000
247.096;  -43.400;  -84.000;   -6.000
247.239; -125.300; -482.000; -445.000
247.381; -147.300; -647.000; -488.000
247.524;  189.500;  645.000;  679.000
247.666;  -11.700;   58.000;   11.000
247.809; -235.200; -887.000; -691.000
247.951;   -7.700;  -75.000;  138.000
248.094;   94.100;  432.000;  308.000
248.236; -319.600;-1262.000;-1238.000
248.378;    8.100; -356.000;  -81.000
248.521;  -39.100; -334.000; -337.000
248.663;  -75.200; -236.000; -267.000
248.806;  -38.500; -300.000; -266.000
248.948; -187.100; -886.000; -763.000
249.090; -105.000; -428.000; -398.000
249.233;  -74.300; -344.000; -381.000
249.375; -111.300; -474.000; -451.000
249.518;  -65.200;  -83.000; -133.000
249.660;   -7.100; -103.000;    3.000
249.802; -378.900;-1303.000;-1189.000
249.945; -128.000; -612.000; -540.000
250.087; -248.400; -834.000; -768.000
250.229;  -88.100; -362.000; -480.000
250.371; -132.500; -494.000; -439.000
250.514;  -82.900; -310.000; -244.000
250.656; -148.500;   69.000;  102.000
250.798; -229.400; -849.000; -800.000
250.940; -125.700; -322.000; -322.000
251.083;  -65.000; -335.000; -111.000
251.225;  154.800;  338.000;  310.000
251.367;  -80.000; -274.000; -373.000
251.509;  -53.400; -265.000; -210.000
251.651; -176.400; -731.000; -671.000
251.794;  163.400;  538.000;  632.000
251.936; -227.600; -821.000; -747.000
252.078; -162.000; -540.000; -461.000
252.220; -158.400; -645.000; -477.000
252.362;  154.000;  344.000;  462.000
252.504; -152.200; -677.000; -584.000
252.646; -246.800; -875.000; -722.000
252.788;   -1.400;   14.000; -128.000
252.931;  -82.800; -257.000; -253.000
253.073;  -81.200; -376.000; -317.000
253.215;    6.900;  141.000;  122.000
253.357;    8.200;   82.000; -153.000
253.499; -104.900; -374.000; -234.000
253.641; -188.300; -749.000; -594.000
253.783; -177.600; -609.000; -527.000
253.925; -188.900; -586.000; -591.000
254.067; -219.600; -744.000; -667.000
254.209;  -46.700; -391.000; -259.000
254.351; -271.200; -865.000; -883.000
254.493; -113.900; -441.000; -417.000
254.635; -246.600; -936.000; -818.000
254.777; -186.600; -752.000; -687.000
254.918; -129.800; -512.000; -430.000
255.060; -116.000; -551.000; -395.000
255.202; -123.800; -473.000; -261.000
255.344; -155.600; -658.000; -455.000
255.486; -147.400; -471.000; -406.000
255.628; -227.400; -780.000; -781.000
255.770; -153.200; -676.000; -536.000
255.912; -119.400; -559.000; -468.000
256.053; -178.000; -730.000; -508.000
256.195;  363.600; 1008.000;  903.000
256.337; -178.700; -861.000; -595.000
256.479;  113.400;  532.000;  416.000
256.621;  -88.300; -394.000; -212.000
256.762; -208.200; -789.000; -742.000
256.904;  105.800;  485.000;  487.000
257.046;  -70.000; -381.000; -271.000
257.188;  -76.100; -351.000; -264.000
257.329; -132.500; -525.000; -464.000
257.471; -234.700; -939.000; -807.000
257.613; -129.900; -584.000; -498.000
257.755; -277.900;-1073.000; -982.000
257.896;   95.800;  286.000;  392.000
258.038; -127.100; -403.000; -352.000
258.180;  -70.000; -354.000; -279.000
258.321; -162.200; -581.000; -457.000
258.463;   -5.800;  -71.000;  133.000
258.605; -177.200; -562.000; -570.000
258.746; -167.800; -886.000; -772.000
258.888; -331.800;-1026.000;-1020.000
259.029;   52.200;  121.000;   -8.000
259.171; -179.400; -614.000; -550.000
259.313;   22.200;  -49.000;  -47.000
259.454; -180.700; -536.000; -414.000
259.596; -124.400; -483.000; -390.000
259.737; -151.500; -590.000; -474.000
259.879;  101.500;  217.000;  311.000
260.020;  229.400;  901.000;  636.000
260.162;  -67.300; -146.000; -253.000
260.303; -211.100; -768.000; -687.000
260.445; -170.100; -609.000; -613.000
260.586;   72.300;  392.000;  157.000
260.728;  -91.600; -360.000; -248.000
260.869; -136.600; -350.000; -343.000
261.011;  176.300;  706.000;  537.000
261.152; -128.200; -479.000; -319.000
261.293; -159.900; -576.000; -595.000
261.435;  -44.400; -219.000; -184.000
261.576;  -87.500; -455.000; -325.000
261.718;  133.200;  420.000;  470.000
261.859; -257.400; -940.000; -949.000
262.000; -264.200; -951.000;-1016.000
262.142;  -30.400;  -52.000;  -60.000
262.283; -233.200; -808.000; -691.000
262.424; -219.200; -666.000; -625.000
262.566; -323.900;-1161.000; -983.000
262.707; -230.400; -840.000; -830.000
262.848; -247.700; -769.000; -726.000
262.990;  -86.800; -362.000; -345.000
263.131;  215.600;  650.000;  681.000
263.272;    9.400;  -61.000;  -41.000
263.413; -177.200; -589.000; -561.000
263.555; -129.700; -669.000; -143.000
263.696; -159.600; -550.000; -641.000
263.837; -120.500; -449.000; -551.000
263.978;   16.700;   -5.000;  -77.000
264.119; -100.000; -283.000; -264.000
264.261; -214.400; -847.000; -630.000
264.402;   17.300;   33.000;   40.000
264.543; -183.700; -509.000; -524.000
264.684;   -8.500;   61.000;  -50.000
264.825; -139.500; -816.000; -538.000
264.966;   -4.200;  -84.000;  -67.000
265.107; -223.900; -646.000; -670.000
265.248; -217.800; -825.000; -812.000
265.390;    2.200;  152.000;   -9.000
265.531;  -34.000; -238.000; -107.000
265.672; -168.100; -557.000; -630.000
265.813;  178.600;  563.000;  439.000
265.954; -298.300; -959.000; -940.000
266.095;   -4.700; -372.000; -322.000
266.236; -202.800; -686.000; -548.000
266.377;  -84.100; -243.000; -297.000
266.518; -123.600; -619.000; -547.000
266.659;   72.700;  170.000;  268.000
266.800;   42.400;   83.000;   85.000
266.941; -174.100; -487.000; -478.000
267.082;   36.000;  354.000;   99.000
267.223;  -70.000; -344.000; -273.000
267.364; -228.900; -892.000; -686.000
267.504;  -21.200;    3.000;  135.000
267.645;   11.700;  160.000;   67.000
267.786;  -49.500; -147.000;  -86.000
267.927; -161.000; -473.000; -379.000
268.068;  -26.100; -186.000;  -61.000
268.209;  -73.800; -175.000; -413.000
268.350; -132.500; -388.000; -532.000
268.490; -176.000; -648.000; -521.000
268.631;   80.100;  127.000;  225.000
268.772; -235.900; -874.000; -647.000
268.913;  -87.400; -328.000; -476.000
269.054;  -34.900; -117.000;   12.000
269.194;  -78.800; -418.000; -402.000
269.335; -301.600;-1137.000;-1074.000
269.476;  -11.200;   33.000;  -35.000
269.617;  -92.100; -347.000; -392.000
269.757; -182.100; -713.000; -646.000
269.898; -207.500; -856.000; -613.000
270.039; -133.100; -415.000; -405.000
270.180; -275.900; -952.000; -816.000
270.320;  -20.400; -190.000; -250.000
270.461;  -53.800; -277.000; -249.000
270.602;    0.400; -186.000; -156.000
270.742; -252.300; -868.000; -943.000
270.883; -113.400; -442.000; -390.000
271.023; -108.400; -358.000; -357.000
271.164; -159.400; -607.000; -528.000
271.305; -175.700; -666.000; -654.000
271.445; -167.500; -722.000; -683.000
271.586; -125.700; -462.000; -283.000
271.726; -103.500; -397.000; -322.000
271.867; -131.200; -594.000; -534.000
272.008;  287.200; -473.000; -285.000
272.148;  265.800;  462.000;  468.000
272.289;   41.500; -113.000; -181.000
272.429;   77.800;   19.000;  185.000
272.570; -177.300; -633.000; -737.000
272.710; -177.700; -825.000; -775.000
272.851;  -35.300;  113.000; -130.000
272.991; -328.300;-1173.000;-1077.000
273.131; -117.800; -419.000; -459.000
273.272; -182.400; -683.000; -723.000
273.412;   16.900; -143.000;  -31.000
273.553; -115.900; -488.000; -507.000
273.693;  288.500;  913.000;  858.000
273.834; -214.300; -894.000; -692.000
273.974; -160.400; -664.000; -615.000
274.114; -203.600; -772.000; -560.000
274.255;  141.300;  414.000;  373.000
274.395;    4.300; -180.000; -125.000
274.535;  113.700;  199.000;  350.000
274.676;   52.700;  225.000;   94.000
274.816;   17.600;  110.000;   34.000
274.956; -155.100; -624.000; -690.000
275.097; -147.100;-1014.000; -922.000
275.237; -199.100; -913.000; -803.000
275.377; -196.100; -778.000; -689.000
275.517; -290.400; -878.000; -937.000
275.658; -133.700; -590.000; -555.000
275.798; -135.000; -606.000; -413.000
275.938;   43.300;  215.000;  323.000
276.078; -152.000; -626.000; -395.000
276.218;   20.700;   99.000;  104.000
276.359; -252.100;-1026.000;-1024.000
276.499; -132.800; -605.000; -446.000
276.639;  -52.100; -305.000; -151.000
276.779;  -65.700; -475.000; -357.000
276.919; -191.800; -783.000; -624.000
277.059;  -33.100; -261.000; -212.000
277.199;  -71.500; -357.000; -259.000
277.340;   66.800;  287.000;  175.000
277.480; -242.100; -840.000; -693.000
277.620;   39.100;  192.000;   16.000
277.760; -408.400;-1533.000;-1294.000
277.900;   43.700;  113.000;   33.000
278.040;   50.400;  137.000;  159.000
278.180;   99.800;  270.000;  170.000
278.320;   24.300;   21.000;   56.000
278.460; -139.600; -443.000; -469.000
278.600; -190.900; -708.000; -598.000
278.740;  120.200;  448.000;  224.000
278.880; -130.100; -768.000; -791.000
279.020;    2.900; -194.000; -144.000
279.160; -153.100; -672.000; -595.000
279.300; -240.300; -926.000; -873.000
279.440; -160.000; -709.000; -622.000
279.579;  -85.400;-1014.000; -929.000
279.719; -124.600; -410.000; -394.000
279.859;  130.800;   -4.000;   41.000
279.999;   30.800; -208.000;  101.000
280.139;  -45.800; -435.000; -387.000
280.279; -144.800; -708.000; -745.000
280.419;  -38.200; -229.000; -147.000
280.559;  -67.200; -259.000; -180.000
280.698; -154.800; -790.000; -639.000
280.838; -164.000; -778.000; -800.000
280.978; -203.600; -846.000; -790.000
281.118; -212.100; -811.000; -704.000
281.257;   41.800;   24.000;    6.000
281.397; -238.200;-1094.000; -960.000
281.537; -184.000; -599.000; -712.000
281.677;  -20.500; -150.000; -101.000
281.816; -178.700; -700.000; -630.000
281.956;  -67.300; -193.000; -257.000
282.096; -123.600; -539.000; -396.000
282.235; -203.900; -672.000; -638.000
282.375;   -9.600; -243.000;  -98.000
282.515; -182.900; -715.000; -707.000
282.654;   62.900;   29.000;  106.000
282.794;   96.500;  388.000;  244.000
282.934; -130.800; -530.000; -491.000
283.073; -249.600;-1030.000; -857.000
283.213; -104.400; -460.000; -467.000
283.353;  -40.600; -408.000; -349.000
283.492;  -75.400; -264.000; -296.000
283.632; -100.800; -254.000; -168.000
283.771; -190.000; -859.000; -730.000
283.911;  -81.600; -369.000; -260.000
284.050; -219.800; -794.000; -748.000
284.190; -299.700;-1229.000;-1096.000
284.329; -279.000;-1055.000; -964.000
284.469; -103.400; -516.000; -591.000
284.608;  -84.100; -559.000; -598.000
284.748; -159.100; -614.000; -570.000
284.887;   30.500;  -87.000;  -20.000
285.027; -248.700; -844.000; -892.000
285.166;  -81.300; -192.000; -249.000
285.306;   51.400; -116.000;  -33.000
285.445;  -80.100; -229.000; -343.000
285.584; -201.700; -630.000; -494.000
285.724;  -98.000; -282.000; -322.000
285.863; -223.900; -857.000; -507.000
286.002;  -96.500; -366.000; -276.000
286.142; -212.300; -715.000; -622.000
286.281; -132.500; -525.000; -493.000
286.420; -140.400; -554.000; -417.000
286.560;  228.400;  653.000;  623.000
286.699; -279.000; -958.000; -912.000
286.838; -134.600; -590.000; -591.000
286.978; -174.000; -533.000; -537.000
287.117; -273.800;-1085.000; -950.000
287.256;  -44.900; -228.000; -211.000
287.395; -115.800; -197.000; -378.000
287.535;  -84.400; -370.000; -298.000
287.674; -160.800; -509.000; -484.000
287.813;  191.900;  661.000;  533.000
287.952; -281.300;-1010.000; -871.000
288.091; -302.000;-1049.000; -915.000
288.231;   39.800;   13.000;   15.000
288.370; -314.500;-1217.000;-1200.000
288.509; -144.000; -728.000; -645.000
288.648; -174.600; -770.000; -548.000
288.787;  -38.200; -243.000;  -87.000
288.926; -117.400; -454.000; -475.000
289.065;  239.800;  859.000;  672.000
289.204; -110.900; -377.000; -217.000
289.344; -166.600; -791.000; -690.000
289.483;   75.300;  416.000;  304.000
289.622;  -31.700; -291.000; -149.000
289.761;  -28.100; -309.000; -166.000
289.900; -176.400; -785.000; -626.000
290.039;  -15.600;  -12.000;  -95.000
290.178;  -84.200; -274.000; -180.000
290.317; -161.300; -618.000; -479.000
290.456; -109.200; -463.000; -451.000
290.595; -269.000; -961.000; -833.000
290.734; -282.700; -904.000; -891.000
290.873;  -98.300; -456.000; -420.000
291.011; -228.900; -833.000; -843.000
291.150; -190.400; -770.000; -682.000
291.289;  -46.700; -343.000; -110.000
291.428; -180.800; -599.000; -480.000
291.567; -132.600; -370.000; -442.000
291.706;    2.400;  109.000;  154.000
291.845; -155.300; -597.000; -505.000
291.984; -335.400;-1234.000;-1061.000
292.122;  160.200;  602.000;  582.000
292.261;  140.100;  620.000;  463.000
292.400;   39.200; -144.000;  211.000
292.539; -251.300; -959.000; -813.000
292.678;  -50.400; -325.000; -300.000
292.816; -315.500;-1136.000; -965.000
292.955; -185.900; -844.000; -684.000
293.094;  -33.900; -173.000; -337.000
293.233;  -86.100; -556.000; -400.000
293.371;  -54.900; -225.000;  -84.000
293.510; -213.400; -866.000; -780.000
293.649; -261.600; -959.000; -924.000
293.787; -132.400;-1083.000;-1012.000
293.926;   11.700; -113.000;  -32.000
294.065;  -96.300; -379.000; -290.000
294.203;  117.300;  298.000;  406.000
294.342;   81.000;   74.000;  156.000
294.481;11686.700;51180.000; -836.000
294.619;  -59.600; -425.000; -582.000
294.758; -308.500;-1230.000;-1137.000
294.896;  110.900; -125.000;    5.000
295.035; -253.000;-1040.000;-1006.000
295.174; -232.400;-1082.000; -954.000
295.312;  -63.800; -323.000; -203.000
295.451;   -4.400; -307.000; -428.000
295.589; -119.500; -389.000; -518.000
295.728;   28.500; -292.000; -165.000
295.866;   45.300;  -36.000;  -51.000
296.005; -136.800; -584.000; -341.000
296.143; -145.300; -558.000; -596.000
296.282; -189.200; -957.000; -881.000
296.420; -137.400; -657.000; -557.000
296.559; -184.700; -892.000; -633.000
296.697;   11.300; -847.000; -665.000
296.835;   37.100;-1141.000;-1002.000
296.974;   93.500;  -23.000;   39.000
297.112;  -14.900; -443.000; -504.000
297.251; -124.900; -815.000; -755.000
297.389;  101.100; -576.000; -438.000
297.527;  107.000; -145.000;  -83.000
297.666;  -91.500; -486.000; -438.000
297.804;  -83.100; -404.000; -264.000
297.942;  -24.400; -136.000; -161.000
298.081;   -2.800; -183.000;   63.000
298.219;  100.500;  -17.000;  -19.000
298.357;   65.300; -144.000;  -71.000
298.495;   18.800; -810.000; -812.000
298.634;  132.900;  245.000;  219.000
298.772;   76.900; -220.000; -338.000
298.910;  -47.300; -309.000; -182.000
299.048;   -6.500; -130.000; -153.000
299.187;  -45.000; -350.000; -250.000
299.325;   14.100;   52.000;  122.000
299.463;   91.000; -389.000; -299.000
299.601;  183.400; -327.000; -271.000
299.739; -204.300; -908.000; -883.000
299.877; -183.900; -791.000; -703.000
300.016; -109.800;-1095.000; -935.000
300.154;  289.800;  -19.000; -161.000
300.292;   87.800; -428.000; -348.000
300.430;   54.800; -408.000; -291.000
300.568; -210.500; -940.000; -874.000
300.706; -100.400; -366.000; -469.000
300.844; -186.400;-1108.000; -979.000
300.982;  248.600;  246.000;  282.000
301.120; -231.100; -965.000; -866.000
301.258; -155.400; -812.000; -705.000
301.396;   90.100;  104.000;  -41.000
301.534;   79.400; -218.000; -293.000
301.672;  -30.600; -664.000; -521.000
301.810;   -2.800; -613.000; -545.000
301.948;  231.900;   53.000;  149.000
302.086;  915.800; -250.000;  -32.000
302.224; 1442.900; -610.000; -585.000
302.362;   54.800; -558.000; -622.000
302.500;  -62.300; -923.000; -893.000
302.638;  190.400;  128.000;  245.000
302.776;    3.400; -352.000; -408.000
302.913;  107.100;  447.000;  236.000
303.051;   -5.400;  -86.000;  -23.000
303.189;  103.100;   90.000;  118.000
303.327;  -58.300; -341.000; -256.000
303.465; -175.600; -832.000; -588.000
303.603; -169.500; -805.000; -604.000
303.740;  192.800;  417.000;  241.000
303.878;  -21.800; -800.000; -759.000
304.016; -173.700; -915.000; -790.000
304.154; -270.500;-1123.000;-1152.000
304.291;  -70.000; -505.000; -554.000
304.429;   29.300;  102.000;   74.000
304.567; -247.100; -908.000; -893.000
304.705;  -98.200; -408.000; -515.000
304.842;  107.700; -616.000; -540.000
304.980;  118.300;  215.000;   35.000
305.118;   50.000; -367.000; -365.000
305.255; -176.100; -945.000; -927.000
305.393;  138.100;  178.000;  239.000
305.531; -217.100;-1173.000; -956.000
305.668; -129.500; -663.000; -582.000
305.806;  129.800; -358.000; -439.000
305.943;  151.400; -629.000; -637.000
306.081;   78.600; -378.000; -267.000
306.219; -202.900; -863.000; -748.000
306.356;   51.800;  158.000;   27.000
306.494;  254.800;  981.000;  761.000
306.631;   37.200;  -11.000;  -55.000
306.769;   15.700; -613.000; -485.000
306.906;  -23.400; -284.000; -258.000
307.044; -128.600; -473.000; -488.000
307.181; -116.100; -410.000; -332.000
307.319;  115.200;  112.000;   87.000
307.456; -345.000;-1191.000;-1153.000
307.594; -188.600; -980.000; -727.000
307.731;  -29.800; -371.000; -164.000
307.868;   26.000;  -15.000;   20.000
308.006; -266.800; -961.000; -847.000
308.143; -137.800; -618.000; -330.000
308.281;  369.200;  -37.000; -254.000
308.418;    9.800; -748.000; -640.000
308.555; -112.700; -400.000; -250.000
308.693; -112.400; -577.000; -573.000
308.830; -185.900; -712.000; -657.000
308.967;  -17.900; -215.000;  -95.000
309.105;  -59.700; -507.000; -396.000
309.242;   74.700; -468.000; -367.000
309.379;  666.000; -577.000; -655.000
309.517;  -99.800; -936.000; -948.000
309.654; -197.100; -910.000; -734.000
309.791; -107.700; -662.000; -580.000
309.928; -187.200; -977.000; -914.000
310.065;  372.600;  819.000;  697.000
310.203;  -69.600; -825.000; -850.000
310.340;  -20.400; -465.000; -321.000
310.477; -113.600; -412.000; -516.000
310.614; -102.700; -383.000; -473.000
310.751; -106.200; -427.000; -518.000
310.889;  -28.800;    1.000;   11.000
311.026; -301.600;-1161.000; -939.000
311.163;  -73.000; -386.000; -380.000
311.300; -118.600; -512.000; -479.000
311.437; -156.400; -658.000; -619.000
311.574; -308.500;-1226.000; -985.000
311.711; -104.400; -595.000; -433.000
311.848;  -52.300; -380.000; -388.000
311.985;   69.800;  270.000;   93.000
312.122; -201.900; -932.000; -762.000
312.259; -236.200; -941.000; -994.000
312.396; -122.300; -508.000; -551.000
312.533; -175.100; -812.000; -790.000
312.670; -263.200;-1070.000; -898.000
312.807;  -45.700; -352.000; -367.000
312.944; -130.200; -513.000; -611.000
313.081;  -46.300; -150.000; -415.000
313.218; -205.300;-1111.000; -867.000
313.355;   13.600; -531.000; -449.000
313.492;   26.200; -455.000; -292.000
313.629;  277.700;  815.000;  735.000
313.766; -296.000;-1176.000;-1008.000
313.902;   26.600; -186.000;   21.000
314.039;  -35.300; -372.000; -289.000
314.176;   81.800;  286.000;  192.000
314.313; -130.600; -569.000; -473.000
314.450; -140.400; -788.000; -684.000
314.587;  -80.700; -468.000; -480.000
314.723;   23.400;  -78.000;  130.000
314.860;   61.100;  318.000;  332.000
314.997;   75.700;  223.000;  142.000
315.134;  -47.500; -385.000; -368.000
315.270;  -61.700; -480.000; -496.000
315.407; -246.100;-1094.000; -967.000
315.544; -112.400; -657.000; -538.000
315.681; -112.200; -681.000; -565.000
315.817;   93.800; -133.000; -176.000
315.954;    8.100; -613.000; -392.000
316.091; -239.900;-1045.000;-1023.000
316.227;  -21.600;  -71.000; -179.000
316.364;   32.400;   23.000;    6.000
316.500;  -39.500; -113.000; -300.000
316.637;  -37.600; -181.000; -302.000
316.774; -136.400; -625.000; -358.000
316.910; -152.400; -598.000; -629.000
317.047; -116.400; -487.000; -351.000
317.183;  -79.400; -435.000; -566.000
317.320;  -11.800; -367.000; -321.000
317.456; -108.700; -733.000; -805.000
317.593; -171.300; -598.000; -641.000
317.729;   28.000;  168.000;  -67.000
317.866; -405.100;-1434.000;-1285.000
318.002; -183.600; -708.000; -948.000
318.139; -196.700; -883.000; -867.000
318.275; -210.000;-1003.000; -738.000
318.412; -116.800; -517.000; -336.000
318.548;  -70.700; -751.000; -720.000
318.685; -171.900; -985.000; -888.000
318.821; -195.700; -762.000; -735.000
318.957;  -36.500;   34.000;  -23.000
319.094;  108.300;  297.000;  154.000
319.230; -122.600; -756.000; -742.000
319.367;  158.300; -471.000; -520.000
319.503;   91.800; -538.000; -436.000
319.639; -210.600; -877.000; -793.000
319.775; -125.200; -750.000; -685.000
319.912;  -66.700; -424.000; -519.000
320.048; -183.600;-1184.000;-1184.000
320.184;  144.600;   59.000;   70.000
320.321;  -80.800; -497.000; -467.000
320.457;  177.500;  475.000;  662.000
320.593;  -88.300; -375.000; -382.000
320.729; -191.800; -732.000; -734.000
320.866; -134.400; -577.000; -635.000
321.002; -150.900; -759.000; -809.000
321.138;  -33.900; -135.000; -211.000
321.274;  133.700; -148.000; -115.000
321.410;  -52.800; -585.000; -353.000
321.546;  -92.800;-1011.000; -911.000
321.683;  147.900;  400.000;  185.000
321.819;   55.300;  -48.000; -117.000
321.955; -197.600; -743.000; -722.000
322.091;  -77.000; -585.000; -540.000
322.227;    8.300; -382.000; -202.000
322.363;  -34.200; -320.000; -215.000
322.499;  -74.900; -343.000; -331.000
322.635;  305.200;  636.000;  443.000
322.771;   59.500; -139.000;   12.000
322.907;  189.500;  129.000;  327.000
323.043;  -34.800; -115.000; -206.000
323.179;  -49.400; -394.000; -363.000
323.315;   -1.300; -401.000; -371.000
323.451;  157.900; -328.000; -236.000
323.587;  132.700;  -60.000;  -77.000
323.723;   14.600; -682.000; -601.000
323.859;  -20.300; -258.000;  -76.000
323.995;  -53.000; -467.000; -409.000
324.131; -234.700; -967.000; -892.000
324.267;  -55.900; -254.000; -276.000
324.402; -235.300; -960.000; -983.000
324.538;  -18.900; -279.000; -104.000
324.674;   61.200;  164.000;   77.000
324.810;  265.100;  226.000;  308.000
324.946;   12.400; -810.000; -658.000
325.082; -114.900; -568.000; -475.000
325.217;   13.400;  -62.000;   16.000
325.353; -167.400; -764.000; -659.000
325.489; -119.900; -540.000; -506.000
325.625; -122.500; -579.000; -525.000
325.760;  129.700;  517.000;  376.000
325.896;  -44.800; -515.000; -702.000
326.032;  -80.000; -403.000; -352.000
326.168;  -90.100; -462.000; -369.000
326.303; -121.000; -352.000; -461.000
326.439;  -14.300; -336.000; -276.000
326.575;   42.900; -190.000;  -29.000
326.710;    7.700; -156.000;  -30.000
326.846;   -0.400;  146.000;  103.000
326.982; -164.700; -530.000; -548.000
327.117; -134.900; -481.000; -442.000
327.253; -145.200; -745.000; -742.000
327.388; -264.700;-1137.000;-1153.000
327.524; -114.000; -811.000; -578.000
327.659;  -14.700;  -58.000;  -22.000
327.795;   13.800;   69.000;   45.000
327.931; -142.300; -723.000; -499.000
328.066;  -29.100; -417.000; -276.000
328.202;    2.700;   12.000; -129.000
328.337;  234.800;  957.000;  713.000
328.473;   -7.200;  -12.000;  -74.000
328.608;  -17.100; -256.000; -267.000
328.743; -163.700; -799.000; -664.000
328.879;   98.900;  214.000;  114.000
329.014; -103.500; -102.000; -122.000
329.150; -174.200; -358.000; -483.000
329.285; -129.200; -465.000; -466.000
329.421;  -80.300; -548.000; -246.000
329.556;   16.400;  -36.000;   85.000
329.691; -199.900; -633.000; -615.000
329.827; -103.700; -626.000; -480.000
329.962;  -74.800;  131.000; -301.000
330.097; -172.400; -673.000; -585.000
330.233;  -80.600; -410.000; -223.000
330.368; -217.800; -839.000; -628.000
330.503;    7.500;    3.000;   98.000
330.638;   24.700;  -93.000; -125.000
330.774; -123.500; -609.000; -530.000
330.909;  -66.100; -434.000; -244.000
331.044; -130.600; -714.000; -708.000
331.179; -344.700;-1217.000;-1109.000
331.315;   41.500;   77.000;   20.000
331.450;   75.700;  157.000;  285.000
331.585; -131.200; -805.000; -706.000
331.720; -132.700; -510.000; -460.000
331.855;   28.500;  -35.000; -102.000
331.990;  502.000;   62.000;  138.000
332.126;  282.500; -110.000;   71.000
332.261;  -17.900; -379.000; -265.000
332.396;   23.000; -135.000; -242.000
332.531; -213.200;-1074.000;-1031.000
332.666;   71.700; -519.000; -363.000
332.801; -179.800; -726.000; -807.000
332.936;   -7.600; -192.000; -122.000
333.071; -280.300; -870.000; -817.000
333.206;   54.300;  307.000;  379.000
333.341;   83.400;  344.000;  418.000
333.476; -150.900; -627.000; -623.000
333.611;  -52.500; -251.000; -173.000
333.746;  -82.700; -381.000; -464.000
333.881; -204.200; -973.000; -935.000
334.016; -238.500; -936.000; -917.000
334.151; -218.400; -746.000; -702.000
334.286;   83.800;  152.000;  186.000
334.421;  -41.700; -125.000; -178.000
334.556; -185.100; -611.000; -567.000
334.690; -161.200; -631.000; -577.000
334.825;  149.200;  381.000;   83.000
334.960; -116.200; -285.000; -413.000
335.095;   12.400;  135.000;  -91.000
335.230; -169.600; -722.000; -738.000
335.365; -263.000;-1084.000; -990.000
335.499; -289.100;-1108.000;-1037.000
335.634;   68.600;    9.000;  534.000
335.769; -188.000; -755.000; -720.000
335.904; -148.400; -603.000; -561.000
336.038; -117.600; -735.000; -657.000
336.173; -255.100;-1206.000;-1194.000
336.308;  -13.000; -116.000; -189.000
336.443;   43.600; -544.000; -634.000
336.577; -165.800; -936.000; -787.000
336.712;  115.700;   -4.000;  -12.000
336.847; -121.700; -724.000; -607.000
336.981;  129.600; -272.000; -208.000
337.116;  447.900;  615.000;  501.000
337.250;  208.400; -434.000; -421.000
337.385;  451.800; -297.000; -208.000
337.520;  180.900; -632.000; -603.000
337.654;  -43.600; -215.000; -126.000
337.789; -220.500; -989.000; -933.000
337.923;  -33.900; -104.000; -205.000
338.058; -175.800; -673.000; -738.000
338.192;  -60.200; -611.000; -488.000
338.327;   24.200;  -18.000; -155.000
338.461;  -98.300; -299.000; -469.000
338.596; -184.200; -780.000; -638.000
338.730; -183.600; -767.000; -803.000
338.865;  212.300;  -46.000; -140.000
338.999;  -80.800; -846.000; -702.000
339.134;  -59.700; -634.000; -536.000
339.268;   21.200; -741.000; -603.000
339.403;  684.000; -740.000; -775.000
339.537;  263.900; -894.000; -820.000
339.671; -227.300; -829.000; -813.000
339.806;  -91.700; -556.000; -512.000
339.940;   76.400; -261.000; -235.000
340.074; -191.800; -685.000; -510.000
340.209;  -53.100; -351.000; -230.000
340.343; -176.600; -517.000; -573.000
340.477;  333.000;  998.000; 1036.000
340.612;  -83.400;-1033.000; -900.000
340.746;  282.300; -199.000; -243.000
340.880; -118.200; -924.000; -785.000
341.014;   -0.200;  -45.000; -154.000
341.149; -224.500; -756.000; -718.000
341.283; -206.100; -839.000; -754.000
341.417; -197.300;-1124.000; -938.000
341.551;  152.800; -768.000; -708.000
341.685;  -70.800; -633.000; -611.000
341.820; -133.400; -562.000; -493.000
341.954;  -90.800; -218.000; -349.000
342.088; -283.300;-1102.000;-1019.000
342.222;  112.100;  565.000;  618.000
342.356; -114.400; -395.000; -335.000
342.490; -170.200; -880.000; -841.000
342.624;  -60.500; -339.000; -242.000
342.758;  -20.900; -364.000; -312.000
342.892; -132.100; -710.000; -585.000
343.026;  -52.500;  -58.000; -116.000
343.160; -108.800; -426.000; -376.000
343.294; -131.400; -474.000; -337.000
343.428;  -31.200; -488.000; -448.000
343.562;  -28.100; -172.000;  -23.000
343.696;  -17.100; -385.000; -314.000
343.830;  -10.600; -362.000; -356.000
343.964;   21.600; -231.000; -168.000
344.098; 1412.200;  199.000;   70.000
344.232; 1178.500; -266.000; -127.000
344.366;  136.300; -567.000; -453.000
344.500;   64.700; -665.000; -744.000
344.634;   73.700; -324.000; -164.000
344.768;  -73.700; -531.000; -341.000
344.902;  119.000;  278.000;  256.000
345.035; -132.500; -556.000; -496.000
345.169; -249.500; -933.000; -656.000
345.303;  -65.800; -308.000; -482.000
345.437; -153.300; -826.000; -717.000
345.571; -104.000; -675.000; -594.000
345.704;  -63.300; -309.000; -532.000
345.838;   -4.700; -331.000; -284.000
345.972;  -74.200; -543.000; -495.000
346.106;  316.700; -179.000; -190.000
346.239;  774.500; -312.000; -243.000
346.373;   15.300; -343.000; -302.000
346.507; -257.900; -950.000; -962.000
346.640;  232.100;  -30.000;   13.000
346.774; -108.600; -650.000; -797.000
346.908;   -4.900; -138.000;  -11.000
347.041; -200.900; -646.000; -593.000
347.175;   32.700;  259.000;   27.000
347.309; -105.100; -698.000; -628.000
347.442; -193.300; -883.000; -732.000
347.576;  527.800;  670.000;  668.000
347.709;  310.200; -123.000;  -52.000
347.843; -173.300; -933.000; -825.000
347.976;  119.600;  235.000;  294.000
348.110; -313.800;-1268.000;-1186.000
348.243; -204.000; -679.000; -772.000
348.377;   45.000;  -26.000;   60.000
348.510;  143.500;  403.000;  540.000
348.644;  -18.100;  -37.000; -159.000
348.777;   25.000;  180.000;  191.000
348.911;  -78.200; -142.000; -112.000
349.044;  323.400;  471.000;  448.000
349.178;  189.000;-1069.000;-1006.000
349.311;  226.700;  141.000;  255.000
349.444;   40.400; -927.000; -813.000
349.578;  -43.800; -347.000; -200.000
349.711; -221.100; -959.000; -862.000
349.845;  -16.000; -661.000; -591.000
349.978; -288.800;-1224.000;-1137.000
350.111; -150.700; -546.000; -612.000
350.244; -118.400; -596.000; -700.000
350.378;   29.800; -392.000; -393.000
350.511;  -91.900; -393.000; -426.000
350.644; -200.100; -808.000; -806.000
350.778;   61.200;  168.000;  104.000
350.911;   43.400;  134.000;  140.000
351.044; -156.200; -685.000; -615.000
351.177;  -58.700; -321.000; -281.000
351.310;    0.800;    3.000; -131.000
351.444; -156.900; -888.000; -788.000
351.577;  202.700;  140.000;   90.000
351.710;  245.600;  593.000;  417.000
351.843;  -30.100; -165.000;  -77.000
351.976;   34.500;  149.000;  -79.000
352.109; -182.200; -621.000; -612.000
352.242;  -50.500; -464.000; -419.000
352.376; -142.800; -580.000; -636.000
352.509;  258.400; -437.000; -356.000
352.642;  -44.000; -654.000; -604.000
352.775;  134.400; -141.000;  -98.000
352.908; -221.800; -933.000; -904.000
353.041; -221.000; -814.000; -824.000
353.174; -102.800; -551.000; -424.000
353.307; -151.000; -753.000; -764.000
353.440;  187.400;  541.000;  453.000
353.573; -189.100; -957.000;-1008.000
353.706;  -86.600; -384.000; -558.000
353.839;    8.500; -264.000; -220.000
353.971; -154.700; -657.000; -512.000
354.104; -152.500; -896.000; -835.000
354.237;  -72.600; -627.000; -662.000
354.370; -186.100; -846.000; -879.000
354.503; -354.800;-1231.000;-1308.000
354.636;  -72.800; -529.000; -348.000
354.769; -229.400; -937.000; -860.000
354.902;   20.000; -230.000; -139.000
355.034;  -17.800; -164.000; -220.000
355.167;  -37.600; -262.000; -162.000
355.300; -154.700;-1061.000; -880.000
355.433; 1948.000;  -71.000;  -14.000
355.565; 2887.700; -402.000; -384.000
355.698;  707.800; -356.000; -296.000
355.831;  -36.600; -882.000; -801.000
355.964;  146.800; -285.000; -170.000
356.096; -174.800; -856.000; -843.000
356.229;  -10.000; -523.000; -530.000
356.362;  607.400; -373.000; -266.000
356.494; 1155.900; -229.000; -162.000
356.627;  806.000;  269.000;  377.000
356.760; 1247.300;  120.000;   53.000
356.892; 1857.000; -286.000; -601.000
357.025; 1058.700;  403.000;  389.000
357.157;  923.100; -167.000; -179.000
357.290; 1325.400; -856.000; -713.000
357.423;  373.900; -667.000; -556.000
357.555;  229.800; -217.000; -228.000
357.688;  165.100; -483.000; -364.000
357.820;  654.000; -870.000; -877.000
357.953; 5623.400; -563.000; -589.000
358.085; 1148.000; -632.000; -612.000
358.218; 1648.900;-1131.000; -932.000
358.350;  334.800;  -58.000;  312.000
358.483; -273.900;-1300.000;-1187.000
358.615;  -83.900;-1182.000;-1078.000
358.747; -158.000;-1187.000;-1058.000
358.880;    5.100; -810.000; -744.000
359.012;  -12.600; -376.000; -202.000
359.145;  -60.000; -480.000; -511.000
359.277;   44.000; -962.000; -913.000
359.409; 4714.700;  536.000;  231.000
359.542; 1146.800; -738.000; -688.000
359.674;  133.300;   46.000;   13.000
359.806; -130.100; -565.000; -438.000
359.939;  -56.700; -617.000; -516.000
360.071;   38.800; -583.000; -579.000
360.203;   -6.600; -411.000; -364.000
360.335;  109.800;  164.000;  -16.000
360.468;  310.100; -249.000; -307.000
360.600; 3873.900; -547.000; -454.000
360.732; 5224.100; -546.000; -423.000
360.864;  643.800;-1216.000;-1044.000
360.996;  405.900; -516.000; -554.000
361.129;   56.100; -389.000; -598.000
361.261;   65.200;  110.000; -113.000
361.393;  -30.100; -252.000; -214.000
361.525;   70.200;   94.000;  244.000
361.657;  -92.400; -821.000; -703.000
361.789;   34.200; -139.000; -155.000
361.921;  289.700; -642.000; -593.000
362.053;  462.600;  524.000;  541.000
362.185;  104.300;  288.000;   72.000
362.318; -168.100; -709.000; -705.000
362.450;  222.800;  294.000;  444.000
362.582;   39.300; -913.000; -870.000
362.714;  -79.400; -353.000; -332.000
362.846; -131.900; -606.000; -490.000
362.978; -260.500; -941.000; -811.000
363.109;   71.500; -161.000; -260.000
363.241;  649.900; -739.000; -749.000
363.373;  836.100; -649.000; -564.000
363.505; 1375.100; -186.000;  -91.000
363.637;  309.100; -787.000; -601.000
363.769; -249.900;-1067.000;-1080.000
363.901;  -93.400; -596.000; -654.000
364.033; -232.800;-1103.000;-1062.000
364.165;  -15.000; -283.000; -283.000
364.296;  156.400; -316.000; -177.000
364.428;  115.900;-1344.000;-1220.000
364.560; -101.600; -679.000; -661.000
364.692; -115.900; -738.000; -835.000
364.824;  355.100; -588.000; -456.000
364.955;  797.200; -402.000; -564.000
365.087; 1841.500;-1097.000; -852.000
365.219;   70.400; -686.000; -816.000
365.351; -104.400; -526.000; -572.000
365.482;  137.800;  300.000;  240.000
365.614;  -64.500; -402.000; -314.000
365.746; -176.500; -729.000; -752.000
365.877; -177.400; -706.000; -672.000
366.009;  534.100;  -35.000;  -62.000
366.141; -137.000;-1249.000;-1134.000
366.272; -177.800; -803.000; -719.000
366.404; -207.200;-1005.000; -874.000
366.535;   -8.200; -139.000;  -12.000
366.667; -184.000; -644.000; -649.000
366.799;   98.700;  353.000;  203.000
366.930; -242.900; -862.000; -996.000
367.062;  242.900; -639.000; -613.000
367.193;  326.600; -872.000; -842.000
367.325;  -70.100; -580.000; -684.000
367.456;   62.000; -246.000;   31.000
367.588;  339.900; -371.000; -318.000
367.719;   70.400;  -44.000;  -45.000
367.851;   22.600; -222.000; -241.000
367.982;  -98.000; -875.000; -732.000
368.113;  146.300; -475.000; -358.000
368.245; -237.000; -960.000; -841.000
368.376;  -44.700; -254.000; -302.000
368.508;  -41.700; -188.000; -263.000
368.639; -286.300;-1166.000;-1034.000
368.770;  -67.200; -670.000; -589.000
368.902; -151.200; -836.000; -926.000
369.033; -201.100; -906.000; -855.000
369.164;  -94.000; -720.000; -653.000
369.296; -176.900; -452.000; -601.000
369.427;   31.200; -209.000; -144.000
369.558;  -69.400; -593.000; -377.000
369.689; -139.300; -721.000; -569.000
369.821; -260.900; -951.000; -845.000
369.952;   22.900;   42.000; -108.000
370.083;  -63.700; -229.000; -108.000
370.214; -155.600; -735.000; -650.000
370.345;   64.900;   65.000;   81.000
370.477; -175.500; -810.000; -790.000
370.608;  318.100; -328.000; -264.000
370.739; -153.200;-1233.000;-1292.000
370.870; -118.700;-1102.000; -923.000
371.001;  154.700; -378.000; -467.000
371.132; -138.600; -754.000; -735.000
371.263;    2.100;  -42.000; -148.000
371.394; -239.800; -841.000; -748.000
371.525;  104.900;  345.000;  225.000
371.657; -165.100; -808.000; -670.000
371.788;  177.900;  103.000;  199.000
371.919;  256.600; -384.000; -304.000
372.050; 5593.200;  -91.000; -156.000
372.181; 1564.100; -188.000; -294.000
372.311;  572.500;   42.000; -127.000
372.442;   32.800; -457.000; -451.000
372.573;  -32.000; -444.000; -340.000
372.704; -251.700;-1008.000; -980.000
372.835;  149.900; -228.000; -289.000
372.966; -109.400; -646.000; -554.000
373.097; -117.900; -575.000; -711.000
373.228;  -49.200; -717.000; -542.000
373.359;  184.400; -824.000; -536.000
373.490; 1410.100; -881.000; -727.000
373.620; 1728.300;-1001.000; -803.000
373.751; 2679.600; -332.000; -396.000
373.882; 1120.800; -663.000; -733.000
374.013;  129.000; -449.000; -262.000
374.143; -103.600; -581.000; -659.000
374.274; -178.700; -987.000; -908.000
374.405;  321.100; -388.000; -276.000
374.536;  704.200; -526.000; -387.000
374.666; 1620.100; -759.000; -807.000
374.797;  305.900; -817.000; -868.000
374.928; 1257.900; -710.000; -560.000
375.058; 1285.600; -535.000; -500.000
375.189;  127.500;  -59.000;  -93.000
375.320; -226.400; -928.000;-1034.000
375.450;  -72.300; -625.000; -616.000
375.581;  -75.400; -526.000; -436.000
375.712;  -30.100; -574.000; -250.000
375.842;  448.000; -438.000; -415.000
375.973;  289.200; -554.000; -513.000
376.103;  -89.700; -665.000; -648.000
376.234; -178.600; -531.000; -552.000
376.364; -119.600; -944.000; -867.000
376.495;  587.500;  925.000;  529.000
376.625;  -43.000; -472.000; -485.000
376.756;   60.900; -709.000; -678.000
376.886; -157.500;-1178.000;-1026.000
377.017;   98.000;-1048.000;-1061.000
377.147;  665.100; -786.000; -782.000
377.278;  160.300;  174.000;  228.000
377.408; -241.800; -801.000; -815.000
377.538; -192.000; -707.000; -693.000
377.669; -143.400; -537.000; -613.000
377.799; -176.500; -645.000; -635.000
377.929; -135.300; -610.000; -428.000
378.060; -244.200; -781.000; -847.000
378.190;  -91.500; -726.000; -531.000
378.320;  -82.100; -401.000; -406.000
378.451;    5.900; -131.000;  -22.000
378.581;   11.300;  -67.000; -110.000
378.711;  307.900; 1035.000;  866.000
378.841;  -30.400; -533.000; -675.000
378.972; -185.200; -871.000; -751.000
379.102;  -29.200; -652.000; -579.000
379.232;  -21.200; -126.000;  -73.000
379.362; -227.200;-1001.000; -885.000
379.492;   14.000; -373.000; -424.000
379.623;  219.500;    0.000;  111.000
379.753; -184.200;-1107.000; -974.000
379.883;  357.600;   59.000;  156.000
380.013;  -74.800;-1081.000;-1017.000
380.143; -221.800;-1097.000;-1056.000
380.273; -178.200; -985.000; -861.000
380.403;   13.900; -344.000; -257.000
380.533;  -67.500; -651.000; -664.000
380.663;  131.300;  173.000;  128.000
380.793; -200.700;-1027.000;-1074.000
380.923;  -21.200; -103.000;  -34.000
381.053; -136.000; -613.000; -623.000
381.183;  -30.200; -106.000; -248.000
381.313;   37.700; -656.000; -470.000
381.443;    7.600; -692.000; -473.000
381.573;  305.800; -402.000; -409.000
381.703;  359.500;-1249.000;-1095.000
381.833; -272.300;-1454.000;-1336.000
381.963;  192.900; -134.000;  -87.000
382.093; 2143.000; -925.000; -909.000
382.223;  575.600; -713.000; -602.000
382.353;  -34.400; -801.000; -608.000
382.482;  547.300;-1091.000; -964.000
382.612; 1209.200; -872.000; -644.000
382.742;  602.600; -695.000; -622.000
382.872;  389.500; -565.000; -551.000
383.002;  149.200;  347.000; -132.000
383.131;   -0.600; -226.000; -160.000
383.261;  -71.900; -706.000; -768.000
383.391;  550.700; -552.000; -377.000
383.521; 6294.500;  451.000;  263.000
383.650; 1408.400; -947.000; -904.000
383.780;  -19.300; -783.000; -656.000
383.910;  275.900;  880.000;  802.000
384.039;   23.500; -794.000; -656.000
384.169;  229.700;-1205.000;-1017.000
384.299;  -45.400; -650.000; -662.000
384.428; -138.800; -764.000; -680.000
384.558;  -76.200; -308.000; -275.000
384.687;  -90.700; -414.000; -334.000
384.817;   42.300;   75.000;   -2.000
384.947;   30.900; -234.000; -141.000
385.076;  532.100;  982.000;  912.000
385.206;  205.300;  369.000;  480.000
385.335;  -46.300; -549.000; -417.000
385.465; -126.400; -655.000; -663.000
385.594;  248.800;  -53.000;  -44.000
385.724;  586.400; -868.000; -838.000
385.853;  172.600; -296.000; -270.000
385.982; 2086.400; -743.000; -787.000
386.112; 3054.000;-1052.000; -871.000
386.241;  202.700; -307.000; -312.000
386.371;   37.900; -174.000;  -87.000
386.500;  -34.700; -825.000; -789.000
386.629;    3.200; -874.000; -817.000
386.759;  139.600;  -43.000;   68.000
386.888;   30.300; -170.000; -250.000
387.017; -107.400; -648.000; -620.000
387.147; -144.100; -771.000; -798.000
387.276;   17.900; -410.000; -397.000
387.405;   35.100; -398.000; -342.000
387.535;  -60.700; -452.000; -361.000
387.664; -113.300; -692.000; -620.000
387.793;   91.500; -198.000; -113.000
387.922;  855.000;  255.000;  200.000
388.052;    9.800; -576.000; -423.000
388.181;   19.000; -342.000; -472.000
388.310;  -32.300; -889.000; -710.000
388.439; -114.500; -749.000; -742.000
388.568;  331.300;  365.000;  244.000
388.697; 1548.800; -756.000; -653.000
388.826;  251.200; -768.000; -666.000
388.956;  102.600; -285.000; -307.000
389.085;  -51.100; -347.000; -287.000
389.214; -215.700; -842.000; -872.000
389.343;  -90.300; -645.000; -413.000
389.472;  848.100;  126.000;  149.000
389.601;  942.500;   91.000;    0.000
389.730;    9.400; -568.000; -687.000
389.859;  160.800;  226.000;   46.000
389.988;  312.700; -423.000; -408.000
390.117;  230.200; -168.000; -146.000
390.246;   19.500; -331.000; -320.000
390.375;  133.200; -673.000; -626.000
390.504;  -81.600; -703.000; -621.000
390.633; -176.200; -672.000; -726.000
390.761; -107.900; -732.000; -645.000
390.890;   65.900;   -4.000; -130.000
391.019;  -69.500; -421.000; -441.000
391.148; -198.700; -826.000; -855.000
391.277; -128.900; -576.000; -493.000
391.406; -169.900; -821.000; -805.000
391.534;   93.300;  574.000; -301.000
391.663;  -80.100; -583.000; -645.000
391.792; -144.300; -673.000; -701.000
391.921;  165.300;   -3.000;   15.000
392.050;  257.900; -287.000; -228.000
392.178; -153.300;-1206.000;-1061.000
392.307;  221.400; -758.000; -712.000
392.436;   94.600; -427.000; -641.000
392.564;   70.300;  166.000;   -6.000
392.693; -148.100; -860.000; -682.000
392.822;  294.800; -529.000; -534.000
392.950;   99.200; -880.000; -714.000
393.079;  454.100; -188.000; -328.000
393.208;   39.700; -488.000; -511.000
393.336;   15.800; -170.000; -145.000
393.465;  -80.700; -317.000; -199.000
393.593;   41.900;   62.000;   79.000
393.722; -269.700;-1121.000; -916.000
393.850;  -34.100; -188.000;  -61.000
393.979; -254.600; -926.000; -805.000
394.107; -115.000; -517.000; -537.000
394.236;    6.600; -570.000; -507.000
394.364;  511.200;  383.000;  206.000
394.493;  716.800; -911.000; -767.000
394.621;  -17.400; -955.000; -916.000
394.750; 1466.200; -873.000; -923.000
394.878; 5800.600; -247.000; -149.000
395.007; 7393.200; -721.000; -807.000
395.135;  546.300; -790.000; -721.000
395.263; -137.500;-1038.000;-1040.000
395.392;   56.600;  -25.000; -107.000
395.520; -246.500; -818.000; -679.000
395.648; -176.200; -865.000; -915.000
395.777;  -40.900; -366.000; -405.000
395.905;  -58.000; -449.000; -564.000
396.033;   72.900;  217.000;  172.000
396.162; 1248.200; -399.000; -453.000
396.290; 1062.200;  -17.000;   -2.000
396.418;  149.000; -555.000; -514.000
396.546; -173.700; -571.000; -466.000
396.674; -163.400; -850.000; -878.000
396.803;   63.700;  -72.000;  -23.000
396.931;  165.500; -179.000; -199.000
397.059;   -1.300;-1026.000; -989.000
397.187; -210.200;-1026.000; -975.000
397.315; -231.800; -884.000; -649.000
397.443; -158.600; -592.000; -443.000
397.572; -147.800; -578.000; -424.000
397.700;  -28.600; -607.000; -614.000
397.828;   20.600;  120.000;  -90.000
397.956;  -39.300; -508.000; -478.000
398.084; -109.500; -767.000; -626.000
398.212;  144.800;  137.000;  124.000
398.340;   55.800;  -56.000;  159.000
398.468;   46.900; -390.000; -169.000
398.596; -248.900; -993.000; -953.000
398.724; -230.300; -762.000; -767.000
398.852; -284.700;-1024.000; -976.000
398.980;  -94.700; -560.000; -560.000
399.108; -116.000; -982.000; -735.000
399.236;   75.500;   13.000;    8.000
399.363;   39.700;  222.000;  196.000
399.491;  -99.200; -404.000; -398.000
399.619; -199.900; -829.000; -800.000
399.747; -150.800; -859.000; -771.000
399.875;  174.300;  220.000;  234.000
400.003;  -85.500; -359.000; -284.000
400.130; -173.100; -421.000; -341.000
400.258;    1.500;  -83.000;   38.000
400.386; -100.200; -352.000; -168.000
400.514;  -85.800; -526.000; -587.000
400.641; -165.000; -928.000; -802.000
400.769; -255.900; -979.000; -888.000
400.897; -190.500; -838.000; -793.000
401.025;   16.000; -166.000; -152.000
401.152;   67.300;  220.000;   38.000
401.280; -133.600; -430.000; -429.000
401.408; -205.900; -712.000; -576.000
401.535; -186.900; -735.000; -758.000
401.663; -322.200;-1134.000;-1054.000
401.790; -124.600; -514.000; -525.000
401.918;   87.100;  436.000;  405.000
402.046;   12.800;  134.000;  122.000
402.173;   -7.000;  -18.000;    7.000
402.301;  -90.400; -519.000; -397.000
402.428;  140.600;  528.000;  383.000
402.556; -252.900;-1188.000; -913.000
402.683;    9.300;  -20.000;   -1.000
402.811;  -10.400;  -37.000; -206.000
402.938;   15.100;   20.000;   27.000
403.066;  296.000; -574.000; -558.000
403.193;  493.700;  299.000;  239.000
403.321;  379.900; -396.000; -574.000
403.448;  511.500;   83.000;   27.000
403.575;  257.900;  -90.000;  -46.000
403.703; -157.700; -732.000; -557.000
403.830;  -95.000; -531.000; -496.000
403.957; -273.000;-1117.000;-1023.000
404.085;   61.500;  -61.000; -172.000
404.212;  242.100;  -50.000;   63.000
404.339;  596.800; -566.000; -306.000
404.467;11567.200; -612.000; -524.000
404.594; 6812.300; -287.000; -227.000
404.721; 1463.600; -869.000; -764.000
404.848;  156.000; -113.000; -202.000
404.976; -142.000; -856.000; -783.000
405.103;   41.900;  -14.000;  -82.000
405.230;   56.200;  190.000;  226.000
405.357;   70.900;  117.000;   44.000
405.484;  600.100;  -49.000;    5.000
405.612;   99.000; -548.000; -563.000
405.739;  -91.200; -488.000; -243.000
405.866;  194.300;  669.000;  385.000
405.993;  -54.300; -398.000; -102.000
406.120; -244.400; -801.000; -887.000
406.247;  -57.100; -323.000; -342.000
406.374;  783.800;  540.000;  629.000
406.501;   99.200; -632.000; -702.000
406.628; -146.100; -621.000; -589.000
406.755; -130.300; -803.000; -620.000
406.882;  -54.000; -228.000; -277.000
407.009; -149.300; -719.000; -628.000
407.136;   90.000; -480.000; -401.000
407.263;  197.100; -939.000; -829.000
407.390; -116.400; -692.000; -614.000
407.517; -288.800;-1139.000;-1187.000
407.644;  -89.000; -332.000; -256.000
407.771; -108.500; -249.000; -287.000
407.898;   86.700;  168.000;  328.000
408.025; -105.000; -421.000; -313.000
408.151;   39.300;   82.000;  153.000
408.278; -100.800; -267.000; -216.000
408.405; -190.400; -931.000; -899.000
408.532; -110.700; -549.000; -542.000
408.659; -172.800; -677.000; -648.000
408.785; -345.900;-1298.000;-1170.000
408.912;  -86.400; -412.000; -296.000
409.039; -183.200; -610.000; -686.000
409.166; -157.100; -591.000; -555.000
409.292; -162.600; -571.000; -534.000
409.419; -184.800; -665.000; -649.000
409.546; -109.900; -431.000; -192.000
409.672; -175.400; -713.000; -545.000
409.799;   -0.400;  -36.000;   34.000
409.926;  -40.900; -180.000; -179.000
410.052; -318.300;-1127.000;-1091.000
410.179;  -89.300; -368.000; -392.000
410.305; -119.800; -375.000; -493.000
410.432;  -35.900; -220.000; -333.000
410.558; -111.700; -305.000; -380.000
410.685; -184.900; -688.000; -431.000
410.812; -120.800; -409.000; -588.000
410.938; -235.200; -964.000; -808.000
411.065; -136.900; -671.000; -645.000
411.191;   19.200; -189.000; -174.000
411.317; -216.400; -823.000; -742.000
411.444;  -80.800; -317.000; -246.000
411.570; -106.300; -339.000; -294.000
411.697; -223.100; -758.000; -752.000
411.823; -306.000; -989.000; -999.000
411.949;  -18.400;  -56.000;   17.000
412.076; -191.400; -539.000; -519.000
412.202; -188.400; -758.000; -757.000
412.329; -220.000; -798.000; -752.000
412.455; -194.600; -821.000; -657.000
412.581;   30.200;  -15.000;  172.000
412.707; -115.800; -540.000; -457.000
412.834;  111.900;  156.000;  219.000
412.960; -159.900; -785.000; -784.000
413.086; -137.300; -743.000; -701.000
413.212;  334.800;  604.000;  578.000
413.339; -138.400; -685.000; -701.000
413.465;   22.500; -364.000; -310.000
413.591; -165.900; -757.000; -474.000
413.717;  -71.700; -358.000; -366.000
413.843; -235.000; -839.000; -861.000
413.969;  -57.800;  -47.000; -292.000
414.096; -146.400; -679.000; -679.000
414.222;   32.500;  -33.000;   85.000
414.348;  -50.900; -652.000; -385.000
414.474;  165.300;   38.000;  -52.000
414.600;    4.600; -126.000; -144.000
414.726;    7.100;  -96.000;  -55.000
414.852;  -71.300; -365.000; -342.000
414.978;  116.200;  104.000;  -18.000
415.104;  131.200;   38.000;   80.000
415.230;   96.200; -329.000; -330.000
415.356;   91.000; -409.000; -514.000
415.482;  413.200;   13.000;  -35.000
415.608;  511.900; -247.000; -323.000
415.734; 1947.100;   67.000;   38.000
415.860;40339.100; -875.000; -767.000
415.986;26170.500; -685.000; -607.000
416.111; 2134.300; -798.000; -652.000
416.237;  472.800; -424.000; -571.000
416.363; 2436.900; -765.000; -733.000
416.489; 8083.900; -324.000; -251.000
416.615;  815.700; -707.000; -742.000
416.741;    2.700; -677.000; -784.000
416.866; -122.700; -673.000; -736.000
416.992; -185.900; -801.000; -818.000
417.118;  -17.700;  -41.000;  -80.000
417.244;  -93.900; -798.000; -531.000
417.369; -141.900; -801.000; -612.000
417.495;   -8.800; -325.000; -254.000
417.621; -138.200;-1015.000; -803.000
417.746;    9.200; -579.000; -572.000
417.872;  137.100; -254.000; -144.000
417.998;  127.900; -515.000; -530.000
418.123; 2258.400;-1073.000; -845.000
418.249;10465.200; -512.000; -601.000
418.374; 1317.500; -916.000; -824.000
418.500;  235.700; -383.000; -482.000
418.626;  269.300;   70.000;  -59.000
418.751;  240.200; -549.000; -448.000
418.877;  396.800; -637.000; -643.000
419.002; 4003.500; -688.000; -560.000
419.128;24723.400; -930.000; -721.000
419.253; 5397.000; -967.000; -837.000
419.379;  774.500; -391.000; -338.000
419.504;  816.600;  325.000;  415.000
419.629; 1064.200; -393.000; -212.000
419.755; 7611.200; -317.000; -254.000
419.880;41164.600;  -98.000;   67.000
420.006;23043.800; -280.000; -221.000
420.131;55303.000; -662.000; -775.000
420.256; 7128.300; -315.000; -316.000
420.382;  981.100; -665.000; -687.000
420.507;  127.900; -649.000; -778.000
420.632;  203.500; -337.000; -339.000
420.758;  318.700; -251.000; -425.000
420.883; -136.400; -876.000; -672.000
421.008; -155.500; -775.000; -619.000
421.133; -138.800; -509.000; -467.000
421.259;  -39.700; -325.000; -259.000
421.384; -195.900; -834.000; -693.000
421.509; -134.900;-1052.000; -862.000
421.634; 1589.700; -936.000; -820.000
421.759;  623.000; -359.000; -327.000
421.885;  -87.800; -717.000; -656.000
422.010; -141.200; -673.000; -542.000
422.135; -240.600; -695.000; -727.000
422.260;  140.600;  340.000;  280.000
422.385;  -12.800;   12.000;  -98.000
422.510;   61.700;  151.000;  -26.000
422.635;   70.200;  -87.000;  -43.000
422.760;  158.600; -766.000; -791.000
422.885;  159.400;  -57.000;  -80.000
423.010;   -7.100; -112.000; -169.000
423.135; -124.500; -481.000; -561.000
423.260;   -0.900; -150.000; -245.000
423.385;  135.200;  476.000;  222.000
423.510;  102.600;   71.000;  -22.000
423.635;  163.900;  133.000;   45.000
423.760;  162.400;  383.000;  328.000
423.885;  160.300;  336.000;  391.000
424.010;   83.500;  -68.000;  -13.000
424.135;   28.400;    5.000;  -33.000
424.259; -131.700; -654.000; -457.000
424.384;  -87.200; -279.000; -272.000
424.509;  -49.700; -260.000; -186.000
424.634; -153.900; -761.000; -623.000
424.759;   -0.700; -688.000; -544.000
424.883;    1.200; -506.000; -527.000
425.008;  359.600; -502.000; -410.000
425.133; 4093.800; -679.000; -653.000
425.258; 1698.900; -517.000; -381.000
425.382; 1718.600; -867.000; -774.000
425.507; 3758.000; -487.000; -543.000
425.632;  681.300; -802.000; -663.000
425.756;  917.900; -256.000; -146.000
425.881;14218.700; -831.000; -857.000
426.006;34028.300; -604.000; -355.000
426.130; 4703.900; -696.000; -508.000
426.255;  655.500; -611.000; -491.000
426.379;  325.400; -189.000; -577.000
426.504;  811.400;  660.000;  544.000
426.629; 8209.500; -519.000; -466.000
426.753; 4956.800;   64.000;  -46.000
426.878;  621.000; -252.000; -288.000
427.002;  308.800; -651.000; -668.000
427.127; 3427.300;  -35.000; -158.000
427.251;22591.500;  372.000;  401.000
427.375; 5665.400; -191.000; -173.000
427.500; 3539.700; -616.000; -610.000
427.624; 1053.100; -234.000; -400.000
427.749;  180.300; -216.000; -225.000
427.873;  -37.700; -499.000; -412.000
427.997;  -46.700; -222.000; -230.000
428.122;  235.000;  795.000;  703.000
428.246;  190.400;  433.000;  434.000
428.371; -214.000; -869.000; -773.000
428.495; -168.900; -624.000; -646.000
428.619;  -23.300; -186.000; -117.000
428.743;   78.400;   65.000;  132.000
428.868;   39.800; -732.000; -643.000
428.992; 2160.400; -219.000; -326.000
429.116;  815.100; -329.000; -357.000
429.240;  424.300;  419.000;  426.000
429.365;  -20.000; -454.000; -574.000
429.489;  -51.200; -638.000; -647.000
429.613;   81.600; -236.000; -177.000
429.737;  121.500; -563.000; -432.000
429.861;  559.900; -247.000; -133.000
429.985;11544.500; -425.000; -305.000
430.109;11295.400; -770.000; -908.000
430.234; 1313.400;   76.000;  -50.000
430.358;  182.200; -250.000; -160.000
430.482;  -99.500; -672.000; -564.000
430.606;  -69.400; -655.000; -375.000
430.730;   46.800; -437.000; -388.000
430.854;  146.100; -909.000; -835.000
430.978; -124.300; -795.000; -764.000
431.102; -110.500; -499.000; -422.000
431.226; -205.300; -874.000; -815.000
431.350;  114.900;  345.000;  422.000
431.474; -130.400; -661.000; -373.000
431.597; -268.500;-1060.000; -848.000
431.721; -124.500; -276.000; -267.000
431.845; -246.100; -704.000; -472.000
431.969; -106.500; -304.000; -349.000
432.093; -108.000; -395.000; -317.000
432.217;   10.700;   32.000;   82.000
432.341; -111.300; -523.000; -518.000
432.464;   41.300;   96.000;   40.000
432.588;  312.300; -401.000; -329.000
432.712;  197.700;  -52.000;  -52.000
432.836;  143.500;  213.000;  263.000
432.959;  -26.500; -372.000; -311.000
433.083;  236.500;   11.000;    2.000
433.207;  781.900;  285.000;  930.000
433.330;10660.400; -391.000; -200.000
433.454;11700.800; -654.000; -638.000
433.578; 6930.000;  583.000;  278.000
433.701; 1150.700; -623.000; -675.000
433.825;  241.100; -292.000; -299.000
433.949;  265.800;   28.000;  -72.000
434.072;   77.800; -410.000; -323.000
434.196;   14.700; -309.000; -117.000
434.319; 8171.000;25482.000;25124.000
434.443; 1482.000; -656.000; -603.000
434.566; 5188.700;  281.000;   62.000
434.690;  799.200; -637.000; -383.000
434.813;  129.500; -251.000; -173.000
434.937; -150.400; -569.000; -696.000
435.060;  -54.400; -423.000; -332.000
435.184;  381.900; -492.000; -217.000
435.307;  294.000;  159.000;  102.000
435.431;   17.600;  -40.000;   24.000
435.554;  -69.400; -399.000; -240.000
435.677; -107.000; -350.000; -258.000
435.801;  -25.000;  -25.000;   49.000
435.924;    7.200;    1.000;  -67.000
436.048; -191.900;-1019.000; -732.000
436.171;  -87.700; -240.000;  -66.000
436.294;  -10.700; -248.000; -229.000
436.417;  206.300; -963.000; -849.000
436.541; -127.300; -814.000; -840.000
436.664;  -37.600; -242.000; -316.000
436.787;    6.300;   13.000;  113.000
436.910; -201.600; -792.000; -422.000
437.034;   73.400;  142.000;  143.000
437.157;  126.600;  -11.000;    0.000
437.280;  -78.600; -392.000; -292.000
437.403; -184.200; -982.000; -869.000
437.526;  872.900; -903.000; -865.000
437.649; 2893.300; -505.000; -332.000
437.772;  330.400; -692.000; -540.000
437.896;  240.400;  700.000;  544.000
438.019; -150.000; -758.000; -503.000
438.142; -137.400; -596.000; -506.000
438.265;  -53.700; -639.000; -670.000
438.388;  868.400; -520.000; -410.000
438.511;   80.200; -597.000; -394.000
438.634;  -75.200; -247.000; -125.000
438.757; -197.100; -693.000; -619.000
438.880;  -10.100;  -34.000;  -57.000
439.003; -106.300; -417.000; -437.000
439.126;  -84.200; -287.000; -167.000
439.248;  -42.200;  -98.000; -139.000
439.371;  -30.500;    9.000;  -53.000
439.494;  148.200;  510.000;  439.000
439.617;  -51.100;   65.000;  -88.000
439.740; -306.000; -968.000; -816.000
439.863; -211.900; -755.000; -595.000
439.986; -192.400; -476.000; -431.000
440.108;  -76.400; -161.000; -112.000
440.231; -292.300; -950.000; -836.000
440.354;  -22.100;  -64.000; -150.000
440.477;   24.600; -566.000; -542.000
440.599;   10.100; -200.000; -225.000
440.722; -211.300; -709.000; -586.000
440.845;  192.000;  751.000;  928.000
440.968; -136.900; -415.000; -311.000
441.090;  -39.600; -199.000;  -33.000
441.213; -274.000;-1021.000; -825.000
441.336;  -70.700; -159.000;   -5.000
441.458;  -94.100; -549.000; -396.000
441.581; -128.700; -628.000; -629.000
441.703;  -64.700; -152.000;   13.000
441.826; -147.300; -557.000; -400.000
441.948;  -50.100;   56.000;   51.000
442.071;  136.800;  555.000;  424.000
442.193; -178.800; -531.000; -485.000
442.316;   94.900;  152.000;   97.000
442.438;  114.500; -233.000;  -10.000
442.561;  157.900;  272.000;  262.000
442.683;  771.700; -809.000; -522.000
442.806; 1538.600;   -8.000;   74.000
442.928;  -36.800; -859.000; -604.000
443.051; -128.300; -577.000; -373.000
443.173; -132.600; -341.000; -339.000
443.295; -138.400; -263.000; -371.000
443.418;  -84.400; -321.000;  -29.000
443.540;   11.200; -106.000;   -4.000
443.662; -178.000; -563.000; -465.000
443.785;   39.300;  335.000;  199.000
443.907; -155.600; -362.000; -208.000
444.029; -204.800; -767.000; -494.000
444.152; -230.700; -644.000; -554.000
444.274;  -15.300;  -18.000;  -24.000
444.396; -166.400; -461.000; -221.000
444.518; -218.200; -691.000; -454.000
444.640; -147.600; -268.000; -111.000
444.763;   42.300;  388.000;  249.000
444.885; -203.300; -432.000; -392.000
445.007;  -26.200;   35.000;   86.000
445.129; -213.100; -610.000; -515.000
445.251; -174.100; -372.000; -439.000
445.373; -224.200; -537.000; -386.000
445.495;   49.500;  242.000;  350.000
445.617;  174.300;  853.000;  753.000
445.739;  -89.000; -215.000;  -97.000
445.861;  -48.000; -245.000; -112.000
445.984;  -49.800; -267.000; -101.000
446.105;  323.100; -418.000; -251.000
446.227;  833.400; -176.000;  -19.000
446.349;   -3.600; -358.000; -249.000
446.471; -170.700; -615.000; -448.000
446.593;  -83.200; -316.000;   19.000
446.715;    2.800;  -67.000;   41.000
446.837;  194.200;  697.000;  832.000
446.959; -152.500; -457.000; -478.000
447.081; -196.200; -628.000; -518.000
447.203;  163.900;  862.000;  834.000
447.325; -112.300; -270.000;   42.000
447.446;   52.100;  286.000;  530.000
447.568; -287.500; -921.000; -803.000
447.690; -122.800; -236.000; -245.000
447.812; -250.000; -798.000; -519.000
447.933;    7.600;  155.000;  127.000
448.055;  -73.200; -306.000; -261.000
448.177;  258.200;   31.000;   79.000
448.299;   63.600; -935.000; -727.000
448.420;   35.800;  -25.000;  159.000
448.542;  -32.900;   -3.000;   33.000
448.664;  -10.500;  109.000;  322.000
448.785;    6.300;  265.000;   83.000
448.907; -155.400; -614.000; -353.000
449.028;  -61.600; -771.000; -471.000
449.150;  144.400;  492.000;  589.000
449.272; -296.800;-1044.000; -913.000
449.393;  153.000;  612.000;  694.000
449.515; -256.700; -634.000; -581.000
449.636;  -59.300; -264.000; -155.000
449.758;  168.000;  763.000;  622.000
449.879; -130.500; -498.000; -396.000
450.001;  -75.000; -149.000;  -49.000
450.122;  -31.500;  -95.000;  162.000
450.244;   12.800;   37.000;  364.000
450.365; -158.900; -495.000; -301.000
450.486;    3.700;   80.000;  268.000
450.608;  125.700;  393.000;  326.000
450.729;  192.200;  578.000;  645.000
450.850;   83.400; -574.000; -466.000
450.972; 1678.000; -552.000; -389.000
451.093;10083.000;  190.000;  588.000
451.214; 3833.100; -516.000; -337.000
451.336;  710.900;  773.000;  579.000
451.457;  163.700;  264.000;  393.000
451.578;  -39.300; -118.000;  -74.000
451.699; -177.100; -546.000; -540.000
451.821;  -46.100; -284.000;  -50.000
451.942;   46.000;  278.000;  285.000
452.063;  107.200;  228.000;  419.000
452.184; 1241.100;  -54.000;  -49.000
452.305; 2154.700;  103.000;  170.000
452.427;  255.000; -549.000; -301.000
452.548;   -7.200;   23.000;   79.000
452.669;  -68.300; -257.000;  -89.000
452.790;  -55.300;    3.000;  -18.000
452.911;   35.900;  195.000;  259.000
453.032;  -73.700; -289.000;  -60.000
453.153;  -81.200;  -29.000;   81.000
453.274;  199.900;  737.000;  868.000
453.395;  -54.700;  -51.000;  175.000
453.516;  300.300; 1317.000; 1388.000
453.637;  -72.900; -205.000; -150.000
453.758;  -72.000;   15.000;   69.000
453.879; -176.500; -462.000; -250.000
454.000;  238.300; 1086.000;  948.000
454.121; -170.300; -554.000; -326.000
454.242; -177.000; -599.000; -383.000
454.362;  -39.800;  -99.000;  114.000
454.483;  -34.400; -309.000; -229.000
454.604;  154.100;  512.000;  580.000
454.725; -219.100; -627.000; -555.000
454.846; -182.600; -474.000; -406.000
454.967;   37.500;  230.000;  539.000
455.087;  -30.800;  179.000;  153.000
455.208;  145.100;  554.000;  856.000
455.329;  -37.000;  -22.000;   82.000
455.450;  159.700;  473.000;  633.000
455.570; -124.900; -234.000; -211.000
455.691;   -3.000;  201.000;  407.000
455.812; -148.500; -270.000;  -92.000
455.932;  -62.800;  107.000;  -97.000
456.053;  -69.600;   36.000;   24.000
456.173; -160.700; -433.000; -355.000
456.294; -212.400; -476.000; -303.000
456.415;  -82.900;  -73.000;   70.000
456.535;   19.600;  297.000;  273.000
456.656;    8.600;  132.000;  240.000
456.776;  -52.300;    3.000;  298.000
456.897;   44.700;  308.000;  513.000
457.017;  -81.500; -153.000;   -3.000
457.138; -157.700; -402.000; -249.000
457.258;   22.300;  263.000;  224.000
457.379;   79.900;  509.000;  521.000
457.499;    3.200;  443.000;  432.000
457.620; -219.000; -407.000; -231.000
457.740; -150.300; -132.000;  -11.000
457.860;  -77.500;   87.000;   44.000
457.981;  -52.300;  132.000;  124.000
458.101; -115.300;  -89.000;   40.000
458.221;   56.800;  336.000;  402.000
458.342;  -56.000;   -4.000;  -37.000
458.462;  139.000;  617.000;  352.000
458.582;   12.900; -302.000; -294.000
458.703;  106.000;  303.000;  154.000
458.823;    0.000;   22.000;  163.000
458.943;  149.200;  341.000;  467.000
459.063;   41.100; 1124.000;  192.000
459.183;   31.500;  328.000;  313.000
459.304;   58.000;  315.000;  517.000
459.424;  -73.400; -246.000;  -89.000
459.544;  770.100;  388.000;  764.000
459.664; 1704.500;  499.000;  506.000
459.784;  641.400; 1004.000; 1175.000
459.904;  157.600;  867.000;  744.000
460.024;  190.800;  867.000;  684.000
460.144;   82.300;  449.000;  554.000
460.264;   27.700;  515.000;  327.000
460.385; -129.200; -145.000; -119.000
460.505;  141.700;  905.000;  858.000
460.625; -123.300;  -17.000;  -68.000
460.745;   11.800;  396.000;  541.000
460.864;  -15.100;  153.000;  469.000
460.984;   80.300;  499.000;  573.000
461.104;  352.100; 1656.000; 1775.000
461.224;   87.500;  657.000;  650.000
461.344;   11.400;  431.000;  360.000
461.464;   -3.400;  258.000;  513.000
461.584;   31.900;  283.000;  466.000
461.704;  -37.300;   58.000;  108.000
461.824;  -49.100;  238.000;  259.000
461.943;  -19.400;  191.000;  130.000
462.063;  -87.500;    2.000;  324.000
462.183;  131.600;  639.000;  717.000
462.303;  290.900; 1678.000; 1230.000
462.422;  110.800;  781.000;  840.000
462.542;  -12.900;  271.000;  391.000
462.662;  128.300;  353.000;  380.000
462.782;  555.500;  833.000;  572.000
462.901;  992.900;  545.000;  717.000
463.021;  585.600; 1702.000; 1638.000
463.141;   42.000;  337.000;  770.000
463.260;   39.400;  614.000;  474.000
463.380;  121.600;  902.000;  884.000
463.499;  -15.200;  342.000;  332.000
463.619;  -11.400;  581.000;  559.000
463.738;  276.900; 1644.000;  903.000
463.858;   79.800;  657.000;  811.000
463.978;   10.900;  542.000;  396.000
464.097;  157.700;  921.000; 1114.000
464.217;  328.000; 1196.000; 1143.000
464.336;  283.500; 1068.000; 1130.000
464.455;    0.100;  328.000;  659.000
464.575;  138.900;  597.000;  602.000
464.694;  395.000; 1204.000; 1179.000
464.814;  305.100; 1190.000; 1138.000
464.933;  206.100; 1095.000; 1027.000
465.052;  291.900; 1412.000; 1054.000
465.172;  197.900;  922.000;  799.000
465.291;  307.400; 1376.000; 1320.000
465.410;   72.100;  462.000;  735.000
465.530;  244.800; 1355.000; 1310.000
465.649;  218.300; 1209.000; 1273.000
465.768;  372.300; 1673.000; 1508.000
465.888;  137.700;  941.000; 1174.000
466.007;  203.600; 1335.000; 1440.000
466.126;   55.400;  721.000;  641.000
466.245;  174.800; 1176.000; 1187.000
466.364;   76.300;  950.000; 1060.000
466.484;  171.600; 1024.000; 1213.000
466.603;  154.500; 1101.000; 1222.000
466.722;  289.800; 1490.000; 1769.000
466.841;  251.400; 1151.000; 1401.000
466.960;  145.000; 1069.000;  972.000
467.079;  353.600; 1971.000; 1786.000
467.198;  158.700; 1238.000; 1181.000
467.317;  280.100; 1768.000; 1162.000
467.436;  225.600; 1709.000; 1261.000
467.555;  325.400; 1796.000; 1746.000
467.674;  198.700; 1227.000; 1329.000
467.793;  163.400; 1376.000; 1374.000
467.912;  265.500; 1658.000; 1539.000
468.031;  361.600; 2038.000; 1930.000
468.150;  364.900; 1842.000; 1837.000
468.269;  464.300; 2313.000; 2090.000
468.388;  468.200; 2168.000; 2339.000
468.507;  584.300; 2884.000; 2903.000
468.626;  630.700; 2555.000; 2541.000
468.744;  370.500; 2018.000; 2174.000
468.863;  489.300; 2312.000; 2523.000
468.982;  255.300; 1503.000; 1555.000
469.101;  567.800; 2788.000; 2692.000
469.220;  373.100; 2333.000; 2176.000
469.338;  566.900; 2935.000; 3051.000
469.457;  475.600; 2719.000; 2545.000
469.576;  761.700; 3953.000; 3784.000
469.695;  565.000; 2877.000; 3066.000
469.813;  936.100; 4148.000; 4192.000
469.932;  885.900; 4255.000; 4485.000
470.051;  941.000; 4075.000; 4161.000
470.169; 1818.100; 4470.000; 4338.000
470.288; 3031.800; 4700.000; 4809.000
470.406; 1738.800; 5059.000; 5194.000
470.525; 1327.700; 6101.000; 5787.000
470.644; 1345.900; 6847.000; 6794.000
470.762; 1790.100; 8397.000; 7873.000
470.881; 1996.800; 8651.000; 8464.000
470.999; 2204.600; 9685.000; 9151.000
471.118; 2308.400;11174.000;10711.000

