
Integration time [ms]: 100.000
Averaging Nr. [scans]: 40
Smoothing Nr. [pixels]: 0
Data measured with spectrometer [name]: 2101012U2
Wave   ;Sample   ;Dark     ;Reference
[nm]   ;[counts] ;[counts] ;[counts] 

197.733;   44.850;  516.000;  404.000
197.879;  -80.450; -610.000; -634.000
198.025;  -39.125; -475.000; -420.000
198.171;  -69.600; -602.000; -612.000
198.317;  -32.850; -401.000; -316.000
198.463;  -56.225; -655.000; -404.000
198.609;   21.800;  181.000; -137.000
198.755;  -86.225; -644.000; -410.000
198.901;  -51.550; -505.000; -424.000
199.047;  -68.075; -615.000; -488.000
199.193;  -45.850; -230.000; -468.000
199.339;  -37.000; -222.000; -369.000
199.485;   36.525;  330.000;  271.000
199.631;   16.300;  227.000;  310.000
199.777;  -36.400; -466.000; -398.000
199.923;  -67.350; -610.000; -424.000
200.069;    4.400; -141.000;  -58.000
200.215;   55.700;  128.000;  453.000
200.361;   44.700;  243.000;  477.000
200.507;  -61.975; -600.000; -373.000
200.653;  -29.850; -371.000; -194.000
200.798;  -34.600; -215.000; -125.000
200.944;   -7.825; -146.000;  -41.000
201.090;   27.575;   61.000;  222.000
201.236;  -11.275; -116.000; -158.000
201.382;  120.125;  874.000;  903.000
201.528;    8.200;  -58.000;  -48.000
201.674;  -33.525; -386.000; -293.000
201.819;  -49.900; -540.000; -439.000
201.965;  -79.800; -699.000; -447.000
202.111;  -16.575; -273.000; -226.000
202.257;  -33.250; -250.000; -238.000
202.402;   15.325;   13.000;  -36.000
202.548;  -31.225; -169.000; -116.000
202.694;   78.050;  410.000; -183.000
202.840;  -66.875; -603.000; -531.000
202.985;  -66.000; -681.000; -639.000
203.131; -106.150; -832.000; -666.000
203.277;  -24.400; -199.000; -262.000
203.423;  -46.175; -434.000; -520.000
203.568;  -35.950; -462.000; -237.000
203.714;  -54.450; -535.000; -542.000
203.860;  -67.250; -682.000; -641.000
204.005;   16.925;  112.000;  167.000
204.151;   81.650;  561.000;  556.000
204.296;  -38.500; -354.000; -221.000
204.442;  -61.675; -600.000; -547.000
204.588;  -82.025; -592.000; -579.000
204.733;   12.725;  178.000;  168.000
204.879; -134.575;-1018.000; -822.000
205.025;    5.675;  -99.000;  126.000
205.170;   11.175;  -17.000;   94.000
205.316;   83.700;  438.000;  661.000
205.461;  -77.375; -698.000; -554.000
205.607;   95.625;  609.000;  665.000
205.752;  -89.775; -626.000; -551.000
205.898;  -49.750; -501.000; -391.000
206.043;  -50.475; -578.000; -506.000
206.189;  -39.825; -243.000; -285.000
206.334;   68.975;  554.000;  606.000
206.480;   80.475;  409.000;  239.000
206.625;  -75.050; -529.000; -552.000
206.771;  -36.050; -451.000; -373.000
206.916;  -33.575; -210.000; -537.000
207.062;  -60.075; -545.000; -591.000
207.207;  -52.900; -546.000; -443.000
207.353;   54.200;  185.000;  460.000
207.498;    9.625;  196.000;   85.000
207.643;  -44.050; -501.000; -370.000
207.789; -130.750;-1069.000; -910.000
207.934;  -83.675; -665.000; -713.000
208.080;  -33.375; -154.000;   66.000
208.225;   -1.550;  -22.000;  -57.000
208.370;  -73.325; -727.000; -619.000
208.516;  -84.575; -741.000; -487.000
208.661;  -30.425; -127.000;  -69.000
208.806;  -13.150; -165.000; -171.000
208.952; -116.500;-1044.000; -731.000
209.097;   59.925;  378.000;  349.000
209.242;  -45.025; -307.000; -382.000
209.387;   56.700;  392.000;  350.000
209.533;  -41.700; -321.000; -350.000
209.678;   75.050;  472.000;  543.000
209.823;  -46.000; -408.000; -310.000
209.969;  -96.225; -860.000; -757.000
210.114;  -90.975; -907.000; -719.000
210.259; -111.075; -939.000; -889.000
210.404;    2.425; -171.000;  103.000
210.549;   13.775;  108.000;    3.000
210.695;  -16.525;   -3.000;  -95.000
210.840;   47.250;   94.000;   67.000
210.985;  -70.225; -484.000; -303.000
211.130;   66.850;  268.000;  406.000
211.275;   32.150;  207.000;  199.000
211.420;  -48.700; -300.000; -289.000
211.566;  -69.975; -536.000; -489.000
211.711;   14.200;  218.000;  157.000
211.856;  -63.150; -545.000; -519.000
212.001;    9.675;  151.000;   44.000
212.146;   25.400;  153.000;   49.000
212.291;  -16.900; -210.000; -186.000
212.436;  -11.000; -280.000;   -6.000
212.581;  -78.000; -685.000; -653.000
212.726;  -69.700; -487.000; -538.000
212.871;  -47.975; -552.000; -217.000
213.016; -143.325;-1172.000;-1029.000
213.161;   63.575;  406.000;  291.000
213.306;  -63.250; -435.000; -577.000
213.451; -100.225; -778.000; -689.000
213.596;  -47.825; -455.000; -347.000
213.741;  -49.700; -448.000; -538.000
213.886;  -80.125; -498.000; -517.000
214.031;  -13.625; -294.000; -124.000
214.176;  -58.375; -408.000; -341.000
214.321;  -26.125; -296.000; -157.000
214.466;  -16.525; -163.000;  -43.000
214.611;    9.925;  -61.000;  -10.000
214.756; -125.050; -948.000; -858.000
214.901;  -25.050; -388.000; -226.000
215.046; -119.625; -797.000; -825.000
215.191;   26.700;  128.000;   35.000
215.336;  -15.325; -157.000;  -19.000
215.480;  -74.450; -684.000; -505.000
215.625;  -10.100; -175.000;  -19.000
215.770;  -71.200; -757.000; -662.000
215.915;  -11.675;   -5.000;  -97.000
216.060;    3.725; -113.000;  -21.000
216.205; -102.950; -731.000; -779.000
216.349;  -66.525; -470.000; -533.000
216.494; -116.900; -939.000; -867.000
216.639; -109.500; -823.000; -888.000
216.784;  -84.275; -577.000; -525.000
216.929;   49.050;  392.000;  281.000
217.073;   -8.625; -244.000;  -31.000
217.218;   24.000;   78.000;  -47.000
217.363;  -90.350; -656.000; -618.000
217.507;  -76.650; -623.000; -588.000
217.652; -120.275; -845.000; -874.000
217.797;  -86.100; -708.000; -659.000
217.942; -109.600; -856.000; -720.000
218.086;   72.125;  608.000;  539.000
218.231;  -21.675; -174.000;  -26.000
218.376;  -33.350; -337.000; -229.000
218.520;   -3.050;  -41.000;   96.000
218.665;  -23.475; -338.000; -204.000
218.810;  -38.925; -275.000; -233.000
218.954;   21.925;  201.000;   35.000
219.099; -115.150; -713.000; -963.000
219.243;  -79.375; -589.000; -554.000
219.388;  -29.875; -264.000; -136.000
219.532;  -11.450; -116.000; -116.000
219.677;  -68.650; -564.000; -521.000
219.822;   11.200;   33.000;   89.000
219.966;    9.225;   17.000;  -99.000
220.111;  -40.900; -328.000;  -40.000
220.255; -100.500; -797.000; -750.000
220.400;  -12.175; -180.000; -146.000
220.544;  -68.075; -516.000; -450.000
220.689;  -52.675; -422.000; -451.000
220.833;  -13.700; -123.000;  -58.000
220.978;  -52.600; -393.000; -563.000
221.122;   19.875;  319.000;  307.000
221.267; -121.700; -906.000; -837.000
221.411;  -70.200; -478.000; -394.000
221.555;  -18.400; -104.000;  -23.000
221.700;  -38.400; -329.000; -222.000
221.844;   33.650;  255.000;  272.000
221.989;  -56.650; -328.000; -311.000
222.133;  -39.625; -289.000; -307.000
222.277;  -12.650;    5.000;   78.000
222.422;   21.300;  227.000;  113.000
222.566;  -31.975; -381.000; -214.000
222.711;  -53.100; -414.000; -479.000
222.855;  -87.700; -643.000; -586.000
222.999;  -87.425; -642.000; -717.000
223.144;  -31.600; -195.000; -194.000
223.288;   52.150;  423.000;  251.000
223.432;   21.875;  184.000;  230.000
223.576;   18.900;  152.000;  -21.000
223.721;   27.150;  364.000;  273.000
223.865;  -57.525; -472.000; -475.000
224.009;  215.600; 1673.000; 1631.000
224.153;  -72.875; -660.000; -671.000
224.298;  -69.375; -531.000; -489.000
224.442;   -0.500;  -74.000;  -33.000
224.586;  -12.725; -169.000; -106.000
224.730;  -88.125; -858.000; -670.000
224.875;  -99.875; -739.000; -688.000
225.019;   21.600;  102.000;  188.000
225.163;   48.525;  208.000;  341.000
225.307;   11.175;   97.000;  -91.000
225.451;   39.025;  360.000;  481.000
225.595;   31.200;  264.000;  176.000
225.739;  -13.475; -170.000;  -94.000
225.884;   -2.350;   86.000;    5.000
226.028;  -95.025; -760.000; -626.000
226.172;  -30.300; -260.000; -273.000
226.316; -119.025; -941.000; -902.000
226.460;  -62.050; -645.000; -493.000
226.604;  -53.375; -406.000; -400.000
226.748;  -98.100; -836.000; -733.000
226.892;  -52.175; -227.000; -181.000
227.036;  -54.500; -537.000; -447.000
227.180;  -47.425; -551.000; -375.000
227.324;  -68.075; -561.000; -580.000
227.468; -117.775; -819.000; -717.000
227.612;   20.850;  242.000;  -28.000
227.756;  -99.275; -845.000; -698.000
227.900;   44.800;  342.000;  441.000
228.044;  -65.000; -509.000; -290.000
228.188;   53.175;  448.000;  568.000
228.332;  -78.925; -546.000; -472.000
228.476;  -37.550; -223.000; -149.000
228.620;  -32.450; -210.000; -150.000
228.764;   65.775;  431.000;  349.000
228.908;  -22.275; -155.000;   30.000
229.052;  -58.175; -615.000; -528.000
229.195;  -18.050; -172.000;   13.000
229.339;  -21.175; -235.000; -305.000
229.483;  -18.300;    5.000; -162.000
229.627;   -0.125; -156.000;  139.000
229.771;  -41.500; -218.000; -294.000
229.915;   15.875;  230.000;   79.000
230.059;  -98.300; -648.000; -663.000
230.202;  -45.675; -370.000; -317.000
230.346;   -8.950; -107.000;  107.000
230.490;  -66.350; -489.000; -521.000
230.634; -116.900; -736.000; -553.000
230.777;   80.825;  478.000;  509.000
230.921;  -52.825; -450.000; -359.000
231.065;  -45.075; -246.000; -286.000
231.209;   32.725;  261.000;  265.000
231.352;   21.250;   54.000;   40.000
231.496;   22.700;  568.000;  188.000
231.640;  -80.200; -693.000; -621.000
231.783;   56.550;  546.000;  525.000
231.927;  -47.950; -294.000; -365.000
232.071; -126.500; -962.000; -736.000
232.214;  -96.275; -980.000; -764.000
232.358; -109.400; -683.000; -599.000
232.502;   11.300;  -19.000;    7.000
232.645; -131.250;-1090.000; -927.000
232.789;  -27.275; -257.000; -218.000
232.933;  -42.700; -407.000; -224.000
233.076; -128.275;-1038.000; -897.000
233.220; -105.400; -752.000; -777.000
233.363;  -72.975; -669.000; -477.000
233.507;   51.250;  371.000;  129.000
233.650;  -90.950; -764.000; -834.000
233.794;   53.650;  438.000;  461.000
233.938;  -58.075; -530.000; -362.000
234.081;  -18.500;  -93.000;   31.000
234.225;  -64.825; -631.000; -539.000
234.368; -110.475; -773.000; -723.000
234.512;  -50.925; -385.000; -299.000
234.655;  -93.150; -582.000; -555.000
234.798;  -67.675; -493.000; -466.000
234.942; -121.525; -884.000;-1002.000
235.085;  -74.850; -651.000; -443.000
235.229;  -75.025; -405.000; -410.000
235.372;  -32.575; -247.000; -191.000
235.516;  -57.575; -397.000; -321.000
235.659;   21.750;   92.000;  121.000
235.802;   -5.550;  -38.000;  -22.000
235.946;   25.175;  335.000;  215.000
236.089;   36.675;  126.000;  250.000
236.233;   45.975;  275.000;  298.000
236.376;  -48.550; -235.000; -378.000
236.519;  -53.325; -297.000; -319.000
236.663;  -21.250; -215.000; -117.000
236.806; -134.350;-1029.000; -999.000
236.949;   66.050;  543.000;  431.000
237.092;   59.275;  412.000;  391.000
237.236;  -93.125; -589.000; -502.000
237.379;   68.825;  352.000;  428.000
237.522; -115.025; -879.000; -768.000
237.666;   -5.475; -271.000;   18.000
237.809; -117.850; -851.000; -823.000
237.952;   33.750;  469.000;  271.000
238.095;  -61.225; -447.000; -442.000
238.238;   84.550;  688.000;  700.000
238.382;    2.125;  166.000;  103.000
238.525;  -66.600; -598.000; -511.000
238.668; -136.600;-1060.000; -985.000
238.811;  -88.725; -638.000; -643.000
238.954;  -55.100; -483.000; -334.000
239.097;   95.800;  617.000;  664.000
239.241;   36.500;  394.000;  326.000
239.384;  -23.125; -254.000; -214.000
239.527;  -49.350; -424.000; -224.000
239.670; -142.550; -994.000;-1091.000
239.813; -103.700; -696.000; -658.000
239.956;   81.150;  579.000;  473.000
240.099; -110.300; -778.000; -725.000
240.242;   48.775;  428.000;  432.000
240.385;   57.400;  466.000;  450.000
240.528;  -71.825; -706.000; -473.000
240.671;   14.925;  189.000;  134.000
240.814;  -39.850; -441.000; -158.000
240.957; -101.800; -767.000; -578.000
241.100;  -97.925; -779.000; -755.000
241.243; -145.425;-1234.000; -893.000
241.386;  -70.600; -508.000; -379.000
241.529;  -99.150; -735.000; -547.000
241.672;  -68.425; -566.000; -495.000
241.815; -116.825; -832.000; -808.000
241.958;  -36.350; -125.000; -182.000
242.101;  -94.275; -545.000; -390.000
242.244;  -40.500; -270.000; -325.000
242.387;  -49.450; -304.000; -246.000
242.530;   59.475;  470.000;  134.000
242.673;  -49.925; -381.000; -309.000
242.815; -128.250; -925.000; -899.000
242.958;  -72.400; -482.000; -381.000
243.101;   11.550;  132.000;  187.000
243.244;  -74.925; -564.000; -521.000
243.387;  -41.475; -313.000; -316.000
243.530;  -98.125; -657.000; -674.000
243.672;    5.525;   43.000;  -92.000
243.815;  -71.025; -355.000; -283.000
243.958;   -1.900;   98.000;  -26.000
244.101;   -0.800;   59.000;  -16.000
244.243;   -8.300;  -47.000;  101.000
244.386; -104.150; -761.000; -630.000
244.529;  -23.450; -132.000; -139.000
244.672; -161.650;-1154.000; -951.000
244.814; -109.050; -621.000; -794.000
244.957;  -34.900; -380.000; -304.000
245.100;  -76.500; -489.000; -489.000
245.242;  -58.325; -387.000; -374.000
245.385;   -9.025;  -59.000;  -39.000
245.528; -117.825; -871.000; -705.000
245.670;   98.000;  612.000;  634.000
245.813;  -93.750; -599.000; -547.000
245.956;  -45.400; -324.000; -275.000
246.098;  -72.300; -508.000; -650.000
246.241;   13.575;  194.000;   48.000
246.383;  -18.550; -119.000;  -73.000
246.526;  -69.175; -454.000; -525.000
246.669; -132.150; -889.000; -780.000
246.811;   10.650;  172.000;   -1.000
246.954;  -58.725; -512.000; -426.000
247.096;  -22.325;  -84.000;   -6.000
247.239;  -68.900; -482.000; -445.000
247.381;  -83.225; -647.000; -488.000
247.524;   73.675;  645.000;  679.000
247.666;   -0.250;   58.000;   11.000
247.809; -118.175; -887.000; -691.000
247.951;   -6.600;  -75.000;  138.000
248.094;   36.025;  432.000;  308.000
248.236; -160.650;-1262.000;-1238.000
248.378;   24.000; -356.000;  -81.000
248.521;  -11.525; -334.000; -337.000
248.663;  -48.000; -236.000; -267.000
248.806;  -24.525; -300.000; -266.000
248.948;  -83.600; -886.000; -763.000
249.090;  -40.075; -428.000; -398.000
249.233;  -49.075; -344.000; -381.000
249.375;  -58.075; -474.000; -451.000
249.518;  -25.575;  -83.000; -133.000
249.660;   -8.325; -103.000;    3.000
249.802; -166.550;-1303.000;-1189.000
249.945;  -78.000; -612.000; -540.000
250.087; -116.675; -834.000; -768.000
250.229;  -44.275; -362.000; -480.000
250.371;  -67.625; -494.000; -439.000
250.514;  -48.100; -310.000; -244.000
250.656;  -22.825;   69.000;  102.000
250.798; -112.700; -849.000; -800.000
250.940;  -67.725; -322.000; -322.000
251.083;  -34.425; -335.000; -111.000
251.225;   52.350;  338.000;  310.000
251.367;  -49.075; -274.000; -373.000
251.509;  -40.075; -265.000; -210.000
251.651;  -85.950; -731.000; -671.000
251.794;   54.825;  538.000;  632.000
251.936;  -90.925; -821.000; -747.000
252.078;  -82.250; -540.000; -461.000
252.220;  -55.875; -645.000; -477.000
252.362;   71.775;  344.000;  462.000
252.504;  -67.825; -677.000; -584.000
252.646; -109.525; -875.000; -722.000
252.788;   15.200;   14.000; -128.000
252.931;  -39.850; -257.000; -253.000
253.073;  -45.975; -376.000; -317.000
253.215;  -14.775;  141.000;  122.000
253.357;  -16.675;   82.000; -153.000
253.499;  -57.800; -374.000; -234.000
253.641;  -71.575; -749.000; -594.000
253.783;  -84.425; -609.000; -527.000
253.925;  -85.475; -586.000; -591.000
254.067; -105.800; -744.000; -667.000
254.209;  -18.400; -391.000; -259.000
254.351; -127.725; -865.000; -883.000
254.493;  -59.100; -441.000; -417.000
254.635; -128.375; -936.000; -818.000
254.777;  -89.000; -752.000; -687.000
254.918;  -59.075; -512.000; -430.000
255.060;  -65.000; -551.000; -395.000
255.202;  -69.375; -473.000; -261.000
255.344;  -85.650; -658.000; -455.000
255.486;  -71.875; -471.000; -406.000
255.628;  -99.125; -780.000; -781.000
255.770;  -95.575; -676.000; -536.000
255.912;  -64.625; -559.000; -468.000
256.053;  -88.000; -730.000; -508.000
256.195;  133.550; 1008.000;  903.000
256.337; -108.200; -861.000; -595.000
256.479;   62.675;  532.000;  416.000
256.621;  -43.050; -394.000; -212.000
256.762; -103.350; -789.000; -742.000
256.904;   42.075;  485.000;  487.000
257.046;  -57.025; -381.000; -271.000
257.188;  -46.600; -351.000; -264.000
257.329;  -62.975; -525.000; -464.000
257.471; -118.125; -939.000; -807.000
257.613;  -67.350; -584.000; -498.000
257.755; -150.400;-1073.000; -982.000
257.896;   30.575;  286.000;  392.000
258.038;  -67.450; -403.000; -352.000
258.180;  -44.575; -354.000; -279.000
258.321;  -85.150; -581.000; -457.000
258.463;   -1.775;  -71.000;  133.000
258.605;  -88.600; -562.000; -570.000
258.746; -104.250; -886.000; -772.000
258.888; -161.950;-1026.000;-1020.000
259.029;   14.750;  121.000;   -8.000
259.171;  -88.600; -614.000; -550.000
259.313;    9.375;  -49.000;  -47.000
259.454;  -60.250; -536.000; -414.000
259.596;  -54.425; -483.000; -390.000
259.737;  -76.225; -590.000; -474.000
259.879;   39.100;  217.000;  311.000
260.020;   84.875;  901.000;  636.000
260.162;  -25.625; -146.000; -253.000
260.303; -126.475; -768.000; -687.000
260.445;  -95.200; -609.000; -613.000
260.586;   16.025;  392.000;  157.000
260.728;  -35.300; -360.000; -248.000
260.869; -111.300; -350.000; -343.000
261.011;   63.450;  706.000;  537.000
261.152;  -76.275; -479.000; -319.000
261.293;  -74.625; -576.000; -595.000
261.435;  -25.600; -219.000; -184.000
261.576;  -57.375; -455.000; -325.000
261.718;   43.750;  420.000;  470.000
261.859; -125.050; -940.000; -949.000
262.000; -121.550; -951.000;-1016.000
262.142;  -30.450;  -52.000;  -60.000
262.283; -114.975; -808.000; -691.000
262.424;  -71.425; -666.000; -625.000
262.566; -161.375;-1161.000; -983.000
262.707; -117.475; -840.000; -830.000
262.848; -109.625; -769.000; -726.000
262.990;  -42.900; -362.000; -345.000
263.131;   71.775;  650.000;  681.000
263.272;   -9.550;  -61.000;  -41.000
263.413;  -97.200; -589.000; -561.000
263.555;  -65.425; -669.000; -143.000
263.696;  -83.375; -550.000; -641.000
263.837;  -61.225; -449.000; -551.000
263.978;  -23.875;   -5.000;  -77.000
264.119;  -40.325; -283.000; -264.000
264.261; -107.700; -847.000; -630.000
264.402;    0.475;   33.000;   40.000
264.543;  -63.425; -509.000; -524.000
264.684;  -17.850;   61.000;  -50.000
264.825;  -74.450; -816.000; -538.000
264.966;   -5.100;  -84.000;  -67.000
265.107; -111.550; -646.000; -670.000
265.248; -118.350; -825.000; -812.000
265.390;   -5.300;  152.000;   -9.000
265.531;  -25.825; -238.000; -107.000
265.672;  -93.800; -557.000; -630.000
265.813;   62.200;  563.000;  439.000
265.954; -137.275; -959.000; -940.000
266.095;  -19.625; -372.000; -322.000
266.236;  -83.225; -686.000; -548.000
266.377;  -47.425; -243.000; -297.000
266.518;  -69.825; -619.000; -547.000
266.659;   29.150;  170.000;  268.000
266.800;   14.650;   83.000;   85.000
266.941;  -76.975; -487.000; -478.000
267.082;    3.225;  354.000;   99.000
267.223;  -61.500; -344.000; -273.000
267.364; -110.000; -892.000; -686.000
267.504;   -8.950;    3.000;  135.000
267.645;   -6.275;  160.000;   67.000
267.786;  -26.250; -147.000;  -86.000
267.927;  -73.700; -473.000; -379.000
268.068;   -9.875; -186.000;  -61.000
268.209;  -50.675; -175.000; -413.000
268.350;  -76.350; -388.000; -532.000
268.490;  -87.575; -648.000; -521.000
268.631;   27.575;  127.000;  225.000
268.772; -121.825; -874.000; -647.000
268.913;  -58.600; -328.000; -476.000
269.054;  -21.475; -117.000;   12.000
269.194;  -39.975; -418.000; -402.000
269.335; -156.200;-1137.000;-1074.000
269.476;  -19.250;   33.000;  -35.000
269.617;  -41.425; -347.000; -392.000
269.757;  -91.975; -713.000; -646.000
269.898;  -96.600; -856.000; -613.000
270.039;  -56.250; -415.000; -405.000
270.180; -139.000; -952.000; -816.000
270.320;  -35.350; -190.000; -250.000
270.461;  -37.150; -277.000; -249.000
270.602;   -4.075; -186.000; -156.000
270.742; -128.300; -868.000; -943.000
270.883;  -58.650; -442.000; -390.000
271.023;  -67.125; -358.000; -357.000
271.164;  -82.750; -607.000; -528.000
271.305;  -95.700; -666.000; -654.000
271.445;  -86.900; -722.000; -683.000
271.586;  -59.775; -462.000; -283.000
271.726;  -37.650; -397.000; -322.000
271.867;  -50.300; -594.000; -534.000
272.008;  197.125; -473.000; -285.000
272.148;  150.875;  462.000;  468.000
272.289;   22.150; -113.000; -181.000
272.429;   15.325;   19.000;  185.000
272.570;  -79.775; -633.000; -737.000
272.710;  -86.625; -825.000; -775.000
272.851;  -26.375;  113.000; -130.000
272.991; -164.125;-1173.000;-1077.000
273.131;  -58.575; -419.000; -459.000
273.272;  -96.200; -683.000; -723.000
273.412;   15.600; -143.000;  -31.000
273.553;  -51.425; -488.000; -507.000
273.693;  154.975;  913.000;  858.000
273.834;  -82.475; -894.000; -692.000
273.974;  -72.000; -664.000; -615.000
274.114; -108.975; -772.000; -560.000
274.255;   91.100;  414.000;  373.000
274.395;   21.625; -180.000; -125.000
274.535;   37.775;  199.000;  350.000
274.676;   30.800;  225.000;   94.000
274.816;   -1.450;  110.000;   34.000
274.956;  -76.325; -624.000; -690.000
275.097;  -53.950;-1014.000; -922.000
275.237; -100.200; -913.000; -803.000
275.377;  -89.300; -778.000; -689.000
275.517; -141.925; -878.000; -937.000
275.658;  -55.300; -590.000; -555.000
275.798;  -56.250; -606.000; -413.000
275.938;   27.150;  215.000;  323.000
276.078;  -97.575; -626.000; -395.000
276.218;   22.150;   99.000;  104.000
276.359; -119.700;-1026.000;-1024.000
276.499;  -66.125; -605.000; -446.000
276.639;  -34.675; -305.000; -151.000
276.779;  -36.275; -475.000; -357.000
276.919;  -89.700; -783.000; -624.000
277.059;  -21.775; -261.000; -212.000
277.199;  -48.475; -357.000; -259.000
277.340;   59.125;  287.000;  175.000
277.480; -118.850; -840.000; -693.000
277.620;   30.150;  192.000;   16.000
277.760; -205.025;-1533.000;-1294.000
277.900;   19.475;  113.000;   33.000
278.040;   19.625;  137.000;  159.000
278.180;   30.600;  270.000;  170.000
278.320;    7.475;   21.000;   56.000
278.460;  -61.225; -443.000; -469.000
278.600;  -84.100; -708.000; -598.000
278.740;   58.300;  448.000;  224.000
278.880;  -34.475; -768.000; -791.000
279.020;    4.175; -194.000; -144.000
279.160;  -90.250; -672.000; -595.000
279.300; -115.850; -926.000; -873.000
279.440;  -85.525; -709.000; -622.000
279.579;    1.900;-1014.000; -929.000
279.719;  -37.000; -410.000; -394.000
279.859;   91.425;   -4.000;   41.000
279.999;   27.250; -208.000;  101.000
280.139;   -1.300; -435.000; -387.000
280.279;  -76.325; -708.000; -745.000
280.419;  -24.825; -229.000; -147.000
280.559;  -22.150; -259.000; -180.000
280.698;  -75.925; -790.000; -639.000
280.838;  -77.625; -778.000; -800.000
280.978; -105.225; -846.000; -790.000
281.118; -101.600; -811.000; -704.000
281.257;   12.275;   24.000;    6.000
281.397;  -86.225;-1094.000; -960.000
281.537;  -73.850; -599.000; -712.000
281.677;  -24.675; -150.000; -101.000
281.816;  -94.275; -700.000; -630.000
281.956;  -29.025; -193.000; -257.000
282.096;  -52.125; -539.000; -396.000
282.235; -104.375; -672.000; -638.000
282.375;  -24.475; -243.000;  -98.000
282.515;  -99.625; -715.000; -707.000
282.654;   37.300;   29.000;  106.000
282.794;   31.825;  388.000;  244.000
282.934;  -53.950; -530.000; -491.000
283.073; -143.025;-1030.000; -857.000
283.213;  -43.200; -460.000; -467.000
283.353;  -26.675; -408.000; -349.000
283.492;  -27.175; -264.000; -296.000
283.632;  -29.875; -254.000; -168.000
283.771;  -97.600; -859.000; -730.000
283.911;  -37.825; -369.000; -260.000
284.050;  -96.775; -794.000; -748.000
284.190; -159.150;-1229.000;-1096.000
284.329; -129.050;-1055.000; -964.000
284.469;  -49.175; -516.000; -591.000
284.608;  -44.650; -559.000; -598.000
284.748;  -73.975; -614.000; -570.000
284.887;    1.350;  -87.000;  -20.000
285.027; -127.350; -844.000; -892.000
285.166;  -27.750; -192.000; -249.000
285.306;    7.325; -116.000;  -33.000
285.445;  -29.600; -229.000; -343.000
285.584;  -96.625; -630.000; -494.000
285.724;  -32.725; -282.000; -322.000
285.863; -107.625; -857.000; -507.000
286.002;  -55.975; -366.000; -276.000
286.142; -109.300; -715.000; -622.000
286.281;  -67.175; -525.000; -493.000
286.420;  -77.650; -554.000; -417.000
286.560;   97.250;  653.000;  623.000
286.699; -130.300; -958.000; -912.000
286.838;  -81.225; -590.000; -591.000
286.978;  -87.675; -533.000; -537.000
287.117; -115.150;-1085.000; -950.000
287.256;  -15.475; -228.000; -211.000
287.395;  -37.625; -197.000; -378.000
287.535;  -51.075; -370.000; -298.000
287.674;  -76.900; -509.000; -484.000
287.813;   52.950;  661.000;  533.000
287.952; -107.575;-1010.000; -871.000
288.091; -143.575;-1049.000; -915.000
288.231;   24.575;   13.000;   15.000
288.370; -165.850;-1217.000;-1200.000
288.509;  -86.100; -728.000; -645.000
288.648;  -90.450; -770.000; -548.000
288.787;  -29.300; -243.000;  -87.000
288.926;  -70.400; -454.000; -475.000
289.065;  116.650;  859.000;  672.000
289.204;  -50.750; -377.000; -217.000
289.344;  -88.900; -791.000; -690.000
289.483;   44.550;  416.000;  304.000
289.622;  -31.750; -291.000; -149.000
289.761;  -12.800; -309.000; -166.000
289.900;  -98.725; -785.000; -626.000
290.039;  -17.400;  -12.000;  -95.000
290.178;  -35.100; -274.000; -180.000
290.317;  -63.525; -618.000; -479.000
290.456;  -60.800; -463.000; -451.000
290.595; -129.050; -961.000; -833.000
290.734; -132.475; -904.000; -891.000
290.873;  -62.100; -456.000; -420.000
291.011;  -96.900; -833.000; -843.000
291.150;  -91.800; -770.000; -682.000
291.289;  -21.275; -343.000; -110.000
291.428; -102.650; -599.000; -480.000
291.567;  -51.475; -370.000; -442.000
291.706;   -6.600;  109.000;  154.000
291.845;  -66.350; -597.000; -505.000
291.984; -153.025;-1234.000;-1061.000
292.122;   78.600;  602.000;  582.000
292.261;   59.425;  620.000;  463.000
292.400;   17.750; -144.000;  211.000
292.539; -117.525; -959.000; -813.000
292.678;  -32.200; -325.000; -300.000
292.816; -165.525;-1136.000; -965.000
292.955;  -76.725; -844.000; -684.000
293.094;  -14.525; -173.000; -337.000
293.233;  -53.750; -556.000; -400.000
293.371;  -24.575; -225.000;  -84.000
293.510; -112.400; -866.000; -780.000
293.649; -119.425; -959.000; -924.000
293.787;  -34.200;-1083.000;-1012.000
293.926;  -12.975; -113.000;  -32.000
294.065;  -40.500; -379.000; -290.000
294.203;   48.350;  298.000;  406.000
294.342;   38.925;   74.000;  156.000
294.481; 6232.575;51180.000; -836.000
294.619;  -22.575; -425.000; -582.000
294.758; -141.500;-1230.000;-1137.000
294.896;  102.250; -125.000;    5.000
295.035; -113.175;-1040.000;-1006.000
295.174; -106.400;-1082.000; -954.000
295.312;  -34.800; -323.000; -203.000
295.451;    7.525; -307.000; -428.000
295.589;  -41.050; -389.000; -518.000
295.728;   31.175; -292.000; -165.000
295.866;    4.100;  -36.000;  -51.000
296.005;  -69.350; -584.000; -341.000
296.143;  -72.100; -558.000; -596.000
296.282;  -98.725; -957.000; -881.000
296.420;  -98.775; -657.000; -557.000
296.559;  -82.625; -892.000; -633.000
296.697;   68.750; -847.000; -665.000
296.835;  107.325;-1141.000;-1002.000
296.974;   58.250;  -23.000;   39.000
297.112;   46.875; -443.000; -504.000
297.251;  -67.275; -815.000; -755.000
297.389;  153.500; -576.000; -438.000
297.527;   46.400; -145.000;  -83.000
297.666;  -36.625; -486.000; -438.000
297.804;  -47.400; -404.000; -264.000
297.942;    5.675; -136.000; -161.000
298.081;   -7.675; -183.000;   63.000
298.219;   89.600;  -17.000;  -19.000
298.357;   73.975; -144.000;  -71.000
298.495;   76.500; -810.000; -812.000
298.634;  107.975;  245.000;  219.000
298.772;   92.625; -220.000; -338.000
298.910;  -24.900; -309.000; -182.000
299.048;    9.050; -130.000; -153.000
299.187;  -14.800; -350.000; -250.000
299.325;   33.575;   52.000;  122.000
299.463;   84.100; -389.000; -299.000
299.601;  160.575; -327.000; -271.000
299.739;  -87.850; -908.000; -883.000
299.877;  -68.600; -791.000; -703.000
300.016;  -12.000;-1095.000; -935.000
300.154;  217.525;  -19.000; -161.000
300.292;   81.475; -428.000; -348.000
300.430;   64.250; -408.000; -291.000
300.568;  -80.950; -940.000; -874.000
300.706;  -51.750; -366.000; -469.000
300.844;  -48.075;-1108.000; -979.000
300.982;  133.525;  246.000;  282.000
301.120;  -95.475; -965.000; -866.000
301.258;  -64.300; -812.000; -705.000
301.396;   58.925;  104.000;  -41.000
301.534;  133.125; -218.000; -293.000
301.672;   36.300; -664.000; -521.000
301.810;   83.150; -613.000; -545.000
301.948;  153.075;   53.000;  149.000
302.086;  775.025; -250.000;  -32.000
302.224; 1223.100; -610.000; -585.000
302.362;   74.725; -558.000; -622.000
302.500;   26.125; -923.000; -893.000
302.638;  154.425;  128.000;  245.000
302.776;    4.500; -352.000; -408.000
302.913;   49.850;  447.000;  236.000
303.051;   -3.450;  -86.000;  -23.000
303.189;   69.675;   90.000;  118.000
303.327;  -21.800; -341.000; -256.000
303.465;  -66.100; -832.000; -588.000
303.603;  -81.350; -805.000; -604.000
303.740;  119.525;  417.000;  241.000
303.878;   66.500; -800.000; -759.000
304.016;  -86.075; -915.000; -790.000
304.154; -103.450;-1123.000;-1152.000
304.291;  -15.875; -505.000; -554.000
304.429;   11.075;  102.000;   74.000
304.567; -117.350; -908.000; -893.000
304.705;  -48.875; -408.000; -515.000
304.842;  141.925; -616.000; -540.000
304.980;   76.775;  215.000;   35.000
305.118;   70.075; -367.000; -365.000
305.255;  -50.575; -945.000; -927.000
305.393;   69.750;  178.000;  239.000
305.531;  -82.625;-1173.000; -956.000
305.668;  -60.775; -663.000; -582.000
305.806;  140.200; -358.000; -439.000
305.943;  149.375; -629.000; -637.000
306.081;   87.050; -378.000; -267.000
306.219; -105.025; -863.000; -748.000
306.356;   11.675;  158.000;   27.000
306.494;  125.350;  981.000;  761.000
306.631;    0.750;  -11.000;  -55.000
306.769;   22.825; -613.000; -485.000
306.906;  -14.025; -284.000; -258.000
307.044;  -49.575; -473.000; -488.000
307.181;  -64.700; -410.000; -332.000
307.319;   19.525;  112.000;   87.000
307.456; -170.575;-1191.000;-1153.000
307.594;  -87.600; -980.000; -727.000
307.731;  -18.575; -371.000; -164.000
307.868;    9.800;  -15.000;   20.000
308.006; -126.200; -961.000; -847.000
308.143;  -46.150; -618.000; -330.000
308.281;  204.525;  -37.000; -254.000
308.418;   14.625; -748.000; -640.000
308.555;  -69.375; -400.000; -250.000
308.693;  -75.200; -577.000; -573.000
308.830;  -96.525; -712.000; -657.000
308.967;  -18.100; -215.000;  -95.000
309.105;  -44.100; -507.000; -396.000
309.242;   54.925; -468.000; -367.000
309.379;  407.125; -577.000; -655.000
309.517;  -46.200; -936.000; -948.000
309.654;  -96.400; -910.000; -734.000
309.791;  -69.500; -662.000; -580.000
309.928; -101.800; -977.000; -914.000
310.065;  202.225;  819.000;  697.000
310.203;   36.950; -825.000; -850.000
310.340;    6.300; -465.000; -321.000
310.477;  -74.275; -412.000; -516.000
310.614;  -64.100; -383.000; -473.000
310.751;  -64.075; -427.000; -518.000
310.889;  -14.275;    1.000;   11.000
311.026; -136.975;-1161.000; -939.000
311.163;  -52.775; -386.000; -380.000
311.300;  -68.250; -512.000; -479.000
311.437;  -57.825; -658.000; -619.000
311.574; -144.750;-1226.000; -985.000
311.711;  -49.275; -595.000; -433.000
311.848;  -54.425; -380.000; -388.000
311.985;   21.825;  270.000;   93.000
312.122; -106.025; -932.000; -762.000
312.259; -124.950; -941.000; -994.000
312.396;  -63.050; -508.000; -551.000
312.533;  -73.150; -812.000; -790.000
312.670; -128.950;-1070.000; -898.000
312.807;  -26.875; -352.000; -367.000
312.944;  -62.525; -513.000; -611.000
313.081;  -36.425; -150.000; -415.000
313.218; -100.025;-1111.000; -867.000
313.355;   24.900; -531.000; -449.000
313.492;   26.225; -455.000; -292.000
313.629;  144.300;  815.000;  735.000
313.766; -157.600;-1176.000;-1008.000
313.902;   -0.750; -186.000;   21.000
314.039;  -46.500; -372.000; -289.000
314.176;   29.100;  286.000;  192.000
314.313;  -69.250; -569.000; -473.000
314.450;  -73.800; -788.000; -684.000
314.587;  -59.800; -468.000; -480.000
314.723;    9.625;  -78.000;  130.000
314.860;   32.675;  318.000;  332.000
314.997;   32.925;  223.000;  142.000
315.134;  -21.475; -385.000; -368.000
315.270;  -23.975; -480.000; -496.000
315.407; -128.550;-1094.000; -967.000
315.544;  -43.925; -657.000; -538.000
315.681;  -49.775; -681.000; -565.000
315.817;   42.725; -133.000; -176.000
315.954;   34.200; -613.000; -392.000
316.091; -120.175;-1045.000;-1023.000
316.227;  -21.325;  -71.000; -179.000
316.364;    8.475;   23.000;    6.000
316.500;  -38.775; -113.000; -300.000
316.637;  -50.575; -181.000; -302.000
316.774;  -82.625; -625.000; -358.000
316.910;  -89.025; -598.000; -629.000
317.047;  -59.225; -487.000; -351.000
317.183;  -30.300; -435.000; -566.000
317.320;  -23.675; -367.000; -321.000
317.456;  -85.300; -733.000; -805.000
317.593;  -88.875; -598.000; -641.000
317.729;   13.075;  168.000;  -67.000
317.866; -189.800;-1434.000;-1285.000
318.002;  -88.825; -708.000; -948.000
318.139;  -87.625; -883.000; -867.000
318.275;  -93.650;-1003.000; -738.000
318.412;  -61.750; -517.000; -336.000
318.548;   -3.150; -751.000; -720.000
318.685;  -85.925; -985.000; -888.000
318.821;  -91.375; -762.000; -735.000
318.957;  -15.400;   34.000;  -23.000
319.094;   43.900;  297.000;  154.000
319.230;  -51.075; -756.000; -742.000
319.367;  178.775; -471.000; -520.000
319.503;   95.175; -538.000; -436.000
319.639;  -85.700; -877.000; -793.000
319.775;  -38.975; -750.000; -685.000
319.912;  -39.350; -424.000; -519.000
320.048;  -66.125;-1184.000;-1184.000
320.184;   68.225;   59.000;   70.000
320.321;  -58.475; -497.000; -467.000
320.457;   58.075;  475.000;  662.000
320.593;  -65.250; -375.000; -382.000
320.729;  -91.450; -732.000; -734.000
320.866;  -77.425; -577.000; -635.000
321.002;  -63.250; -759.000; -809.000
321.138;  -10.775; -135.000; -211.000
321.274;  100.450; -148.000; -115.000
321.410;  -13.850; -585.000; -353.000
321.546;    1.825;-1011.000; -911.000
321.683;   65.600;  400.000;  185.000
321.819;   14.675;  -48.000; -117.000
321.955; -116.225; -743.000; -722.000
322.091;  -37.075; -585.000; -540.000
322.227;   -7.375; -382.000; -202.000
322.363;   -0.325; -320.000; -215.000
322.499;  -25.800; -343.000; -331.000
322.635;  193.425;  636.000;  443.000
322.771;   41.775; -139.000;   12.000
322.907;  122.575;  129.000;  327.000
323.043;    4.000; -115.000; -206.000
323.179;  -33.800; -394.000; -363.000
323.315;   66.450; -401.000; -371.000
323.451;  158.700; -328.000; -236.000
323.587;   76.250;  -60.000;  -77.000
323.723;   49.775; -682.000; -601.000
323.859;  -15.925; -258.000;  -76.000
323.995;  -28.550; -467.000; -409.000
324.131; -129.800; -967.000; -892.000
324.267;  -24.175; -254.000; -276.000
324.402; -118.875; -960.000; -983.000
324.538;   -0.600; -279.000; -104.000
324.674;   27.075;  164.000;   77.000
324.810;  175.125;  226.000;  308.000
324.946;   29.475; -810.000; -658.000
325.082;  -76.225; -568.000; -475.000
325.217;   -6.125;  -62.000;   16.000
325.353;  -99.250; -764.000; -659.000
325.489;  -78.050; -540.000; -506.000
325.625;  -66.950; -579.000; -525.000
325.760;   56.425;  517.000;  376.000
325.896;  -27.225; -515.000; -702.000
326.032;  -57.300; -403.000; -352.000
326.168;  -56.375; -462.000; -369.000
326.303;  -69.750; -352.000; -461.000
326.439;  -20.500; -336.000; -276.000
326.575;   12.775; -190.000;  -29.000
326.710;    2.925; -156.000;  -30.000
326.846;  -11.950;  146.000;  103.000
326.982;  -90.950; -530.000; -548.000
327.117;  -70.050; -481.000; -442.000
327.253;  -90.850; -745.000; -742.000
327.388; -145.400;-1137.000;-1153.000
327.524;  -37.700; -811.000; -578.000
327.659;  -35.325;  -58.000;  -22.000
327.795;   -8.100;   69.000;   45.000
327.931;  -88.600; -723.000; -499.000
328.066;  -18.700; -417.000; -276.000
328.202;    9.025;   12.000; -129.000
328.337;  101.775;  957.000;  713.000
328.473;   30.550;  -12.000;  -74.000
328.608;  -23.375; -256.000; -267.000
328.743;  -73.200; -799.000; -664.000
328.879;   22.375;  214.000;  114.000
329.014;  -33.525; -102.000; -122.000
329.150;  -78.100; -358.000; -483.000
329.285;  -71.700; -465.000; -466.000
329.421;  -46.250; -548.000; -246.000
329.556;  -26.875;  -36.000;   85.000
329.691;  -95.075; -633.000; -615.000
329.827;  -80.625; -626.000; -480.000
329.962;  -46.025;  131.000; -301.000
330.097;  -95.000; -673.000; -585.000
330.233;  -38.150; -410.000; -223.000
330.368; -120.075; -839.000; -628.000
330.503;   -6.100;    3.000;   98.000
330.638;   20.650;  -93.000; -125.000
330.774;  -42.800; -609.000; -530.000
330.909;  -34.175; -434.000; -244.000
331.044;  -83.775; -714.000; -708.000
331.179; -168.250;-1217.000;-1109.000
331.315;   13.275;   77.000;   20.000
331.450;    9.425;  157.000;  285.000
331.585;  -80.900; -805.000; -706.000
331.720;  -73.700; -510.000; -460.000
331.855;  -18.775;  -35.000; -102.000
331.990;  194.475;   62.000;  138.000
332.126;  116.650; -110.000;   71.000
332.261;  -27.400; -379.000; -265.000
332.396;    3.075; -135.000; -242.000
332.531;  -98.250;-1074.000;-1031.000
332.666;   31.575; -519.000; -363.000
332.801; -100.050; -726.000; -807.000
332.936;  -18.450; -192.000; -122.000
333.071; -152.300; -870.000; -817.000
333.206;   20.325;  307.000;  379.000
333.341;   33.075;  344.000;  418.000
333.476;  -79.750; -627.000; -623.000
333.611;  -24.225; -251.000; -173.000
333.746;  -35.375; -381.000; -464.000
333.881; -104.600; -973.000; -935.000
334.016; -105.875; -936.000; -917.000
334.151; -109.125; -746.000; -702.000
334.286;   24.950;  152.000;  186.000
334.421;    9.775; -125.000; -178.000
334.556;  -61.050; -611.000; -567.000
334.690;  -72.400; -631.000; -577.000
334.825;   59.350;  381.000;   83.000
334.960;  -54.650; -285.000; -413.000
335.095;   27.350;  135.000;  -91.000
335.230;  -90.900; -722.000; -738.000
335.365; -126.950;-1084.000; -990.000
335.499; -109.375;-1108.000;-1037.000
335.634;   45.325;    9.000;  534.000
335.769;  -78.500; -755.000; -720.000
335.904;  -40.900; -603.000; -561.000
336.038;  -42.250; -735.000; -657.000
336.173;  -83.625;-1206.000;-1194.000
336.308;   25.000; -116.000; -189.000
336.443;   37.750; -544.000; -634.000
336.577;  -48.625; -936.000; -787.000
336.712;   97.400;   -4.000;  -12.000
336.847;   -1.575; -724.000; -607.000
336.981;  120.650; -272.000; -208.000
337.116;  347.325;  615.000;  501.000
337.250;  227.750; -434.000; -421.000
337.385;  203.475; -297.000; -208.000
337.520;   42.075; -632.000; -603.000
337.654;  -56.175; -215.000; -126.000
337.789; -121.375; -989.000; -933.000
337.923;  -21.025; -104.000; -205.000
338.058;  -78.650; -673.000; -738.000
338.192;  -20.725; -611.000; -488.000
338.327;   -5.950;  -18.000; -155.000
338.461;  -68.450; -299.000; -469.000
338.596;  -86.925; -780.000; -638.000
338.730; -109.225; -767.000; -803.000
338.865;   88.825;  -46.000; -140.000
338.999;  -46.550; -846.000; -702.000
339.134;  -34.225; -634.000; -536.000
339.268;   13.625; -741.000; -603.000
339.403;  311.200; -740.000; -775.000
339.537;   81.725; -894.000; -820.000
339.671; -110.000; -829.000; -813.000
339.806;  -80.150; -556.000; -512.000
339.940;   14.575; -261.000; -235.000
340.074;  -86.650; -685.000; -510.000
340.209;  -44.875; -351.000; -230.000
340.343;  -87.350; -517.000; -573.000
340.477;  156.550;  998.000; 1036.000
340.612;  -53.950;-1033.000; -900.000
340.746;  119.000; -199.000; -243.000
340.880;  -52.575; -924.000; -785.000
341.014;  -22.275;  -45.000; -154.000
341.149; -116.575; -756.000; -718.000
341.283; -107.325; -839.000; -754.000
341.417;  -66.125;-1124.000; -938.000
341.551;  214.700; -768.000; -708.000
341.685;  -18.750; -633.000; -611.000
341.820;  -45.875; -562.000; -493.000
341.954;  -31.050; -218.000; -349.000
342.088; -149.750;-1102.000;-1019.000
342.222;   40.175;  565.000;  618.000
342.356;  -54.300; -395.000; -335.000
342.490;  -77.925; -880.000; -841.000
342.624;  -29.875; -339.000; -242.000
342.758;   18.625; -364.000; -312.000
342.892;  -54.450; -710.000; -585.000
343.026;  -32.175;  -58.000; -116.000
343.160;  -48.275; -426.000; -376.000
343.294;  -86.550; -474.000; -337.000
343.428;   -0.900; -488.000; -448.000
343.562;   -1.650; -172.000;  -23.000
343.696;   -1.800; -385.000; -314.000
343.830;    0.350; -362.000; -356.000
343.964;   28.675; -231.000; -168.000
344.098; 1184.800;  199.000;   70.000
344.232; 1016.250; -266.000; -127.000
344.366;  117.125; -567.000; -453.000
344.500;  100.175; -665.000; -744.000
344.634;   61.100; -324.000; -164.000
344.768;    7.600; -531.000; -341.000
344.902;   33.125;  278.000;  256.000
345.035;  -72.400; -556.000; -496.000
345.169; -124.875; -933.000; -656.000
345.303;   -9.150; -308.000; -482.000
345.437;  -50.400; -826.000; -717.000
345.571;  -61.750; -675.000; -594.000
345.704;  -54.100; -309.000; -532.000
345.838;   -4.375; -331.000; -284.000
345.972;  -25.225; -543.000; -495.000
346.106;  143.150; -179.000; -190.000
346.239;  423.725; -312.000; -243.000
346.373;   25.325; -343.000; -302.000
346.507; -133.250; -950.000; -962.000
346.640;  200.300;  -30.000;   13.000
346.774;  -12.075; -650.000; -797.000
346.908;   -2.825; -138.000;  -11.000
347.041;  -96.075; -646.000; -593.000
347.175;    3.200;  259.000;   27.000
347.309;  -60.125; -698.000; -628.000
347.442;  -88.525; -883.000; -732.000
347.576;  343.425;  670.000;  668.000
347.709;  269.225; -123.000;  -52.000
347.843;  -64.175; -933.000; -825.000
347.976;   36.000;  235.000;  294.000
348.110; -180.550;-1268.000;-1186.000
348.243; -100.725; -679.000; -772.000
348.377;   15.725;  -26.000;   60.000
348.510;   63.225;  403.000;  540.000
348.644;  -23.175;  -37.000; -159.000
348.777;    7.975;  180.000;  191.000
348.911;  -48.550; -142.000; -112.000
349.044;  208.750;  471.000;  448.000
349.178;  261.825;-1069.000;-1006.000
349.311;  118.500;  141.000;  255.000
349.444;    3.225; -927.000; -813.000
349.578;   -4.725; -347.000; -200.000
349.711;  -75.675; -959.000; -862.000
349.845;   49.375; -661.000; -591.000
349.978; -138.150;-1224.000;-1137.000
350.111;  -83.625; -546.000; -612.000
350.244;  -70.825; -596.000; -700.000
350.378;   34.050; -392.000; -393.000
350.511;  -66.950; -393.000; -426.000
350.644; -107.400; -808.000; -806.000
350.778;    9.575;  168.000;  104.000
350.911;   -5.775;  134.000;  140.000
351.044;  -78.800; -685.000; -615.000
351.177;  -12.100; -321.000; -281.000
351.310;  -17.700;    3.000; -131.000
351.444;  -59.775; -888.000; -788.000
351.577;  146.675;  140.000;   90.000
351.710;  114.600;  593.000;  417.000
351.843;  -31.550; -165.000;  -77.000
351.976;   28.275;  149.000;  -79.000
352.109;  -81.825; -621.000; -612.000
352.242;   -2.450; -464.000; -419.000
352.376;  -38.150; -580.000; -636.000
352.509;  252.550; -437.000; -356.000
352.642;   63.600; -654.000; -604.000
352.775;  115.550; -141.000;  -98.000
352.908; -107.200; -933.000; -904.000
353.041;  -97.050; -814.000; -824.000
353.174;  -55.825; -551.000; -424.000
353.307;  -70.350; -753.000; -764.000
353.440;   67.200;  541.000;  453.000
353.573;  -96.225; -957.000;-1008.000
353.706;  -49.450; -384.000; -558.000
353.839;   -0.475; -264.000; -220.000
353.971;  -88.075; -657.000; -512.000
354.104;  -74.175; -896.000; -835.000
354.237;   -3.300; -627.000; -662.000
354.370;  -78.375; -846.000; -879.000
354.503; -176.700;-1231.000;-1308.000
354.636;  -29.400; -529.000; -348.000
354.769; -118.950; -937.000; -860.000
354.902;   -7.800; -230.000; -139.000
355.034;  -18.400; -164.000; -220.000
355.167;   -6.950; -262.000; -162.000
355.300;  -85.650;-1061.000; -880.000
355.433;  872.825;  -71.000;  -14.000
355.565; 1335.925; -402.000; -384.000
355.698;  345.950; -356.000; -296.000
355.831;   23.375; -882.000; -801.000
355.964;  131.150; -285.000; -170.000
356.096;  -72.150; -856.000; -843.000
356.229;   36.750; -523.000; -530.000
356.362;  276.325; -373.000; -266.000
356.494;  551.000; -229.000; -162.000
356.627;  576.325;  269.000;  377.000
356.760;  626.475;  120.000;   53.000
356.892;  834.675; -286.000; -601.000
357.025;  832.975;  403.000;  389.000
357.157;  787.950; -167.000; -179.000
357.290;  562.000; -856.000; -713.000
357.423;  180.700; -667.000; -556.000
357.555;  158.300; -217.000; -228.000
357.688;  179.450; -483.000; -364.000
357.820;  576.150; -870.000; -877.000
357.953; 4474.125; -563.000; -589.000
358.085; 1057.350; -632.000; -612.000
358.218; 1640.525;-1131.000; -932.000
358.350;  297.425;  -58.000;  312.000
358.483;  -88.650;-1300.000;-1187.000
358.615;   51.650;-1182.000;-1078.000
358.747;  -13.775;-1187.000;-1058.000
358.880;   57.875; -810.000; -744.000
359.012;   18.525; -376.000; -202.000
359.145;  -15.125; -480.000; -511.000
359.277;   97.450; -962.000; -913.000
359.409; 3741.950;  536.000;  231.000
359.542; 1012.900; -738.000; -688.000
359.674;   98.200;   46.000;   13.000
359.806;  -54.400; -565.000; -438.000
359.939;  -36.400; -617.000; -516.000
360.071;  -24.800; -583.000; -579.000
360.203;   -5.975; -411.000; -364.000
360.335;   63.000;  164.000;  -16.000
360.468;  230.500; -249.000; -307.000
360.600; 2895.225; -547.000; -454.000
360.732; 2520.650; -546.000; -423.000
360.864;  361.600;-1216.000;-1044.000
360.996;  404.700; -516.000; -554.000
361.129;   84.650; -389.000; -598.000
361.261;   30.750;  110.000; -113.000
361.393;  -34.125; -252.000; -214.000
361.525;   34.975;   94.000;  244.000
361.657;  -23.175; -821.000; -703.000
361.789;   26.225; -139.000; -155.000
361.921;  337.700; -642.000; -593.000
362.053;  342.750;  524.000;  541.000
362.185;   65.400;  288.000;   72.000
362.318;  -68.275; -709.000; -705.000
362.450;  176.750;  294.000;  444.000
362.582;  237.250; -913.000; -870.000
362.714;  -17.075; -353.000; -332.000
362.846;  -80.400; -606.000; -490.000
362.978; -134.925; -941.000; -811.000
363.109;   84.125; -161.000; -260.000
363.241;  588.225; -739.000; -749.000
363.373;  407.550; -649.000; -564.000
363.505;  563.375; -186.000;  -91.000
363.637;  165.350; -787.000; -601.000
363.769; -111.325;-1067.000;-1080.000
363.901;  -53.775; -596.000; -654.000
364.033; -106.425;-1103.000;-1062.000
364.165;   22.650; -283.000; -283.000
364.296;   82.150; -316.000; -177.000
364.428;   41.775;-1344.000;-1220.000
364.560;  -66.250; -679.000; -661.000
364.692;  -45.250; -738.000; -835.000
364.824;  380.850; -588.000; -456.000
364.955;  462.075; -402.000; -564.000
365.087;  739.050;-1097.000; -852.000
365.219;   16.925; -686.000; -816.000
365.351;  -51.625; -526.000; -572.000
365.482;   63.650;  300.000;  240.000
365.614;  -43.425; -402.000; -314.000
365.746;  -96.000; -729.000; -752.000
365.877;  -97.750; -706.000; -672.000
366.009;  216.550;  -35.000;  -62.000
366.141;  -96.250;-1249.000;-1134.000
366.272;  -94.875; -803.000; -719.000
366.404; -111.425;-1005.000; -874.000
366.535;  -11.125; -139.000;  -12.000
366.667; -107.350; -644.000; -649.000
366.799;   35.100;  353.000;  203.000
366.930; -102.100; -862.000; -996.000
367.062;  116.525; -639.000; -613.000
367.193;  112.000; -872.000; -842.000
367.325;  -55.100; -580.000; -684.000
367.456;   99.775; -246.000;   31.000
367.588;  152.100; -371.000; -318.000
367.719;   16.050;  -44.000;  -45.000
367.851;  -13.725; -222.000; -241.000
367.982;  -16.625; -875.000; -732.000
368.113;  162.775; -475.000; -358.000
368.245;  -93.875; -960.000; -841.000
368.376;   -0.550; -254.000; -302.000
368.508;  -25.525; -188.000; -263.000
368.639; -124.075;-1166.000;-1034.000
368.770;    2.975; -670.000; -589.000
368.902;  -36.075; -836.000; -926.000
369.033;  -92.275; -906.000; -855.000
369.164;  -49.975; -720.000; -653.000
369.296; -117.900; -452.000; -601.000
369.427;   18.625; -209.000; -144.000
369.558;  -26.850; -593.000; -377.000
369.689;  -80.375; -721.000; -569.000
369.821; -127.650; -951.000; -845.000
369.952;   -5.475;   42.000; -108.000
370.083;  -34.725; -229.000; -108.000
370.214;  -83.150; -735.000; -650.000
370.345;   -3.625;   65.000;   81.000
370.477;  -76.750; -810.000; -790.000
370.608;  333.125; -328.000; -264.000
370.739;  -21.050;-1233.000;-1292.000
370.870;   -8.250;-1102.000; -923.000
371.001;  145.225; -378.000; -467.000
371.132;  -60.375; -754.000; -735.000
371.263;  -24.625;  -42.000; -148.000
371.394; -139.325; -841.000; -748.000
371.525;   39.250;  345.000;  225.000
371.657;  -67.300; -808.000; -670.000
371.788;   96.050;  103.000;  199.000
371.919;  227.125; -384.000; -304.000
372.050; 4630.150;  -91.000; -156.000
372.181; 1408.950; -188.000; -294.000
372.311;  513.500;   42.000; -127.000
372.442;   79.700; -457.000; -451.000
372.573;  -13.425; -444.000; -340.000
372.704; -103.850;-1008.000; -980.000
372.835;  123.575; -228.000; -289.000
372.966;  -38.175; -646.000; -554.000
373.097;  -43.350; -575.000; -711.000
373.228;   -6.975; -717.000; -542.000
373.359;  231.275; -824.000; -536.000
373.490; 1269.300; -881.000; -727.000
373.620; 1569.225;-1001.000; -803.000
373.751; 2369.825; -332.000; -396.000
373.882; 1110.500; -663.000; -733.000
374.013;  121.150; -449.000; -262.000
374.143;  -21.775; -581.000; -659.000
374.274;  -83.675; -987.000; -908.000
374.405;  243.775; -388.000; -276.000
374.536;  607.250; -526.000; -387.000
374.666; 1561.625; -759.000; -807.000
374.797;  341.650; -817.000; -868.000
374.928; 1213.800; -710.000; -560.000
375.058; 1212.025; -535.000; -500.000
375.189;  114.325;  -59.000;  -93.000
375.320;  -92.325; -928.000;-1034.000
375.450;  -32.675; -625.000; -616.000
375.581;  -40.575; -526.000; -436.000
375.712;  -23.525; -574.000; -250.000
375.842;  445.975; -438.000; -415.000
375.973;  314.900; -554.000; -513.000
376.103;  -16.675; -665.000; -648.000
376.234;  -70.050; -531.000; -552.000
376.364;    5.575; -944.000; -867.000
376.495;  397.250;  925.000;  529.000
376.625;   51.525; -472.000; -485.000
376.756;  124.800; -709.000; -678.000
376.886;  -39.250;-1178.000;-1026.000
377.017;   37.350;-1048.000;-1061.000
377.147;  302.700; -786.000; -782.000
377.278;   68.175;  174.000;  228.000
377.408; -121.450; -801.000; -815.000
377.538; -101.250; -707.000; -693.000
377.669;  -76.850; -537.000; -613.000
377.799;  -59.750; -645.000; -635.000
377.929;  -46.475; -610.000; -428.000
378.060; -127.175; -781.000; -847.000
378.190;  -50.100; -726.000; -531.000
378.320;  -43.250; -401.000; -406.000
378.451;  -16.425; -131.000;  -22.000
378.581;   -1.250;  -67.000; -110.000
378.711;  175.075; 1035.000;  866.000
378.841;   -1.775; -533.000; -675.000
378.972;  -53.475; -871.000; -751.000
379.102;   37.575; -652.000; -579.000
379.232;    2.650; -126.000;  -73.000
379.362;  -78.775;-1001.000; -885.000
379.492;   54.150; -373.000; -424.000
379.623;  158.825;    0.000;  111.000
379.753;  -79.025;-1107.000; -974.000
379.883;  261.075;   59.000;  156.000
380.013;   61.525;-1081.000;-1017.000
380.143;  -63.525;-1097.000;-1056.000
380.273;  -75.575; -985.000; -861.000
380.403;    8.750; -344.000; -257.000
380.533;   -1.000; -651.000; -664.000
380.663;  113.000;  173.000;  128.000
380.793;  -63.000;-1027.000;-1074.000
380.923;  -23.825; -103.000;  -34.000
381.053;  -73.925; -613.000; -623.000
381.183;  -15.325; -106.000; -248.000
381.313;   80.825; -656.000; -470.000
381.443;   99.600; -692.000; -473.000
381.573;  296.750; -402.000; -409.000
381.703;  459.950;-1249.000;-1095.000
381.833;  -96.500;-1454.000;-1336.000
381.963;  129.500; -134.000;  -87.000
382.093; 1768.600; -925.000; -909.000
382.223;  571.150; -713.000; -602.000
382.353;    2.950; -801.000; -608.000
382.482;  556.875;-1091.000; -964.000
382.612;  995.275; -872.000; -644.000
382.742;  582.975; -695.000; -622.000
382.872;  403.975; -565.000; -551.000
383.002;  101.200;  347.000; -132.000
383.131;   -0.475; -226.000; -160.000
383.261;  -33.525; -706.000; -768.000
383.391;  299.300; -552.000; -377.000
383.521; 2765.575;  451.000;  263.000
383.650;  631.425; -947.000; -904.000
383.780;   -9.575; -783.000; -656.000
383.910;  127.150;  880.000;  802.000
384.039;   78.375; -794.000; -656.000
384.169;  342.725;-1205.000;-1017.000
384.299;   18.775; -650.000; -662.000
384.428;  -62.350; -764.000; -680.000
384.558;  -39.275; -308.000; -275.000
384.687;  -23.625; -414.000; -334.000
384.817;   28.200;   75.000;   -2.000
384.947;   55.725; -234.000; -141.000
385.076;  334.350;  982.000;  912.000
385.206;  129.125;  369.000;  480.000
385.335;  -20.075; -549.000; -417.000
385.465;  -56.300; -655.000; -663.000
385.594;  187.525;  -53.000;  -44.000
385.724;  606.075; -868.000; -838.000
385.853;  183.275; -296.000; -270.000
385.982; 1827.025; -743.000; -787.000
386.112; 2861.000;-1052.000; -871.000
386.241;  213.175; -307.000; -312.000
386.371;   38.150; -174.000;  -87.000
386.500;   39.525; -825.000; -789.000
386.629;   43.725; -874.000; -817.000
386.759;   61.500;  -43.000;   68.000
386.888;    7.100; -170.000; -250.000
387.017;  -60.025; -648.000; -620.000
387.147;  -78.975; -771.000; -798.000
387.276;   29.500; -410.000; -397.000
387.405;   40.100; -398.000; -342.000
387.535;  -18.475; -452.000; -361.000
387.664;  -49.200; -692.000; -620.000
387.793;   87.375; -198.000; -113.000
387.922;  699.275;  255.000;  200.000
388.052;   65.600; -576.000; -423.000
388.181;   64.550; -342.000; -472.000
388.310;   66.825; -889.000; -710.000
388.439;  -13.400; -749.000; -742.000
388.568;  245.775;  365.000;  244.000
388.697; 1439.775; -756.000; -653.000
388.826;  322.125; -768.000; -666.000
388.956;  106.375; -285.000; -307.000
389.085;  -21.775; -347.000; -287.000
389.214;  -94.475; -842.000; -872.000
389.343;  -60.250; -645.000; -413.000
389.472;  363.500;  126.000;  149.000
389.601;  518.425;   91.000;    0.000
389.730;   54.925; -568.000; -687.000
389.859;   80.375;  226.000;   46.000
389.988;  270.975; -423.000; -408.000
390.117;  200.775; -168.000; -146.000
390.246;   27.325; -331.000; -320.000
390.375;  176.825; -673.000; -626.000
390.504;  -41.800; -703.000; -621.000
390.633;  -87.900; -672.000; -726.000
390.761;  -50.050; -732.000; -645.000
390.890;   51.225;   -4.000; -130.000
391.019;  -10.325; -421.000; -441.000
391.148; -115.925; -826.000; -855.000
391.277;  -57.400; -576.000; -493.000
391.406;  -41.600; -821.000; -805.000
391.534;   36.350;  574.000; -301.000
391.663;  -54.550; -583.000; -645.000
391.792;  -69.200; -673.000; -701.000
391.921;  159.225;   -3.000;   15.000
392.050;  288.700; -287.000; -228.000
392.178;   23.650;-1206.000;-1061.000
392.307;  231.375; -758.000; -712.000
392.436;  135.625; -427.000; -641.000
392.564;   28.075;  166.000;   -6.000
392.693;  -90.850; -860.000; -682.000
392.822;  298.800; -529.000; -534.000
392.950;  174.175; -880.000; -714.000
393.079;  463.000; -188.000; -328.000
393.208;   59.225; -488.000; -511.000
393.336;   -2.725; -170.000; -145.000
393.465;  -51.650; -317.000; -199.000
393.593;    3.875;   62.000;   79.000
393.722; -148.200;-1121.000; -916.000
393.850;  -34.375; -188.000;  -61.000
393.979; -150.400; -926.000; -805.000
394.107;  -58.125; -517.000; -537.000
394.236;    1.500; -570.000; -507.000
394.364;  238.675;  383.000;  206.000
394.493;  430.775; -911.000; -767.000
394.621;   -8.750; -955.000; -916.000
394.750;  617.950; -873.000; -923.000
394.878; 2578.900; -247.000; -149.000
395.007; 3605.275; -721.000; -807.000
395.135;  279.000; -790.000; -721.000
395.263;  -69.150;-1038.000;-1040.000
395.392;    1.125;  -25.000; -107.000
395.520; -141.400; -818.000; -679.000
395.648;  -67.325; -865.000; -915.000
395.777;    9.125; -366.000; -405.000
395.905;  -27.500; -449.000; -564.000
396.033;   15.500;  217.000;  172.000
396.162;  702.900; -399.000; -453.000
396.290;  621.525;  -17.000;   -2.000
396.418;  158.050; -555.000; -514.000
396.546;  -53.900; -571.000; -466.000
396.674;  -80.375; -850.000; -878.000
396.803;   29.200;  -72.000;  -23.000
396.931;  143.825; -179.000; -199.000
397.059;  133.550;-1026.000; -989.000
397.187;  -84.475;-1026.000; -975.000
397.315; -127.025; -884.000; -649.000
397.443;  -95.600; -592.000; -443.000
397.572;  -91.250; -578.000; -424.000
397.700;   16.025; -607.000; -614.000
397.828;   38.900;  120.000;  -90.000
397.956;  -32.250; -508.000; -478.000
398.084;  -68.225; -767.000; -626.000
398.212;   54.950;  137.000;  124.000
398.340;   25.325;  -56.000;  159.000
398.468;   70.175; -390.000; -169.000
398.596; -121.875; -993.000; -953.000
398.724; -108.450; -762.000; -767.000
398.852; -158.650;-1024.000; -976.000
398.980;  -44.025; -560.000; -560.000
399.108;  -32.050; -982.000; -735.000
399.236;   69.750;   13.000;    8.000
399.363;    6.025;  222.000;  196.000
399.491;  -68.100; -404.000; -398.000
399.619; -125.775; -829.000; -800.000
399.747;  -87.125; -859.000; -771.000
399.875;   88.250;  220.000;  234.000
400.003;  -53.775; -359.000; -284.000
400.130;  -88.575; -421.000; -341.000
400.258;  -30.150;  -83.000;   38.000
400.386;  -71.100; -352.000; -168.000
400.514;  -25.900; -526.000; -587.000
400.641;  -62.975; -928.000; -802.000
400.769; -131.400; -979.000; -888.000
400.897;  -91.425; -838.000; -793.000
401.025;    4.600; -166.000; -152.000
401.152;   -3.250;  220.000;   38.000
401.280;  -69.450; -430.000; -429.000
401.408; -117.150; -712.000; -576.000
401.535;  -86.375; -735.000; -758.000
401.663; -198.850;-1134.000;-1054.000
401.790;  -83.500; -514.000; -525.000
401.918;   43.475;  436.000;  405.000
402.046;   -2.550;  134.000;  122.000
402.173;  -28.575;  -18.000;    7.000
402.301;  -56.650; -519.000; -397.000
402.428;   39.100;  528.000;  383.000
402.556; -141.100;-1188.000; -913.000
402.683;  -27.775;  -20.000;   -1.000
402.811;  -13.200;  -37.000; -206.000
402.938;  -19.275;   20.000;   27.000
403.066;  283.650; -574.000; -558.000
403.193;  462.950;  299.000;  239.000
403.321;  348.875; -396.000; -574.000
403.448;  423.050;   83.000;   27.000
403.575;  206.300;  -90.000;  -46.000
403.703;  -90.950; -732.000; -557.000
403.830;  -58.175; -531.000; -496.000
403.957; -140.875;-1117.000;-1023.000
404.085;   25.775;  -61.000; -172.000
404.212;  104.425;  -50.000;   63.000
404.339;  244.625; -566.000; -306.000
404.467; 5081.625; -612.000; -524.000
404.594; 3783.950; -287.000; -227.000
404.721; 1019.875; -869.000; -764.000
404.848;   91.850; -113.000; -202.000
404.976;  -90.650; -856.000; -783.000
405.103;   -1.975;  -14.000;  -82.000
405.230;   -6.425;  190.000;  226.000
405.357;   38.725;  117.000;   44.000
405.484;  220.750;  -49.000;    5.000
405.612;   60.950; -548.000; -563.000
405.739;  -59.600; -488.000; -243.000
405.866;   88.575;  669.000;  385.000
405.993;  -40.275; -398.000; -102.000
406.120; -135.600; -801.000; -887.000
406.247;  -56.175; -323.000; -342.000
406.374;  575.000;  540.000;  629.000
406.501;  203.100; -632.000; -702.000
406.628;  -75.425; -621.000; -589.000
406.755;  -88.150; -803.000; -620.000
406.882;  -35.375; -228.000; -277.000
407.009;  -88.125; -719.000; -628.000
407.136;   89.650; -480.000; -401.000
407.263;  230.025; -939.000; -829.000
407.390;  -59.775; -692.000; -614.000
407.517; -154.575;-1139.000;-1187.000
407.644;  -54.775; -332.000; -256.000
407.771;  -47.275; -249.000; -287.000
407.898;    3.150;  168.000;  328.000
408.025;  -55.950; -421.000; -313.000
408.151;   -3.525;   82.000;  153.000
408.278;  -67.400; -267.000; -216.000
408.405; -103.075; -931.000; -899.000
408.532;  -59.000; -549.000; -542.000
408.659; -118.275; -677.000; -648.000
408.785; -204.950;-1298.000;-1170.000
408.912;  -61.250; -412.000; -296.000
409.039; -117.475; -610.000; -686.000
409.166; -109.275; -591.000; -555.000
409.292; -104.925; -571.000; -534.000
409.419; -134.550; -665.000; -649.000
409.546;  -84.775; -431.000; -192.000
409.672; -116.425; -713.000; -545.000
409.799;   -9.875;  -36.000;   34.000
409.926;  -31.700; -180.000; -179.000
410.052; -160.475;-1127.000;-1091.000
410.179;  -54.800; -368.000; -392.000
410.305; -104.150; -375.000; -493.000
410.432;  -38.650; -220.000; -333.000
410.558;  -78.575; -305.000; -380.000
410.685; -104.675; -688.000; -431.000
410.812;  -77.450; -409.000; -588.000
410.938; -133.100; -964.000; -808.000
411.065;  -98.475; -671.000; -645.000
411.191;   -5.425; -189.000; -174.000
411.317; -105.850; -823.000; -742.000
411.444;  -68.475; -317.000; -246.000
411.570;  -72.900; -339.000; -294.000
411.697; -130.400; -758.000; -752.000
411.823; -162.325; -989.000; -999.000
411.949;  -25.475;  -56.000;   17.000
412.076; -108.950; -539.000; -519.000
412.202; -113.075; -758.000; -757.000
412.329; -126.625; -798.000; -752.000
412.455; -113.900; -821.000; -657.000
412.581;  -17.250;  -15.000;  172.000
412.707;  -45.825; -540.000; -457.000
412.834;   25.075;  156.000;  219.000
412.960;  -79.925; -785.000; -784.000
413.086;  -90.925; -743.000; -701.000
413.212;  179.775;  604.000;  578.000
413.339;  -44.100; -685.000; -701.000
413.465;   37.975; -364.000; -310.000
413.591;  -87.525; -757.000; -474.000
413.717;  -50.825; -358.000; -366.000
413.843; -145.875; -839.000; -861.000
413.969;  -46.025;  -47.000; -292.000
414.096;  -89.525; -679.000; -679.000
414.222;    3.150;  -33.000;   85.000
414.348;   -6.000; -652.000; -385.000
414.474;  148.700;   38.000;  -52.000
414.600;   -9.575; -126.000; -144.000
414.726;   -8.075;  -96.000;  -55.000
414.852;  -64.775; -365.000; -342.000
414.978;   35.900;  104.000;  -18.000
415.104;   40.925;   38.000;   80.000
415.230;   19.650; -329.000; -330.000
415.356;   33.500; -409.000; -514.000
415.482;  206.800;   13.000;  -35.000
415.608;  249.550; -247.000; -323.000
415.734;  888.525;   67.000;   38.000
415.860;18339.475; -875.000; -767.000
415.986;13752.250; -685.000; -607.000
416.111; 1188.250; -798.000; -652.000
416.237;  227.950; -424.000; -571.000
416.363;  955.125; -765.000; -733.000
416.489; 3730.925; -324.000; -251.000
416.615;  403.525; -707.000; -742.000
416.741;  -41.950; -677.000; -784.000
416.866;  -95.575; -673.000; -736.000
416.992; -123.925; -801.000; -818.000
417.118;  -24.300;  -41.000;  -80.000
417.244;  -48.025; -798.000; -531.000
417.369;  -69.150; -801.000; -612.000
417.495;    3.725; -325.000; -254.000
417.621;  -73.300;-1015.000; -803.000
417.746;   -3.875; -579.000; -572.000
417.872;   43.175; -254.000; -144.000
417.998;   60.975; -515.000; -530.000
418.123;  903.925;-1073.000; -845.000
418.249; 4863.725; -512.000; -601.000
418.374;  701.525; -916.000; -824.000
418.500;  104.475; -383.000; -482.000
418.626;   92.650;   70.000;  -59.000
418.751;  118.150; -549.000; -448.000
418.877;  163.550; -637.000; -643.000
419.002; 1564.275; -688.000; -560.000
419.128;11231.650; -930.000; -721.000
419.253; 2863.675; -967.000; -837.000
419.379;  375.200; -391.000; -338.000
419.504;  370.975;  325.000;  415.000
419.629;  461.075; -393.000; -212.000
419.755; 2982.700; -317.000; -254.000
419.880;18172.425;  -98.000;   67.000
420.006;10164.250; -280.000; -221.000
420.131;26874.850; -662.000; -775.000
420.256; 4039.375; -315.000; -316.000
420.382;  522.550; -665.000; -687.000
420.507;   70.925; -649.000; -778.000
420.632;  187.975; -337.000; -339.000
420.758;  386.675; -251.000; -425.000
420.883;  -75.125; -876.000; -672.000
421.008;  -86.800; -775.000; -619.000
421.133;  -69.275; -509.000; -467.000
421.259;  -28.550; -325.000; -259.000
421.384;  -93.650; -834.000; -693.000
421.509;    2.575;-1052.000; -862.000
421.634; 1698.750; -936.000; -820.000
421.759;  766.525; -359.000; -327.000
421.885;  -11.325; -717.000; -656.000
422.010;  -72.325; -673.000; -542.000
422.135; -146.250; -695.000; -727.000
422.260;   59.175;  340.000;  280.000
422.385;  -50.825;   12.000;  -98.000
422.510;   -0.100;  151.000;  -26.000
422.635;   27.925;  -87.000;  -43.000
422.760;  147.575; -766.000; -791.000
422.885;   65.825;  -57.000;  -80.000
423.010;  -25.200; -112.000; -169.000
423.135;  -99.625; -481.000; -561.000
423.260;   -4.025; -150.000; -245.000
423.385;   80.775;  476.000;  222.000
423.510;   50.475;   71.000;  -22.000
423.635;  103.875;  133.000;   45.000
423.760;   67.175;  383.000;  328.000
423.885;   53.275;  336.000;  391.000
424.010;    9.075;  -68.000;  -13.000
424.135;   -9.225;    5.000;  -33.000
424.259;  -91.850; -654.000; -457.000
424.384;  -58.175; -279.000; -272.000
424.509;  -19.925; -260.000; -186.000
424.634;  -93.175; -761.000; -623.000
424.759;  -21.975; -688.000; -544.000
424.883;   -1.350; -506.000; -527.000
425.008;  166.800; -502.000; -410.000
425.133; 1831.475; -679.000; -653.000
425.258;  878.600; -517.000; -381.000
425.382; 1265.575; -867.000; -774.000
425.507; 3328.750; -487.000; -543.000
425.632;  513.150; -802.000; -663.000
425.756;  424.825; -256.000; -146.000
425.881; 5337.075; -831.000; -857.000
426.006;14865.700; -604.000; -355.000
426.130; 2506.300; -696.000; -508.000
426.255;  319.050; -611.000; -491.000
426.379;  138.225; -189.000; -577.000
426.504;  334.400;  660.000;  544.000
426.629; 3737.525; -519.000; -466.000
426.753; 2662.400;   64.000;  -46.000
426.878;  309.125; -252.000; -288.000
427.002;  133.575; -651.000; -668.000
427.127; 1447.875;  -35.000; -158.000
427.251;10153.500;  372.000;  401.000
427.375; 3058.450; -191.000; -173.000
427.500; 2821.250; -616.000; -610.000
427.624; 1013.450; -234.000; -400.000
427.749;  138.425; -216.000; -225.000
427.873;  -34.675; -499.000; -412.000
427.997;  -39.900; -222.000; -230.000
428.122;   76.700;  795.000;  703.000
428.246;   95.675;  433.000;  434.000
428.371; -117.375; -869.000; -773.000
428.495;  -95.450; -624.000; -646.000
428.619;  -29.350; -186.000; -117.000
428.743;   31.300;   65.000;  132.000
428.868;   45.250; -732.000; -643.000
428.992; 1812.525; -219.000; -326.000
429.116;  766.700; -329.000; -357.000
429.240;  354.600;  419.000;  426.000
429.365;    1.750; -454.000; -574.000
429.489;  -20.725; -638.000; -647.000
429.613;   24.650; -236.000; -177.000
429.737;   19.950; -563.000; -432.000
429.861;  260.850; -247.000; -133.000
429.985; 4999.175; -425.000; -305.000
430.109; 5646.700; -770.000; -908.000
430.234;  661.075;   76.000;  -50.000
430.358;   60.725; -250.000; -160.000
430.482;  -62.425; -672.000; -564.000
430.606;  -58.300; -655.000; -375.000
430.730;   34.850; -437.000; -388.000
430.854;  212.900; -909.000; -835.000
430.978;  -48.900; -795.000; -764.000
431.102;  -81.700; -499.000; -422.000
431.226; -108.300; -874.000; -815.000
431.350;   33.000;  345.000;  422.000
431.474;  -65.225; -661.000; -373.000
431.597; -137.725;-1060.000; -848.000
431.721;  -90.325; -276.000; -267.000
431.845; -143.775; -704.000; -472.000
431.969;  -92.200; -304.000; -349.000
432.093;  -97.400; -395.000; -317.000
432.217;   -5.825;   32.000;   82.000
432.341;  -96.175; -523.000; -518.000
432.464;   12.350;   96.000;   40.000
432.588;  296.600; -401.000; -329.000
432.712;  148.225;  -52.000;  -52.000
432.836;   54.175;  213.000;  263.000
432.959;  -24.825; -372.000; -311.000
433.083;   77.075;   11.000;    2.000
433.207;  335.675;  285.000;  930.000
433.330; 4429.100; -391.000; -200.000
433.454; 5612.425; -654.000; -638.000
433.578; 3247.150;  583.000;  278.000
433.701;  654.550; -623.000; -675.000
433.825;  197.525; -292.000; -299.000
433.949;  287.750;   28.000;  -72.000
434.072;  140.875; -410.000; -323.000
434.196;    0.625; -309.000; -117.000
434.319; 3669.900;25482.000;25124.000
434.443;  713.075; -656.000; -603.000
434.566; 2432.975;  281.000;   62.000
434.690;  406.425; -637.000; -383.000
434.813;   51.450; -251.000; -173.000
434.937;  -76.000; -569.000; -696.000
435.060;   -2.750; -423.000; -332.000
435.184;  518.450; -492.000; -217.000
435.307;  291.650;  159.000;  102.000
435.431;    6.450;  -40.000;   24.000
435.554;  -60.450; -399.000; -240.000
435.677;  -90.825; -350.000; -258.000
435.801;  -47.275;  -25.000;   49.000
435.924;    3.450;    1.000;  -67.000
436.048;  -73.500;-1019.000; -732.000
436.171;  -55.900; -240.000;  -66.000
436.294;  -40.200; -248.000; -229.000
436.417;   61.600; -963.000; -849.000
436.541;  -77.325; -814.000; -840.000
436.664;  -48.700; -242.000; -316.000
436.787;  -21.850;   13.000;  113.000
436.910; -109.950; -792.000; -422.000
437.034;   17.125;  142.000;  143.000
437.157;  101.850;  -11.000;    0.000
437.280;  -30.975; -392.000; -292.000
437.403;  -50.525; -982.000; -869.000
437.526;  955.350; -903.000; -865.000
437.649; 3374.075; -505.000; -332.000
437.772;  579.200; -692.000; -540.000
437.896;  168.350;  700.000;  544.000
438.019;  -69.125; -758.000; -503.000
438.142;  -83.050; -596.000; -506.000
438.265;   24.575; -639.000; -670.000
438.388;  798.275; -520.000; -410.000
438.511;  194.850; -597.000; -394.000
438.634;  -28.100; -247.000; -125.000
438.757; -130.550; -693.000; -619.000
438.880;  -23.375;  -34.000;  -57.000
439.003;  -71.875; -417.000; -437.000
439.126;  -57.650; -287.000; -167.000
439.248;  -68.000;  -98.000; -139.000
439.371;  -42.650;    9.000;  -53.000
439.494;   24.325;  510.000;  439.000
439.617;  -55.275;   65.000;  -88.000
439.740; -178.150; -968.000; -816.000
439.863; -143.200; -755.000; -595.000
439.986; -123.600; -476.000; -431.000
440.108;  -51.700; -161.000; -112.000
440.231; -153.775; -950.000; -836.000
440.354;  -33.800;  -64.000; -150.000
440.477;   80.350; -566.000; -542.000
440.599;   43.800; -200.000; -225.000
440.722; -124.725; -709.000; -586.000
440.845;   66.350;  751.000;  928.000
440.968; -103.800; -415.000; -311.000
441.090;  -75.350; -199.000;  -33.000
441.213; -184.625;-1021.000; -825.000
441.336;  -55.375; -159.000;   -5.000
441.458;  -75.650; -549.000; -396.000
441.581;  -67.175; -628.000; -629.000
441.703;  -61.650; -152.000;   13.000
441.826; -118.800; -557.000; -400.000
441.948;  -64.250;   56.000;   51.000
442.071;   21.625;  555.000;  424.000
442.193; -106.100; -531.000; -485.000
442.316;   29.025;  152.000;   97.000
442.438;   50.575; -233.000;  -10.000
442.561;   94.125;  272.000;  262.000
442.683;  790.650; -809.000; -522.000
442.806; 1711.350;   -8.000;   74.000
442.928;  120.650; -859.000; -604.000
443.051;  -63.400; -577.000; -373.000
443.173;  -83.625; -341.000; -339.000
443.295;  -93.275; -263.000; -371.000
443.418;  -60.050; -321.000;  -29.000
443.540;   -3.950; -106.000;   -4.000
443.662; -104.475; -563.000; -465.000
443.785;  -16.575;  335.000;  199.000
443.907; -104.250; -362.000; -208.000
444.029; -128.225; -767.000; -494.000
444.152; -156.225; -644.000; -554.000
444.274;  -33.350;  -18.000;  -24.000
444.396; -122.500; -461.000; -221.000
444.518; -118.600; -691.000; -454.000
444.640; -112.550; -268.000; -111.000
444.763;  -15.075;  388.000;  249.000
444.885; -116.625; -432.000; -392.000
445.007;  -44.775;   35.000;   86.000
445.129; -111.825; -610.000; -515.000
445.251; -107.725; -372.000; -439.000
445.373; -130.600; -537.000; -386.000
445.495;   14.575;  242.000;  350.000
445.617;   44.900;  853.000;  753.000
445.739;  -64.600; -215.000;  -97.000
445.861;  -26.450; -245.000; -112.000
445.984;  -35.825; -267.000; -101.000
446.105;  291.125; -418.000; -251.000
446.227;  854.475; -176.000;  -19.000
446.349;   57.825; -358.000; -249.000
446.471;  -74.425; -615.000; -448.000
446.593;  -60.025; -316.000;   19.000
446.715;    2.150;  -67.000;   41.000
446.837;   67.125;  697.000;  832.000
446.959;  -98.350; -457.000; -478.000
447.081; -123.500; -628.000; -518.000
447.203;   50.275;  862.000;  834.000
447.325;  -93.225; -270.000;   42.000
447.446;   -5.275;  286.000;  530.000
447.568; -147.700; -921.000; -803.000
447.690;  -75.125; -236.000; -245.000
447.812; -139.525; -798.000; -519.000
447.933;  -33.500;  155.000;  127.000
448.055;  -77.650; -306.000; -261.000
448.177;  177.000;   31.000;   79.000
448.299;  167.700; -935.000; -727.000
448.420;   47.550;  -25.000;  159.000
448.542;  -48.050;   -3.000;   33.000
448.664;  -20.575;  109.000;  322.000
448.785;  -35.650;  265.000;   83.000
448.907;  -83.925; -614.000; -353.000
449.028;   14.125; -771.000; -471.000
449.150;   75.300;  492.000;  589.000
449.272; -177.025;-1044.000; -913.000
449.393;   40.775;  612.000;  694.000
449.515; -154.175; -634.000; -581.000
449.636;  -58.325; -264.000; -155.000
449.758;   63.175;  763.000;  622.000
449.879;  -92.550; -498.000; -396.000
450.001;  -77.600; -149.000;  -49.000
450.122;  -38.725;  -95.000;  162.000
450.244;  -37.950;   37.000;  364.000
450.365;  -93.450; -495.000; -301.000
450.486;  -28.825;   80.000;  268.000
450.608;    8.400;  393.000;  326.000
450.729;   63.000;  578.000;  645.000
450.850;  -11.575; -574.000; -466.000
450.972;  586.125; -552.000; -389.000
451.093; 4207.550;  190.000;  588.000
451.214; 1888.325; -516.000; -337.000
451.336;  348.525;  773.000;  579.000
451.457;   48.975;  264.000;  393.000
451.578;  -39.225; -118.000;  -74.000
451.699; -128.875; -546.000; -540.000
451.821;  -63.500; -284.000;  -50.000
451.942;  -15.275;  278.000;  285.000
452.063;   36.050;  228.000;  419.000
452.184;  490.300;  -54.000;  -49.000
452.305;  976.350;  103.000;  170.000
452.427;  121.475; -549.000; -301.000
452.548;  -18.725;   23.000;   79.000
452.669;  -41.500; -257.000;  -89.000
452.790;  -36.950;    3.000;  -18.000
452.911;  -20.725;  195.000;  259.000
453.032;  -75.200; -289.000;  -60.000
453.153;  -46.975;  -29.000;   81.000
453.274;   60.200;  737.000;  868.000
453.395;  -41.925;  -51.000;  175.000
453.516;  130.450; 1317.000; 1388.000
453.637;  -66.850; -205.000; -150.000
453.758;  -47.750;   15.000;   69.000
453.879; -122.225; -462.000; -250.000
454.000;   77.800; 1086.000;  948.000
454.121; -111.400; -554.000; -326.000
454.242; -123.050; -599.000; -383.000
454.362;  -60.375;  -99.000;  114.000
454.483;  -30.725; -309.000; -229.000
454.604;   79.575;  512.000;  580.000
454.725; -113.225; -627.000; -555.000
454.846; -127.225; -474.000; -406.000
454.967;  -16.575;  230.000;  539.000
455.087;  -55.450;  179.000;  153.000
455.208;   11.925;  554.000;  856.000
455.329;  -61.775;  -22.000;   82.000
455.450;   27.925;  473.000;  633.000
455.570;  -89.725; -234.000; -211.000
455.691;  -44.500;  201.000;  407.000
455.812; -107.650; -270.000;  -92.000
455.932;  -76.125;  107.000;  -97.000
456.053;  -87.500;   36.000;   24.000
456.173; -108.125; -433.000; -355.000
456.294; -137.875; -476.000; -303.000
456.415;  -71.675;  -73.000;   70.000
456.535;  -28.600;  297.000;  273.000
456.656;  -47.400;  132.000;  240.000
456.776;  -67.075;    3.000;  298.000
456.897;  -18.525;  308.000;  513.000
457.017;  -71.850; -153.000;   -3.000
457.138; -102.475; -402.000; -249.000
457.258;  -22.700;  263.000;  224.000
457.379;  -14.350;  509.000;  521.000
457.499;  -29.425;  443.000;  432.000
457.620; -124.100; -407.000; -231.000
457.740; -108.900; -132.000;  -11.000
457.860;  -53.800;   87.000;   44.000
457.981;  -45.125;  132.000;  124.000
458.101;  -74.425;  -89.000;   40.000
458.221;  -22.325;  336.000;  402.000
458.342;  -64.725;   -4.000;  -37.000
458.462;    5.750;  617.000;  352.000
458.582;  -53.050; -302.000; -294.000
458.703;   -5.725;  303.000;  154.000
458.823;  -29.175;   22.000;  163.000
458.943;   19.625;  341.000;  467.000
459.063;  -16.775; 1124.000;  192.000
459.183;  -23.950;  328.000;  313.000
459.304;    5.225;  315.000;  517.000
459.424;  -71.175; -246.000;  -89.000
459.544;  280.075;  388.000;  764.000
459.664;  733.675;  499.000;  506.000
459.784;  276.450; 1004.000; 1175.000
459.904;   55.200;  867.000;  744.000
460.024;   76.700;  867.000;  684.000
460.144;   16.775;  449.000;  554.000
460.264;   -2.500;  515.000;  327.000
460.385; -100.575; -145.000; -119.000
460.505;   25.225;  905.000;  858.000
460.625;  -94.800;  -17.000;  -68.000
460.745;  -24.975;  396.000;  541.000
460.864;  -48.250;  153.000;  469.000
460.984;   22.100;  499.000;  573.000
461.104;  137.150; 1656.000; 1775.000
461.224;   22.275;  657.000;  650.000
461.344;  -34.675;  431.000;  360.000
461.464;  -32.075;  258.000;  513.000
461.584;  -18.150;  283.000;  466.000
461.704;  -43.600;   58.000;  108.000
461.824;  -72.700;  238.000;  259.000
461.943;  -39.250;  191.000;  130.000
462.063;  -72.325;    2.000;  324.000
462.183;   30.125;  639.000;  717.000
462.303;  108.925; 1678.000; 1230.000
462.422;   52.975;  781.000;  840.000
462.542;  -32.450;  271.000;  391.000
462.662;   36.425;  353.000;  380.000
462.782;  205.800;  833.000;  572.000
462.901;  436.450;  545.000;  717.000
463.021;  271.500; 1702.000; 1638.000
463.141;  -20.850;  337.000;  770.000
463.260;  -18.575;  614.000;  474.000
463.380;   12.050;  902.000;  884.000
463.499;  -47.800;  342.000;  332.000
463.619;  -34.700;  581.000;  559.000
463.738;  108.550; 1644.000;  903.000
463.858;   28.375;  657.000;  811.000
463.978;  -31.650;  542.000;  396.000
464.097;   54.125;  921.000; 1114.000
464.217;   99.250; 1196.000; 1143.000
464.336;   88.075; 1068.000; 1130.000
464.455;  -41.350;  328.000;  659.000
464.575;   67.400;  597.000;  602.000
464.694;  192.550; 1204.000; 1179.000
464.814;  117.625; 1190.000; 1138.000
464.933;   88.400; 1095.000; 1027.000
465.052;  107.850; 1412.000; 1054.000
465.172;   92.750;  922.000;  799.000
465.291;  147.800; 1376.000; 1320.000
465.410;   15.150;  462.000;  735.000
465.530;   79.550; 1355.000; 1310.000
465.649;   67.350; 1209.000; 1273.000
465.768;  143.550; 1673.000; 1508.000
465.888;   48.300;  941.000; 1174.000
466.007;   77.250; 1335.000; 1440.000
466.126;  -10.225;  721.000;  641.000
466.245;   40.975; 1176.000; 1187.000
466.364;   22.225;  950.000; 1060.000
466.484;   57.775; 1024.000; 1213.000
466.603;   45.975; 1101.000; 1222.000
466.722;  137.725; 1490.000; 1769.000
466.841;   80.450; 1151.000; 1401.000
466.960;   27.375; 1069.000;  972.000
467.079;  118.400; 1971.000; 1786.000
467.198;   48.350; 1238.000; 1181.000
467.317;   85.200; 1768.000; 1162.000
467.436;   52.325; 1709.000; 1261.000
467.555;  123.025; 1796.000; 1746.000
467.674;   65.650; 1227.000; 1329.000
467.793;   48.250; 1376.000; 1374.000
467.912;   84.400; 1658.000; 1539.000
468.031;  130.725; 2038.000; 1930.000
468.150;  147.050; 1842.000; 1837.000
468.269;  200.525; 2313.000; 2090.000
468.388;  186.350; 2168.000; 2339.000
468.507;  253.225; 2884.000; 2903.000
468.626;  277.550; 2555.000; 2541.000
468.744;  138.550; 2018.000; 2174.000
468.863;  193.925; 2312.000; 2523.000
468.982;  100.650; 1503.000; 1555.000
469.101;  213.550; 2788.000; 2692.000
469.220;  154.225; 2333.000; 2176.000
469.338;  246.650; 2935.000; 3051.000
469.457;  195.800; 2719.000; 2545.000
469.576;  342.400; 3953.000; 3784.000
469.695;  231.500; 2877.000; 3066.000
469.813;  427.000; 4148.000; 4192.000
469.932;  393.000; 4255.000; 4485.000
470.051;  417.525; 4075.000; 4161.000
470.169;  802.700; 4470.000; 4338.000
470.288; 1371.550; 4700.000; 4809.000
470.406;  822.450; 5059.000; 5194.000
470.525;  622.175; 6101.000; 5787.000
470.644;  656.250; 6847.000; 6794.000
470.762;  815.600; 8397.000; 7873.000
470.881;  896.200; 8651.000; 8464.000
470.999; 1038.375; 9685.000; 9151.000
471.118; 1111.600;11174.000;10711.000

