
Integration time [ms]: 100.000
Averaging Nr. [scans]: 40
Smoothing Nr. [pixels]: 0
Data measured with spectrometer [name]: 2101012U2
Wave   ;Sample   ;Dark     ;Reference
[nm]   ;[counts] ;[counts] ;[counts] 

197.733;   54.775;  516.000;  404.000
197.879;  -81.325; -610.000; -634.000
198.025;  -49.225; -475.000; -420.000
198.171;  -86.250; -602.000; -612.000
198.317;  -35.300; -401.000; -316.000
198.463;  -57.100; -655.000; -404.000
198.609;   33.950;  181.000; -137.000
198.755;  -70.975; -644.000; -410.000
198.901;  -66.750; -505.000; -424.000
199.047;  -63.925; -615.000; -488.000
199.193;  -35.700; -230.000; -468.000
199.339;  -47.900; -222.000; -369.000
199.485;   43.250;  330.000;  271.000
199.631;    9.225;  227.000;  310.000
199.777;  -44.525; -466.000; -398.000
199.923;  -70.300; -610.000; -424.000
200.069;   -1.800; -141.000;  -58.000
200.215;   61.375;  128.000;  453.000
200.361;   45.175;  243.000;  477.000
200.507;  -65.125; -600.000; -373.000
200.653;  -32.300; -371.000; -194.000
200.798;  -30.000; -215.000; -125.000
200.944;    0.250; -146.000;  -41.000
201.090;   38.725;   61.000;  222.000
201.236;  -10.625; -116.000; -158.000
201.382;  126.450;  874.000;  903.000
201.528;    7.700;  -58.000;  -48.000
201.674;  -63.350; -386.000; -293.000
201.819;  -61.275; -540.000; -439.000
201.965;  -83.700; -699.000; -447.000
202.111;  -17.125; -273.000; -226.000
202.257;  -27.600; -250.000; -238.000
202.402;   16.200;   13.000;  -36.000
202.548;  -30.175; -169.000; -116.000
202.694;   87.300;  410.000; -183.000
202.840;  -75.700; -603.000; -531.000
202.985;  -59.850; -681.000; -639.000
203.131;  -99.625; -832.000; -666.000
203.277;  -20.400; -199.000; -262.000
203.423;  -54.775; -434.000; -520.000
203.568;  -47.350; -462.000; -237.000
203.714;  -49.750; -535.000; -542.000
203.860;  -88.100; -682.000; -641.000
204.005;   19.200;  112.000;  167.000
204.151;   85.850;  561.000;  556.000
204.296;  -36.600; -354.000; -221.000
204.442;  -70.650; -600.000; -547.000
204.588;  -72.125; -592.000; -579.000
204.733;   28.400;  178.000;  168.000
204.879; -120.250;-1018.000; -822.000
205.025;   16.150;  -99.000;  126.000
205.170;    8.525;  -17.000;   94.000
205.316;   71.950;  438.000;  661.000
205.461;  -88.250; -698.000; -554.000
205.607;   85.375;  609.000;  665.000
205.752;  -94.375; -626.000; -551.000
205.898;  -54.575; -501.000; -391.000
206.043;  -64.375; -578.000; -506.000
206.189;  -44.900; -243.000; -285.000
206.334;   61.750;  554.000;  606.000
206.480;   81.775;  409.000;  239.000
206.625;  -81.950; -529.000; -552.000
206.771;  -43.300; -451.000; -373.000
206.916;  -32.175; -210.000; -537.000
207.062;  -81.100; -545.000; -591.000
207.207;  -82.225; -546.000; -443.000
207.353;   59.175;  185.000;  460.000
207.498;   17.425;  196.000;   85.000
207.643;  -51.725; -501.000; -370.000
207.789; -131.450;-1069.000; -910.000
207.934;  -88.825; -665.000; -713.000
208.080;  -22.825; -154.000;   66.000
208.225;  -14.750;  -22.000;  -57.000
208.370;  -93.350; -727.000; -619.000
208.516;  -65.325; -741.000; -487.000
208.661;  -33.125; -127.000;  -69.000
208.806;  -13.675; -165.000; -171.000
208.952; -117.350;-1044.000; -731.000
209.097;   87.750;  378.000;  349.000
209.242;  -57.525; -307.000; -382.000
209.387;   70.550;  392.000;  350.000
209.533;  -42.700; -321.000; -350.000
209.678;   72.225;  472.000;  543.000
209.823;  -60.225; -408.000; -310.000
209.969; -101.625; -860.000; -757.000
210.114; -118.375; -907.000; -719.000
210.259; -112.625; -939.000; -889.000
210.404;    2.200; -171.000;  103.000
210.549;   17.925;  108.000;    3.000
210.695;  -10.750;   -3.000;  -95.000
210.840;   39.775;   94.000;   67.000
210.985;  -72.850; -484.000; -303.000
211.130;   77.775;  268.000;  406.000
211.275;   20.725;  207.000;  199.000
211.420;  -47.925; -300.000; -289.000
211.566;  -71.900; -536.000; -489.000
211.711;    8.425;  218.000;  157.000
211.856;  -74.750; -545.000; -519.000
212.001;   21.450;  151.000;   44.000
212.146;   25.800;  153.000;   49.000
212.291;  -11.250; -210.000; -186.000
212.436;  -27.975; -280.000;   -6.000
212.581;  -88.825; -685.000; -653.000
212.726;  -68.275; -487.000; -538.000
212.871;  -55.375; -552.000; -217.000
213.016; -144.250;-1172.000;-1029.000
213.161;   66.350;  406.000;  291.000
213.306;  -73.625; -435.000; -577.000
213.451;  -95.675; -778.000; -689.000
213.596;  -54.150; -455.000; -347.000
213.741;  -48.925; -448.000; -538.000
213.886;  -83.550; -498.000; -517.000
214.031;  -21.650; -294.000; -124.000
214.176;  -49.600; -408.000; -341.000
214.321;  -28.800; -296.000; -157.000
214.466;  -18.075; -163.000;  -43.000
214.611;    1.950;  -61.000;  -10.000
214.756; -118.350; -948.000; -858.000
214.901;  -24.175; -388.000; -226.000
215.046; -126.100; -797.000; -825.000
215.191;   17.925;  128.000;   35.000
215.336;  -24.250; -157.000;  -19.000
215.480;  -75.525; -684.000; -505.000
215.625;  -21.200; -175.000;  -19.000
215.770;  -84.300; -757.000; -662.000
215.915;  -11.000;   -5.000;  -97.000
216.060;    7.875; -113.000;  -21.000
216.205; -115.800; -731.000; -779.000
216.349;  -67.800; -470.000; -533.000
216.494; -129.225; -939.000; -867.000
216.639; -114.050; -823.000; -888.000
216.784; -104.925; -577.000; -525.000
216.929;   54.875;  392.000;  281.000
217.073;  -21.900; -244.000;  -31.000
217.218;   11.325;   78.000;  -47.000
217.363;  -90.250; -656.000; -618.000
217.507;  -86.375; -623.000; -588.000
217.652; -124.550; -845.000; -874.000
217.797;  -84.575; -708.000; -659.000
217.942; -106.925; -856.000; -720.000
218.086;   76.425;  608.000;  539.000
218.231;  -16.125; -174.000;  -26.000
218.376;  -37.250; -337.000; -229.000
218.520;   -4.250;  -41.000;   96.000
218.665;  -31.550; -338.000; -204.000
218.810;  -41.350; -275.000; -233.000
218.954;   14.675;  201.000;   35.000
219.099; -102.550; -713.000; -963.000
219.243;  -86.250; -589.000; -554.000
219.388;  -41.125; -264.000; -136.000
219.532;  -13.075; -116.000; -116.000
219.677;  -81.525; -564.000; -521.000
219.822;   -9.275;   33.000;   89.000
219.966;    1.400;   17.000;  -99.000
220.111;  -27.375; -328.000;  -40.000
220.255;  -98.775; -797.000; -750.000
220.400;   -7.275; -180.000; -146.000
220.544;  -71.850; -516.000; -450.000
220.689;  -56.000; -422.000; -451.000
220.833;  -34.350; -123.000;  -58.000
220.978;  -34.550; -393.000; -563.000
221.122;   17.575;  319.000;  307.000
221.267; -115.950; -906.000; -837.000
221.411;  -62.125; -478.000; -394.000
221.555;  -12.950; -104.000;  -23.000
221.700;  -50.050; -329.000; -222.000
221.844;   34.700;  255.000;  272.000
221.989;  -38.075; -328.000; -311.000
222.133;  -41.700; -289.000; -307.000
222.277;   -6.975;    5.000;   78.000
222.422;   13.575;  227.000;  113.000
222.566;  -43.475; -381.000; -214.000
222.711;  -51.250; -414.000; -479.000
222.855;  -86.000; -643.000; -586.000
222.999;  -88.075; -642.000; -717.000
223.144;  -26.850; -195.000; -194.000
223.288;   55.825;  423.000;  251.000
223.432;   35.625;  184.000;  230.000
223.576;   17.900;  152.000;  -21.000
223.721;   36.850;  364.000;  273.000
223.865;  -58.400; -472.000; -475.000
224.009;  265.050; 1673.000; 1631.000
224.153;  -78.975; -660.000; -671.000
224.298;  -71.200; -531.000; -489.000
224.442;   -6.925;  -74.000;  -33.000
224.586;  -14.150; -169.000; -106.000
224.730;  -98.350; -858.000; -670.000
224.875; -118.625; -739.000; -688.000
225.019;   15.100;  102.000;  188.000
225.163;   40.250;  208.000;  341.000
225.307;   23.475;   97.000;  -91.000
225.451;   30.300;  360.000;  481.000
225.595;   31.575;  264.000;  176.000
225.739;  -33.850; -170.000;  -94.000
225.884;    3.350;   86.000;    5.000
226.028; -104.300; -760.000; -626.000
226.172;  -49.225; -260.000; -273.000
226.316; -122.025; -941.000; -902.000
226.460;  -73.250; -645.000; -493.000
226.604;  -50.275; -406.000; -400.000
226.748;  -99.625; -836.000; -733.000
226.892;  -37.750; -227.000; -181.000
227.036;  -46.350; -537.000; -447.000
227.180;  -45.275; -551.000; -375.000
227.324;  -63.750; -561.000; -580.000
227.468; -109.775; -819.000; -717.000
227.612;   13.450;  242.000;  -28.000
227.756;  -95.850; -845.000; -698.000
227.900;   43.125;  342.000;  441.000
228.044;  -60.375; -509.000; -290.000
228.188;   62.275;  448.000;  568.000
228.332;  -78.975; -546.000; -472.000
228.476;  -34.175; -223.000; -149.000
228.620;  -37.775; -210.000; -150.000
228.764;   68.900;  431.000;  349.000
228.908;  -24.100; -155.000;   30.000
229.052;  -61.525; -615.000; -528.000
229.195;   -7.250; -172.000;   13.000
229.339;   -8.550; -235.000; -305.000
229.483;  -29.700;    5.000; -162.000
229.627;    0.825; -156.000;  139.000
229.771;  -60.375; -218.000; -294.000
229.915;   -0.575;  230.000;   79.000
230.059; -109.675; -648.000; -663.000
230.202;  -39.750; -370.000; -317.000
230.346;  -21.925; -107.000;  107.000
230.490;  -63.125; -489.000; -521.000
230.634; -109.900; -736.000; -553.000
230.777;   69.350;  478.000;  509.000
230.921;  -49.575; -450.000; -359.000
231.065;  -48.475; -246.000; -286.000
231.209;   23.300;  261.000;  265.000
231.352;   14.950;   54.000;   40.000
231.496;   30.775;  568.000;  188.000
231.640;  -82.725; -693.000; -621.000
231.783;   60.225;  546.000;  525.000
231.927;  -50.000; -294.000; -365.000
232.071; -118.600; -962.000; -736.000
232.214; -114.825; -980.000; -764.000
232.358; -103.525; -683.000; -599.000
232.502;    0.625;  -19.000;    7.000
232.645; -150.800;-1090.000; -927.000
232.789;  -22.900; -257.000; -218.000
232.933;  -43.250; -407.000; -224.000
233.076; -126.200;-1038.000; -897.000
233.220; -105.175; -752.000; -777.000
233.363;  -78.150; -669.000; -477.000
233.507;   50.675;  371.000;  129.000
233.650;  -96.525; -764.000; -834.000
233.794;   32.825;  438.000;  461.000
233.938;  -57.400; -530.000; -362.000
234.081;  -28.725;  -93.000;   31.000
234.225;  -71.100; -631.000; -539.000
234.368; -118.075; -773.000; -723.000
234.512;  -37.200; -385.000; -299.000
234.655;  -86.925; -582.000; -555.000
234.798;  -72.700; -493.000; -466.000
234.942; -142.500; -884.000;-1002.000
235.085;  -80.550; -651.000; -443.000
235.229;  -70.900; -405.000; -410.000
235.372;  -48.875; -247.000; -191.000
235.516;  -56.100; -397.000; -321.000
235.659;   17.950;   92.000;  121.000
235.802;  -15.400;  -38.000;  -22.000
235.946;   27.200;  335.000;  215.000
236.089;   21.450;  126.000;  250.000
236.233;   50.125;  275.000;  298.000
236.376;  -50.500; -235.000; -378.000
236.519;  -46.325; -297.000; -319.000
236.663;   -8.100; -215.000; -117.000
236.806; -138.825;-1029.000; -999.000
236.949;   67.150;  543.000;  431.000
237.092;   60.800;  412.000;  391.000
237.236;  -80.125; -589.000; -502.000
237.379;   52.150;  352.000;  428.000
237.522; -126.600; -879.000; -768.000
237.666;  -27.400; -271.000;   18.000
237.809; -121.650; -851.000; -823.000
237.952;   31.600;  469.000;  271.000
238.095;  -62.925; -447.000; -442.000
238.238;   85.000;  688.000;  700.000
238.382;   -2.425;  166.000;  103.000
238.525;  -70.450; -598.000; -511.000
238.668; -144.375;-1060.000; -985.000
238.811;  -78.525; -638.000; -643.000
238.954;  -59.200; -483.000; -334.000
239.097;   83.725;  617.000;  664.000
239.241;   16.475;  394.000;  326.000
239.384;  -20.900; -254.000; -214.000
239.527;  -56.875; -424.000; -224.000
239.670; -149.150; -994.000;-1091.000
239.813; -103.950; -696.000; -658.000
239.956;   82.850;  579.000;  473.000
240.099; -109.100; -778.000; -725.000
240.242;   60.175;  428.000;  432.000
240.385;   46.475;  466.000;  450.000
240.528;  -68.025; -706.000; -473.000
240.671;    1.225;  189.000;  134.000
240.814;  -36.600; -441.000; -158.000
240.957; -106.225; -767.000; -578.000
241.100;  -94.775; -779.000; -755.000
241.243; -145.050;-1234.000; -893.000
241.386;  -63.225; -508.000; -379.000
241.529;  -90.300; -735.000; -547.000
241.672;  -65.800; -566.000; -495.000
241.815; -124.150; -832.000; -808.000
241.958;  -24.875; -125.000; -182.000
242.101;  -79.375; -545.000; -390.000
242.244;  -36.675; -270.000; -325.000
242.387;  -50.575; -304.000; -246.000
242.530;   50.375;  470.000;  134.000
242.673;  -51.075; -381.000; -309.000
242.815; -122.800; -925.000; -899.000
242.958;  -73.575; -482.000; -381.000
243.101;    6.400;  132.000;  187.000
243.244;  -82.225; -564.000; -521.000
243.387;  -46.800; -313.000; -316.000
243.530;  -94.750; -657.000; -674.000
243.672;   -0.250;   43.000;  -92.000
243.815;  -50.575; -355.000; -283.000
243.958;   -7.450;   98.000;  -26.000
244.101;   -0.525;   59.000;  -16.000
244.243;  -12.575;  -47.000;  101.000
244.386; -120.575; -761.000; -630.000
244.529;  -20.325; -132.000; -139.000
244.672; -162.800;-1154.000; -951.000
244.814;  -97.425; -621.000; -794.000
244.957;  -45.850; -380.000; -304.000
245.100;  -71.950; -489.000; -489.000
245.242;  -53.750; -387.000; -374.000
245.385;  -12.150;  -59.000;  -39.000
245.528; -135.275; -871.000; -705.000
245.670;   87.175;  612.000;  634.000
245.813;  -80.525; -599.000; -547.000
245.956;  -22.550; -324.000; -275.000
246.098;  -69.425; -508.000; -650.000
246.241;    1.250;  194.000;   48.000
246.383;  -13.300; -119.000;  -73.000
246.526;  -75.200; -454.000; -525.000
246.669; -120.975; -889.000; -780.000
246.811;   20.300;  172.000;   -1.000
246.954;  -68.300; -512.000; -426.000
247.096;  -16.175;  -84.000;   -6.000
247.239;  -75.700; -482.000; -445.000
247.381;  -73.275; -647.000; -488.000
247.524;   83.100;  645.000;  679.000
247.666;   -7.375;   58.000;   11.000
247.809; -127.150; -887.000; -691.000
247.951;   -7.675;  -75.000;  138.000
248.094;   24.450;  432.000;  308.000
248.236; -162.675;-1262.000;-1238.000
248.378;   10.550; -356.000;  -81.000
248.521;  -24.225; -334.000; -337.000
248.663;  -41.600; -236.000; -267.000
248.806;  -22.900; -300.000; -266.000
248.948;  -93.800; -886.000; -763.000
249.090;  -41.600; -428.000; -398.000
249.233;  -53.975; -344.000; -381.000
249.375;  -60.800; -474.000; -451.000
249.518;  -28.625;  -83.000; -133.000
249.660;   -5.900; -103.000;    3.000
249.802; -163.100;-1303.000;-1189.000
249.945;  -64.075; -612.000; -540.000
250.087;  -99.725; -834.000; -768.000
250.229;  -44.225; -362.000; -480.000
250.371;  -79.425; -494.000; -439.000
250.514;  -56.050; -310.000; -244.000
250.656;   -9.550;   69.000;  102.000
250.798; -112.100; -849.000; -800.000
250.940;  -69.250; -322.000; -322.000
251.083;  -30.500; -335.000; -111.000
251.225;   60.350;  338.000;  310.000
251.367;  -48.900; -274.000; -373.000
251.509;  -32.200; -265.000; -210.000
251.651; -103.150; -731.000; -671.000
251.794;   47.500;  538.000;  632.000
251.936; -106.325; -821.000; -747.000
252.078;  -81.950; -540.000; -461.000
252.220;  -90.675; -645.000; -477.000
252.362;   78.350;  344.000;  462.000
252.504;  -69.525; -677.000; -584.000
252.646; -108.350; -875.000; -722.000
252.788;   -4.700;   14.000; -128.000
252.931;  -28.125; -257.000; -253.000
253.073;  -36.025; -376.000; -317.000
253.215;  -16.950;  141.000;  122.000
253.357;  -10.750;   82.000; -153.000
253.499;  -60.725; -374.000; -234.000
253.641;  -83.750; -749.000; -594.000
253.783;  -87.100; -609.000; -527.000
253.925;  -73.150; -586.000; -591.000
254.067; -109.775; -744.000; -667.000
254.209;  -24.525; -391.000; -259.000
254.351; -138.225; -865.000; -883.000
254.493;  -47.575; -441.000; -417.000
254.635; -133.975; -936.000; -818.000
254.777;  -84.275; -752.000; -687.000
254.918;  -71.675; -512.000; -430.000
255.060;  -51.800; -551.000; -395.000
255.202;  -60.125; -473.000; -261.000
255.344;  -91.750; -658.000; -455.000
255.486;  -70.850; -471.000; -406.000
255.628; -106.850; -780.000; -781.000
255.770;  -86.250; -676.000; -536.000
255.912;  -71.375; -559.000; -468.000
256.053; -104.475; -730.000; -508.000
256.195;  151.900; 1008.000;  903.000
256.337;  -99.825; -861.000; -595.000
256.479;   59.200;  532.000;  416.000
256.621;  -48.975; -394.000; -212.000
256.762; -100.975; -789.000; -742.000
256.904;   39.675;  485.000;  487.000
257.046;  -40.100; -381.000; -271.000
257.188;  -50.200; -351.000; -264.000
257.329;  -68.350; -525.000; -464.000
257.471; -119.250; -939.000; -807.000
257.613;  -68.475; -584.000; -498.000
257.755; -134.275;-1073.000; -982.000
257.896;   42.325;  286.000;  392.000
258.038;  -66.675; -403.000; -352.000
258.180;  -28.650; -354.000; -279.000
258.321;  -80.225; -581.000; -457.000
258.463;    3.250;  -71.000;  133.000
258.605;  -86.075; -562.000; -570.000
258.746; -104.450; -886.000; -772.000
258.888; -139.925;-1026.000;-1020.000
259.029;   27.150;  121.000;   -8.000
259.171;  -93.900; -614.000; -550.000
259.313;   -3.675;  -49.000;  -47.000
259.454;  -81.775; -536.000; -414.000
259.596;  -50.150; -483.000; -390.000
259.737;  -87.100; -590.000; -474.000
259.879;   16.125;  217.000;  311.000
260.020;   86.650;  901.000;  636.000
260.162;  -18.400; -146.000; -253.000
260.303; -116.150; -768.000; -687.000
260.445;  -82.150; -609.000; -613.000
260.586;   27.725;  392.000;  157.000
260.728;  -39.650; -360.000; -248.000
260.869; -112.900; -350.000; -343.000
261.011;   81.500;  706.000;  537.000
261.152;  -55.325; -479.000; -319.000
261.293;  -71.450; -576.000; -595.000
261.435;  -38.525; -219.000; -184.000
261.576;  -48.200; -455.000; -325.000
261.718;   47.250;  420.000;  470.000
261.859; -124.150; -940.000; -949.000
262.000; -132.400; -951.000;-1016.000
262.142;  -12.150;  -52.000;  -60.000
262.283; -109.325; -808.000; -691.000
262.424;  -93.225; -666.000; -625.000
262.566; -153.400;-1161.000; -983.000
262.707; -113.525; -840.000; -830.000
262.848; -129.450; -769.000; -726.000
262.990;  -50.125; -362.000; -345.000
263.131;   81.725;  650.000;  681.000
263.272;    0.575;  -61.000;  -41.000
263.413;  -94.450; -589.000; -561.000
263.555;  -78.825; -669.000; -143.000
263.696;  -87.600; -550.000; -641.000
263.837;  -61.925; -449.000; -551.000
263.978;   -7.625;   -5.000;  -77.000
264.119;  -50.700; -283.000; -264.000
264.261; -123.250; -847.000; -630.000
264.402;   -2.225;   33.000;   40.000
264.543;  -82.150; -509.000; -524.000
264.684;   -4.150;   61.000;  -50.000
264.825;  -76.775; -816.000; -538.000
264.966;   -2.150;  -84.000;  -67.000
265.107; -122.225; -646.000; -670.000
265.248; -105.975; -825.000; -812.000
265.390;  -17.200;  152.000;   -9.000
265.531;  -14.600; -238.000; -107.000
265.672;  -85.125; -557.000; -630.000
265.813;   54.975;  563.000;  439.000
265.954; -158.950; -959.000; -940.000
266.095;  -11.450; -372.000; -322.000
266.236;  -97.325; -686.000; -548.000
266.377;  -43.950; -243.000; -297.000
266.518;  -82.750; -619.000; -547.000
266.659;   29.425;  170.000;  268.000
266.800;    3.700;   83.000;   85.000
266.941;  -80.500; -487.000; -478.000
267.082;   14.175;  354.000;   99.000
267.223;  -41.125; -344.000; -273.000
267.364; -119.500; -892.000; -686.000
267.504;  -23.775;    3.000;  135.000
267.645;    1.025;  160.000;   67.000
267.786;  -34.725; -147.000;  -86.000
267.927;  -74.325; -473.000; -379.000
268.068;   -8.925; -186.000;  -61.000
268.209;  -37.850; -175.000; -413.000
268.350;  -50.975; -388.000; -532.000
268.490;  -89.075; -648.000; -521.000
268.631;   33.650;  127.000;  225.000
268.772; -115.525; -874.000; -647.000
268.913;  -51.950; -328.000; -476.000
269.054;  -15.975; -117.000;   12.000
269.194;  -35.850; -418.000; -402.000
269.335; -164.475;-1137.000;-1074.000
269.476;  -24.375;   33.000;  -35.000
269.617;  -50.825; -347.000; -392.000
269.757;  -81.325; -713.000; -646.000
269.898; -105.825; -856.000; -613.000
270.039;  -59.725; -415.000; -405.000
270.180; -138.275; -952.000; -816.000
270.320;  -36.350; -190.000; -250.000
270.461;  -42.575; -277.000; -249.000
270.602;  -20.925; -186.000; -156.000
270.742; -126.625; -868.000; -943.000
270.883;  -46.000; -442.000; -390.000
271.023;  -49.425; -358.000; -357.000
271.164;  -71.675; -607.000; -528.000
271.305;  -95.750; -666.000; -654.000
271.445;  -93.075; -722.000; -683.000
271.586;  -57.125; -462.000; -283.000
271.726;  -43.775; -397.000; -322.000
271.867;  -46.175; -594.000; -534.000
272.008;  212.650; -473.000; -285.000
272.148;  147.400;  462.000;  468.000
272.289;   10.650; -113.000; -181.000
272.429;   11.300;   19.000;  185.000
272.570;  -82.825; -633.000; -737.000
272.710; -103.000; -825.000; -775.000
272.851;   -7.125;  113.000; -130.000
272.991; -159.925;-1173.000;-1077.000
273.131;  -53.175; -419.000; -459.000
273.272;  -96.125; -683.000; -723.000
273.412;   28.750; -143.000;  -31.000
273.553;  -47.225; -488.000; -507.000
273.693;  155.625;  913.000;  858.000
273.834;  -76.150; -894.000; -692.000
273.974;  -56.800; -664.000; -615.000
274.114;  -87.025; -772.000; -560.000
274.255;   88.175;  414.000;  373.000
274.395;   11.775; -180.000; -125.000
274.535;   51.075;  199.000;  350.000
274.676;   21.825;  225.000;   94.000
274.816;   12.950;  110.000;   34.000
274.956;  -74.375; -624.000; -690.000
275.097;  -58.400;-1014.000; -922.000
275.237; -122.400; -913.000; -803.000
275.377;  -83.950; -778.000; -689.000
275.517; -126.575; -878.000; -937.000
275.658;  -45.450; -590.000; -555.000
275.798;  -60.675; -606.000; -413.000
275.938;   37.800;  215.000;  323.000
276.078;  -97.725; -626.000; -395.000
276.218;    2.150;   99.000;  104.000
276.359; -122.775;-1026.000;-1024.000
276.499;  -65.300; -605.000; -446.000
276.639;  -30.775; -305.000; -151.000
276.779;  -43.875; -475.000; -357.000
276.919; -110.375; -783.000; -624.000
277.059;  -16.900; -261.000; -212.000
277.199;  -45.675; -357.000; -259.000
277.340;   53.050;  287.000;  175.000
277.480; -106.600; -840.000; -693.000
277.620;   24.775;  192.000;   16.000
277.760; -192.875;-1533.000;-1294.000
277.900;   38.000;  113.000;   33.000
278.040;   21.325;  137.000;  159.000
278.180;   45.500;  270.000;  170.000
278.320;  -16.225;   21.000;   56.000
278.460;  -58.200; -443.000; -469.000
278.600;  -88.250; -708.000; -598.000
278.740;   54.075;  448.000;  224.000
278.880;  -25.050; -768.000; -791.000
279.020;   -3.700; -194.000; -144.000
279.160;  -93.450; -672.000; -595.000
279.300; -117.250; -926.000; -873.000
279.440;  -92.800; -709.000; -622.000
279.579;  -10.800;-1014.000; -929.000
279.719;  -44.900; -410.000; -394.000
279.859;   79.325;   -4.000;   41.000
279.999;   40.600; -208.000;  101.000
280.139;  -10.250; -435.000; -387.000
280.279;  -70.325; -708.000; -745.000
280.419;  -12.250; -229.000; -147.000
280.559;  -30.425; -259.000; -180.000
280.698;  -72.175; -790.000; -639.000
280.838;  -81.100; -778.000; -800.000
280.978;  -93.375; -846.000; -790.000
281.118; -102.775; -811.000; -704.000
281.257;   25.850;   24.000;    6.000
281.397;  -85.250;-1094.000; -960.000
281.537;  -75.500; -599.000; -712.000
281.677;  -26.225; -150.000; -101.000
281.816;  -85.125; -700.000; -630.000
281.956;  -36.975; -193.000; -257.000
282.096;  -70.225; -539.000; -396.000
282.235; -100.850; -672.000; -638.000
282.375;  -29.175; -243.000;  -98.000
282.515;  -97.825; -715.000; -707.000
282.654;   42.625;   29.000;  106.000
282.794;   32.625;  388.000;  244.000
282.934;  -52.050; -530.000; -491.000
283.073; -131.325;-1030.000; -857.000
283.213;  -50.975; -460.000; -467.000
283.353;  -30.075; -408.000; -349.000
283.492;  -18.875; -264.000; -296.000
283.632;  -42.000; -254.000; -168.000
283.771;  -83.175; -859.000; -730.000
283.911;  -44.825; -369.000; -260.000
284.050; -109.025; -794.000; -748.000
284.190; -162.275;-1229.000;-1096.000
284.329; -133.025;-1055.000; -964.000
284.469;  -53.950; -516.000; -591.000
284.608;  -54.850; -559.000; -598.000
284.748;  -77.700; -614.000; -570.000
284.887;  -10.050;  -87.000;  -20.000
285.027; -120.450; -844.000; -892.000
285.166;  -26.875; -192.000; -249.000
285.306;   13.100; -116.000;  -33.000
285.445;  -40.075; -229.000; -343.000
285.584; -105.475; -630.000; -494.000
285.724;  -41.700; -282.000; -322.000
285.863; -121.175; -857.000; -507.000
286.002;  -49.750; -366.000; -276.000
286.142; -109.925; -715.000; -622.000
286.281;  -63.875; -525.000; -493.000
286.420;  -67.600; -554.000; -417.000
286.560;   87.775;  653.000;  623.000
286.699; -134.800; -958.000; -912.000
286.838;  -77.275; -590.000; -591.000
286.978;  -89.175; -533.000; -537.000
287.117; -116.600;-1085.000; -950.000
287.256;  -27.825; -228.000; -211.000
287.395;  -48.475; -197.000; -378.000
287.535;  -53.350; -370.000; -298.000
287.674;  -73.200; -509.000; -484.000
287.813;   63.550;  661.000;  533.000
287.952; -127.475;-1010.000; -871.000
288.091; -148.225;-1049.000; -915.000
288.231;    9.800;   13.000;   15.000
288.370; -170.225;-1217.000;-1200.000
288.509;  -87.600; -728.000; -645.000
288.648;  -84.825; -770.000; -548.000
288.787;  -32.275; -243.000;  -87.000
288.926;  -70.075; -454.000; -475.000
289.065;  139.450;  859.000;  672.000
289.204;  -48.300; -377.000; -217.000
289.344;  -86.425; -791.000; -690.000
289.483;   33.075;  416.000;  304.000
289.622;  -21.825; -291.000; -149.000
289.761;   -7.750; -309.000; -166.000
289.900;  -98.450; -785.000; -626.000
290.039;  -16.075;  -12.000;  -95.000
290.178;  -41.575; -274.000; -180.000
290.317;  -88.425; -618.000; -479.000
290.456;  -56.275; -463.000; -451.000
290.595; -132.275; -961.000; -833.000
290.734; -125.350; -904.000; -891.000
290.873;  -69.950; -456.000; -420.000
291.011;  -92.350; -833.000; -843.000
291.150;  -88.750; -770.000; -682.000
291.289;   -6.975; -343.000; -110.000
291.428;  -85.925; -599.000; -480.000
291.567;  -51.600; -370.000; -442.000
291.706;   10.500;  109.000;  154.000
291.845;  -77.025; -597.000; -505.000
291.984; -159.750;-1234.000;-1061.000
292.122;   80.600;  602.000;  582.000
292.261;   40.450;  620.000;  463.000
292.400;    5.975; -144.000;  211.000
292.539; -119.600; -959.000; -813.000
292.678;  -29.400; -325.000; -300.000
292.816; -141.300;-1136.000; -965.000
292.955;  -76.900; -844.000; -684.000
293.094;  -27.025; -173.000; -337.000
293.233;  -50.300; -556.000; -400.000
293.371;  -32.850; -225.000;  -84.000
293.510; -110.525; -866.000; -780.000
293.649; -115.875; -959.000; -924.000
293.787;  -25.400;-1083.000;-1012.000
293.926;    4.100; -113.000;  -32.000
294.065;  -41.000; -379.000; -290.000
294.203;   57.325;  298.000;  406.000
294.342;   35.600;   74.000;  156.000
294.481; 6363.650;51180.000; -836.000
294.619;  -32.425; -425.000; -582.000
294.758; -148.500;-1230.000;-1137.000
294.896;   93.375; -125.000;    5.000
295.035; -119.575;-1040.000;-1006.000
295.174; -113.175;-1082.000; -954.000
295.312;  -40.100; -323.000; -203.000
295.451;    4.650; -307.000; -428.000
295.589;  -48.275; -389.000; -518.000
295.728;   22.075; -292.000; -165.000
295.866;    3.900;  -36.000;  -51.000
296.005;  -52.125; -584.000; -341.000
296.143;  -50.600; -558.000; -596.000
296.282;  -88.725; -957.000; -881.000
296.420;  -77.925; -657.000; -557.000
296.559;  -74.975; -892.000; -633.000
296.697;   57.850; -847.000; -665.000
296.835;  135.125;-1141.000;-1002.000
296.974;   69.500;  -23.000;   39.000
297.112;   34.950; -443.000; -504.000
297.251;  -58.150; -815.000; -755.000
297.389;  158.075; -576.000; -438.000
297.527;   57.375; -145.000;  -83.000
297.666;  -42.725; -486.000; -438.000
297.804;  -50.325; -404.000; -264.000
297.942;    0.750; -136.000; -161.000
298.081;   -0.225; -183.000;   63.000
298.219;  106.000;  -17.000;  -19.000
298.357;   94.750; -144.000;  -71.000
298.495;   81.400; -810.000; -812.000
298.634;  120.075;  245.000;  219.000
298.772;   92.250; -220.000; -338.000
298.910;  -26.825; -309.000; -182.000
299.048;    0.575; -130.000; -153.000
299.187;  -27.350; -350.000; -250.000
299.325;   49.250;   52.000;  122.000
299.463;   97.275; -389.000; -299.000
299.601;  166.800; -327.000; -271.000
299.739;  -90.300; -908.000; -883.000
299.877;  -64.475; -791.000; -703.000
300.016;  -13.700;-1095.000; -935.000
300.154;  219.125;  -19.000; -161.000
300.292;   95.800; -428.000; -348.000
300.430;   72.700; -408.000; -291.000
300.568;  -85.500; -940.000; -874.000
300.706;  -51.350; -366.000; -469.000
300.844;  -63.175;-1108.000; -979.000
300.982;  136.700;  246.000;  282.000
301.120;  -92.475; -965.000; -866.000
301.258;  -41.650; -812.000; -705.000
301.396;   46.425;  104.000;  -41.000
301.534;  141.850; -218.000; -293.000
301.672;   33.850; -664.000; -521.000
301.810;   79.225; -613.000; -545.000
301.948;  173.300;   53.000;  149.000
302.086;  798.475; -250.000;  -32.000
302.224; 1223.575; -610.000; -585.000
302.362;   93.400; -558.000; -622.000
302.500;   17.925; -923.000; -893.000
302.638;  140.475;  128.000;  245.000
302.776;   11.275; -352.000; -408.000
302.913;   40.775;  447.000;  236.000
303.051;   14.125;  -86.000;  -23.000
303.189;   77.800;   90.000;  118.000
303.327;  -32.450; -341.000; -256.000
303.465;  -73.225; -832.000; -588.000
303.603; -104.250; -805.000; -604.000
303.740;  118.825;  417.000;  241.000
303.878;   60.250; -800.000; -759.000
304.016;  -80.775; -915.000; -790.000
304.154; -112.250;-1123.000;-1152.000
304.291;  -26.000; -505.000; -554.000
304.429;   15.500;  102.000;   74.000
304.567; -120.300; -908.000; -893.000
304.705;  -51.125; -408.000; -515.000
304.842;  154.175; -616.000; -540.000
304.980;   79.275;  215.000;   35.000
305.118;   87.600; -367.000; -365.000
305.255;  -46.175; -945.000; -927.000
305.393;   77.425;  178.000;  239.000
305.531;  -90.675;-1173.000; -956.000
305.668;  -58.775; -663.000; -582.000
305.806;  121.600; -358.000; -439.000
305.943;  148.375; -629.000; -637.000
306.081;   94.225; -378.000; -267.000
306.219;  -95.800; -863.000; -748.000
306.356;    9.100;  158.000;   27.000
306.494;  114.325;  981.000;  761.000
306.631;    6.275;  -11.000;  -55.000
306.769;   16.800; -613.000; -485.000
306.906;    4.700; -284.000; -258.000
307.044;  -56.750; -473.000; -488.000
307.181;  -53.850; -410.000; -332.000
307.319;   17.125;  112.000;   87.000
307.456; -164.400;-1191.000;-1153.000
307.594;  -85.075; -980.000; -727.000
307.731;    3.700; -371.000; -164.000
307.868;    4.700;  -15.000;   20.000
308.006; -134.600; -961.000; -847.000
308.143;  -56.050; -618.000; -330.000
308.281;  206.575;  -37.000; -254.000
308.418;   -7.425; -748.000; -640.000
308.555;  -57.150; -400.000; -250.000
308.693;  -63.375; -577.000; -573.000
308.830; -115.800; -712.000; -657.000
308.967;   -7.725; -215.000;  -95.000
309.105;  -38.675; -507.000; -396.000
309.242;   53.025; -468.000; -367.000
309.379;  359.050; -577.000; -655.000
309.517;  -49.475; -936.000; -948.000
309.654;  -98.000; -910.000; -734.000
309.791;  -71.725; -662.000; -580.000
309.928; -110.000; -977.000; -914.000
310.065;  209.250;  819.000;  697.000
310.203;   34.375; -825.000; -850.000
310.340;   15.700; -465.000; -321.000
310.477;  -61.225; -412.000; -516.000
310.614;  -63.500; -383.000; -473.000
310.751;  -64.050; -427.000; -518.000
310.889;   -9.075;    1.000;   11.000
311.026; -146.300;-1161.000; -939.000
311.163;  -37.025; -386.000; -380.000
311.300;  -63.200; -512.000; -479.000
311.437;  -78.400; -658.000; -619.000
311.574; -150.775;-1226.000; -985.000
311.711;  -60.825; -595.000; -433.000
311.848;  -23.100; -380.000; -388.000
311.985;   28.250;  270.000;   93.000
312.122; -105.175; -932.000; -762.000
312.259; -122.250; -941.000; -994.000
312.396;  -73.450; -508.000; -551.000
312.533;  -91.425; -812.000; -790.000
312.670; -127.750;-1070.000; -898.000
312.807;  -29.050; -352.000; -367.000
312.944;  -66.100; -513.000; -611.000
313.081;  -29.125; -150.000; -415.000
313.218;  -97.075;-1111.000; -867.000
313.355;   30.625; -531.000; -449.000
313.492;   25.900; -455.000; -292.000
313.629;  141.550;  815.000;  735.000
313.766; -152.925;-1176.000;-1008.000
313.902;   -3.575; -186.000;   21.000
314.039;  -42.975; -372.000; -289.000
314.176;   48.450;  286.000;  192.000
314.313;  -57.150; -569.000; -473.000
314.450;  -61.575; -788.000; -684.000
314.587;  -40.125; -468.000; -480.000
314.723;   10.750;  -78.000;  130.000
314.860;   40.175;  318.000;  332.000
314.997;   46.100;  223.000;  142.000
315.134;  -36.275; -385.000; -368.000
315.270;  -18.775; -480.000; -496.000
315.407; -124.125;-1094.000; -967.000
315.544;  -35.575; -657.000; -538.000
315.681;  -59.125; -681.000; -565.000
315.817;   52.475; -133.000; -176.000
315.954;   37.900; -613.000; -392.000
316.091; -109.800;-1045.000;-1023.000
316.227;  -17.700;  -71.000; -179.000
316.364;    3.750;   23.000;    6.000
316.500;  -50.750; -113.000; -300.000
316.637;  -36.500; -181.000; -302.000
316.774;  -71.525; -625.000; -358.000
316.910;  -83.800; -598.000; -629.000
317.047;  -59.800; -487.000; -351.000
317.183;  -51.250; -435.000; -566.000
317.320;  -39.900; -367.000; -321.000
317.456;  -83.425; -733.000; -805.000
317.593;  -95.850; -598.000; -641.000
317.729;   -2.775;  168.000;  -67.000
317.866; -199.675;-1434.000;-1285.000
318.002;  -87.650; -708.000; -948.000
318.139;  -62.350; -883.000; -867.000
318.275;  -84.775;-1003.000; -738.000
318.412;  -63.150; -517.000; -336.000
318.548;    4.625; -751.000; -720.000
318.685;  -93.925; -985.000; -888.000
318.821;  -76.125; -762.000; -735.000
318.957;  -16.800;   34.000;  -23.000
319.094;   47.700;  297.000;  154.000
319.230;  -28.200; -756.000; -742.000
319.367;  189.525; -471.000; -520.000
319.503;   86.725; -538.000; -436.000
319.639; -103.825; -877.000; -793.000
319.775;  -46.150; -750.000; -685.000
319.912;  -48.425; -424.000; -519.000
320.048;  -83.475;-1184.000;-1184.000
320.184;   82.550;   59.000;   70.000
320.321;  -61.825; -497.000; -467.000
320.457;   63.300;  475.000;  662.000
320.593;  -69.875; -375.000; -382.000
320.729; -118.850; -732.000; -734.000
320.866;  -64.625; -577.000; -635.000
321.002;  -68.925; -759.000; -809.000
321.138;    7.050; -135.000; -211.000
321.274;   86.625; -148.000; -115.000
321.410;   -4.025; -585.000; -353.000
321.546;    2.250;-1011.000; -911.000
321.683;   78.925;  400.000;  185.000
321.819;   21.750;  -48.000; -117.000
321.955; -110.500; -743.000; -722.000
322.091;  -28.900; -585.000; -540.000
322.227;   -1.350; -382.000; -202.000
322.363;  -13.750; -320.000; -215.000
322.499;  -14.900; -343.000; -331.000
322.635;  175.250;  636.000;  443.000
322.771;   45.700; -139.000;   12.000
322.907;  110.425;  129.000;  327.000
323.043;   -9.525; -115.000; -206.000
323.179;  -17.775; -394.000; -363.000
323.315;   83.625; -401.000; -371.000
323.451;  168.500; -328.000; -236.000
323.587;   78.600;  -60.000;  -77.000
323.723;   64.650; -682.000; -601.000
323.859;  -10.000; -258.000;  -76.000
323.995;  -14.375; -467.000; -409.000
324.131; -105.975; -967.000; -892.000
324.267;  -41.575; -254.000; -276.000
324.402; -123.675; -960.000; -983.000
324.538;  -13.625; -279.000; -104.000
324.674;   46.525;  164.000;   77.000
324.810;  170.350;  226.000;  308.000
324.946;   29.125; -810.000; -658.000
325.082;  -49.450; -568.000; -475.000
325.217;  -13.725;  -62.000;   16.000
325.353; -103.875; -764.000; -659.000
325.489;  -72.825; -540.000; -506.000
325.625;  -66.875; -579.000; -525.000
325.760;   60.725;  517.000;  376.000
325.896;  -43.150; -515.000; -702.000
326.032;  -50.600; -403.000; -352.000
326.168;  -59.750; -462.000; -369.000
326.303;  -60.925; -352.000; -461.000
326.439;  -16.750; -336.000; -276.000
326.575;   -5.150; -190.000;  -29.000
326.710;    7.650; -156.000;  -30.000
326.846;   -4.925;  146.000;  103.000
326.982;  -91.700; -530.000; -548.000
327.117;  -69.700; -481.000; -442.000
327.253;  -88.000; -745.000; -742.000
327.388; -143.875;-1137.000;-1153.000
327.524;  -24.825; -811.000; -578.000
327.659;  -20.175;  -58.000;  -22.000
327.795;  -12.450;   69.000;   45.000
327.931;  -90.375; -723.000; -499.000
328.066;  -19.350; -417.000; -276.000
328.202;  -18.950;   12.000; -129.000
328.337;  109.375;  957.000;  713.000
328.473;   44.750;  -12.000;  -74.000
328.608;  -23.275; -256.000; -267.000
328.743;  -71.675; -799.000; -664.000
328.879;   20.500;  214.000;  114.000
329.014;  -31.250; -102.000; -122.000
329.150;  -66.600; -358.000; -483.000
329.285;  -53.350; -465.000; -466.000
329.421;  -31.775; -548.000; -246.000
329.556;  -22.775;  -36.000;   85.000
329.691;  -90.350; -633.000; -615.000
329.827;  -84.550; -626.000; -480.000
329.962;  -48.325;  131.000; -301.000
330.097;  -78.425; -673.000; -585.000
330.233;  -27.750; -410.000; -223.000
330.368; -133.050; -839.000; -628.000
330.503;   -0.800;    3.000;   98.000
330.638;   15.650;  -93.000; -125.000
330.774;  -43.300; -609.000; -530.000
330.909;  -37.775; -434.000; -244.000
331.044;  -72.900; -714.000; -708.000
331.179; -167.025;-1217.000;-1109.000
331.315;   24.075;   77.000;   20.000
331.450;   19.625;  157.000;  285.000
331.585;  -77.500; -805.000; -706.000
331.720;  -80.725; -510.000; -460.000
331.855;   -7.525;  -35.000; -102.000
331.990;  175.300;   62.000;  138.000
332.126;  103.100; -110.000;   71.000
332.261;  -25.375; -379.000; -265.000
332.396;   -4.400; -135.000; -242.000
332.531; -101.350;-1074.000;-1031.000
332.666;   12.075; -519.000; -363.000
332.801; -105.250; -726.000; -807.000
332.936;  -14.925; -192.000; -122.000
333.071; -140.700; -870.000; -817.000
333.206;   27.775;  307.000;  379.000
333.341;   21.100;  344.000;  418.000
333.476;  -81.500; -627.000; -623.000
333.611;  -29.475; -251.000; -173.000
333.746;  -25.575; -381.000; -464.000
333.881; -104.600; -973.000; -935.000
334.016; -121.825; -936.000; -917.000
334.151; -101.000; -746.000; -702.000
334.286;   28.875;  152.000;  186.000
334.421;   -3.750; -125.000; -178.000
334.556;  -71.200; -611.000; -567.000
334.690;  -77.175; -631.000; -577.000
334.825;   76.725;  381.000;   83.000
334.960;  -46.475; -285.000; -413.000
335.095;   21.350;  135.000;  -91.000
335.230;  -81.975; -722.000; -738.000
335.365; -117.875;-1084.000; -990.000
335.499; -108.275;-1108.000;-1037.000
335.634;   37.925;    9.000;  534.000
335.769;  -92.625; -755.000; -720.000
335.904;  -28.800; -603.000; -561.000
336.038;  -40.000; -735.000; -657.000
336.173; -106.250;-1206.000;-1194.000
336.308;   21.900; -116.000; -189.000
336.443;   36.825; -544.000; -634.000
336.577;  -56.825; -936.000; -787.000
336.712;   96.500;   -4.000;  -12.000
336.847;   -4.425; -724.000; -607.000
336.981;  118.575; -272.000; -208.000
337.116;  354.050;  615.000;  501.000
337.250;  233.700; -434.000; -421.000
337.385;  188.900; -297.000; -208.000
337.520;   42.925; -632.000; -603.000
337.654;  -24.225; -215.000; -126.000
337.789; -118.250; -989.000; -933.000
337.923;  -22.500; -104.000; -205.000
338.058;  -71.050; -673.000; -738.000
338.192;  -18.475; -611.000; -488.000
338.327;    0.325;  -18.000; -155.000
338.461;  -45.300; -299.000; -469.000
338.596;  -80.775; -780.000; -638.000
338.730;  -96.875; -767.000; -803.000
338.865;   63.350;  -46.000; -140.000
338.999;  -69.650; -846.000; -702.000
339.134;  -31.950; -634.000; -536.000
339.268;    1.475; -741.000; -603.000
339.403;  311.100; -740.000; -775.000
339.537;   76.700; -894.000; -820.000
339.671; -116.625; -829.000; -813.000
339.806;  -66.925; -556.000; -512.000
339.940;   18.075; -261.000; -235.000
340.074;  -93.575; -685.000; -510.000
340.209;  -35.750; -351.000; -230.000
340.343;  -84.450; -517.000; -573.000
340.477;  167.300;  998.000; 1036.000
340.612;  -53.100;-1033.000; -900.000
340.746;   88.625; -199.000; -243.000
340.880;  -42.250; -924.000; -785.000
341.014;  -20.500;  -45.000; -154.000
341.149; -103.900; -756.000; -718.000
341.283;  -94.850; -839.000; -754.000
341.417;  -61.875;-1124.000; -938.000
341.551;  244.125; -768.000; -708.000
341.685;  -12.575; -633.000; -611.000
341.820;  -57.075; -562.000; -493.000
341.954;  -41.600; -218.000; -349.000
342.088; -133.500;-1102.000;-1019.000
342.222;   56.250;  565.000;  618.000
342.356;  -53.275; -395.000; -335.000
342.490;  -74.625; -880.000; -841.000
342.624;  -32.575; -339.000; -242.000
342.758;    4.800; -364.000; -312.000
342.892;  -49.900; -710.000; -585.000
343.026;  -26.775;  -58.000; -116.000
343.160;  -55.750; -426.000; -376.000
343.294;  -85.750; -474.000; -337.000
343.428;   -7.850; -488.000; -448.000
343.562;   -6.425; -172.000;  -23.000
343.696;  -10.050; -385.000; -314.000
343.830;   11.575; -362.000; -356.000
343.964;   41.275; -231.000; -168.000
344.098; 1237.600;  199.000;   70.000
344.232; 1037.075; -266.000; -127.000
344.366;  118.550; -567.000; -453.000
344.500;  123.400; -665.000; -744.000
344.634;   66.700; -324.000; -164.000
344.768;   12.625; -531.000; -341.000
344.902;   25.400;  278.000;  256.000
345.035;  -64.150; -556.000; -496.000
345.169; -129.400; -933.000; -656.000
345.303;   -7.200; -308.000; -482.000
345.437;  -44.200; -826.000; -717.000
345.571;  -58.550; -675.000; -594.000
345.704;  -63.800; -309.000; -532.000
345.838;    0.600; -331.000; -284.000
345.972;  -23.625; -543.000; -495.000
346.106;  133.975; -179.000; -190.000
346.239;  438.675; -312.000; -243.000
346.373;   25.800; -343.000; -302.000
346.507; -136.700; -950.000; -962.000
346.640;  208.325;  -30.000;   13.000
346.774;  -17.750; -650.000; -797.000
346.908;  -16.575; -138.000;  -11.000
347.041;  -84.925; -646.000; -593.000
347.175;   19.675;  259.000;   27.000
347.309;  -49.400; -698.000; -628.000
347.442;  -79.025; -883.000; -732.000
347.576;  360.650;  670.000;  668.000
347.709;  280.950; -123.000;  -52.000
347.843;  -68.775; -933.000; -825.000
347.976;   46.075;  235.000;  294.000
348.110; -171.300;-1268.000;-1186.000
348.243;  -97.275; -679.000; -772.000
348.377;    2.525;  -26.000;   60.000
348.510;   62.625;  403.000;  540.000
348.644;  -25.975;  -37.000; -159.000
348.777;    3.925;  180.000;  191.000
348.911;  -39.500; -142.000; -112.000
349.044;  219.850;  471.000;  448.000
349.178;  258.850;-1069.000;-1006.000
349.311;  125.750;  141.000;  255.000
349.444;  -17.200; -927.000; -813.000
349.578;   -1.075; -347.000; -200.000
349.711;  -69.325; -959.000; -862.000
349.845;   34.350; -661.000; -591.000
349.978; -137.675;-1224.000;-1137.000
350.111;  -78.000; -546.000; -612.000
350.244;  -69.350; -596.000; -700.000
350.378;   28.675; -392.000; -393.000
350.511;  -55.400; -393.000; -426.000
350.644; -101.075; -808.000; -806.000
350.778;    4.175;  168.000;  104.000
350.911;    1.300;  134.000;  140.000
351.044;  -71.725; -685.000; -615.000
351.177;  -25.925; -321.000; -281.000
351.310;  -22.125;    3.000; -131.000
351.444;  -41.700; -888.000; -788.000
351.577;  167.525;  140.000;   90.000
351.710;  117.375;  593.000;  417.000
351.843;  -30.200; -165.000;  -77.000
351.976;   10.550;  149.000;  -79.000
352.109;  -69.700; -621.000; -612.000
352.242;    5.725; -464.000; -419.000
352.376;  -29.525; -580.000; -636.000
352.509;  286.050; -437.000; -356.000
352.642;   82.650; -654.000; -604.000
352.775;  103.375; -141.000;  -98.000
352.908; -103.225; -933.000; -904.000
353.041;  -95.200; -814.000; -824.000
353.174;  -58.125; -551.000; -424.000
353.307;  -77.125; -753.000; -764.000
353.440;   78.225;  541.000;  453.000
353.573;  -91.950; -957.000;-1008.000
353.706;  -31.275; -384.000; -558.000
353.839;  -19.475; -264.000; -220.000
353.971;  -80.325; -657.000; -512.000
354.104;  -72.075; -896.000; -835.000
354.237;  -18.250; -627.000; -662.000
354.370;  -70.550; -846.000; -879.000
354.503; -161.075;-1231.000;-1308.000
354.636;  -14.325; -529.000; -348.000
354.769; -127.925; -937.000; -860.000
354.902;   17.500; -230.000; -139.000
355.034;  -14.500; -164.000; -220.000
355.167;   -5.150; -262.000; -162.000
355.300;  -88.200;-1061.000; -880.000
355.433;  831.775;  -71.000;  -14.000
355.565; 1257.100; -402.000; -384.000
355.698;  323.475; -356.000; -296.000
355.831;   11.350; -882.000; -801.000
355.964;  135.025; -285.000; -170.000
356.096;  -64.075; -856.000; -843.000
356.229;   37.075; -523.000; -530.000
356.362;  260.900; -373.000; -266.000
356.494;  501.500; -229.000; -162.000
356.627;  589.525;  269.000;  377.000
356.760;  612.625;  120.000;   53.000
356.892;  768.650; -286.000; -601.000
357.025;  858.675;  403.000;  389.000
357.157;  822.400; -167.000; -179.000
357.290;  510.300; -856.000; -713.000
357.423;  171.125; -667.000; -556.000
357.555;  162.450; -217.000; -228.000
357.688;  177.250; -483.000; -364.000
357.820;  587.050; -870.000; -877.000
357.953; 4452.200; -563.000; -589.000
358.085; 1083.650; -632.000; -612.000
358.218; 1772.775;-1131.000; -932.000
358.350;  333.700;  -58.000;  312.000
358.483;  -89.175;-1300.000;-1187.000
358.615;   53.100;-1182.000;-1078.000
358.747;    7.750;-1187.000;-1058.000
358.880;   96.700; -810.000; -744.000
359.012;   13.825; -376.000; -202.000
359.145;  -27.750; -480.000; -511.000
359.277;  112.700; -962.000; -913.000
359.409; 3712.400;  536.000;  231.000
359.542; 1022.525; -738.000; -688.000
359.674;   95.350;   46.000;   13.000
359.806;  -57.975; -565.000; -438.000
359.939;  -43.625; -617.000; -516.000
360.071;  -28.250; -583.000; -579.000
360.203;  -17.775; -411.000; -364.000
360.335;   62.275;  164.000;  -16.000
360.468;  214.025; -249.000; -307.000
360.600; 2860.625; -547.000; -454.000
360.732; 2308.300; -546.000; -423.000
360.864;  317.475;-1216.000;-1044.000
360.996;  426.775; -516.000; -554.000
361.129;   89.400; -389.000; -598.000
361.261;   45.575;  110.000; -113.000
361.393;  -16.700; -252.000; -214.000
361.525;   34.400;   94.000;  244.000
361.657;  -41.775; -821.000; -703.000
361.789;   35.200; -139.000; -155.000
361.921;  370.800; -642.000; -593.000
362.053;  352.275;  524.000;  541.000
362.185;   73.275;  288.000;   72.000
362.318;  -52.400; -709.000; -705.000
362.450;  196.950;  294.000;  444.000
362.582;  282.375; -913.000; -870.000
362.714;  -15.100; -353.000; -332.000
362.846;  -64.925; -606.000; -490.000
362.978; -138.725; -941.000; -811.000
363.109;   93.925; -161.000; -260.000
363.241;  619.875; -739.000; -749.000
363.373;  382.750; -649.000; -564.000
363.505;  501.725; -186.000;  -91.000
363.637;  153.100; -787.000; -601.000
363.769; -115.325;-1067.000;-1080.000
363.901;  -54.475; -596.000; -654.000
364.033;  -97.725;-1103.000;-1062.000
364.165;   21.825; -283.000; -283.000
364.296;   65.600; -316.000; -177.000
364.428;   34.925;-1344.000;-1220.000
364.560;  -58.975; -679.000; -661.000
364.692;  -42.675; -738.000; -835.000
364.824;  432.125; -588.000; -456.000
364.955;  455.575; -402.000; -564.000
365.087;  619.400;-1097.000; -852.000
365.219;   23.825; -686.000; -816.000
365.351;  -64.650; -526.000; -572.000
365.482;   69.875;  300.000;  240.000
365.614;  -44.775; -402.000; -314.000
365.746;  -85.450; -729.000; -752.000
365.877;  -92.475; -706.000; -672.000
366.009;  195.200;  -35.000;  -62.000
366.141;  -93.125;-1249.000;-1134.000
366.272;  -87.300; -803.000; -719.000
366.404; -107.575;-1005.000; -874.000
366.535;   -6.000; -139.000;  -12.000
366.667; -107.200; -644.000; -649.000
366.799;   50.575;  353.000;  203.000
366.930; -105.200; -862.000; -996.000
367.062;  117.025; -639.000; -613.000
367.193;   95.800; -872.000; -842.000
367.325;  -59.125; -580.000; -684.000
367.456;  132.575; -246.000;   31.000
367.588;  147.900; -371.000; -318.000
367.719;   29.125;  -44.000;  -45.000
367.851;    7.725; -222.000; -241.000
367.982;   -5.050; -875.000; -732.000
368.113;  167.575; -475.000; -358.000
368.245;  -92.650; -960.000; -841.000
368.376;    2.800; -254.000; -302.000
368.508;  -28.775; -188.000; -263.000
368.639; -120.425;-1166.000;-1034.000
368.770;   24.075; -670.000; -589.000
368.902;  -30.150; -836.000; -926.000
369.033; -113.550; -906.000; -855.000
369.164;  -41.400; -720.000; -653.000
369.296;  -90.600; -452.000; -601.000
369.427;   20.450; -209.000; -144.000
369.558;  -34.125; -593.000; -377.000
369.689;  -74.825; -721.000; -569.000
369.821; -126.825; -951.000; -845.000
369.952;   -7.600;   42.000; -108.000
370.083;  -37.050; -229.000; -108.000
370.214;  -71.600; -735.000; -650.000
370.345;    1.375;   65.000;   81.000
370.477;  -70.275; -810.000; -790.000
370.608;  348.775; -328.000; -264.000
370.739;    6.825;-1233.000;-1292.000
370.870;   20.775;-1102.000; -923.000
371.001;  169.025; -378.000; -467.000
371.132;  -57.950; -754.000; -735.000
371.263;   -5.175;  -42.000; -148.000
371.394; -122.325; -841.000; -748.000
371.525;   37.150;  345.000;  225.000
371.657;  -77.100; -808.000; -670.000
371.788;   96.050;  103.000;  199.000
371.919;  244.750; -384.000; -304.000
372.050; 4700.800;  -91.000; -156.000
372.181; 1449.275; -188.000; -294.000
372.311;  520.775;   42.000; -127.000
372.442;   84.250; -457.000; -451.000
372.573;    5.750; -444.000; -340.000
372.704; -109.500;-1008.000; -980.000
372.835;  137.650; -228.000; -289.000
372.966;  -47.150; -646.000; -554.000
373.097;  -33.900; -575.000; -711.000
373.228;  -12.300; -717.000; -542.000
373.359;  221.300; -824.000; -536.000
373.490; 1311.850; -881.000; -727.000
373.620; 1634.225;-1001.000; -803.000
373.751; 2481.025; -332.000; -396.000
373.882; 1128.975; -663.000; -733.000
374.013;  126.700; -449.000; -262.000
374.143;  -10.525; -581.000; -659.000
374.274;  -82.525; -987.000; -908.000
374.405;  236.775; -388.000; -276.000
374.536;  629.650; -526.000; -387.000
374.666; 1595.650; -759.000; -807.000
374.797;  350.375; -817.000; -868.000
374.928; 1218.375; -710.000; -560.000
375.058; 1241.900; -535.000; -500.000
375.189;  113.100;  -59.000;  -93.000
375.320;  -81.175; -928.000;-1034.000
375.450;  -21.400; -625.000; -616.000
375.581;  -36.400; -526.000; -436.000
375.712;  -13.425; -574.000; -250.000
375.842;  465.575; -438.000; -415.000
375.973;  331.475; -554.000; -513.000
376.103;   -0.625; -665.000; -648.000
376.234;  -55.525; -531.000; -552.000
376.364;    8.825; -944.000; -867.000
376.495;  415.850;  925.000;  529.000
376.625;   47.500; -472.000; -485.000
376.756;  134.400; -709.000; -678.000
376.886;  -29.250;-1178.000;-1026.000
377.017;   16.225;-1048.000;-1061.000
377.147;  248.625; -786.000; -782.000
377.278;   60.750;  174.000;  228.000
377.408; -123.650; -801.000; -815.000
377.538;  -97.250; -707.000; -693.000
377.669;  -70.625; -537.000; -613.000
377.799;  -62.600; -645.000; -635.000
377.929;  -19.575; -610.000; -428.000
378.060; -108.200; -781.000; -847.000
378.190;  -58.725; -726.000; -531.000
378.320;  -46.275; -401.000; -406.000
378.451;   -1.075; -131.000;  -22.000
378.581;   11.775;  -67.000; -110.000
378.711;  189.950; 1035.000;  866.000
378.841;   14.950; -533.000; -675.000
378.972;  -53.675; -871.000; -751.000
379.102;   41.625; -652.000; -579.000
379.232;   -2.225; -126.000;  -73.000
379.362;  -88.450;-1001.000; -885.000
379.492;   55.950; -373.000; -424.000
379.623;  149.900;    0.000;  111.000
379.753;  -70.375;-1107.000; -974.000
379.883;  253.850;   59.000;  156.000
380.013;   71.750;-1081.000;-1017.000
380.143;  -76.125;-1097.000;-1056.000
380.273;  -71.700; -985.000; -861.000
380.403;   22.800; -344.000; -257.000
380.533;    2.900; -651.000; -664.000
380.663;  115.325;  173.000;  128.000
380.793;  -71.300;-1027.000;-1074.000
380.923;    2.200; -103.000;  -34.000
381.053;  -81.800; -613.000; -623.000
381.183;   -9.275; -106.000; -248.000
381.313;   78.750; -656.000; -470.000
381.443;   86.675; -692.000; -473.000
381.573;  310.300; -402.000; -409.000
381.703;  485.450;-1249.000;-1095.000
381.833;  -80.525;-1454.000;-1336.000
381.963;  160.400; -134.000;  -87.000
382.093; 1767.950; -925.000; -909.000
382.223;  577.300; -713.000; -602.000
382.353;   20.450; -801.000; -608.000
382.482;  561.050;-1091.000; -964.000
382.612; 1025.950; -872.000; -644.000
382.742;  594.775; -695.000; -622.000
382.872;  409.325; -565.000; -551.000
383.002;   98.875;  347.000; -132.000
383.131;  -25.325; -226.000; -160.000
383.261;  -12.725; -706.000; -768.000
383.391;  307.050; -552.000; -377.000
383.521; 2501.550;  451.000;  263.000
383.650;  532.625; -947.000; -904.000
383.780;  -31.975; -783.000; -656.000
383.910;  125.800;  880.000;  802.000
384.039;   69.800; -794.000; -656.000
384.169;  371.025;-1205.000;-1017.000
384.299;   21.400; -650.000; -662.000
384.428;  -71.700; -764.000; -680.000
384.558;  -33.675; -308.000; -275.000
384.687;  -15.475; -414.000; -334.000
384.817;   46.175;   75.000;   -2.000
384.947;   56.025; -234.000; -141.000
385.076;  373.350;  982.000;  912.000
385.206;  140.925;  369.000;  480.000
385.335;    4.825; -549.000; -417.000
385.465;  -58.725; -655.000; -663.000
385.594;  204.450;  -53.000;  -44.000
385.724;  653.900; -868.000; -838.000
385.853;  199.100; -296.000; -270.000
385.982; 1877.975; -743.000; -787.000
386.112; 2964.925;-1052.000; -871.000
386.241;  229.350; -307.000; -312.000
386.371;   64.700; -174.000;  -87.000
386.500;   27.975; -825.000; -789.000
386.629;   62.900; -874.000; -817.000
386.759;   82.075;  -43.000;   68.000
386.888;    9.700; -170.000; -250.000
387.017;  -50.825; -648.000; -620.000
387.147;  -59.275; -771.000; -798.000
387.276;   37.075; -410.000; -397.000
387.405;   45.775; -398.000; -342.000
387.535;  -30.050; -452.000; -361.000
387.664;  -43.400; -692.000; -620.000
387.793;   93.075; -198.000; -113.000
387.922;  727.150;  255.000;  200.000
388.052;   77.475; -576.000; -423.000
388.181;   85.425; -342.000; -472.000
388.310;   94.050; -889.000; -710.000
388.439;    3.850; -749.000; -742.000
388.568;  258.350;  365.000;  244.000
388.697; 1516.600; -756.000; -653.000
388.826;  343.650; -768.000; -666.000
388.956;  111.900; -285.000; -307.000
389.085;  -16.875; -347.000; -287.000
389.214;  -65.250; -842.000; -872.000
389.343;  -57.125; -645.000; -413.000
389.472;  340.425;  126.000;  149.000
389.601;  501.600;   91.000;    0.000
389.730;   49.650; -568.000; -687.000
389.859;   96.800;  226.000;   46.000
389.988;  289.275; -423.000; -408.000
390.117;  207.150; -168.000; -146.000
390.246;   23.025; -331.000; -320.000
390.375;  190.100; -673.000; -626.000
390.504;  -38.700; -703.000; -621.000
390.633;  -92.875; -672.000; -726.000
390.761;  -33.325; -732.000; -645.000
390.890;   69.850;   -4.000; -130.000
391.019;    4.975; -421.000; -441.000
391.148; -108.625; -826.000; -855.000
391.277;  -46.300; -576.000; -493.000
391.406;  -53.700; -821.000; -805.000
391.534;   41.175;  574.000; -301.000
391.663;  -38.475; -583.000; -645.000
391.792;  -50.475; -673.000; -701.000
391.921;  173.500;   -3.000;   15.000
392.050;  322.825; -287.000; -228.000
392.178;   29.300;-1206.000;-1061.000
392.307;  234.575; -758.000; -712.000
392.436;  148.775; -427.000; -641.000
392.564;   45.950;  166.000;   -6.000
392.693;  -69.750; -860.000; -682.000
392.822;  321.850; -529.000; -534.000
392.950;  178.025; -880.000; -714.000
393.079;  472.350; -188.000; -328.000
393.208;   75.700; -488.000; -511.000
393.336;   -5.475; -170.000; -145.000
393.465;  -46.175; -317.000; -199.000
393.593;    9.250;   62.000;   79.000
393.722; -145.375;-1121.000; -916.000
393.850;  -40.275; -188.000;  -61.000
393.979; -152.025; -926.000; -805.000
394.107;  -57.325; -517.000; -537.000
394.236;   -4.600; -570.000; -507.000
394.364;  244.875;  383.000;  206.000
394.493;  405.800; -911.000; -767.000
394.621;  -10.000; -955.000; -916.000
394.750;  560.500; -873.000; -923.000
394.878; 2433.975; -247.000; -149.000
395.007; 3281.850; -721.000; -807.000
395.135;  228.250; -790.000; -721.000
395.263;  -89.325;-1038.000;-1040.000
395.392;   15.525;  -25.000; -107.000
395.520; -125.750; -818.000; -679.000
395.648;  -54.650; -865.000; -915.000
395.777;    8.300; -366.000; -405.000
395.905;  -43.825; -449.000; -564.000
396.033;   39.725;  217.000;  172.000
396.162;  676.375; -399.000; -453.000
396.290;  581.400;  -17.000;   -2.000
396.418;  180.275; -555.000; -514.000
396.546;  -38.175; -571.000; -466.000
396.674;  -80.575; -850.000; -878.000
396.803;   20.200;  -72.000;  -23.000
396.931;  170.525; -179.000; -199.000
397.059;  155.400;-1026.000; -989.000
397.187;  -87.025;-1026.000; -975.000
397.315; -125.250; -884.000; -649.000
397.443;  -86.025; -592.000; -443.000
397.572;  -89.200; -578.000; -424.000
397.700;   34.350; -607.000; -614.000
397.828;   66.925;  120.000;  -90.000
397.956;  -30.675; -508.000; -478.000
398.084;  -69.775; -767.000; -626.000
398.212;   42.650;  137.000;  124.000
398.340;   26.875;  -56.000;  159.000
398.468;   59.250; -390.000; -169.000
398.596; -114.450; -993.000; -953.000
398.724; -115.300; -762.000; -767.000
398.852; -146.750;-1024.000; -976.000
398.980;  -46.800; -560.000; -560.000
399.108;  -20.450; -982.000; -735.000
399.236;   65.575;   13.000;    8.000
399.363;   21.275;  222.000;  196.000
399.491;  -61.050; -404.000; -398.000
399.619; -121.550; -829.000; -800.000
399.747;  -76.725; -859.000; -771.000
399.875;   96.400;  220.000;  234.000
400.003;  -32.750; -359.000; -284.000
400.130;  -86.400; -421.000; -341.000
400.258;  -20.550;  -83.000;   38.000
400.386;  -68.850; -352.000; -168.000
400.514;  -20.025; -526.000; -587.000
400.641;  -53.825; -928.000; -802.000
400.769; -133.000; -979.000; -888.000
400.897;  -91.000; -838.000; -793.000
401.025;   16.500; -166.000; -152.000
401.152;    2.825;  220.000;   38.000
401.280;  -65.950; -430.000; -429.000
401.408; -106.625; -712.000; -576.000
401.535;  -96.100; -735.000; -758.000
401.663; -185.725;-1134.000;-1054.000
401.790;  -73.725; -514.000; -525.000
401.918;   44.825;  436.000;  405.000
402.046;   -7.200;  134.000;  122.000
402.173;  -34.550;  -18.000;    7.000
402.301;  -59.125; -519.000; -397.000
402.428;   44.200;  528.000;  383.000
402.556; -133.425;-1188.000; -913.000
402.683;  -30.875;  -20.000;   -1.000
402.811;  -17.425;  -37.000; -206.000
402.938;    2.850;   20.000;   27.000
403.066;  300.175; -574.000; -558.000
403.193;  467.975;  299.000;  239.000
403.321;  373.550; -396.000; -574.000
403.448;  444.000;   83.000;   27.000
403.575;  214.425;  -90.000;  -46.000
403.703;  -87.500; -732.000; -557.000
403.830;  -63.600; -531.000; -496.000
403.957; -139.350;-1117.000;-1023.000
404.085;   19.575;  -61.000; -172.000
404.212;  104.450;  -50.000;   63.000
404.339;  232.250; -566.000; -306.000
404.467; 4677.750; -612.000; -524.000
404.594; 3607.175; -287.000; -227.000
404.721; 1027.250; -869.000; -764.000
404.848;  102.100; -113.000; -202.000
404.976;  -86.650; -856.000; -783.000
405.103;  -14.775;  -14.000;  -82.000
405.230;   -7.675;  190.000;  226.000
405.357;   34.200;  117.000;   44.000
405.484;  217.275;  -49.000;    5.000
405.612;   41.850; -548.000; -563.000
405.739;  -54.050; -488.000; -243.000
405.866;   97.925;  669.000;  385.000
405.993;  -34.475; -398.000; -102.000
406.120; -130.875; -801.000; -887.000
406.247;  -42.800; -323.000; -342.000
406.374;  620.875;  540.000;  629.000
406.501;  229.775; -632.000; -702.000
406.628;  -64.375; -621.000; -589.000
406.755;  -75.000; -803.000; -620.000
406.882;  -20.950; -228.000; -277.000
407.009; -103.275; -719.000; -628.000
407.136;   88.075; -480.000; -401.000
407.263;  255.700; -939.000; -829.000
407.390;  -41.600; -692.000; -614.000
407.517; -158.725;-1139.000;-1187.000
407.644;  -44.475; -332.000; -256.000
407.771; -128.800; -249.000; -287.000
407.898;   17.550;  168.000;  328.000
408.025;  -64.900; -421.000; -313.000
408.151;    2.175;   82.000;  153.000
408.278;  -65.225; -267.000; -216.000
408.405; -112.050; -931.000; -899.000
408.532;  -61.875; -549.000; -542.000
408.659; -116.575; -677.000; -648.000
408.785; -204.050;-1298.000;-1170.000
408.912;  -68.750; -412.000; -296.000
409.039; -105.650; -610.000; -686.000
409.166; -108.625; -591.000; -555.000
409.292; -110.675; -571.000; -534.000
409.419; -116.800; -665.000; -649.000
409.546;  -81.550; -431.000; -192.000
409.672;  -99.700; -713.000; -545.000
409.799;  -20.225;  -36.000;   34.000
409.926;  -20.550; -180.000; -179.000
410.052; -160.325;-1127.000;-1091.000
410.179;  -45.250; -368.000; -392.000
410.305;  -82.425; -375.000; -493.000
410.432;  -38.450; -220.000; -333.000
410.558;  -83.475; -305.000; -380.000
410.685; -102.200; -688.000; -431.000
410.812;  -93.650; -409.000; -588.000
410.938; -143.800; -964.000; -808.000
411.065;  -84.050; -671.000; -645.000
411.191;  -15.175; -189.000; -174.000
411.317; -113.375; -823.000; -742.000
411.444;  -69.525; -317.000; -246.000
411.570;  -79.875; -339.000; -294.000
411.697; -120.000; -758.000; -752.000
411.823; -171.100; -989.000; -999.000
411.949;  -18.700;  -56.000;   17.000
412.076; -108.900; -539.000; -519.000
412.202; -112.725; -758.000; -757.000
412.329; -107.800; -798.000; -752.000
412.455; -105.650; -821.000; -657.000
412.581;  -16.500;  -15.000;  172.000
412.707;  -54.475; -540.000; -457.000
412.834;   23.250;  156.000;  219.000
412.960;  -77.650; -785.000; -784.000
413.086; -106.350; -743.000; -701.000
413.212;  200.800;  604.000;  578.000
413.339;  -27.550; -685.000; -701.000
413.465;   38.600; -364.000; -310.000
413.591;  -72.375; -757.000; -474.000
413.717;  -53.750; -358.000; -366.000
413.843; -131.425; -839.000; -861.000
413.969;  -52.100;  -47.000; -292.000
414.096;  -97.500; -679.000; -679.000
414.222;  -10.550;  -33.000;   85.000
414.348;    1.975; -652.000; -385.000
414.474;  161.600;   38.000;  -52.000
414.600;    0.150; -126.000; -144.000
414.726;  -18.000;  -96.000;  -55.000
414.852;  -54.775; -365.000; -342.000
414.978;   29.450;  104.000;  -18.000
415.104;   38.175;   38.000;   80.000
415.230;   28.175; -329.000; -330.000
415.356;   58.150; -409.000; -514.000
415.482;  219.300;   13.000;  -35.000
415.608;  225.725; -247.000; -323.000
415.734;  850.925;   67.000;   38.000
415.860;17465.950; -875.000; -767.000
415.986;12839.975; -685.000; -607.000
416.111; 1101.975; -798.000; -652.000
416.237;  223.175; -424.000; -571.000
416.363;  891.250; -765.000; -733.000
416.489; 3383.175; -324.000; -251.000
416.615;  370.050; -707.000; -742.000
416.741;  -31.200; -677.000; -784.000
416.866;  -91.025; -673.000; -736.000
416.992; -118.650; -801.000; -818.000
417.118;  -26.400;  -41.000;  -80.000
417.244;  -43.175; -798.000; -531.000
417.369;  -74.075; -801.000; -612.000
417.495;    0.200; -325.000; -254.000
417.621;  -68.200;-1015.000; -803.000
417.746;   15.525; -579.000; -572.000
417.872;   49.300; -254.000; -144.000
417.998;   37.175; -515.000; -530.000
418.123;  837.775;-1073.000; -845.000
418.249; 4443.900; -512.000; -601.000
418.374;  596.725; -916.000; -824.000
418.500;   99.800; -383.000; -482.000
418.626;  110.075;   70.000;  -59.000
418.751;  100.775; -549.000; -448.000
418.877;  172.575; -637.000; -643.000
419.002; 1470.900; -688.000; -560.000
419.128;10424.350; -930.000; -721.000
419.253; 2582.175; -967.000; -837.000
419.379;  326.300; -391.000; -338.000
419.504;  335.525;  325.000;  415.000
419.629;  414.775; -393.000; -212.000
419.755; 2768.425; -317.000; -254.000
419.880;16557.725;  -98.000;   67.000
420.006; 9462.725; -280.000; -221.000
420.131;25242.100; -662.000; -775.000
420.256; 3720.325; -315.000; -316.000
420.382;  478.000; -665.000; -687.000
420.507;   65.475; -649.000; -778.000
420.632;  223.125; -337.000; -339.000
420.758;  421.700; -251.000; -425.000
420.883;  -54.575; -876.000; -672.000
421.008;  -94.275; -775.000; -619.000
421.133;  -67.875; -509.000; -467.000
421.259;  -27.900; -325.000; -259.000
421.384;  -82.800; -834.000; -693.000
421.509;   13.225;-1052.000; -862.000
421.634; 1801.800; -936.000; -820.000
421.759;  810.000; -359.000; -327.000
421.885;  -20.700; -717.000; -656.000
422.010;  -55.525; -673.000; -542.000
422.135; -147.575; -695.000; -727.000
422.260;   48.900;  340.000;  280.000
422.385;  -29.775;   12.000;  -98.000
422.510;   14.450;  151.000;  -26.000
422.635;   27.525;  -87.000;  -43.000
422.760;  142.025; -766.000; -791.000
422.885;   64.100;  -57.000;  -80.000
423.010;  -33.375; -112.000; -169.000
423.135;  -84.850; -481.000; -561.000
423.260;   -0.050; -150.000; -245.000
423.385;   97.775;  476.000;  222.000
423.510;   53.675;   71.000;  -22.000
423.635;  118.475;  133.000;   45.000
423.760;   69.625;  383.000;  328.000
423.885;   64.800;  336.000;  391.000
424.010;   35.150;  -68.000;  -13.000
424.135;  -11.400;    5.000;  -33.000
424.259;  -96.275; -654.000; -457.000
424.384;  -47.525; -279.000; -272.000
424.509;  -16.275; -260.000; -186.000
424.634;  -95.550; -761.000; -623.000
424.759;  -24.550; -688.000; -544.000
424.883;  -15.400; -506.000; -527.000
425.008;  166.475; -502.000; -410.000
425.133; 1665.975; -679.000; -653.000
425.258;  789.950; -517.000; -381.000
425.382; 1266.950; -867.000; -774.000
425.507; 3394.075; -487.000; -543.000
425.632;  495.825; -802.000; -663.000
425.756;  404.925; -256.000; -146.000
425.881; 4884.350; -831.000; -857.000
426.006;13180.875; -604.000; -355.000
426.130; 2223.975; -696.000; -508.000
426.255;  289.900; -611.000; -491.000
426.379;  109.000; -189.000; -577.000
426.504;  334.275;  660.000;  544.000
426.629; 3539.100; -519.000; -466.000
426.753; 2483.700;   64.000;  -46.000
426.878;  291.700; -252.000; -288.000
427.002;  128.650; -651.000; -668.000
427.127; 1377.150;  -35.000; -158.000
427.251; 9543.550;  372.000;  401.000
427.375; 2806.300; -191.000; -173.000
427.500; 2887.000; -616.000; -610.000
427.624; 1034.550; -234.000; -400.000
427.749;  140.700; -216.000; -225.000
427.873;  -16.850; -499.000; -412.000
427.997;  -26.675; -222.000; -230.000
428.122;   84.000;  795.000;  703.000
428.246;   88.525;  433.000;  434.000
428.371; -101.600; -869.000; -773.000
428.495;  -97.150; -624.000; -646.000
428.619;  -22.550; -186.000; -117.000
428.743;   37.725;   65.000;  132.000
428.868;   59.775; -732.000; -643.000
428.992; 1842.325; -219.000; -326.000
429.116;  817.250; -329.000; -357.000
429.240;  395.025;  419.000;  426.000
429.365;    0.375; -454.000; -574.000
429.489;  -37.525; -638.000; -647.000
429.613;   30.350; -236.000; -177.000
429.737;   30.925; -563.000; -432.000
429.861;  251.525; -247.000; -133.000
429.985; 4681.225; -425.000; -305.000
430.109; 5258.425; -770.000; -908.000
430.234;  625.225;   76.000;  -50.000
430.358;   62.675; -250.000; -160.000
430.482;  -57.525; -672.000; -564.000
430.606;  -61.275; -655.000; -375.000
430.730;   56.200; -437.000; -388.000
430.854;  249.225; -909.000; -835.000
430.978;  -39.050; -795.000; -764.000
431.102;  -74.000; -499.000; -422.000
431.226;  -95.775; -874.000; -815.000
431.350;   46.100;  345.000;  422.000
431.474;  -62.950; -661.000; -373.000
431.597; -147.200;-1060.000; -848.000
431.721;  -76.050; -276.000; -267.000
431.845; -135.150; -704.000; -472.000
431.969;  -71.325; -304.000; -349.000
432.093; -101.925; -395.000; -317.000
432.217;   -8.700;   32.000;   82.000
432.341;  -87.450; -523.000; -518.000
432.464;    7.925;   96.000;   40.000
432.588;  321.725; -401.000; -329.000
432.712;  159.500;  -52.000;  -52.000
432.836;   40.025;  213.000;  263.000
432.959;  -35.525; -372.000; -311.000
433.083;   71.175;   11.000;    2.000
433.207;  334.275;  285.000;  930.000
433.330; 4077.125; -391.000; -200.000
433.454; 5119.450; -654.000; -638.000
433.578; 3005.675;  583.000;  278.000
433.701;  594.150; -623.000; -675.000
433.825;  206.925; -292.000; -299.000
433.949;  311.125;   28.000;  -72.000
434.072;  159.875; -410.000; -323.000
434.196;    4.675; -309.000; -117.000
434.319; 3680.050;25482.000;25124.000
434.443;  744.625; -656.000; -603.000
434.566; 2271.525;  281.000;   62.000
434.690;  374.750; -637.000; -383.000
434.813;   57.550; -251.000; -173.000
434.937;  -71.575; -569.000; -696.000
435.060;  -11.050; -423.000; -332.000
435.184;  595.875; -492.000; -217.000
435.307;  308.250;  159.000;  102.000
435.431;    7.075;  -40.000;   24.000
435.554;  -67.625; -399.000; -240.000
435.677;  -79.375; -350.000; -258.000
435.801;  -48.300;  -25.000;   49.000
435.924;   10.175;    1.000;  -67.000
436.048;  -77.525;-1019.000; -732.000
436.171;  -55.600; -240.000;  -66.000
436.294;  -31.075; -248.000; -229.000
436.417;   48.450; -963.000; -849.000
436.541;  -89.350; -814.000; -840.000
436.664;  -42.625; -242.000; -316.000
436.787;  -15.650;   13.000;  113.000
436.910;  -89.975; -792.000; -422.000
437.034;   21.150;  142.000;  143.000
437.157;  121.125;  -11.000;    0.000
437.280;  -12.425; -392.000; -292.000
437.403;  -37.825; -982.000; -869.000
437.526; 1060.050; -903.000; -865.000
437.649; 3666.975; -505.000; -332.000
437.772;  625.125; -692.000; -540.000
437.896;  157.850;  700.000;  544.000
438.019;  -73.800; -758.000; -503.000
438.142;  -71.200; -596.000; -506.000
438.265;   35.425; -639.000; -670.000
438.388;  871.450; -520.000; -410.000
438.511;  210.650; -597.000; -394.000
438.634;  -15.825; -247.000; -125.000
438.757; -129.375; -693.000; -619.000
438.880;   -7.775;  -34.000;  -57.000
439.003;  -55.825; -417.000; -437.000
439.126;  -63.550; -287.000; -167.000
439.248;  -62.725;  -98.000; -139.000
439.371;  -53.375;    9.000;  -53.000
439.494;   19.725;  510.000;  439.000
439.617;  -52.350;   65.000;  -88.000
439.740; -172.200; -968.000; -816.000
439.863; -153.200; -755.000; -595.000
439.986; -135.425; -476.000; -431.000
440.108;  -37.650; -161.000; -112.000
440.231; -162.500; -950.000; -836.000
440.354;  -33.825;  -64.000; -150.000
440.477;   95.425; -566.000; -542.000
440.599;   50.025; -200.000; -225.000
440.722; -114.500; -709.000; -586.000
440.845;   72.100;  751.000;  928.000
440.968; -119.950; -415.000; -311.000
441.090;  -88.625; -199.000;  -33.000
441.213; -174.525;-1021.000; -825.000
441.336;  -50.275; -159.000;   -5.000
441.458;  -71.700; -549.000; -396.000
441.581;  -69.700; -628.000; -629.000
441.703;  -67.525; -152.000;   13.000
441.826;  -98.900; -557.000; -400.000
441.948;  -60.525;   56.000;   51.000
442.071;   37.175;  555.000;  424.000
442.193; -116.350; -531.000; -485.000
442.316;   30.850;  152.000;   97.000
442.438;   42.500; -233.000;  -10.000
442.561;  100.600;  272.000;  262.000
442.683;  872.300; -809.000; -522.000
442.806; 1821.875;   -8.000;   74.000
442.928;  129.075; -859.000; -604.000
443.051;  -52.275; -577.000; -373.000
443.173;  -84.850; -341.000; -339.000
443.295;  -76.150; -263.000; -371.000
443.418;  -60.500; -321.000;  -29.000
443.540;    9.450; -106.000;   -4.000
443.662; -102.900; -563.000; -465.000
443.785;  -21.350;  335.000;  199.000
443.907; -103.000; -362.000; -208.000
444.029; -133.350; -767.000; -494.000
444.152; -145.900; -644.000; -554.000
444.274;  -31.350;  -18.000;  -24.000
444.396; -107.575; -461.000; -221.000
444.518; -128.625; -691.000; -454.000
444.640; -106.900; -268.000; -111.000
444.763;  -23.525;  388.000;  249.000
444.885; -118.475; -432.000; -392.000
445.007;  -32.500;   35.000;   86.000
445.129; -110.800; -610.000; -515.000
445.251;  -94.725; -372.000; -439.000
445.373; -134.275; -537.000; -386.000
445.495;   12.250;  242.000;  350.000
445.617;   47.100;  853.000;  753.000
445.739;  -61.600; -215.000;  -97.000
445.861;  -23.050; -245.000; -112.000
445.984;  -20.750; -267.000; -101.000
446.105;  322.500; -418.000; -251.000
446.227;  903.475; -176.000;  -19.000
446.349;   70.775; -358.000; -249.000
446.471;  -82.875; -615.000; -448.000
446.593;  -41.275; -316.000;   19.000
446.715;    7.925;  -67.000;   41.000
446.837;   70.075;  697.000;  832.000
446.959;  -84.275; -457.000; -478.000
447.081; -132.250; -628.000; -518.000
447.203;   59.850;  862.000;  834.000
447.325;  -70.425; -270.000;   42.000
447.446;    0.225;  286.000;  530.000
447.568; -148.825; -921.000; -803.000
447.690;  -75.625; -236.000; -245.000
447.812; -153.700; -798.000; -519.000
447.933;  -24.775;  155.000;  127.000
448.055;  -58.350; -306.000; -261.000
448.177;  198.875;   31.000;   79.000
448.299;  178.700; -935.000; -727.000
448.420;   44.300;  -25.000;  159.000
448.542;  -47.225;   -3.000;   33.000
448.664;  -19.775;  109.000;  322.000
448.785;  -34.525;  265.000;   83.000
448.907;  -68.700; -614.000; -353.000
449.028;    0.200; -771.000; -471.000
449.150;   84.100;  492.000;  589.000
449.272; -183.875;-1044.000; -913.000
449.393;   29.425;  612.000;  694.000
449.515; -130.325; -634.000; -581.000
449.636;  -49.375; -264.000; -155.000
449.758;   85.600;  763.000;  622.000
449.879;  -91.500; -498.000; -396.000
450.001;  -75.275; -149.000;  -49.000
450.122;  -30.950;  -95.000;  162.000
450.244;  -29.050;   37.000;  364.000
450.365;  -97.975; -495.000; -301.000
450.486;  -57.750;   80.000;  268.000
450.608;    2.075;  393.000;  326.000
450.729;   62.100;  578.000;  645.000
450.850;  -18.700; -574.000; -466.000
450.972;  531.350; -552.000; -389.000
451.093; 3832.275;  190.000;  588.000
451.214; 1674.225; -516.000; -337.000
451.336;  280.500;  773.000;  579.000
451.457;   51.700;  264.000;  393.000
451.578;  -46.350; -118.000;  -74.000
451.699; -124.450; -546.000; -540.000
451.821;  -63.250; -284.000;  -50.000
451.942;   -4.700;  278.000;  285.000
452.063;   20.550;  228.000;  419.000
452.184;  424.550;  -54.000;  -49.000
452.305;  907.225;  103.000;  170.000
452.427;   92.800; -549.000; -301.000
452.548;   -7.950;   23.000;   79.000
452.669;  -36.075; -257.000;  -89.000
452.790;  -43.975;    3.000;  -18.000
452.911;   -0.075;  195.000;  259.000
453.032;  -62.125; -289.000;  -60.000
453.153;  -28.775;  -29.000;   81.000
453.274;   74.850;  737.000;  868.000
453.395;  -55.450;  -51.000;  175.000
453.516;  138.125; 1317.000; 1388.000
453.637;  -37.200; -205.000; -150.000
453.758;  -54.100;   15.000;   69.000
453.879; -126.600; -462.000; -250.000
454.000;   80.025; 1086.000;  948.000
454.121; -114.600; -554.000; -326.000
454.242; -126.850; -599.000; -383.000
454.362;  -63.475;  -99.000;  114.000
454.483;  -26.425; -309.000; -229.000
454.604;   79.575;  512.000;  580.000
454.725; -108.725; -627.000; -555.000
454.846; -114.175; -474.000; -406.000
454.967;  -16.200;  230.000;  539.000
455.087;  -47.175;  179.000;  153.000
455.208;   24.775;  554.000;  856.000
455.329;  -66.275;  -22.000;   82.000
455.450;   29.750;  473.000;  633.000
455.570;  -79.550; -234.000; -211.000
455.691;  -42.725;  201.000;  407.000
455.812;  -98.675; -270.000;  -92.000
455.932;  -52.650;  107.000;  -97.000
456.053;  -80.450;   36.000;   24.000
456.173; -112.675; -433.000; -355.000
456.294; -132.175; -476.000; -303.000
456.415;  -66.025;  -73.000;   70.000
456.535;  -38.200;  297.000;  273.000
456.656;  -33.550;  132.000;  240.000
456.776;  -78.525;    3.000;  298.000
456.897;   -5.325;  308.000;  513.000
457.017;  -76.775; -153.000;   -3.000
457.138;  -97.400; -402.000; -249.000
457.258;  -31.600;  263.000;  224.000
457.379;   -3.675;  509.000;  521.000
457.499;  -29.675;  443.000;  432.000
457.620; -113.600; -407.000; -231.000
457.740; -104.675; -132.000;  -11.000
457.860;  -50.625;   87.000;   44.000
457.981;  -58.450;  132.000;  124.000
458.101;  -64.950;  -89.000;   40.000
458.221;  -20.550;  336.000;  402.000
458.342;  -59.875;   -4.000;  -37.000
458.462;    8.100;  617.000;  352.000
458.582;  -61.725; -302.000; -294.000
458.703;  -24.750;  303.000;  154.000
458.823;  -40.075;   22.000;  163.000
458.943;   18.050;  341.000;  467.000
459.063;  -12.250; 1124.000;  192.000
459.183;  -26.650;  328.000;  313.000
459.304;    6.650;  315.000;  517.000
459.424;  -65.275; -246.000;  -89.000
459.544;  278.150;  388.000;  764.000
459.664;  689.850;  499.000;  506.000
459.784;  285.800; 1004.000; 1175.000
459.904;   53.350;  867.000;  744.000
460.024;   92.125;  867.000;  684.000
460.144;   38.550;  449.000;  554.000
460.264;   -0.275;  515.000;  327.000
460.385;  -96.525; -145.000; -119.000
460.505;   35.775;  905.000;  858.000
460.625;  -92.175;  -17.000;  -68.000
460.745;  -19.850;  396.000;  541.000
460.864;  -49.450;  153.000;  469.000
460.984;   32.100;  499.000;  573.000
461.104;  142.475; 1656.000; 1775.000
461.224;    0.800;  657.000;  650.000
461.344;   -7.400;  431.000;  360.000
461.464;  -32.250;  258.000;  513.000
461.584;   -7.950;  283.000;  466.000
461.704;  -31.725;   58.000;  108.000
461.824;  -58.650;  238.000;  259.000
461.943;  -34.725;  191.000;  130.000
462.063;  -75.500;    2.000;  324.000
462.183;   32.525;  639.000;  717.000
462.303;  110.275; 1678.000; 1230.000
462.422;   25.550;  781.000;  840.000
462.542;  -44.125;  271.000;  391.000
462.662;   43.450;  353.000;  380.000
462.782;  203.325;  833.000;  572.000
462.901;  405.150;  545.000;  717.000
463.021;  257.775; 1702.000; 1638.000
463.141;   -2.150;  337.000;  770.000
463.260;  -21.325;  614.000;  474.000
463.380;    0.350;  902.000;  884.000
463.499;  -30.550;  342.000;  332.000
463.619;  -31.250;  581.000;  559.000
463.738;  115.450; 1644.000;  903.000
463.858;   32.175;  657.000;  811.000
463.978;  -39.525;  542.000;  396.000
464.097;   49.550;  921.000; 1114.000
464.217;  106.125; 1196.000; 1143.000
464.336;   87.850; 1068.000; 1130.000
464.455;  -27.075;  328.000;  659.000
464.575;   70.750;  597.000;  602.000
464.694;  203.150; 1204.000; 1179.000
464.814;  126.200; 1190.000; 1138.000
464.933;   73.225; 1095.000; 1027.000
465.052;  101.375; 1412.000; 1054.000
465.172;   84.475;  922.000;  799.000
465.291;  156.850; 1376.000; 1320.000
465.410;   21.050;  462.000;  735.000
465.530;   98.400; 1355.000; 1310.000
465.649;   75.300; 1209.000; 1273.000
465.768;  133.300; 1673.000; 1508.000
465.888;   55.950;  941.000; 1174.000
466.007;   82.800; 1335.000; 1440.000
466.126;    7.775;  721.000;  641.000
466.245;   37.800; 1176.000; 1187.000
466.364;   13.625;  950.000; 1060.000
466.484;   52.750; 1024.000; 1213.000
466.603;   27.500; 1101.000; 1222.000
466.722;  109.025; 1490.000; 1769.000
466.841;   80.225; 1151.000; 1401.000
466.960;   46.650; 1069.000;  972.000
467.079;  119.750; 1971.000; 1786.000
467.198;   41.700; 1238.000; 1181.000
467.317;   74.975; 1768.000; 1162.000
467.436;   67.750; 1709.000; 1261.000
467.555;  128.050; 1796.000; 1746.000
467.674;   79.000; 1227.000; 1329.000
467.793;   45.750; 1376.000; 1374.000
467.912;   86.250; 1658.000; 1539.000
468.031;  137.400; 2038.000; 1930.000
468.150;  158.300; 1842.000; 1837.000
468.269;  200.825; 2313.000; 2090.000
468.388;  190.075; 2168.000; 2339.000
468.507;  259.525; 2884.000; 2903.000
468.626;  226.475; 2555.000; 2541.000
468.744;  130.600; 2018.000; 2174.000
468.863;  193.725; 2312.000; 2523.000
468.982;   90.950; 1503.000; 1555.000
469.101;  227.250; 2788.000; 2692.000
469.220;  151.725; 2333.000; 2176.000
469.338;  250.525; 2935.000; 3051.000
469.457;  189.850; 2719.000; 2545.000
469.576;  345.725; 3953.000; 3784.000
469.695;  238.400; 2877.000; 3066.000
469.813;  438.950; 4148.000; 4192.000
469.932;  416.300; 4255.000; 4485.000
470.051;  424.525; 4075.000; 4161.000
470.169;  786.225; 4470.000; 4338.000
470.288; 1282.000; 4700.000; 4809.000
470.406;  789.925; 5059.000; 5194.000
470.525;  608.175; 6101.000; 5787.000
470.644;  660.075; 6847.000; 6794.000
470.762;  821.625; 8397.000; 7873.000
470.881;  885.000; 8651.000; 8464.000
470.999; 1037.800; 9685.000; 9151.000
471.118; 1120.350;11174.000;10711.000

