
Integration time [ms]: 100.000
Averaging Nr. [scans]: 40
Smoothing Nr. [pixels]: 0
Data measured with spectrometer [name]: 2101012U2
Wave   ;Sample   ;Dark     ;Reference
[nm]   ;[counts] ;[counts] ;[counts] 

197.733;   54.400;  516.000;  404.000
197.879;  -80.600; -610.000; -634.000
198.025;  -51.550; -475.000; -420.000
198.171;  -67.575; -602.000; -612.000
198.317;  -25.225; -401.000; -316.000
198.463;  -63.600; -655.000; -404.000
198.609;   31.525;  181.000; -137.000
198.755;  -85.525; -644.000; -410.000
198.901;  -62.975; -505.000; -424.000
199.047;  -56.775; -615.000; -488.000
199.193;  -45.950; -230.000; -468.000
199.339;  -51.425; -222.000; -369.000
199.485;   39.175;  330.000;  271.000
199.631;   26.350;  227.000;  310.000
199.777;  -52.625; -466.000; -398.000
199.923;  -65.650; -610.000; -424.000
200.069;    1.425; -141.000;  -58.000
200.215;   55.525;  128.000;  453.000
200.361;   47.250;  243.000;  477.000
200.507;  -63.225; -600.000; -373.000
200.653;  -20.250; -371.000; -194.000
200.798;  -41.475; -215.000; -125.000
200.944;   -7.175; -146.000;  -41.000
201.090;   39.925;   61.000;  222.000
201.236;    0.575; -116.000; -158.000
201.382;  142.900;  874.000;  903.000
201.528;    9.475;  -58.000;  -48.000
201.674;  -56.275; -386.000; -293.000
201.819;  -68.950; -540.000; -439.000
201.965;  -82.725; -699.000; -447.000
202.111;  -20.025; -273.000; -226.000
202.257;  -40.325; -250.000; -238.000
202.402;   10.525;   13.000;  -36.000
202.548;  -50.475; -169.000; -116.000
202.694;   78.650;  410.000; -183.000
202.840;  -67.275; -603.000; -531.000
202.985;  -86.650; -681.000; -639.000
203.131; -101.150; -832.000; -666.000
203.277;  -12.525; -199.000; -262.000
203.423;  -49.075; -434.000; -520.000
203.568;  -33.300; -462.000; -237.000
203.714;  -62.375; -535.000; -542.000
203.860;  -71.975; -682.000; -641.000
204.005;   12.150;  112.000;  167.000
204.151;   71.800;  561.000;  556.000
204.296;  -46.150; -354.000; -221.000
204.442;  -84.800; -600.000; -547.000
204.588;  -78.900; -592.000; -579.000
204.733;   10.050;  178.000;  168.000
204.879; -119.675;-1018.000; -822.000
205.025;    4.100;  -99.000;  126.000
205.170;  -15.075;  -17.000;   94.000
205.316;   88.800;  438.000;  661.000
205.461;  -61.550; -698.000; -554.000
205.607;   88.950;  609.000;  665.000
205.752;  -80.275; -626.000; -551.000
205.898;  -38.125; -501.000; -391.000
206.043;  -56.175; -578.000; -506.000
206.189;  -52.075; -243.000; -285.000
206.334;   90.575;  554.000;  606.000
206.480;   73.600;  409.000;  239.000
206.625;  -84.750; -529.000; -552.000
206.771;  -47.550; -451.000; -373.000
206.916;  -41.825; -210.000; -537.000
207.062;  -67.250; -545.000; -591.000
207.207;  -58.225; -546.000; -443.000
207.353;   51.125;  185.000;  460.000
207.498;   23.150;  196.000;   85.000
207.643;  -47.550; -501.000; -370.000
207.789; -142.175;-1069.000; -910.000
207.934;  -95.100; -665.000; -713.000
208.080;  -17.050; -154.000;   66.000
208.225;  -13.550;  -22.000;  -57.000
208.370;  -78.100; -727.000; -619.000
208.516;  -75.875; -741.000; -487.000
208.661;  -39.675; -127.000;  -69.000
208.806;  -31.075; -165.000; -171.000
208.952; -121.850;-1044.000; -731.000
209.097;   73.825;  378.000;  349.000
209.242;  -38.450; -307.000; -382.000
209.387;   69.750;  392.000;  350.000
209.533;  -46.825; -321.000; -350.000
209.678;   84.475;  472.000;  543.000
209.823;  -54.600; -408.000; -310.000
209.969; -106.625; -860.000; -757.000
210.114; -114.950; -907.000; -719.000
210.259; -118.100; -939.000; -889.000
210.404;   -9.300; -171.000;  103.000
210.549;    5.900;  108.000;    3.000
210.695;   -3.475;   -3.000;  -95.000
210.840;   30.275;   94.000;   67.000
210.985;  -60.925; -484.000; -303.000
211.130;   85.500;  268.000;  406.000
211.275;   10.625;  207.000;  199.000
211.420;  -56.375; -300.000; -289.000
211.566;  -75.875; -536.000; -489.000
211.711;   22.475;  218.000;  157.000
211.856;  -67.300; -545.000; -519.000
212.001;   10.375;  151.000;   44.000
212.146;   34.600;  153.000;   49.000
212.291;  -14.250; -210.000; -186.000
212.436;  -24.700; -280.000;   -6.000
212.581;  -87.150; -685.000; -653.000
212.726;  -63.625; -487.000; -538.000
212.871;  -45.625; -552.000; -217.000
213.016; -140.975;-1172.000;-1029.000
213.161;   69.800;  406.000;  291.000
213.306;  -82.450; -435.000; -577.000
213.451; -101.100; -778.000; -689.000
213.596;  -48.150; -455.000; -347.000
213.741;  -55.600; -448.000; -538.000
213.886;  -72.300; -498.000; -517.000
214.031;  -32.075; -294.000; -124.000
214.176;  -45.550; -408.000; -341.000
214.321;  -26.975; -296.000; -157.000
214.466;  -28.975; -163.000;  -43.000
214.611;   -5.650;  -61.000;  -10.000
214.756; -117.200; -948.000; -858.000
214.901;  -19.850; -388.000; -226.000
215.046; -132.650; -797.000; -825.000
215.191;    4.050;  128.000;   35.000
215.336;   -4.250; -157.000;  -19.000
215.480;  -65.400; -684.000; -505.000
215.625;   -2.400; -175.000;  -19.000
215.770;  -82.200; -757.000; -662.000
215.915;  -10.250;   -5.000;  -97.000
216.060;   -5.075; -113.000;  -21.000
216.205; -106.700; -731.000; -779.000
216.349;  -73.825; -470.000; -533.000
216.494; -127.050; -939.000; -867.000
216.639; -126.775; -823.000; -888.000
216.784;  -82.175; -577.000; -525.000
216.929;   53.650;  392.000;  281.000
217.073;  -10.875; -244.000;  -31.000
217.218;    6.625;   78.000;  -47.000
217.363;  -77.325; -656.000; -618.000
217.507;  -82.275; -623.000; -588.000
217.652; -127.175; -845.000; -874.000
217.797;  -88.700; -708.000; -659.000
217.942; -111.800; -856.000; -720.000
218.086;   68.775;  608.000;  539.000
218.231;  -16.075; -174.000;  -26.000
218.376;  -31.200; -337.000; -229.000
218.520;   -6.525;  -41.000;   96.000
218.665;  -40.400; -338.000; -204.000
218.810;  -44.625; -275.000; -233.000
218.954;   23.650;  201.000;   35.000
219.099; -107.175; -713.000; -963.000
219.243;  -68.375; -589.000; -554.000
219.388;  -32.775; -264.000; -136.000
219.532;  -12.225; -116.000; -116.000
219.677;  -74.500; -564.000; -521.000
219.822;    9.375;   33.000;   89.000
219.966;    3.925;   17.000;  -99.000
220.111;  -27.250; -328.000;  -40.000
220.255;  -98.625; -797.000; -750.000
220.400;   -9.450; -180.000; -146.000
220.544;  -68.250; -516.000; -450.000
220.689;  -59.900; -422.000; -451.000
220.833;  -15.225; -123.000;  -58.000
220.978;  -55.625; -393.000; -563.000
221.122;   22.450;  319.000;  307.000
221.267; -115.250; -906.000; -837.000
221.411;  -71.700; -478.000; -394.000
221.555;  -13.200; -104.000;  -23.000
221.700;  -51.425; -329.000; -222.000
221.844;   33.475;  255.000;  272.000
221.989;  -36.750; -328.000; -311.000
222.133;  -33.875; -289.000; -307.000
222.277;   -8.600;    5.000;   78.000
222.422;   16.250;  227.000;  113.000
222.566;  -33.350; -381.000; -214.000
222.711;  -56.900; -414.000; -479.000
222.855;  -83.000; -643.000; -586.000
222.999;  -76.150; -642.000; -717.000
223.144;  -12.075; -195.000; -194.000
223.288;   47.000;  423.000;  251.000
223.432;   40.075;  184.000;  230.000
223.576;   31.075;  152.000;  -21.000
223.721;   42.325;  364.000;  273.000
223.865;  -47.375; -472.000; -475.000
224.009;  222.200; 1673.000; 1631.000
224.153;  -87.925; -660.000; -671.000
224.298;  -83.025; -531.000; -489.000
224.442;   -9.225;  -74.000;  -33.000
224.586;  -11.050; -169.000; -106.000
224.730; -104.650; -858.000; -670.000
224.875; -109.550; -739.000; -688.000
225.019;   15.225;  102.000;  188.000
225.163;   55.875;  208.000;  341.000
225.307;    5.700;   97.000;  -91.000
225.451;   46.800;  360.000;  481.000
225.595;   24.600;  264.000;  176.000
225.739;  -17.850; -170.000;  -94.000
225.884;  -11.500;   86.000;    5.000
226.028; -104.625; -760.000; -626.000
226.172;  -43.250; -260.000; -273.000
226.316; -127.700; -941.000; -902.000
226.460;  -67.900; -645.000; -493.000
226.604;  -53.650; -406.000; -400.000
226.748; -107.450; -836.000; -733.000
226.892;  -43.050; -227.000; -181.000
227.036;  -56.900; -537.000; -447.000
227.180;  -70.750; -551.000; -375.000
227.324;  -74.000; -561.000; -580.000
227.468; -117.225; -819.000; -717.000
227.612;    8.325;  242.000;  -28.000
227.756; -110.800; -845.000; -698.000
227.900;   48.025;  342.000;  441.000
228.044;  -58.900; -509.000; -290.000
228.188;   60.125;  448.000;  568.000
228.332;  -81.550; -546.000; -472.000
228.476;  -29.600; -223.000; -149.000
228.620;  -32.350; -210.000; -150.000
228.764;   67.225;  431.000;  349.000
228.908;  -21.325; -155.000;   30.000
229.052;  -65.600; -615.000; -528.000
229.195;  -18.000; -172.000;   13.000
229.339;  -28.950; -235.000; -305.000
229.483;  -32.225;    5.000; -162.000
229.627;   -4.875; -156.000;  139.000
229.771;  -43.675; -218.000; -294.000
229.915;   12.650;  230.000;   79.000
230.059;  -93.375; -648.000; -663.000
230.202;  -45.950; -370.000; -317.000
230.346;  -17.375; -107.000;  107.000
230.490;  -70.950; -489.000; -521.000
230.634; -119.500; -736.000; -553.000
230.777;   70.075;  478.000;  509.000
230.921;  -45.825; -450.000; -359.000
231.065;  -41.400; -246.000; -286.000
231.209;   15.050;  261.000;  265.000
231.352;   26.425;   54.000;   40.000
231.496;   24.250;  568.000;  188.000
231.640;  -74.050; -693.000; -621.000
231.783;   71.800;  546.000;  525.000
231.927;  -46.425; -294.000; -365.000
232.071; -128.500; -962.000; -736.000
232.214; -118.000; -980.000; -764.000
232.358;  -90.200; -683.000; -599.000
232.502;    6.975;  -19.000;    7.000
232.645; -137.950;-1090.000; -927.000
232.789;  -18.575; -257.000; -218.000
232.933;  -29.400; -407.000; -224.000
233.076; -128.425;-1038.000; -897.000
233.220; -112.025; -752.000; -777.000
233.363;  -73.375; -669.000; -477.000
233.507;   65.700;  371.000;  129.000
233.650;  -99.725; -764.000; -834.000
233.794;   44.375;  438.000;  461.000
233.938;  -66.750; -530.000; -362.000
234.081;  -13.700;  -93.000;   31.000
234.225;  -65.850; -631.000; -539.000
234.368; -110.150; -773.000; -723.000
234.512;  -44.650; -385.000; -299.000
234.655;  -91.525; -582.000; -555.000
234.798;  -66.950; -493.000; -466.000
234.942; -144.700; -884.000;-1002.000
235.085;  -85.775; -651.000; -443.000
235.229;  -77.175; -405.000; -410.000
235.372;  -52.700; -247.000; -191.000
235.516;  -51.750; -397.000; -321.000
235.659;   13.675;   92.000;  121.000
235.802;  -16.875;  -38.000;  -22.000
235.946;   29.275;  335.000;  215.000
236.089;   27.450;  126.000;  250.000
236.233;   49.225;  275.000;  298.000
236.376;  -47.125; -235.000; -378.000
236.519;  -52.925; -297.000; -319.000
236.663;  -26.600; -215.000; -117.000
236.806; -143.550;-1029.000; -999.000
236.949;   48.575;  543.000;  431.000
237.092;   57.550;  412.000;  391.000
237.236;  -94.750; -589.000; -502.000
237.379;   70.875;  352.000;  428.000
237.522; -121.275; -879.000; -768.000
237.666;  -18.000; -271.000;   18.000
237.809; -142.250; -851.000; -823.000
237.952;   31.750;  469.000;  271.000
238.095;  -61.375; -447.000; -442.000
238.238;   85.850;  688.000;  700.000
238.382;    2.750;  166.000;  103.000
238.525;  -74.200; -598.000; -511.000
238.668; -142.800;-1060.000; -985.000
238.811;  -77.500; -638.000; -643.000
238.954;  -63.000; -483.000; -334.000
239.097;   92.325;  617.000;  664.000
239.241;   15.650;  394.000;  326.000
239.384;  -29.600; -254.000; -214.000
239.527;  -71.825; -424.000; -224.000
239.670; -152.075; -994.000;-1091.000
239.813; -108.050; -696.000; -658.000
239.956;   81.525;  579.000;  473.000
240.099; -114.425; -778.000; -725.000
240.242;   69.700;  428.000;  432.000
240.385;   52.825;  466.000;  450.000
240.528;  -84.350; -706.000; -473.000
240.671;   15.950;  189.000;  134.000
240.814;  -35.350; -441.000; -158.000
240.957;  -89.800; -767.000; -578.000
241.100;  -88.975; -779.000; -755.000
241.243; -141.450;-1234.000; -893.000
241.386;  -60.500; -508.000; -379.000
241.529;  -91.125; -735.000; -547.000
241.672;  -68.625; -566.000; -495.000
241.815; -118.525; -832.000; -808.000
241.958;  -35.950; -125.000; -182.000
242.101;  -86.675; -545.000; -390.000
242.244;  -46.675; -270.000; -325.000
242.387;  -45.525; -304.000; -246.000
242.530;   52.150;  470.000;  134.000
242.673;  -48.925; -381.000; -309.000
242.815; -122.275; -925.000; -899.000
242.958;  -61.775; -482.000; -381.000
243.101;   20.850;  132.000;  187.000
243.244;  -77.625; -564.000; -521.000
243.387;  -53.150; -313.000; -316.000
243.530; -101.025; -657.000; -674.000
243.672;   13.525;   43.000;  -92.000
243.815;  -40.925; -355.000; -283.000
243.958;   -2.625;   98.000;  -26.000
244.101;    5.575;   59.000;  -16.000
244.243;   -2.225;  -47.000;  101.000
244.386; -108.775; -761.000; -630.000
244.529;  -26.300; -132.000; -139.000
244.672; -149.075;-1154.000; -951.000
244.814; -100.675; -621.000; -794.000
244.957;  -46.850; -380.000; -304.000
245.100;  -79.625; -489.000; -489.000
245.242;  -66.975; -387.000; -374.000
245.385;  -14.100;  -59.000;  -39.000
245.528; -115.900; -871.000; -705.000
245.670;   97.575;  612.000;  634.000
245.813;  -91.375; -599.000; -547.000
245.956;  -34.350; -324.000; -275.000
246.098;  -86.350; -508.000; -650.000
246.241;    1.425;  194.000;   48.000
246.383;   -8.525; -119.000;  -73.000
246.526;  -73.075; -454.000; -525.000
246.669; -119.700; -889.000; -780.000
246.811;   16.950;  172.000;   -1.000
246.954;  -71.050; -512.000; -426.000
247.096;  -17.000;  -84.000;   -6.000
247.239;  -69.625; -482.000; -445.000
247.381;  -78.150; -647.000; -488.000
247.524;   88.275;  645.000;  679.000
247.666;   -5.425;   58.000;   11.000
247.809; -127.475; -887.000; -691.000
247.951;  -12.200;  -75.000;  138.000
248.094;   47.175;  432.000;  308.000
248.236; -169.850;-1262.000;-1238.000
248.378;   -5.075; -356.000;  -81.000
248.521;  -32.100; -334.000; -337.000
248.663;  -44.600; -236.000; -267.000
248.806;  -21.500; -300.000; -266.000
248.948;  -98.200; -886.000; -763.000
249.090;  -57.450; -428.000; -398.000
249.233;  -54.450; -344.000; -381.000
249.375;  -77.650; -474.000; -451.000
249.518;  -22.450;  -83.000; -133.000
249.660;  -18.725; -103.000;    3.000
249.802; -181.750;-1303.000;-1189.000
249.945;  -78.875; -612.000; -540.000
250.087; -111.050; -834.000; -768.000
250.229;  -57.100; -362.000; -480.000
250.371;  -72.450; -494.000; -439.000
250.514;  -48.350; -310.000; -244.000
250.656;  -63.700;   69.000;  102.000
250.798; -128.400; -849.000; -800.000
250.940;  -73.050; -322.000; -322.000
251.083;  -40.125; -335.000; -111.000
251.225;   65.425;  338.000;  310.000
251.367;  -41.775; -274.000; -373.000
251.509;  -25.900; -265.000; -210.000
251.651; -111.775; -731.000; -671.000
251.794;   57.675;  538.000;  632.000
251.936; -109.525; -821.000; -747.000
252.078;  -80.125; -540.000; -461.000
252.220;  -73.100; -645.000; -477.000
252.362;   86.125;  344.000;  462.000
252.504;  -82.100; -677.000; -584.000
252.646; -115.675; -875.000; -722.000
252.788;    1.475;   14.000; -128.000
252.931;  -40.725; -257.000; -253.000
253.073;  -40.725; -376.000; -317.000
253.215;   -8.500;  141.000;  122.000
253.357;   -4.200;   82.000; -153.000
253.499;  -59.600; -374.000; -234.000
253.641;  -74.000; -749.000; -594.000
253.783; -105.325; -609.000; -527.000
253.925;  -81.850; -586.000; -591.000
254.067; -105.925; -744.000; -667.000
254.209;  -37.125; -391.000; -259.000
254.351; -140.900; -865.000; -883.000
254.493;  -56.225; -441.000; -417.000
254.635; -131.500; -936.000; -818.000
254.777;  -86.700; -752.000; -687.000
254.918;  -66.025; -512.000; -430.000
255.060;  -68.375; -551.000; -395.000
255.202;  -74.825; -473.000; -261.000
255.344;  -74.625; -658.000; -455.000
255.486;  -81.425; -471.000; -406.000
255.628; -117.025; -780.000; -781.000
255.770; -119.950; -676.000; -536.000
255.912;  -68.600; -559.000; -468.000
256.053;  -99.500; -730.000; -508.000
256.195;  155.950; 1008.000;  903.000
256.337; -106.200; -861.000; -595.000
256.479;   67.275;  532.000;  416.000
256.621;  -41.050; -394.000; -212.000
256.762;  -98.400; -789.000; -742.000
256.904;   55.800;  485.000;  487.000
257.046;  -43.100; -381.000; -271.000
257.188;  -54.700; -351.000; -264.000
257.329;  -68.300; -525.000; -464.000
257.471; -118.225; -939.000; -807.000
257.613;  -68.900; -584.000; -498.000
257.755; -159.550;-1073.000; -982.000
257.896;   33.400;  286.000;  392.000
258.038;  -80.225; -403.000; -352.000
258.180;  -39.275; -354.000; -279.000
258.321;  -86.750; -581.000; -457.000
258.463;   -4.200;  -71.000;  133.000
258.605;  -92.425; -562.000; -570.000
258.746; -118.250; -886.000; -772.000
258.888; -147.350;-1026.000;-1020.000
259.029;   20.225;  121.000;   -8.000
259.171;  -89.050; -614.000; -550.000
259.313;    6.750;  -49.000;  -47.000
259.454;  -74.325; -536.000; -414.000
259.596;  -65.075; -483.000; -390.000
259.737;  -77.175; -590.000; -474.000
259.879;   39.250;  217.000;  311.000
260.020;   92.250;  901.000;  636.000
260.162;  -28.950; -146.000; -253.000
260.303; -118.625; -768.000; -687.000
260.445;  -93.500; -609.000; -613.000
260.586;   17.350;  392.000;  157.000
260.728;  -36.450; -360.000; -248.000
260.869; -119.825; -350.000; -343.000
261.011;   79.375;  706.000;  537.000
261.152;  -65.450; -479.000; -319.000
261.293;  -85.825; -576.000; -595.000
261.435;  -31.175; -219.000; -184.000
261.576;  -62.125; -455.000; -325.000
261.718;   52.025;  420.000;  470.000
261.859; -131.000; -940.000; -949.000
262.000; -147.625; -951.000;-1016.000
262.142;  -18.600;  -52.000;  -60.000
262.283; -118.975; -808.000; -691.000
262.424;  -94.550; -666.000; -625.000
262.566; -160.075;-1161.000; -983.000
262.707; -119.975; -840.000; -830.000
262.848; -125.550; -769.000; -726.000
262.990;  -48.025; -362.000; -345.000
263.131;   74.350;  650.000;  681.000
263.272;   -7.075;  -61.000;  -41.000
263.413;  -90.150; -589.000; -561.000
263.555;  -63.100; -669.000; -143.000
263.696;  -81.425; -550.000; -641.000
263.837;  -48.775; -449.000; -551.000
263.978;   -9.150;   -5.000;  -77.000
264.119;  -52.175; -283.000; -264.000
264.261; -130.975; -847.000; -630.000
264.402;   -1.700;   33.000;   40.000
264.543;  -81.175; -509.000; -524.000
264.684;  -11.725;   61.000;  -50.000
264.825;  -78.875; -816.000; -538.000
264.966;   -2.625;  -84.000;  -67.000
265.107; -121.725; -646.000; -670.000
265.248; -126.225; -825.000; -812.000
265.390;   -7.900;  152.000;   -9.000
265.531;  -29.975; -238.000; -107.000
265.672;  -75.350; -557.000; -630.000
265.813;   63.850;  563.000;  439.000
265.954; -158.175; -959.000; -940.000
266.095;  -17.650; -372.000; -322.000
266.236;  -98.600; -686.000; -548.000
266.377;  -40.025; -243.000; -297.000
266.518;  -72.350; -619.000; -547.000
266.659;   24.800;  170.000;  268.000
266.800;   -2.325;   83.000;   85.000
266.941;  -73.875; -487.000; -478.000
267.082;   23.675;  354.000;   99.000
267.223;  -53.650; -344.000; -273.000
267.364; -115.475; -892.000; -686.000
267.504;  -16.600;    3.000;  135.000
267.645;   -8.275;  160.000;   67.000
267.786;  -36.850; -147.000;  -86.000
267.927;  -75.350; -473.000; -379.000
268.068;  -24.500; -186.000;  -61.000
268.209;  -46.375; -175.000; -413.000
268.350;  -65.450; -388.000; -532.000
268.490;  -90.350; -648.000; -521.000
268.631;   20.150;  127.000;  225.000
268.772; -106.050; -874.000; -647.000
268.913;  -56.100; -328.000; -476.000
269.054;  -18.825; -117.000;   12.000
269.194;  -57.150; -418.000; -402.000
269.335; -155.475;-1137.000;-1074.000
269.476;  -10.650;   33.000;  -35.000
269.617;  -52.625; -347.000; -392.000
269.757;  -90.050; -713.000; -646.000
269.898;  -99.725; -856.000; -613.000
270.039;  -61.225; -415.000; -405.000
270.180; -130.600; -952.000; -816.000
270.320;  -26.775; -190.000; -250.000
270.461;  -47.675; -277.000; -249.000
270.602;   -7.925; -186.000; -156.000
270.742; -115.000; -868.000; -943.000
270.883;  -57.775; -442.000; -390.000
271.023;  -59.575; -358.000; -357.000
271.164;  -71.025; -607.000; -528.000
271.305; -109.800; -666.000; -654.000
271.445;  -96.050; -722.000; -683.000
271.586;  -70.525; -462.000; -283.000
271.726;  -45.225; -397.000; -322.000
271.867;  -62.975; -594.000; -534.000
272.008;  174.500; -473.000; -285.000
272.148;  145.550;  462.000;  468.000
272.289;    8.650; -113.000; -181.000
272.429;   13.150;   19.000;  185.000
272.570;  -93.325; -633.000; -737.000
272.710; -107.900; -825.000; -775.000
272.851;  -26.375;  113.000; -130.000
272.991; -165.000;-1173.000;-1077.000
273.131;  -79.500; -419.000; -459.000
273.272;  -89.925; -683.000; -723.000
273.412;   -1.200; -143.000;  -31.000
273.553;  -60.325; -488.000; -507.000
273.693;  135.425;  913.000;  858.000
273.834; -100.700; -894.000; -692.000
273.974;  -79.750; -664.000; -615.000
274.114; -112.275; -772.000; -560.000
274.255;   75.875;  414.000;  373.000
274.395;   -2.900; -180.000; -125.000
274.535;   28.825;  199.000;  350.000
274.676;   11.525;  225.000;   94.000
274.816;    7.775;  110.000;   34.000
274.956;  -88.600; -624.000; -690.000
275.097;  -68.775;-1014.000; -922.000
275.237; -111.550; -913.000; -803.000
275.377;  -99.875; -778.000; -689.000
275.517; -156.025; -878.000; -937.000
275.658;  -58.225; -590.000; -555.000
275.798;  -68.975; -606.000; -413.000
275.938;   17.375;  215.000;  323.000
276.078; -102.700; -626.000; -395.000
276.218;    5.800;   99.000;  104.000
276.359; -136.525;-1026.000;-1024.000
276.499;  -80.600; -605.000; -446.000
276.639;  -38.050; -305.000; -151.000
276.779;  -53.900; -475.000; -357.000
276.919;  -97.025; -783.000; -624.000
277.059;  -14.025; -261.000; -212.000
277.199;  -54.225; -357.000; -259.000
277.340;   45.925;  287.000;  175.000
277.480; -117.325; -840.000; -693.000
277.620;   37.550;  192.000;   16.000
277.760; -209.025;-1533.000;-1294.000
277.900;   12.325;  113.000;   33.000
278.040;   16.750;  137.000;  159.000
278.180;   35.850;  270.000;  170.000
278.320;  -11.000;   21.000;   56.000
278.460;  -81.125; -443.000; -469.000
278.600;  -92.075; -708.000; -598.000
278.740;   62.275;  448.000;  224.000
278.880;  -78.675; -768.000; -791.000
279.020;   -9.750; -194.000; -144.000
279.160;  -93.400; -672.000; -595.000
279.300; -125.425; -926.000; -873.000
279.440;  -94.175; -709.000; -622.000
279.579;  -26.350;-1014.000; -929.000
279.719;  -63.125; -410.000; -394.000
279.859;   53.925;   -4.000;   41.000
279.999;   12.200; -208.000;  101.000
280.139;  -18.025; -435.000; -387.000
280.279;  -75.400; -708.000; -745.000
280.419;  -22.750; -229.000; -147.000
280.559;  -45.225; -259.000; -180.000
280.698;  -82.925; -790.000; -639.000
280.838;  -96.025; -778.000; -800.000
280.978; -106.850; -846.000; -790.000
281.118; -115.625; -811.000; -704.000
281.257;    2.175;   24.000;    6.000
281.397; -130.450;-1094.000; -960.000
281.537;  -98.375; -599.000; -712.000
281.677;  -33.400; -150.000; -101.000
281.816;  -90.325; -700.000; -630.000
281.956;  -30.075; -193.000; -257.000
282.096;  -69.625; -539.000; -396.000
282.235; -111.700; -672.000; -638.000
282.375;  -24.700; -243.000;  -98.000
282.515; -113.150; -715.000; -707.000
282.654;   24.950;   29.000;  106.000
282.794;   19.625;  388.000;  244.000
282.934;  -70.300; -530.000; -491.000
283.073; -139.025;-1030.000; -857.000
283.213;  -55.250; -460.000; -467.000
283.353;  -51.200; -408.000; -349.000
283.492;  -37.650; -264.000; -296.000
283.632;  -50.225; -254.000; -168.000
283.771; -104.375; -859.000; -730.000
283.911;  -52.500; -369.000; -260.000
284.050; -114.175; -794.000; -748.000
284.190; -162.075;-1229.000;-1096.000
284.329; -137.050;-1055.000; -964.000
284.469;  -79.825; -516.000; -591.000
284.608;  -54.950; -559.000; -598.000
284.748;  -77.550; -614.000; -570.000
284.887;  -24.425;  -87.000;  -20.000
285.027; -130.125; -844.000; -892.000
285.166;  -39.875; -192.000; -249.000
285.306;   -7.800; -116.000;  -33.000
285.445;  -42.625; -229.000; -343.000
285.584;  -90.000; -630.000; -494.000
285.724;  -43.500; -282.000; -322.000
285.863; -122.450; -857.000; -507.000
286.002;  -51.800; -366.000; -276.000
286.142; -114.700; -715.000; -622.000
286.281;  -84.925; -525.000; -493.000
286.420;  -84.425; -554.000; -417.000
286.560;   99.825;  653.000;  623.000
286.699; -141.250; -958.000; -912.000
286.838;  -83.225; -590.000; -591.000
286.978;  -81.875; -533.000; -537.000
287.117; -125.900;-1085.000; -950.000
287.256;  -39.575; -228.000; -211.000
287.395;  -54.800; -197.000; -378.000
287.535;  -44.075; -370.000; -298.000
287.674;  -94.825; -509.000; -484.000
287.813;   63.275;  661.000;  533.000
287.952; -127.550;-1010.000; -871.000
288.091; -149.200;-1049.000; -915.000
288.231;    7.475;   13.000;   15.000
288.370; -180.350;-1217.000;-1200.000
288.509; -101.200; -728.000; -645.000
288.648;  -94.200; -770.000; -548.000
288.787;  -28.400; -243.000;  -87.000
288.926;  -51.950; -454.000; -475.000
289.065;  111.650;  859.000;  672.000
289.204;  -57.975; -377.000; -217.000
289.344; -104.425; -791.000; -690.000
289.483;   34.500;  416.000;  304.000
289.622;  -35.125; -291.000; -149.000
289.761;  -16.500; -309.000; -166.000
289.900; -111.300; -785.000; -626.000
290.039;  -19.425;  -12.000;  -95.000
290.178;  -58.700; -274.000; -180.000
290.317;  -75.025; -618.000; -479.000
290.456;  -71.175; -463.000; -451.000
290.595; -151.450; -961.000; -833.000
290.734; -149.800; -904.000; -891.000
290.873;  -74.900; -456.000; -420.000
291.011; -115.975; -833.000; -843.000
291.150; -107.800; -770.000; -682.000
291.289;  -32.300; -343.000; -110.000
291.428; -101.225; -599.000; -480.000
291.567;  -41.050; -370.000; -442.000
291.706;   -3.700;  109.000;  154.000
291.845;  -94.450; -597.000; -505.000
291.984; -163.375;-1234.000;-1061.000
292.122;   64.000;  602.000;  582.000
292.261;   34.300;  620.000;  463.000
292.400;   12.175; -144.000;  211.000
292.539; -126.175; -959.000; -813.000
292.678;  -34.350; -325.000; -300.000
292.816; -158.300;-1136.000; -965.000
292.955;  -91.550; -844.000; -684.000
293.094;  -25.025; -173.000; -337.000
293.233;  -57.000; -556.000; -400.000
293.371;  -37.200; -225.000;  -84.000
293.510; -103.850; -866.000; -780.000
293.649; -134.775; -959.000; -924.000
293.787;  -79.175;-1083.000;-1012.000
293.926;   -5.750; -113.000;  -32.000
294.065;  -44.925; -379.000; -290.000
294.203;   57.425;  298.000;  406.000
294.342;   11.300;   74.000;  156.000
294.481; 5545.875;51180.000; -836.000
294.619;  -31.000; -425.000; -582.000
294.758; -158.225;-1230.000;-1137.000
294.896;   70.875; -125.000;    5.000
295.035; -124.350;-1040.000;-1006.000
295.174; -134.500;-1082.000; -954.000
295.312;  -54.525; -323.000; -203.000
295.451;  -22.150; -307.000; -428.000
295.589;  -67.100; -389.000; -518.000
295.728;   20.950; -292.000; -165.000
295.866;   -3.850;  -36.000;  -51.000
296.005;  -64.825; -584.000; -341.000
296.143;  -70.600; -558.000; -596.000
296.282; -108.550; -957.000; -881.000
296.420;  -94.325; -657.000; -557.000
296.559;  -90.425; -892.000; -633.000
296.697;   -1.550; -847.000; -665.000
296.835;   35.875;-1141.000;-1002.000
296.974;   44.075;  -23.000;   39.000
297.112;   -5.450; -443.000; -504.000
297.251;  -83.525; -815.000; -755.000
297.389;   77.350; -576.000; -438.000
297.527;   29.675; -145.000;  -83.000
297.666;  -58.325; -486.000; -438.000
297.804;  -57.250; -404.000; -264.000
297.942;  -11.000; -136.000; -161.000
298.081;  -12.975; -183.000;   63.000
298.219;   61.525;  -17.000;  -19.000
298.357;   47.225; -144.000;  -71.000
298.495;   30.600; -810.000; -812.000
298.634;   70.275;  245.000;  219.000
298.772;   45.925; -220.000; -338.000
298.910;  -56.525; -309.000; -182.000
299.048;  -16.375; -130.000; -153.000
299.187;  -25.675; -350.000; -250.000
299.325;    4.250;   52.000;  122.000
299.463;   46.725; -389.000; -299.000
299.601;   89.575; -327.000; -271.000
299.739; -111.775; -908.000; -883.000
299.877;  -78.300; -791.000; -703.000
300.016;  -59.275;-1095.000; -935.000
300.154;  143.750;  -19.000; -161.000
300.292;   29.475; -428.000; -348.000
300.430;   20.475; -408.000; -291.000
300.568; -110.000; -940.000; -874.000
300.706;  -49.550; -366.000; -469.000
300.844;  -77.475;-1108.000; -979.000
300.982;  122.375;  246.000;  282.000
301.120; -117.225; -965.000; -866.000
301.258;  -75.475; -812.000; -705.000
301.396;   19.600;  104.000;  -41.000
301.534;   54.675; -218.000; -293.000
301.672;  -20.975; -664.000; -521.000
301.810;   25.450; -613.000; -545.000
301.948;  110.950;   53.000;  149.000
302.086;  567.000; -250.000;  -32.000
302.224;  883.575; -610.000; -585.000
302.362;   16.175; -558.000; -622.000
302.500;  -37.575; -923.000; -893.000
302.638;   91.500;  128.000;  245.000
302.776;  -17.100; -352.000; -408.000
302.913;   39.175;  447.000;  236.000
303.051;    6.675;  -86.000;  -23.000
303.189;   33.725;   90.000;  118.000
303.327;  -44.100; -341.000; -256.000
303.465;  -85.200; -832.000; -588.000
303.603;  -89.875; -805.000; -604.000
303.740;   95.725;  417.000;  241.000
303.878;    4.975; -800.000; -759.000
304.016;  -95.025; -915.000; -790.000
304.154; -126.250;-1123.000;-1152.000
304.291;  -40.350; -505.000; -554.000
304.429;    6.750;  102.000;   74.000
304.567; -133.800; -908.000; -893.000
304.705;  -55.875; -408.000; -515.000
304.842;   81.750; -616.000; -540.000
304.980;   50.250;  215.000;   35.000
305.118;   23.025; -367.000; -365.000
305.255;  -80.350; -945.000; -927.000
305.393;   35.625;  178.000;  239.000
305.531; -123.900;-1173.000; -956.000
305.668;  -75.875; -663.000; -582.000
305.806;   73.250; -358.000; -439.000
305.943;   89.600; -629.000; -637.000
306.081;   49.600; -378.000; -267.000
306.219; -101.025; -863.000; -748.000
306.356;    5.650;  158.000;   27.000
306.494;   93.025;  981.000;  761.000
306.631;   -5.175;  -11.000;  -55.000
306.769;   -2.025; -613.000; -485.000
306.906;  -26.350; -284.000; -258.000
307.044;  -88.850; -473.000; -488.000
307.181;  -63.200; -410.000; -332.000
307.319;   13.475;  112.000;   87.000
307.456; -184.150;-1191.000;-1153.000
307.594; -109.350; -980.000; -727.000
307.731;    3.200; -371.000; -164.000
307.868;   -1.100;  -15.000;   20.000
308.006; -152.825; -961.000; -847.000
308.143;  -74.600; -618.000; -330.000
308.281;  131.525;  -37.000; -254.000
308.418;  -37.275; -748.000; -640.000
308.555;  -74.950; -400.000; -250.000
308.693;  -77.125; -577.000; -573.000
308.830; -114.000; -712.000; -657.000
308.967;  -18.300; -215.000;  -95.000
309.105;  -53.600; -507.000; -396.000
309.242;    7.525; -468.000; -367.000
309.379;  213.675; -577.000; -655.000
309.517;  -79.825; -936.000; -948.000
309.654; -109.925; -910.000; -734.000
309.791;  -87.525; -662.000; -580.000
309.928; -128.400; -977.000; -914.000
310.065;  176.275;  819.000;  697.000
310.203;  -21.950; -825.000; -850.000
310.340;  -31.225; -465.000; -321.000
310.477;  -76.625; -412.000; -516.000
310.614;  -66.950; -383.000; -473.000
310.751;  -79.800; -427.000; -518.000
310.889;  -26.550;    1.000;   11.000
311.026; -164.150;-1161.000; -939.000
311.163;  -49.350; -386.000; -380.000
311.300;  -90.450; -512.000; -479.000
311.437;  -78.400; -658.000; -619.000
311.574; -171.825;-1226.000; -985.000
311.711;  -60.000; -595.000; -433.000
311.848;  -49.300; -380.000; -388.000
311.985;    9.750;  270.000;   93.000
312.122; -108.050; -932.000; -762.000
312.259; -135.025; -941.000; -994.000
312.396;  -82.850; -508.000; -551.000
312.533;  -95.875; -812.000; -790.000
312.670; -136.875;-1070.000; -898.000
312.807;  -41.550; -352.000; -367.000
312.944;  -79.600; -513.000; -611.000
313.081;  -49.350; -150.000; -415.000
313.218; -107.700;-1111.000; -867.000
313.355;    3.975; -531.000; -449.000
313.492;   -1.175; -455.000; -292.000
313.629;  125.750;  815.000;  735.000
313.766; -145.800;-1176.000;-1008.000
313.902;  -14.125; -186.000;   21.000
314.039;  -65.775; -372.000; -289.000
314.176;    9.250;  286.000;  192.000
314.313;  -79.525; -569.000; -473.000
314.450;  -76.550; -788.000; -684.000
314.587;  -74.150; -468.000; -480.000
314.723;  -17.250;  -78.000;  130.000
314.860;   22.775;  318.000;  332.000
314.997;   21.425;  223.000;  142.000
315.134;  -52.775; -385.000; -368.000
315.270;  -27.725; -480.000; -496.000
315.407; -125.575;-1094.000; -967.000
315.544;  -53.275; -657.000; -538.000
315.681;  -79.625; -681.000; -565.000
315.817;   14.200; -133.000; -176.000
315.954;    2.100; -613.000; -392.000
316.091; -132.075;-1045.000;-1023.000
316.227;  -22.125;  -71.000; -179.000
316.364;   -1.225;   23.000;    6.000
316.500;  -32.750; -113.000; -300.000
316.637;  -38.800; -181.000; -302.000
316.774;  -89.700; -625.000; -358.000
316.910; -107.950; -598.000; -629.000
317.047;  -77.150; -487.000; -351.000
317.183;  -49.600; -435.000; -566.000
317.320;  -33.225; -367.000; -321.000
317.456;  -62.625; -733.000; -805.000
317.593;  -96.475; -598.000; -641.000
317.729;    4.925;  168.000;  -67.000
317.866; -212.500;-1434.000;-1285.000
318.002;  -95.675; -708.000; -948.000
318.139; -101.950; -883.000; -867.000
318.275; -106.950;-1003.000; -738.000
318.412;  -75.675; -517.000; -336.000
318.548;  -49.150; -751.000; -720.000
318.685; -104.525; -985.000; -888.000
318.821; -107.675; -762.000; -735.000
318.957;  -22.750;   34.000;  -23.000
319.094;   29.750;  297.000;  154.000
319.230;  -87.650; -756.000; -742.000
319.367;  110.825; -471.000; -520.000
319.503;   43.400; -538.000; -436.000
319.639;  -96.875; -877.000; -793.000
319.775;  -75.300; -750.000; -685.000
319.912;  -54.350; -424.000; -519.000
320.048;  -98.425;-1184.000;-1184.000
320.184;   64.500;   59.000;   70.000
320.321;  -62.800; -497.000; -467.000
320.457;   73.425;  475.000;  662.000
320.593;  -72.450; -375.000; -382.000
320.729; -102.200; -732.000; -734.000
320.866;  -84.400; -577.000; -635.000
321.002;  -93.400; -759.000; -809.000
321.138;  -20.350; -135.000; -211.000
321.274;   74.200; -148.000; -115.000
321.410;  -27.925; -585.000; -353.000
321.546;  -37.700;-1011.000; -911.000
321.683;   50.750;  400.000;  185.000
321.819;   -2.450;  -48.000; -117.000
321.955; -118.575; -743.000; -722.000
322.091;  -62.775; -585.000; -540.000
322.227;  -13.850; -382.000; -202.000
322.363;  -22.625; -320.000; -215.000
322.499;  -40.125; -343.000; -331.000
322.635;  158.525;  636.000;  443.000
322.771;   18.000; -139.000;   12.000
322.907;   92.350;  129.000;  327.000
323.043;  -18.025; -115.000; -206.000
323.179;  -40.750; -394.000; -363.000
323.315;   11.975; -401.000; -371.000
323.451;   72.950; -328.000; -236.000
323.587;   62.675;  -60.000;  -77.000
323.723;   17.150; -682.000; -601.000
323.859;  -17.950; -258.000;  -76.000
323.995;  -50.750; -467.000; -409.000
324.131; -117.025; -967.000; -892.000
324.267;  -43.550; -254.000; -276.000
324.402; -127.800; -960.000; -983.000
324.538;  -23.850; -279.000; -104.000
324.674;    7.875;  164.000;   77.000
324.810;  101.125;  226.000;  308.000
324.946;  -14.750; -810.000; -658.000
325.082;  -64.975; -568.000; -475.000
325.217;  -22.525;  -62.000;   16.000
325.353; -107.000; -764.000; -659.000
325.489;  -84.875; -540.000; -506.000
325.625;  -79.475; -579.000; -525.000
325.760;   57.850;  517.000;  376.000
325.896;  -11.875; -515.000; -702.000
326.032;  -44.475; -403.000; -352.000
326.168;  -57.750; -462.000; -369.000
326.303;  -71.650; -352.000; -461.000
326.439;  -31.375; -336.000; -276.000
326.575;   12.350; -190.000;  -29.000
326.710;   -8.125; -156.000;  -30.000
326.846;  -14.125;  146.000;  103.000
326.982;  -97.175; -530.000; -548.000
327.117;  -64.800; -481.000; -442.000
327.253;  -91.150; -745.000; -742.000
327.388; -130.225;-1137.000;-1153.000
327.524;  -73.125; -811.000; -578.000
327.659;  -38.350;  -58.000;  -22.000
327.795;  -10.725;   69.000;   45.000
327.931;  -90.725; -723.000; -499.000
328.066;  -35.350; -417.000; -276.000
328.202;  -14.775;   12.000; -129.000
328.337;  104.850;  957.000;  713.000
328.473;   39.375;  -12.000;  -74.000
328.608;  -27.750; -256.000; -267.000
328.743;  -87.025; -799.000; -664.000
328.879;    7.250;  214.000;  114.000
329.014;  -36.425; -102.000; -122.000
329.150;  -87.750; -358.000; -483.000
329.285;  -73.250; -465.000; -466.000
329.421;  -57.900; -548.000; -246.000
329.556;  -31.975;  -36.000;   85.000
329.691; -102.175; -633.000; -615.000
329.827;  -85.225; -626.000; -480.000
329.962;  -50.825;  131.000; -301.000
330.097; -105.000; -673.000; -585.000
330.233;  -55.325; -410.000; -223.000
330.368; -133.475; -839.000; -628.000
330.503;   -9.125;    3.000;   98.000
330.638;   16.075;  -93.000; -125.000
330.774;  -63.850; -609.000; -530.000
330.909;  -37.425; -434.000; -244.000
331.044;  -99.450; -714.000; -708.000
331.179; -182.625;-1217.000;-1109.000
331.315;    7.875;   77.000;   20.000
331.450;   11.200;  157.000;  285.000
331.585;  -91.975; -805.000; -706.000
331.720;  -91.550; -510.000; -460.000
331.855;   -9.025;  -35.000; -102.000
331.990;  260.050;   62.000;  138.000
332.126;  133.725; -110.000;   71.000
332.261;  -29.425; -379.000; -265.000
332.396;  -13.925; -135.000; -242.000
332.531;  -97.500;-1074.000;-1031.000
332.666;   21.525; -519.000; -363.000
332.801; -109.250; -726.000; -807.000
332.936;  -15.550; -192.000; -122.000
333.071; -136.250; -870.000; -817.000
333.206;    9.200;  307.000;  379.000
333.341;   45.975;  344.000;  418.000
333.476; -101.075; -627.000; -623.000
333.611;  -43.675; -251.000; -173.000
333.746;  -49.125; -381.000; -464.000
333.881; -120.725; -973.000; -935.000
334.016; -133.025; -936.000; -917.000
334.151; -139.900; -746.000; -702.000
334.286;   26.250;  152.000;  186.000
334.421;  -21.275; -125.000; -178.000
334.556;  -80.150; -611.000; -567.000
334.690;  -92.100; -631.000; -577.000
334.825;   55.875;  381.000;   83.000
334.960;  -74.900; -285.000; -413.000
335.095;   -3.175;  135.000;  -91.000
335.230;  -98.825; -722.000; -738.000
335.365; -147.825;-1084.000; -990.000
335.499; -141.300;-1108.000;-1037.000
335.634;   11.200;    9.000;  534.000
335.769; -111.950; -755.000; -720.000
335.904;  -69.000; -603.000; -561.000
336.038;  -66.350; -735.000; -657.000
336.173; -121.750;-1206.000;-1194.000
336.308;    2.000; -116.000; -189.000
336.443;   15.725; -544.000; -634.000
336.577;  -79.550; -936.000; -787.000
336.712;   63.250;   -4.000;  -12.000
336.847;  -34.625; -724.000; -607.000
336.981;   54.650; -272.000; -208.000
337.116;  288.750;  615.000;  501.000
337.250;  140.475; -434.000; -421.000
337.385;  251.025; -297.000; -208.000
337.520;   88.150; -632.000; -603.000
337.654;  -37.425; -215.000; -126.000
337.789; -138.650; -989.000; -933.000
337.923;  -33.175; -104.000; -205.000
338.058;  -92.475; -673.000; -738.000
338.192;  -39.575; -611.000; -488.000
338.327;  -24.275;  -18.000; -155.000
338.461;  -78.900; -299.000; -469.000
338.596;  -90.425; -780.000; -638.000
338.730; -110.000; -767.000; -803.000
338.865;   92.200;  -46.000; -140.000
338.999;  -56.325; -846.000; -702.000
339.134;  -42.850; -634.000; -536.000
339.268;   11.675; -741.000; -603.000
339.403;  355.925; -740.000; -775.000
339.537;  115.275; -894.000; -820.000
339.671; -123.100; -829.000; -813.000
339.806;  -71.575; -556.000; -512.000
339.940;    4.100; -261.000; -235.000
340.074; -109.075; -685.000; -510.000
340.209;  -50.600; -351.000; -230.000
340.343;  -96.500; -517.000; -573.000
340.477;  161.050;  998.000; 1036.000
340.612;  -57.425;-1033.000; -900.000
340.746;  122.775; -199.000; -243.000
340.880;  -79.000; -924.000; -785.000
341.014;  -16.950;  -45.000; -154.000
341.149; -121.400; -756.000; -718.000
341.283; -116.400; -839.000; -754.000
341.417; -101.100;-1124.000; -938.000
341.551;  107.850; -768.000; -708.000
341.685;  -44.200; -633.000; -611.000
341.820;  -50.850; -562.000; -493.000
341.954;  -49.775; -218.000; -349.000
342.088; -144.450;-1102.000;-1019.000
342.222;   59.350;  565.000;  618.000
342.356;  -57.550; -395.000; -335.000
342.490;  -95.900; -880.000; -841.000
342.624;  -50.325; -339.000; -242.000
342.758;   -1.575; -364.000; -312.000
342.892;  -67.175; -710.000; -585.000
343.026;  -48.100;  -58.000; -116.000
343.160;  -59.425; -426.000; -376.000
343.294;  -94.725; -474.000; -337.000
343.428;  -25.375; -488.000; -448.000
343.562;  -18.700; -172.000;  -23.000
343.696;  -42.175; -385.000; -314.000
343.830;  -21.275; -362.000; -356.000
343.964;   21.225; -231.000; -168.000
344.098;  865.450;  199.000;   70.000
344.232;  700.400; -266.000; -127.000
344.366;   87.175; -567.000; -453.000
344.500;   35.850; -665.000; -744.000
344.634;   21.125; -324.000; -164.000
344.768;  -28.050; -531.000; -341.000
344.902;   22.050;  278.000;  256.000
345.035;  -73.350; -556.000; -496.000
345.169; -143.625; -933.000; -656.000
345.303;  -17.925; -308.000; -482.000
345.437;  -96.275; -826.000; -717.000
345.571;  -82.675; -675.000; -594.000
345.704;  -64.600; -309.000; -532.000
345.838;  -27.175; -331.000; -284.000
345.972;  -42.400; -543.000; -495.000
346.106;  154.450; -179.000; -190.000
346.239;  413.275; -312.000; -243.000
346.373;   15.925; -343.000; -302.000
346.507; -147.750; -950.000; -962.000
346.640;  126.800;  -30.000;   13.000
346.774;  -62.625; -650.000; -797.000
346.908;  -23.925; -138.000;  -11.000
347.041; -107.250; -646.000; -593.000
347.175;   -2.325;  259.000;   27.000
347.309;  -85.575; -698.000; -628.000
347.442;  -99.750; -883.000; -732.000
347.576;  257.600;  670.000;  668.000
347.709;  180.525; -123.000;  -52.000
347.843;  -88.175; -933.000; -825.000
347.976;   36.375;  235.000;  294.000
348.110; -181.650;-1268.000;-1186.000
348.243; -118.525; -679.000; -772.000
348.377;    3.100;  -26.000;   60.000
348.510;   41.100;  403.000;  540.000
348.644;  -37.200;  -37.000; -159.000
348.777;   -4.500;  180.000;  191.000
348.911;  -49.450; -142.000; -112.000
349.044;  156.950;  471.000;  448.000
349.178;  129.725;-1069.000;-1006.000
349.311;  108.925;  141.000;  255.000
349.444;  -18.425; -927.000; -813.000
349.578;  -21.325; -347.000; -200.000
349.711; -113.725; -959.000; -862.000
349.845;   -1.875; -661.000; -591.000
349.978; -150.525;-1224.000;-1137.000
350.111;  -82.150; -546.000; -612.000
350.244;  -84.125; -596.000; -700.000
350.378;  -18.800; -392.000; -393.000
350.511;  -81.800; -393.000; -426.000
350.644; -115.100; -808.000; -806.000
350.778;   -4.950;  168.000;  104.000
350.911;   -3.225;  134.000;  140.000
351.044; -104.350; -685.000; -615.000
351.177;  -22.500; -321.000; -281.000
351.310;  -17.350;    3.000; -131.000
351.444;  -91.000; -888.000; -788.000
351.577;  105.500;  140.000;   90.000
351.710;   91.900;  593.000;  417.000
351.843;  -35.075; -165.000;  -77.000
351.976;  -10.700;  149.000;  -79.000
352.109;  -95.500; -621.000; -612.000
352.242;  -24.275; -464.000; -419.000
352.376;  -67.850; -580.000; -636.000
352.509;  158.750; -437.000; -356.000
352.642;    4.925; -654.000; -604.000
352.775;   54.450; -141.000;  -98.000
352.908; -118.475; -933.000; -904.000
353.041; -117.125; -814.000; -824.000
353.174;  -66.725; -551.000; -424.000
353.307;  -82.525; -753.000; -764.000
353.440;   64.225;  541.000;  453.000
353.573; -113.125; -957.000;-1008.000
353.706;  -58.925; -384.000; -558.000
353.839;  -20.975; -264.000; -220.000
353.971;  -95.325; -657.000; -512.000
354.104;  -86.650; -896.000; -835.000
354.237;  -42.150; -627.000; -662.000
354.370;  -79.950; -846.000; -879.000
354.503; -181.075;-1231.000;-1308.000
354.636;  -45.600; -529.000; -348.000
354.769; -137.300; -937.000; -860.000
354.902;  -31.650; -230.000; -139.000
355.034;  -22.425; -164.000; -220.000
355.167;  -14.800; -262.000; -162.000
355.300;  -94.625;-1061.000; -880.000
355.433;  970.250;  -71.000;  -14.000
355.565; 1494.675; -402.000; -384.000
355.698;  393.550; -356.000; -296.000
355.831;  -13.000; -882.000; -801.000
355.964;   57.400; -285.000; -170.000
356.096;  -98.450; -856.000; -843.000
356.229;  -10.100; -523.000; -530.000
356.362;  326.725; -373.000; -266.000
356.494;  589.500; -229.000; -162.000
356.627;  448.125;  269.000;  377.000
356.760;  654.850;  120.000;   53.000
356.892;  967.725; -286.000; -601.000
357.025;  627.775;  403.000;  389.000
357.157;  535.350; -167.000; -179.000
357.290;  688.875; -856.000; -713.000
357.423;  208.100; -667.000; -556.000
357.555;  114.450; -217.000; -228.000
357.688;  121.525; -483.000; -364.000
357.820;  430.825; -870.000; -877.000
357.953; 3553.300; -563.000; -589.000
358.085;  731.950; -632.000; -612.000
358.218; 1002.950;-1131.000; -932.000
358.350;  195.925;  -58.000;  312.000
358.483; -142.650;-1300.000;-1187.000
358.615;  -33.675;-1182.000;-1078.000
358.747;  -80.725;-1187.000;-1058.000
358.880;    0.125; -810.000; -744.000
359.012;  -26.525; -376.000; -202.000
359.145;  -40.300; -480.000; -511.000
359.277;   41.150; -962.000; -913.000
359.409; 2959.650;  536.000;  231.000
359.542;  749.900; -738.000; -688.000
359.674;   59.525;   46.000;   13.000
359.806;  -58.450; -565.000; -438.000
359.939;  -52.400; -617.000; -516.000
360.071;   -8.775; -583.000; -579.000
360.203;  -18.950; -411.000; -364.000
360.335;   49.950;  164.000;  -16.000
360.468;  180.200; -249.000; -307.000
360.600; 2390.475; -547.000; -454.000
360.732; 2897.725; -546.000; -423.000
360.864;  359.925;-1216.000;-1044.000
360.996;  252.825; -516.000; -554.000
361.129;   38.000; -389.000; -598.000
361.261;   21.525;  110.000; -113.000
361.393;  -44.875; -252.000; -214.000
361.525;   28.075;   94.000;  244.000
361.657;  -44.475; -821.000; -703.000
361.789;    6.325; -139.000; -155.000
361.921;  197.825; -642.000; -593.000
362.053;  241.175;  524.000;  541.000
362.185;   43.450;  288.000;   72.000
362.318;  -86.475; -709.000; -705.000
362.450;  116.925;  294.000;  444.000
362.582;   55.475; -913.000; -870.000
362.714;  -56.225; -353.000; -332.000
362.846; -100.600; -606.000; -490.000
362.978; -155.225; -941.000; -811.000
363.109;   31.550; -161.000; -260.000
363.241;  380.875; -739.000; -749.000
363.373;  421.175; -649.000; -564.000
363.505;  668.100; -186.000;  -91.000
363.637;  153.125; -787.000; -601.000
363.769; -126.600;-1067.000;-1080.000
363.901;  -80.650; -596.000; -654.000
364.033; -140.200;-1103.000;-1062.000
364.165;  -19.400; -283.000; -283.000
364.296;   62.325; -316.000; -177.000
364.428;   47.625;-1344.000;-1220.000
364.560;  -72.775; -679.000; -661.000
364.692;  -78.100; -738.000; -835.000
364.824;  219.975; -588.000; -456.000
364.955;  420.700; -402.000; -564.000
365.087;  967.450;-1097.000; -852.000
365.219;   20.650; -686.000; -816.000
365.351;  -66.925; -526.000; -572.000
365.482;   45.175;  300.000;  240.000
365.614;  -62.725; -402.000; -314.000
365.746; -108.675; -729.000; -752.000
365.877; -114.025; -706.000; -672.000
366.009;  271.125;  -35.000;  -62.000
366.141;  -96.600;-1249.000;-1134.000
366.272; -102.850; -803.000; -719.000
366.404; -111.975;-1005.000; -874.000
366.535;   -7.800; -139.000;  -12.000
366.667; -106.300; -644.000; -649.000
366.799;   39.050;  353.000;  203.000
366.930; -134.400; -862.000; -996.000
367.062;  109.300; -639.000; -613.000
367.193;  151.550; -872.000; -842.000
367.325;  -70.925; -580.000; -684.000
367.456;   44.500; -246.000;   31.000
367.588;  144.625; -371.000; -318.000
367.719;   30.325;  -44.000;  -45.000
367.851;  -28.525; -222.000; -241.000
367.982;  -41.775; -875.000; -732.000
368.113;   76.825; -475.000; -358.000
368.245; -123.350; -960.000; -841.000
368.376;  -23.125; -254.000; -302.000
368.508;  -34.100; -188.000; -263.000
368.639; -129.100;-1166.000;-1034.000
368.770;  -14.875; -670.000; -589.000
368.902;  -73.200; -836.000; -926.000
369.033; -116.050; -906.000; -855.000
369.164;  -60.475; -720.000; -653.000
369.296; -122.875; -452.000; -601.000
369.427;  -12.300; -209.000; -144.000
369.558;  -46.325; -593.000; -377.000
369.689;  -99.775; -721.000; -569.000
369.821; -133.625; -951.000; -845.000
369.952;  -14.750;   42.000; -108.000
370.083;  -59.025; -229.000; -108.000
370.214;  -97.325; -735.000; -650.000
370.345;   -9.825;   65.000;   81.000
370.477;  -82.925; -810.000; -790.000
370.608;  203.075; -328.000; -264.000
370.739;  -53.375;-1233.000;-1292.000
370.870;  -50.975;-1102.000; -923.000
371.001;   74.650; -378.000; -467.000
371.132;  -85.350; -754.000; -735.000
371.263;  -25.650;  -42.000; -148.000
371.394; -139.300; -841.000; -748.000
371.525;   40.350;  345.000;  225.000
371.657; -104.325; -808.000; -670.000
371.788;   67.800;  103.000;  199.000
371.919;  146.575; -384.000; -304.000
372.050; 3461.400;  -91.000; -156.000
372.181; 1008.450; -188.000; -294.000
372.311;  354.050;   42.000; -127.000
372.442;   12.475; -457.000; -451.000
372.573;  -29.750; -444.000; -340.000
372.704; -118.250;-1008.000; -980.000
372.835;   66.825; -228.000; -289.000
372.966;  -80.525; -646.000; -554.000
373.097;  -78.100; -575.000; -711.000
373.228;  -51.200; -717.000; -542.000
373.359;  110.350; -824.000; -536.000
373.490;  877.925; -881.000; -727.000
373.620; 1076.300;-1001.000; -803.000
373.751; 1688.025; -332.000; -396.000
373.882;  717.675; -663.000; -733.000
374.013;   51.650; -449.000; -262.000
374.143;  -47.375; -581.000; -659.000
374.274; -109.825; -987.000; -908.000
374.405;  156.200; -388.000; -276.000
374.536;  402.250; -526.000; -387.000
374.666; 1022.800; -759.000; -807.000
374.797;  194.800; -817.000; -868.000
374.928;  813.125; -710.000; -560.000
375.058;  824.875; -535.000; -500.000
375.189;   59.725;  -59.000;  -93.000
375.320; -110.200; -928.000;-1034.000
375.450;  -47.600; -625.000; -616.000
375.581;  -52.125; -526.000; -436.000
375.712;  -48.250; -574.000; -250.000
375.842;  260.400; -438.000; -415.000
375.973;  184.100; -554.000; -513.000
376.103;  -58.100; -665.000; -648.000
376.234;  -97.825; -531.000; -552.000
376.364;  -56.950; -944.000; -867.000
376.495;  305.750;  925.000;  529.000
376.625;  -27.200; -472.000; -485.000
376.756;   51.450; -709.000; -678.000
376.886;  -86.875;-1178.000;-1026.000
377.017;   50.300;-1048.000;-1061.000
377.147;  365.075; -786.000; -782.000
377.278;   66.800;  174.000;  228.000
377.408; -116.450; -801.000; -815.000
377.538; -104.975; -707.000; -693.000
377.669;  -90.525; -537.000; -613.000
377.799;  -86.425; -645.000; -635.000
377.929;  -71.200; -610.000; -428.000
378.060; -133.175; -781.000; -847.000
378.190;  -49.850; -726.000; -531.000
378.320;  -55.375; -401.000; -406.000
378.451;  -22.675; -131.000;  -22.000
378.581;    5.900;  -67.000; -110.000
378.711;  142.125; 1035.000;  866.000
378.841;  -31.225; -533.000; -675.000
378.972;  -99.575; -871.000; -751.000
379.102;  -13.225; -652.000; -579.000
379.232;  -25.525; -126.000;  -73.000
379.362; -117.250;-1001.000; -885.000
379.492;    0.100; -373.000; -424.000
379.623;   89.200;    0.000;  111.000
379.753; -111.550;-1107.000; -974.000
379.883;  197.000;   59.000;  156.000
380.013;   -6.350;-1081.000;-1017.000
380.143; -108.275;-1097.000;-1056.000
380.273; -108.275; -985.000; -861.000
380.403;  -17.400; -344.000; -257.000
380.533;  -37.300; -651.000; -664.000
380.663;   59.425;  173.000;  128.000
380.793; -113.700;-1027.000;-1074.000
380.923;  -31.350; -103.000;  -34.000
381.053; -106.350; -613.000; -623.000
381.183;  -32.025; -106.000; -248.000
381.313;   28.075; -656.000; -470.000
381.443;   26.200; -692.000; -473.000
381.573;  170.175; -402.000; -409.000
381.703;  239.700;-1249.000;-1095.000
381.833; -141.200;-1454.000;-1336.000
381.963;  103.500; -134.000;  -87.000
382.093; 1334.675; -925.000; -909.000
382.223;  370.275; -713.000; -602.000
382.353;  -34.000; -801.000; -608.000
382.482;  336.275;-1091.000; -964.000
382.612;  712.375; -872.000; -644.000
382.742;  397.950; -695.000; -622.000
382.872;  227.975; -565.000; -551.000
383.002;   65.375;  347.000; -132.000
383.131;  -11.750; -226.000; -160.000
383.261;  -51.500; -706.000; -768.000
383.391;  256.950; -552.000; -377.000
383.521; 3300.700;  451.000;  263.000
383.650;  754.925; -947.000; -904.000
383.780;  -31.600; -783.000; -656.000
383.910;  101.750;  880.000;  802.000
384.039;    8.275; -794.000; -656.000
384.169;  179.000;-1205.000;-1017.000
384.299;  -40.050; -650.000; -662.000
384.428; -100.725; -764.000; -680.000
384.558;  -58.475; -308.000; -275.000
384.687;  -48.125; -414.000; -334.000
384.817;   11.875;   75.000;   -2.000
384.947;   12.650; -234.000; -141.000
385.076;  279.675;  982.000;  912.000
385.206;   91.525;  369.000;  480.000
385.335;  -49.800; -549.000; -417.000
385.465;  -87.175; -655.000; -663.000
385.594;  109.100;  -53.000;  -44.000
385.724;  384.725; -868.000; -838.000
385.853;  109.600; -296.000; -270.000
385.982; 1267.475; -743.000; -787.000
386.112; 2020.125;-1052.000; -871.000
386.241;  115.800; -307.000; -312.000
386.371;    9.650; -174.000;  -87.000
386.500;  -25.300; -825.000; -789.000
386.629;   11.050; -874.000; -817.000
386.759;   59.575;  -43.000;   68.000
386.888;  -15.350; -170.000; -250.000
387.017;  -71.975; -648.000; -620.000
387.147;  -87.600; -771.000; -798.000
387.276;  -11.075; -410.000; -397.000
387.405;   -8.575; -398.000; -342.000
387.535;  -58.650; -452.000; -361.000
387.664;  -66.600; -692.000; -620.000
387.793;   60.800; -198.000; -113.000
387.922;  475.550;  255.000;  200.000
388.052;   21.525; -576.000; -423.000
388.181;   -9.950; -342.000; -472.000
388.310;  -29.775; -889.000; -710.000
388.439;  -75.675; -749.000; -742.000
388.568;  178.250;  365.000;  244.000
388.697;  972.075; -756.000; -653.000
388.826;  178.650; -768.000; -666.000
388.956;   42.500; -285.000; -307.000
389.085;  -36.425; -347.000; -287.000
389.214; -117.375; -842.000; -872.000
389.343;  -74.250; -645.000; -413.000
389.472;  392.450;  126.000;  149.000
389.601;  509.800;   91.000;    0.000
389.730;   -1.150; -568.000; -687.000
389.859;   43.950;  226.000;   46.000
389.988;  159.025; -423.000; -408.000
390.117;  121.450; -168.000; -146.000
390.246;  -25.250; -331.000; -320.000
390.375;   67.375; -673.000; -626.000
390.504;  -74.225; -703.000; -621.000
390.633; -108.350; -672.000; -726.000
390.761;  -71.800; -732.000; -645.000
390.890;    1.550;   -4.000; -130.000
391.019;  -38.950; -421.000; -441.000
391.148; -134.050; -826.000; -855.000
391.277;  -54.850; -576.000; -493.000
391.406;  -90.175; -821.000; -805.000
391.534;   20.000;  574.000; -301.000
391.663;  -91.900; -583.000; -645.000
391.792; -105.000; -673.000; -701.000
391.921;   77.625;   -3.000;   15.000
392.050;  144.175; -287.000; -228.000
392.178;  -70.825;-1206.000;-1061.000
392.307;  130.175; -758.000; -712.000
392.436;   48.700; -427.000; -641.000
392.564;   15.450;  166.000;   -6.000
392.693; -100.975; -860.000; -682.000
392.822;  176.225; -529.000; -534.000
392.950;   58.775; -880.000; -714.000
393.079;  296.600; -188.000; -328.000
393.208;    0.075; -488.000; -511.000
393.336;   -7.775; -170.000; -145.000
393.465;  -53.675; -317.000; -199.000
393.593;   -2.775;   62.000;   79.000
393.722; -155.500;-1121.000; -916.000
393.850;  -40.200; -188.000;  -61.000
393.979; -159.575; -926.000; -805.000
394.107;  -66.100; -517.000; -537.000
394.236;  -35.350; -570.000; -507.000
394.364;  179.300;  383.000;  206.000
394.493;  214.675; -911.000; -767.000
394.621;  -28.375; -955.000; -916.000
394.750;  743.350; -873.000; -923.000
394.878; 3015.625; -247.000; -149.000
395.007; 3999.600; -721.000; -807.000
395.135;  290.400; -790.000; -721.000
395.263;  -85.300;-1038.000;-1040.000
395.392;   -0.275;  -25.000; -107.000
395.520; -140.775; -818.000; -679.000
395.648;  -98.575; -865.000; -915.000
395.777;  -31.250; -366.000; -405.000
395.905;  -63.125; -449.000; -564.000
396.033;   13.475;  217.000;  172.000
396.162;  405.250; -399.000; -453.000
396.290;  365.850;  -17.000;   -2.000
396.418;   72.600; -555.000; -514.000
396.546;  -91.600; -571.000; -466.000
396.674; -106.425; -850.000; -878.000
396.803;    1.675;  -72.000;  -23.000
396.931;   64.950; -179.000; -199.000
397.059;   11.625;-1026.000; -989.000
397.187; -130.775;-1026.000; -975.000
397.315; -140.600; -884.000; -649.000
397.443;  -95.575; -592.000; -443.000
397.572; -103.575; -578.000; -424.000
397.700;  -33.000; -607.000; -614.000
397.828;    8.200;  120.000;  -90.000
397.956;  -56.100; -508.000; -478.000
398.084;  -75.250; -767.000; -626.000
398.212;   36.475;  137.000;  124.000
398.340;   -0.650;  -56.000;  159.000
398.468;    9.325; -390.000; -169.000
398.596; -140.450; -993.000; -953.000
398.724; -132.100; -762.000; -767.000
398.852; -156.325;-1024.000; -976.000
398.980;  -77.950; -560.000; -560.000
399.108;  -70.700; -982.000; -735.000
399.236;   30.175;   13.000;    8.000
399.363;    5.725;  222.000;  196.000
399.491;  -86.775; -404.000; -398.000
399.619; -122.650; -829.000; -800.000
399.747; -115.600; -859.000; -771.000
399.875;   74.225;  220.000;  234.000
400.003;  -58.100; -359.000; -284.000
400.130;  -89.875; -421.000; -341.000
400.258;  -26.350;  -83.000;   38.000
400.386;  -69.175; -352.000; -168.000
400.514;  -50.800; -526.000; -587.000
400.641;  -94.700; -928.000; -802.000
400.769; -141.875; -979.000; -888.000
400.897; -119.375; -838.000; -793.000
401.025;  -33.675; -166.000; -152.000
401.152;    2.375;  220.000;   38.000
401.280;  -76.525; -430.000; -429.000
401.408; -122.000; -712.000; -576.000
401.535; -117.600; -735.000; -758.000
401.663; -195.125;-1134.000;-1054.000
401.790;  -90.050; -514.000; -525.000
401.918;   35.575;  436.000;  405.000
402.046;  -21.650;  134.000;  122.000
402.173;  -28.750;  -18.000;    7.000
402.301;  -82.675; -519.000; -397.000
402.428;   24.250;  528.000;  383.000
402.556; -167.975;-1188.000; -913.000
402.683;  -42.325;  -20.000;   -1.000
402.811;  -17.100;  -37.000; -206.000
402.938;  -19.300;   20.000;   27.000
403.066;  187.275; -574.000; -558.000
403.193;  305.800;  299.000;  239.000
403.321;  231.475; -396.000; -574.000
403.448;  312.975;   83.000;   27.000
403.575;  141.700;  -90.000;  -46.000
403.703; -111.250; -732.000; -557.000
403.830;  -70.175; -531.000; -496.000
403.957; -149.825;-1117.000;-1023.000
404.085;    2.000;  -61.000; -172.000
404.212;  104.750;  -50.000;   63.000
404.339;  280.075; -566.000; -306.000
404.467; 5918.125; -612.000; -524.000
404.594; 3735.450; -287.000; -227.000
404.721;  841.000; -869.000; -764.000
404.848;   77.425; -113.000; -202.000
404.976; -103.325; -856.000; -783.000
405.103;  -21.750;  -14.000;  -82.000
405.230;  -14.725;  190.000;  226.000
405.357;   19.675;  117.000;   44.000
405.484;  275.075;  -49.000;    5.000
405.612;   31.050; -548.000; -563.000
405.739;  -65.900; -488.000; -243.000
405.866;   76.200;  669.000;  385.000
405.993;  -45.825; -398.000; -102.000
406.120; -135.125; -801.000; -887.000
406.247;  -57.625; -323.000; -342.000
406.374;  414.700;  540.000;  629.000
406.501;   67.400; -632.000; -702.000
406.628;  -84.350; -621.000; -589.000
406.755; -108.850; -803.000; -620.000
406.882;  -39.250; -228.000; -277.000
407.009; -111.800; -719.000; -628.000
407.136;   28.200; -480.000; -401.000
407.263;  109.100; -939.000; -829.000
407.390;  -75.750; -692.000; -614.000
407.517; -179.550;-1139.000;-1187.000
407.644;  -62.000; -332.000; -256.000
407.771;  -78.750; -249.000; -287.000
407.898;   -0.550;  168.000;  328.000
408.025;  -74.575; -421.000; -313.000
408.151;  -14.000;   82.000;  153.000
408.278;  -69.850; -267.000; -216.000
408.405; -114.975; -931.000; -899.000
408.532;  -80.000; -549.000; -542.000
408.659; -133.575; -677.000; -648.000
408.785; -207.250;-1298.000;-1170.000
408.912;  -74.225; -412.000; -296.000
409.039; -125.050; -610.000; -686.000
409.166; -103.375; -591.000; -555.000
409.292; -113.850; -571.000; -534.000
409.419; -123.425; -665.000; -649.000
409.546;  -89.875; -431.000; -192.000
409.672; -123.100; -713.000; -545.000
409.799;  -24.275;  -36.000;   34.000
409.926;  -49.750; -180.000; -179.000
410.052; -185.125;-1127.000;-1091.000
410.179;  -60.300; -368.000; -392.000
410.305; -100.225; -375.000; -493.000
410.432;  -64.550; -220.000; -333.000
410.558;  -99.425; -305.000; -380.000
410.685; -108.450; -688.000; -431.000
410.812; -107.750; -409.000; -588.000
410.938; -154.050; -964.000; -808.000
411.065; -100.675; -671.000; -645.000
411.191;  -26.300; -189.000; -174.000
411.317; -123.275; -823.000; -742.000
411.444;  -77.575; -317.000; -246.000
411.570;  -71.150; -339.000; -294.000
411.697; -113.525; -758.000; -752.000
411.823; -181.800; -989.000; -999.000
411.949;  -34.425;  -56.000;   17.000
412.076; -108.100; -539.000; -519.000
412.202; -130.825; -758.000; -757.000
412.329; -137.125; -798.000; -752.000
412.455; -128.600; -821.000; -657.000
412.581;  -43.125;  -15.000;  172.000
412.707;  -68.875; -540.000; -457.000
412.834;    7.600;  156.000;  219.000
412.960;  -95.075; -785.000; -784.000
413.086;  -99.250; -743.000; -701.000
413.212;  143.675;  604.000;  578.000
413.339;  -80.950; -685.000; -701.000
413.465;  -18.575; -364.000; -310.000
413.591; -103.725; -757.000; -474.000
413.717;  -57.025; -358.000; -366.000
413.843; -145.650; -839.000; -861.000
413.969;  -67.150;  -47.000; -292.000
414.096; -106.750; -679.000; -679.000
414.222;  -13.600;  -33.000;   85.000
414.348;  -49.375; -652.000; -385.000
414.474;   77.950;   38.000;  -52.000
414.600;  -16.300; -126.000; -144.000
414.726;  -16.075;  -96.000;  -55.000
414.852;  -62.300; -365.000; -342.000
414.978;   16.025;  104.000;  -18.000
415.104;   18.125;   38.000;   80.000
415.230;   15.600; -329.000; -330.000
415.356;   36.875; -409.000; -514.000
415.482;  197.750;   13.000;  -35.000
415.608;  254.525; -247.000; -323.000
415.734;  980.050;   67.000;   38.000
415.860;20509.900; -875.000; -767.000
415.986;14338.075; -685.000; -607.000
416.111; 1185.950; -798.000; -652.000
416.237;  243.825; -424.000; -571.000
416.363; 1185.175; -765.000; -733.000
416.489; 4247.225; -324.000; -251.000
416.615;  443.050; -707.000; -742.000
416.741;  -32.625; -677.000; -784.000
416.866;  -93.350; -673.000; -736.000
416.992; -129.550; -801.000; -818.000
417.118;  -26.150;  -41.000;  -80.000
417.244;  -80.150; -798.000; -531.000
417.369;  -82.425; -801.000; -612.000
417.495;  -19.450; -325.000; -254.000
417.621;  -95.025;-1015.000; -803.000
417.746;   -9.375; -579.000; -572.000
417.872;   57.925; -254.000; -144.000
417.998;   54.250; -515.000; -530.000
418.123; 1090.575;-1073.000; -845.000
418.249; 5502.975; -512.000; -601.000
418.374;  725.850; -916.000; -824.000
418.500;  100.375; -383.000; -482.000
418.626;   98.375;   70.000;  -59.000
418.751;  122.650; -549.000; -448.000
418.877;  200.125; -637.000; -643.000
419.002; 1904.475; -688.000; -560.000
419.128;12837.425; -930.000; -721.000
419.253; 3003.675; -967.000; -837.000
419.379;  396.050; -391.000; -338.000
419.504;  388.200;  325.000;  415.000
419.629;  535.500; -393.000; -212.000
419.755; 3806.250; -317.000; -254.000
419.880;21679.450;  -98.000;   67.000
420.006;11723.500; -280.000; -221.000
420.131;29654.250; -662.000; -775.000
420.256; 4140.850; -315.000; -316.000
420.382;  532.650; -665.000; -687.000
420.507;   67.250; -649.000; -778.000
420.632;  115.650; -337.000; -339.000
420.758;  210.525; -251.000; -425.000
420.883;  -91.775; -876.000; -672.000
421.008; -113.100; -775.000; -619.000
421.133;  -96.225; -509.000; -467.000
421.259;  -43.750; -325.000; -259.000
421.384; -120.775; -834.000; -693.000
421.509;  -64.150;-1052.000; -862.000
421.634; 1042.925; -936.000; -820.000
421.759;  444.100; -359.000; -327.000
421.885;  -62.950; -717.000; -656.000
422.010;  -90.150; -673.000; -542.000
422.135; -149.750; -695.000; -727.000
422.260;   26.725;  340.000;  280.000
422.385;  -55.600;   12.000;  -98.000
422.510;    0.000;  151.000;  -26.000
422.635;   -5.325;  -87.000;  -43.000
422.760;   81.550; -766.000; -791.000
422.885;   42.125;  -57.000;  -80.000
423.010;  -34.600; -112.000; -169.000
423.135; -107.625; -481.000; -561.000
423.260;  -28.150; -150.000; -245.000
423.385;   48.525;  476.000;  222.000
423.510;   26.075;   71.000;  -22.000
423.635;   72.250;  133.000;   45.000
423.760;   49.400;  383.000;  328.000
423.885;   45.475;  336.000;  391.000
424.010;    4.825;  -68.000;  -13.000
424.135;  -28.850;    5.000;  -33.000
424.259;  -91.275; -654.000; -457.000
424.384;  -68.250; -279.000; -272.000
424.509;  -39.475; -260.000; -186.000
424.634; -109.525; -761.000; -623.000
424.759;  -38.975; -688.000; -544.000
424.883;  -11.325; -506.000; -527.000
425.008;  154.175; -502.000; -410.000
425.133; 2042.725; -679.000; -653.000
425.258;  920.800; -517.000; -381.000
425.382; 1001.325; -867.000; -774.000
425.507; 2472.150; -487.000; -543.000
425.632;  402.500; -802.000; -663.000
425.756;  476.975; -256.000; -146.000
425.881; 6997.000; -831.000; -857.000
426.006;18196.875; -604.000; -355.000
426.130; 2719.300; -696.000; -508.000
426.255;  353.950; -611.000; -491.000
426.379;  158.625; -189.000; -577.000
426.504;  367.725;  660.000;  544.000
426.629; 4146.325; -519.000; -466.000
426.753; 2728.125;   64.000;  -46.000
426.878;  305.475; -252.000; -288.000
427.002;  159.200; -651.000; -668.000
427.127; 1666.900;  -35.000; -158.000
427.251;11688.675;  372.000;  401.000
427.375; 3168.075; -191.000; -173.000
427.500; 2186.975; -616.000; -610.000
427.624;  708.125; -234.000; -400.000
427.749;   67.000; -216.000; -225.000
427.873;  -42.225; -499.000; -412.000
427.997;  -41.775; -222.000; -230.000
428.122;   69.325;  795.000;  703.000
428.246;   60.275;  433.000;  434.000
428.371; -138.325; -869.000; -773.000
428.495; -102.700; -624.000; -646.000
428.619;  -48.275; -186.000; -117.000
428.743;   18.725;   65.000;  132.000
428.868;   14.300; -732.000; -643.000
428.992; 1337.150; -219.000; -326.000
429.116;  498.725; -329.000; -357.000
429.240;  252.325;  419.000;  426.000
429.365;  -28.950; -454.000; -574.000
429.489;  -60.000; -638.000; -647.000
429.613;   10.475; -236.000; -177.000
429.737;   20.775; -563.000; -432.000
429.861;  265.100; -247.000; -133.000
429.985; 5752.700; -425.000; -305.000
430.109; 6088.200; -770.000; -908.000
430.234;  673.275;   76.000;  -50.000
430.358;   61.625; -250.000; -160.000
430.482;  -83.725; -672.000; -564.000
430.606;  -85.575; -655.000; -375.000
430.730;    7.800; -437.000; -388.000
430.854;   85.800; -909.000; -835.000
430.978;  -88.950; -795.000; -764.000
431.102; -103.025; -499.000; -422.000
431.226; -133.725; -874.000; -815.000
431.350;   23.375;  345.000;  422.000
431.474;  -70.650; -661.000; -373.000
431.597; -154.525;-1060.000; -848.000
431.721;  -79.075; -276.000; -267.000
431.845; -139.325; -704.000; -472.000
431.969;  -87.675; -304.000; -349.000
432.093; -102.975; -395.000; -317.000
432.217;  -21.675;   32.000;   82.000
432.341; -101.425; -523.000; -518.000
432.464;   -1.525;   96.000;   40.000
432.588;  170.175; -401.000; -329.000
432.712;   73.875;  -52.000;  -52.000
432.836;   29.400;  213.000;  263.000
432.959;  -14.275; -372.000; -311.000
433.083;   77.300;   11.000;    2.000
433.207;  378.625;  285.000;  930.000
433.330; 5297.275; -391.000; -200.000
433.454; 6307.775; -654.000; -638.000
433.578; 3632.550;  583.000;  278.000
433.701;  643.125; -623.000; -675.000
433.825;  116.350; -292.000; -299.000
433.949;  147.425;   28.000;  -72.000
434.072;   16.700; -410.000; -323.000
434.196;  -13.125; -309.000; -117.000
434.319; 3832.025;25482.000;25124.000
434.443;  737.800; -656.000; -603.000
434.566; 2726.100;  281.000;   62.000
434.690;  446.000; -637.000; -383.000
434.813;   43.975; -251.000; -173.000
434.937;  -89.300; -569.000; -696.000
435.060;  -58.125; -423.000; -332.000
435.184;  249.550; -492.000; -217.000
435.307;  128.275;  159.000;  102.000
435.431;  -22.050;  -40.000;   24.000
435.554;  -83.750; -399.000; -240.000
435.677;  -92.800; -350.000; -258.000
435.801;  -37.250;  -25.000;   49.000
435.924;  -17.275;    1.000;  -67.000
436.048; -131.275;-1019.000; -732.000
436.171;  -71.825; -240.000;  -66.000
436.294;  -43.350; -248.000; -229.000
436.417;   79.700; -963.000; -849.000
436.541;  -89.350; -814.000; -840.000
436.664;  -57.525; -242.000; -316.000
436.787;  -35.400;   13.000;  113.000
436.910; -118.925; -792.000; -422.000
437.034;   -0.375;  142.000;  143.000
437.157;   30.150;  -11.000;    0.000
437.280;  -67.900; -392.000; -292.000
437.403; -107.775; -982.000; -869.000
437.526;  549.650; -903.000; -865.000
437.649; 1996.900; -505.000; -332.000
437.772;  257.100; -692.000; -540.000
437.896;  125.475;  700.000;  544.000
438.019; -103.750; -758.000; -503.000
438.142; -107.725; -596.000; -506.000
438.265;  -35.275; -639.000; -670.000
438.388;  489.425; -520.000; -410.000
438.511;   60.825; -597.000; -394.000
438.634;  -53.125; -247.000; -125.000
438.757; -142.650; -693.000; -619.000
438.880;  -32.625;  -34.000;  -57.000
439.003;  -77.750; -417.000; -437.000
439.126;  -72.025; -287.000; -167.000
439.248;  -67.350;  -98.000; -139.000
439.371;  -51.025;    9.000;  -53.000
439.494;   25.675;  510.000;  439.000
439.617;  -59.275;   65.000;  -88.000
439.740; -183.275; -968.000; -816.000
439.863; -141.950; -755.000; -595.000
439.986; -128.050; -476.000; -431.000
440.108;  -49.800; -161.000; -112.000
440.231; -181.775; -950.000; -836.000
440.354;  -47.600;  -64.000; -150.000
440.477;   15.500; -566.000; -542.000
440.599;  -35.775; -200.000; -225.000
440.722; -120.425; -709.000; -586.000
440.845;   43.875;  751.000;  928.000
440.968; -120.875; -415.000; -311.000
441.090;  -71.925; -199.000;  -33.000
441.213; -188.675;-1021.000; -825.000
441.336;  -54.450; -159.000;   -5.000
441.458;  -88.000; -549.000; -396.000
441.581; -104.250; -628.000; -629.000
441.703;  -75.700; -152.000;   13.000
441.826; -108.025; -557.000; -400.000
441.948;  -59.650;   56.000;   51.000
442.071;   27.725;  555.000;  424.000
442.193; -123.775; -531.000; -485.000
442.316;   20.525;  152.000;   97.000
442.438;   44.625; -233.000;  -10.000
442.561;   66.525;  272.000;  262.000
442.683;  488.000; -809.000; -522.000
442.806; 1026.975;   -8.000;   74.000
442.928;   -4.050; -859.000; -604.000
443.051;  -75.200; -577.000; -373.000
443.173;  -97.625; -341.000; -339.000
443.295; -106.250; -263.000; -371.000
443.418;  -79.800; -321.000;  -29.000
443.540;  -17.925; -106.000;   -4.000
443.662; -130.175; -563.000; -465.000
443.785;  -15.900;  335.000;  199.000
443.907; -121.525; -362.000; -208.000
444.029; -131.975; -767.000; -494.000
444.152; -148.950; -644.000; -554.000
444.274;  -37.225;  -18.000;  -24.000
444.396; -112.975; -461.000; -221.000
444.518; -145.675; -691.000; -454.000
444.640;  -91.275; -268.000; -111.000
444.763;  -44.325;  388.000;  249.000
444.885; -131.325; -432.000; -392.000
445.007;  -35.375;   35.000;   86.000
445.129; -126.925; -610.000; -515.000
445.251; -107.450; -372.000; -439.000
445.373; -146.350; -537.000; -386.000
445.495;    2.650;  242.000;  350.000
445.617;   51.000;  853.000;  753.000
445.739;  -76.800; -215.000;  -97.000
445.861;  -37.925; -245.000; -112.000
445.984;  -35.800; -267.000; -101.000
446.105;  163.325; -418.000; -251.000
446.227;  544.500; -176.000;  -19.000
446.349;   -8.850; -358.000; -249.000
446.471; -104.700; -615.000; -448.000
446.593;  -78.325; -316.000;   19.000
446.715;  -10.900;  -67.000;   41.000
446.837;   58.925;  697.000;  832.000
446.959; -115.050; -457.000; -478.000
447.081; -151.825; -628.000; -518.000
447.203;   45.425;  862.000;  834.000
447.325; -100.525; -270.000;   42.000
447.446;  -22.450;  286.000;  530.000
447.568; -166.225; -921.000; -803.000
447.690;  -94.000; -236.000; -245.000
447.812; -159.125; -798.000; -519.000
447.933;  -21.775;  155.000;  127.000
448.055;  -76.650; -306.000; -261.000
448.177;  128.925;   31.000;   79.000
448.299;   51.325; -935.000; -727.000
448.420;   12.300;  -25.000;  159.000
448.542;  -53.900;   -3.000;   33.000
448.664;  -11.500;  109.000;  322.000
448.785;  -49.900;  265.000;   83.000
448.907;  -99.225; -614.000; -353.000
449.028;  -48.625; -771.000; -471.000
449.150;   54.525;  492.000;  589.000
449.272; -192.900;-1044.000; -913.000
449.393;   31.450;  612.000;  694.000
449.515; -151.100; -634.000; -581.000
449.636;  -67.725; -264.000; -155.000
449.758;   57.800;  763.000;  622.000
449.879; -103.200; -498.000; -396.000
450.001;  -74.650; -149.000;  -49.000
450.122;  -37.425;  -95.000;  162.000
450.244;  -24.275;   37.000;  364.000
450.365;  -98.175; -495.000; -301.000
450.486;  -44.550;   80.000;  268.000
450.608;   14.800;  393.000;  326.000
450.729;   66.725;  578.000;  645.000
450.850;   -6.000; -574.000; -466.000
450.972;  798.375; -552.000; -389.000
451.093; 5133.100;  190.000;  588.000
451.214; 2133.400; -516.000; -337.000
451.336;  398.825;  773.000;  579.000
451.457;   50.875;  264.000;  393.000
451.578;  -54.275; -118.000;  -74.000
451.699; -136.900; -546.000; -540.000
451.821;  -81.375; -284.000;  -50.000
451.942;   -6.500;  278.000;  285.000
452.063;   32.575;  228.000;  419.000
452.184;  574.750;  -54.000;  -49.000
452.305; 1089.775;  103.000;  170.000
452.427;  110.325; -549.000; -301.000
452.548;  -26.000;   23.000;   79.000
452.669;  -60.400; -257.000;  -89.000
452.790;  -45.575;    3.000;  -18.000
452.911;    7.300;  195.000;  259.000
453.032;  -72.125; -289.000;  -60.000
453.153;  -51.300;  -29.000;   81.000
453.274;   65.675;  737.000;  868.000
453.395;  -63.275;  -51.000;  175.000
453.516;  125.800; 1317.000; 1388.000
453.637;  -79.150; -205.000; -150.000
453.758;  -62.775;   15.000;   69.000
453.879; -122.375; -462.000; -250.000
454.000;   76.750; 1086.000;  948.000
454.121; -110.900; -554.000; -326.000
454.242; -128.675; -599.000; -383.000
454.362;  -59.000;  -99.000;  114.000
454.483;  -36.750; -309.000; -229.000
454.604;   36.100;  512.000;  580.000
454.725; -127.075; -627.000; -555.000
454.846; -146.000; -474.000; -406.000
454.967;  -46.225;  230.000;  539.000
455.087;  -47.025;  179.000;  153.000
455.208;    8.800;  554.000;  856.000
455.329;  -53.000;  -22.000;   82.000
455.450;   37.750;  473.000;  633.000
455.570;  -96.425; -234.000; -211.000
455.691;  -53.225;  201.000;  407.000
455.812; -119.150; -270.000;  -92.000
455.932;  -62.325;  107.000;  -97.000
456.053; -101.075;   36.000;   24.000
456.173; -123.800; -433.000; -355.000
456.294; -141.900; -476.000; -303.000
456.415;  -72.600;  -73.000;   70.000
456.535;  -43.450;  297.000;  273.000
456.656;  -41.000;  132.000;  240.000
456.776;  -78.100;    3.000;  298.000
456.897;   -2.700;  308.000;  513.000
457.017;  -82.375; -153.000;   -3.000
457.138; -121.250; -402.000; -249.000
457.258;  -34.550;  263.000;  224.000
457.379;  -17.325;  509.000;  521.000
457.499;  -40.975;  443.000;  432.000
457.620; -127.875; -407.000; -231.000
457.740; -104.125; -132.000;  -11.000
457.860;  -70.200;   87.000;   44.000
457.981;  -50.600;  132.000;  124.000
458.101;  -71.225;  -89.000;   40.000
458.221;  -13.500;  336.000;  402.000
458.342;  -70.025;   -4.000;  -37.000
458.462;   17.675;  617.000;  352.000
458.582;  -39.450; -302.000; -294.000
458.703;    1.075;  303.000;  154.000
458.823;  -23.000;   22.000;  163.000
458.943;   14.350;  341.000;  467.000
459.063;  -15.975; 1124.000;  192.000
459.183;  -25.925;  328.000;  313.000
459.304;    7.900;  315.000;  517.000
459.424;  -70.975; -246.000;  -89.000
459.544;  325.750;  388.000;  764.000
459.664;  843.700;  499.000;  506.000
459.784;  293.450; 1004.000; 1175.000
459.904;   63.075;  867.000;  744.000
460.024;   60.350;  867.000;  684.000
460.144;   -3.300;  449.000;  554.000
460.264;   -0.175;  515.000;  327.000
460.385;  -83.775; -145.000; -119.000
460.505;   30.575;  905.000;  858.000
460.625; -104.900;  -17.000;  -68.000
460.745;  -33.250;  396.000;  541.000
460.864;  -53.275;  153.000;  469.000
460.984;    5.925;  499.000;  573.000
461.104;  135.975; 1656.000; 1775.000
461.224;    3.600;  657.000;  650.000
461.344;  -30.175;  431.000;  360.000
461.464;  -40.425;  258.000;  513.000
461.584;  -32.575;  283.000;  466.000
461.704;  -63.200;   58.000;  108.000
461.824;  -71.400;  238.000;  259.000
461.943;  -44.600;  191.000;  130.000
462.063;  -74.525;    2.000;  324.000
462.183;   40.575;  639.000;  717.000
462.303;  104.025; 1678.000; 1230.000
462.422;   29.275;  781.000;  840.000
462.542;  -43.850;  271.000;  391.000
462.662;   37.350;  353.000;  380.000
462.782;  262.175;  833.000;  572.000
462.901;  470.700;  545.000;  717.000
463.021;  277.600; 1702.000; 1638.000
463.141;  -15.925;  337.000;  770.000
463.260;  -14.850;  614.000;  474.000
463.380;   30.625;  902.000;  884.000
463.499;  -45.075;  342.000;  332.000
463.619;  -53.875;  581.000;  559.000
463.738;  109.300; 1644.000;  903.000
463.858;   17.125;  657.000;  811.000
463.978;  -31.375;  542.000;  396.000
464.097;   45.100;  921.000; 1114.000
464.217;  110.700; 1196.000; 1143.000
464.336;  106.825; 1068.000; 1130.000
464.455;  -45.150;  328.000;  659.000
464.575;   39.175;  597.000;  602.000
464.694;  164.150; 1204.000; 1179.000
464.814;  125.725; 1190.000; 1138.000
464.933;   76.200; 1095.000; 1027.000
465.052;   80.600; 1412.000; 1054.000
465.172;   77.150;  922.000;  799.000
465.291;  127.125; 1376.000; 1320.000
465.410;   10.725;  462.000;  735.000
465.530;   70.700; 1355.000; 1310.000
465.649;   58.225; 1209.000; 1273.000
465.768;  135.500; 1673.000; 1508.000
465.888;   52.225;  941.000; 1174.000
466.007;  109.175; 1335.000; 1440.000
466.126;   -0.825;  721.000;  641.000
466.245;   47.825; 1176.000; 1187.000
466.364;   22.800;  950.000; 1060.000
466.484;   45.650; 1024.000; 1213.000
466.603;   30.425; 1101.000; 1222.000
466.722;  116.400; 1490.000; 1769.000
466.841;   79.400; 1151.000; 1401.000
466.960;   47.150; 1069.000;  972.000
467.079;  122.025; 1971.000; 1786.000
467.198;   33.625; 1238.000; 1181.000
467.317;   85.100; 1768.000; 1162.000
467.436;   68.675; 1709.000; 1261.000
467.555;  130.900; 1796.000; 1746.000
467.674;   51.050; 1227.000; 1329.000
467.793;   35.400; 1376.000; 1374.000
467.912;   64.025; 1658.000; 1539.000
468.031;  117.150; 2038.000; 1930.000
468.150;  133.600; 1842.000; 1837.000
468.269;  185.275; 2313.000; 2090.000
468.388;  171.425; 2168.000; 2339.000
468.507;  251.250; 2884.000; 2903.000
468.626;  230.350; 2555.000; 2541.000
468.744;  157.400; 2018.000; 2174.000
468.863;  181.150; 2312.000; 2523.000
468.982;   86.500; 1503.000; 1555.000
469.101;  215.875; 2788.000; 2692.000
469.220;  143.575; 2333.000; 2176.000
469.338;  244.700; 2935.000; 3051.000
469.457;  189.775; 2719.000; 2545.000
469.576;  327.975; 3953.000; 3784.000
469.695;  249.250; 2877.000; 3066.000
469.813;  418.475; 4148.000; 4192.000
469.932;  414.675; 4255.000; 4485.000
470.051;  428.150; 4075.000; 4161.000
470.169;  854.600; 4470.000; 4338.000
470.288; 1479.150; 4700.000; 4809.000
470.406;  877.650; 5059.000; 5194.000
470.525;  623.825; 6101.000; 5787.000
470.644;  653.125; 6847.000; 6794.000
470.762;  829.050; 8397.000; 7873.000
470.881;  888.325; 8651.000; 8464.000
470.999; 1054.175; 9685.000; 9151.000
471.118; 1120.475;11174.000;10711.000

