
Integration time [ms]: 100.000
Averaging Nr. [scans]: 40
Smoothing Nr. [pixels]: 0
Data measured with spectrometer [name]: 2101012U2
Wave   ;Sample   ;Dark     ;Reference
[nm]   ;[counts] ;[counts] ;[counts] 

197.733;   50.125;  516.000;  404.000
197.879;  -74.350; -610.000; -634.000
198.025;  -46.300; -475.000; -420.000
198.171;  -47.525; -602.000; -612.000
198.317;  -25.050; -401.000; -316.000
198.463;  -42.975; -655.000; -404.000
198.609;   21.975;  181.000; -137.000
198.755;  -76.800; -644.000; -410.000
198.901;  -63.050; -505.000; -424.000
199.047;  -54.200; -615.000; -488.000
199.193;  -41.975; -230.000; -468.000
199.339;  -41.450; -222.000; -369.000
199.485;   34.100;  330.000;  271.000
199.631;   10.475;  227.000;  310.000
199.777;  -41.300; -466.000; -398.000
199.923;  -55.675; -610.000; -424.000
200.069;  -11.625; -141.000;  -58.000
200.215;   66.350;  128.000;  453.000
200.361;   50.775;  243.000;  477.000
200.507;  -63.400; -600.000; -373.000
200.653;  -23.000; -371.000; -194.000
200.798;  -29.100; -215.000; -125.000
200.944;   -9.050; -146.000;  -41.000
201.090;   30.550;   61.000;  222.000
201.236;   -0.250; -116.000; -158.000
201.382;  123.800;  874.000;  903.000
201.528;    3.025;  -58.000;  -48.000
201.674;  -57.225; -386.000; -293.000
201.819;  -71.925; -540.000; -439.000
201.965;  -65.150; -699.000; -447.000
202.111;  -21.100; -273.000; -226.000
202.257;  -41.625; -250.000; -238.000
202.402;    3.300;   13.000;  -36.000
202.548;  -22.650; -169.000; -116.000
202.694;   71.425;  410.000; -183.000
202.840;  -79.900; -603.000; -531.000
202.985;  -66.625; -681.000; -639.000
203.131; -104.325; -832.000; -666.000
203.277;  -16.075; -199.000; -262.000
203.423;  -53.400; -434.000; -520.000
203.568;  -51.825; -462.000; -237.000
203.714;  -61.475; -535.000; -542.000
203.860;  -76.375; -682.000; -641.000
204.005;   22.275;  112.000;  167.000
204.151;   78.925;  561.000;  556.000
204.296;  -37.250; -354.000; -221.000
204.442;  -82.225; -600.000; -547.000
204.588;  -78.600; -592.000; -579.000
204.733;   16.250;  178.000;  168.000
204.879; -126.325;-1018.000; -822.000
205.025;    0.750;  -99.000;  126.000
205.170;   14.725;  -17.000;   94.000
205.316;   78.100;  438.000;  661.000
205.461;  -81.300; -698.000; -554.000
205.607;   66.475;  609.000;  665.000
205.752;  -63.700; -626.000; -551.000
205.898;  -53.075; -501.000; -391.000
206.043;  -62.150; -578.000; -506.000
206.189;  -45.900; -243.000; -285.000
206.334;   65.650;  554.000;  606.000
206.480;   72.550;  409.000;  239.000
206.625;  -71.025; -529.000; -552.000
206.771;  -46.775; -451.000; -373.000
206.916;  -37.750; -210.000; -537.000
207.062;  -69.750; -545.000; -591.000
207.207;  -49.250; -546.000; -443.000
207.353;   34.725;  185.000;  460.000
207.498;   12.575;  196.000;   85.000
207.643;  -54.675; -501.000; -370.000
207.789; -118.275;-1069.000; -910.000
207.934;  -97.475; -665.000; -713.000
208.080;  -26.450; -154.000;   66.000
208.225;  -14.525;  -22.000;  -57.000
208.370;  -72.375; -727.000; -619.000
208.516;  -74.800; -741.000; -487.000
208.661;  -20.650; -127.000;  -69.000
208.806;  -25.525; -165.000; -171.000
208.952; -117.200;-1044.000; -731.000
209.097;   63.100;  378.000;  349.000
209.242;  -43.225; -307.000; -382.000
209.387;   79.525;  392.000;  350.000
209.533;  -35.475; -321.000; -350.000
209.678;   63.925;  472.000;  543.000
209.823;  -63.175; -408.000; -310.000
209.969; -101.900; -860.000; -757.000
210.114; -109.450; -907.000; -719.000
210.259; -117.300; -939.000; -889.000
210.404;  -10.125; -171.000;  103.000
210.549;   12.950;  108.000;    3.000
210.695;  -27.025;   -3.000;  -95.000
210.840;   30.800;   94.000;   67.000
210.985;  -53.200; -484.000; -303.000
211.130;   75.725;  268.000;  406.000
211.275;   16.925;  207.000;  199.000
211.420;  -55.025; -300.000; -289.000
211.566;  -68.500; -536.000; -489.000
211.711;   24.225;  218.000;  157.000
211.856;  -61.425; -545.000; -519.000
212.001;   10.275;  151.000;   44.000
212.146;   28.250;  153.000;   49.000
212.291;  -24.025; -210.000; -186.000
212.436;  -17.650; -280.000;   -6.000
212.581;  -77.450; -685.000; -653.000
212.726;  -60.925; -487.000; -538.000
212.871;  -42.175; -552.000; -217.000
213.016; -137.750;-1172.000;-1029.000
213.161;   60.250;  406.000;  291.000
213.306;  -67.475; -435.000; -577.000
213.451; -100.150; -778.000; -689.000
213.596;  -39.225; -455.000; -347.000
213.741;  -64.625; -448.000; -538.000
213.886;  -71.025; -498.000; -517.000
214.031;  -29.400; -294.000; -124.000
214.176;  -47.950; -408.000; -341.000
214.321;  -14.675; -296.000; -157.000
214.466;  -18.125; -163.000;  -43.000
214.611;   -6.550;  -61.000;  -10.000
214.756; -112.975; -948.000; -858.000
214.901;  -24.575; -388.000; -226.000
215.046; -113.800; -797.000; -825.000
215.191;    0.250;  128.000;   35.000
215.336;  -10.975; -157.000;  -19.000
215.480;  -74.775; -684.000; -505.000
215.625;  -13.175; -175.000;  -19.000
215.770;  -78.825; -757.000; -662.000
215.915;  -23.750;   -5.000;  -97.000
216.060;   -3.700; -113.000;  -21.000
216.205; -105.500; -731.000; -779.000
216.349;  -75.100; -470.000; -533.000
216.494; -137.600; -939.000; -867.000
216.639; -111.675; -823.000; -888.000
216.784;  -83.525; -577.000; -525.000
216.929;   39.875;  392.000;  281.000
217.073;   -2.925; -244.000;  -31.000
217.218;    1.050;   78.000;  -47.000
217.363;  -90.725; -656.000; -618.000
217.507;  -78.925; -623.000; -588.000
217.652; -119.575; -845.000; -874.000
217.797;  -91.175; -708.000; -659.000
217.942; -108.900; -856.000; -720.000
218.086;   67.975;  608.000;  539.000
218.231;  -23.450; -174.000;  -26.000
218.376;  -41.650; -337.000; -229.000
218.520;   -1.150;  -41.000;   96.000
218.665;  -38.750; -338.000; -204.000
218.810;  -47.175; -275.000; -233.000
218.954;    9.825;  201.000;   35.000
219.099;  -99.675; -713.000; -963.000
219.243;  -62.800; -589.000; -554.000
219.388;  -32.975; -264.000; -136.000
219.532;   -8.175; -116.000; -116.000
219.677;  -80.450; -564.000; -521.000
219.822;   -1.300;   33.000;   89.000
219.966;   19.675;   17.000;  -99.000
220.111;  -31.750; -328.000;  -40.000
220.255;  -88.100; -797.000; -750.000
220.400;  -24.750; -180.000; -146.000
220.544;  -71.450; -516.000; -450.000
220.689;  -57.775; -422.000; -451.000
220.833;  -14.925; -123.000;  -58.000
220.978;  -47.175; -393.000; -563.000
221.122;   24.275;  319.000;  307.000
221.267; -100.925; -906.000; -837.000
221.411;  -59.575; -478.000; -394.000
221.555;   -7.175; -104.000;  -23.000
221.700;  -50.625; -329.000; -222.000
221.844;   22.825;  255.000;  272.000
221.989;  -40.325; -328.000; -311.000
222.133;  -17.750; -289.000; -307.000
222.277;  -10.175;    5.000;   78.000
222.422;   16.400;  227.000;  113.000
222.566;  -40.250; -381.000; -214.000
222.711;  -49.075; -414.000; -479.000
222.855;  -76.950; -643.000; -586.000
222.999;  -95.050; -642.000; -717.000
223.144;  -41.100; -195.000; -194.000
223.288;   44.225;  423.000;  251.000
223.432;   44.700;  184.000;  230.000
223.576;    7.200;  152.000;  -21.000
223.721;   37.900;  364.000;  273.000
223.865;  -42.900; -472.000; -475.000
224.009;  267.825; 1673.000; 1631.000
224.153;  -84.950; -660.000; -671.000
224.298;  -69.650; -531.000; -489.000
224.442;   -8.525;  -74.000;  -33.000
224.586;   -6.100; -169.000; -106.000
224.730;  -98.475; -858.000; -670.000
224.875; -105.350; -739.000; -688.000
225.019;    7.725;  102.000;  188.000
225.163;   45.100;  208.000;  341.000
225.307;    5.650;   97.000;  -91.000
225.451;   54.750;  360.000;  481.000
225.595;   28.200;  264.000;  176.000
225.739;  -29.900; -170.000;  -94.000
225.884;   17.025;   86.000;    5.000
226.028;  -94.600; -760.000; -626.000
226.172;  -37.475; -260.000; -273.000
226.316; -107.825; -941.000; -902.000
226.460;  -69.150; -645.000; -493.000
226.604;  -52.550; -406.000; -400.000
226.748;  -97.975; -836.000; -733.000
226.892;  -27.525; -227.000; -181.000
227.036;  -51.825; -537.000; -447.000
227.180;  -50.225; -551.000; -375.000
227.324;  -64.375; -561.000; -580.000
227.468;  -93.850; -819.000; -717.000
227.612;    1.225;  242.000;  -28.000
227.756; -102.750; -845.000; -698.000
227.900;   41.050;  342.000;  441.000
228.044;  -65.425; -509.000; -290.000
228.188;   53.400;  448.000;  568.000
228.332;  -81.675; -546.000; -472.000
228.476;  -27.225; -223.000; -149.000
228.620;  -32.325; -210.000; -150.000
228.764;   61.125;  431.000;  349.000
228.908;  -16.100; -155.000;   30.000
229.052;  -68.500; -615.000; -528.000
229.195;   -4.050; -172.000;   13.000
229.339;  -39.550; -235.000; -305.000
229.483;  -31.100;    5.000; -162.000
229.627;    7.825; -156.000;  139.000
229.771;  -50.825; -218.000; -294.000
229.915;    1.425;  230.000;   79.000
230.059;  -94.875; -648.000; -663.000
230.202;  -55.800; -370.000; -317.000
230.346;  -15.950; -107.000;  107.000
230.490;  -64.225; -489.000; -521.000
230.634;  -99.875; -736.000; -553.000
230.777;   63.375;  478.000;  509.000
230.921;  -43.675; -450.000; -359.000
231.065;  -37.025; -246.000; -286.000
231.209;   25.150;  261.000;  265.000
231.352;    7.425;   54.000;   40.000
231.496;   17.625;  568.000;  188.000
231.640;  -78.825; -693.000; -621.000
231.783;   64.325;  546.000;  525.000
231.927;  -41.175; -294.000; -365.000
232.071; -120.325; -962.000; -736.000
232.214; -115.700; -980.000; -764.000
232.358;  -81.575; -683.000; -599.000
232.502;   -5.675;  -19.000;    7.000
232.645; -140.400;-1090.000; -927.000
232.789;  -26.750; -257.000; -218.000
232.933;  -46.675; -407.000; -224.000
233.076; -124.100;-1038.000; -897.000
233.220; -101.000; -752.000; -777.000
233.363;  -78.100; -669.000; -477.000
233.507;   50.825;  371.000;  129.000
233.650; -106.175; -764.000; -834.000
233.794;   54.925;  438.000;  461.000
233.938;  -65.300; -530.000; -362.000
234.081;  -32.450;  -93.000;   31.000
234.225;  -79.875; -631.000; -539.000
234.368;  -97.025; -773.000; -723.000
234.512;  -54.775; -385.000; -299.000
234.655;  -82.600; -582.000; -555.000
234.798;  -61.300; -493.000; -466.000
234.942; -115.250; -884.000;-1002.000
235.085;  -72.325; -651.000; -443.000
235.229;  -64.200; -405.000; -410.000
235.372;  -51.500; -247.000; -191.000
235.516;  -63.300; -397.000; -321.000
235.659;   12.625;   92.000;  121.000
235.802;  -15.000;  -38.000;  -22.000
235.946;   25.950;  335.000;  215.000
236.089;   22.950;  126.000;  250.000
236.233;   38.375;  275.000;  298.000
236.376;  -57.650; -235.000; -378.000
236.519;  -46.500; -297.000; -319.000
236.663;  -30.975; -215.000; -117.000
236.806; -140.100;-1029.000; -999.000
236.949;   53.275;  543.000;  431.000
237.092;   42.000;  412.000;  391.000
237.236;  -89.175; -589.000; -502.000
237.379;   52.825;  352.000;  428.000
237.522; -111.925; -879.000; -768.000
237.666;  -29.900; -271.000;   18.000
237.809; -115.225; -851.000; -823.000
237.952;   17.150;  469.000;  271.000
238.095;  -73.825; -447.000; -442.000
238.238;   68.950;  688.000;  700.000
238.382;  -15.300;  166.000;  103.000
238.525;  -71.325; -598.000; -511.000
238.668; -138.425;-1060.000; -985.000
238.811;  -88.500; -638.000; -643.000
238.954;  -55.450; -483.000; -334.000
239.097;   74.425;  617.000;  664.000
239.241;   22.075;  394.000;  326.000
239.384;  -42.950; -254.000; -214.000
239.527;  -61.400; -424.000; -224.000
239.670; -142.125; -994.000;-1091.000
239.813; -110.100; -696.000; -658.000
239.956;   56.125;  579.000;  473.000
240.099; -103.825; -778.000; -725.000
240.242;   51.250;  428.000;  432.000
240.385;   37.075;  466.000;  450.000
240.528;  -67.925; -706.000; -473.000
240.671;    4.775;  189.000;  134.000
240.814;  -46.250; -441.000; -158.000
240.957;  -93.950; -767.000; -578.000
241.100;  -90.850; -779.000; -755.000
241.243; -142.525;-1234.000; -893.000
241.386;  -73.750; -508.000; -379.000
241.529;  -88.300; -735.000; -547.000
241.672;  -64.925; -566.000; -495.000
241.815; -112.925; -832.000; -808.000
241.958;  -19.925; -125.000; -182.000
242.101;  -77.975; -545.000; -390.000
242.244;  -49.875; -270.000; -325.000
242.387;  -34.625; -304.000; -246.000
242.530;   43.425;  470.000;  134.000
242.673;  -45.525; -381.000; -309.000
242.815; -121.225; -925.000; -899.000
242.958;  -65.250; -482.000; -381.000
243.101;   16.000;  132.000;  187.000
243.244;  -76.450; -564.000; -521.000
243.387;  -56.675; -313.000; -316.000
243.530;  -97.650; -657.000; -674.000
243.672;  -11.475;   43.000;  -92.000
243.815;  -46.825; -355.000; -283.000
243.958;   -7.100;   98.000;  -26.000
244.101;   -6.175;   59.000;  -16.000
244.243;  -23.050;  -47.000;  101.000
244.386; -114.175; -761.000; -630.000
244.529;  -37.275; -132.000; -139.000
244.672; -140.900;-1154.000; -951.000
244.814;  -96.075; -621.000; -794.000
244.957;  -57.325; -380.000; -304.000
245.100;  -88.000; -489.000; -489.000
245.242;  -59.350; -387.000; -374.000
245.385;   -8.675;  -59.000;  -39.000
245.528; -112.300; -871.000; -705.000
245.670;   74.925;  612.000;  634.000
245.813;  -95.200; -599.000; -547.000
245.956;  -26.825; -324.000; -275.000
246.098;  -70.375; -508.000; -650.000
246.241;    4.600;  194.000;   48.000
246.383;  -28.575; -119.000;  -73.000
246.526;  -86.300; -454.000; -525.000
246.669; -118.750; -889.000; -780.000
246.811;    8.500;  172.000;   -1.000
246.954;  -60.850; -512.000; -426.000
247.096;  -34.425;  -84.000;   -6.000
247.239;  -65.000; -482.000; -445.000
247.381;  -76.350; -647.000; -488.000
247.524;   77.225;  645.000;  679.000
247.666;   -7.975;   58.000;   11.000
247.809; -107.000; -887.000; -691.000
247.951;  -14.125;  -75.000;  138.000
248.094;   15.900;  432.000;  308.000
248.236; -155.875;-1262.000;-1238.000
248.378;  -23.125; -356.000;  -81.000
248.521;  -32.925; -334.000; -337.000
248.663;  -48.100; -236.000; -267.000
248.806;  -34.750; -300.000; -266.000
248.948; -102.275; -886.000; -763.000
249.090;  -63.900; -428.000; -398.000
249.233;  -63.000; -344.000; -381.000
249.375;  -62.975; -474.000; -451.000
249.518;  -14.600;  -83.000; -133.000
249.660;   -5.300; -103.000;    3.000
249.802; -169.150;-1303.000;-1189.000
249.945;  -80.350; -612.000; -540.000
250.087;  -98.550; -834.000; -768.000
250.229;  -65.150; -362.000; -480.000
250.371;  -71.150; -494.000; -439.000
250.514;  -56.775; -310.000; -244.000
250.656;   -3.050;   69.000;  102.000
250.798; -120.800; -849.000; -800.000
250.940;  -62.800; -322.000; -322.000
251.083;  -34.625; -335.000; -111.000
251.225;   44.375;  338.000;  310.000
251.367;  -38.850; -274.000; -373.000
251.509;  -49.100; -265.000; -210.000
251.651;  -92.350; -731.000; -671.000
251.794;   39.625;  538.000;  632.000
251.936;  -96.600; -821.000; -747.000
252.078;  -92.750; -540.000; -461.000
252.220;  -76.925; -645.000; -477.000
252.362;   57.350;  344.000;  462.000
252.504;  -79.175; -677.000; -584.000
252.646; -107.000; -875.000; -722.000
252.788;    9.725;   14.000; -128.000
252.931;  -54.575; -257.000; -253.000
253.073;  -44.275; -376.000; -317.000
253.215;  -10.850;  141.000;  122.000
253.357;  -28.575;   82.000; -153.000
253.499;  -50.850; -374.000; -234.000
253.641;  -93.400; -749.000; -594.000
253.783;  -92.450; -609.000; -527.000
253.925;  -83.625; -586.000; -591.000
254.067;  -94.825; -744.000; -667.000
254.209;  -32.700; -391.000; -259.000
254.351; -127.925; -865.000; -883.000
254.493;  -60.175; -441.000; -417.000
254.635; -121.525; -936.000; -818.000
254.777;  -98.550; -752.000; -687.000
254.918;  -72.825; -512.000; -430.000
255.060;  -69.175; -551.000; -395.000
255.202;  -64.750; -473.000; -261.000
255.344;  -81.875; -658.000; -455.000
255.486;  -70.950; -471.000; -406.000
255.628; -123.400; -780.000; -781.000
255.770;  -77.325; -676.000; -536.000
255.912;  -72.500; -559.000; -468.000
256.053;  -86.650; -730.000; -508.000
256.195;  141.500; 1008.000;  903.000
256.337;  -87.775; -861.000; -595.000
256.479;   48.825;  532.000;  416.000
256.621;  -64.125; -394.000; -212.000
256.762; -104.675; -789.000; -742.000
256.904;   38.675;  485.000;  487.000
257.046;  -41.950; -381.000; -271.000
257.188;  -44.575; -351.000; -264.000
257.329;  -70.275; -525.000; -464.000
257.471; -118.350; -939.000; -807.000
257.613;  -76.275; -584.000; -498.000
257.755; -144.575;-1073.000; -982.000
257.896;   11.700;  286.000;  392.000
258.038;  -73.050; -403.000; -352.000
258.180;  -46.225; -354.000; -279.000
258.321;  -81.900; -581.000; -457.000
258.463;   -5.375;  -71.000;  133.000
258.605;  -79.625; -562.000; -570.000
258.746; -109.375; -886.000; -772.000
258.888; -154.550;-1026.000;-1020.000
259.029;   21.825;  121.000;   -8.000
259.171;  -91.000; -614.000; -550.000
259.313;   -5.350;  -49.000;  -47.000
259.454;  -66.775; -536.000; -414.000
259.596;  -55.300; -483.000; -390.000
259.737;  -74.975; -590.000; -474.000
259.879;   14.625;  217.000;  311.000
260.020;   86.100;  901.000;  636.000
260.162;  -42.600; -146.000; -253.000
260.303; -109.950; -768.000; -687.000
260.445;  -95.025; -609.000; -613.000
260.586;   20.000;  392.000;  157.000
260.728;  -51.625; -360.000; -248.000
260.869;  -73.100; -350.000; -343.000
261.011;   68.975;  706.000;  537.000
261.152;  -66.775; -479.000; -319.000
261.293;  -87.825; -576.000; -595.000
261.435;  -39.200; -219.000; -184.000
261.576;  -54.350; -455.000; -325.000
261.718;   46.450;  420.000;  470.000
261.859; -125.150; -940.000; -949.000
262.000; -128.775; -951.000;-1016.000
262.142;  -26.875;  -52.000;  -60.000
262.283; -106.675; -808.000; -691.000
262.424; -104.125; -666.000; -625.000
262.566; -167.400;-1161.000; -983.000
262.707; -109.375; -840.000; -830.000
262.848; -112.275; -769.000; -726.000
262.990;  -51.775; -362.000; -345.000
263.131;   79.950;  650.000;  681.000
263.272;  -26.550;  -61.000;  -41.000
263.413;  -90.475; -589.000; -561.000
263.555;  -68.650; -669.000; -143.000
263.696;  -88.600; -550.000; -641.000
263.837;  -69.350; -449.000; -551.000
263.978;   -7.525;   -5.000;  -77.000
264.119;  -48.550; -283.000; -264.000
264.261; -107.600; -847.000; -630.000
264.402;   -2.100;   33.000;   40.000
264.543;  -76.425; -509.000; -524.000
264.684;  -16.700;   61.000;  -50.000
264.825;  -70.875; -816.000; -538.000
264.966;  -10.275;  -84.000;  -67.000
265.107; -107.975; -646.000; -670.000
265.248; -116.800; -825.000; -812.000
265.390;   -7.775;  152.000;   -9.000
265.531;  -42.625; -238.000; -107.000
265.672;  -77.175; -557.000; -630.000
265.813;   59.425;  563.000;  439.000
265.954; -146.950; -959.000; -940.000
266.095;  -19.800; -372.000; -322.000
266.236; -100.625; -686.000; -548.000
266.377;  -51.250; -243.000; -297.000
266.518;  -72.150; -619.000; -547.000
266.659;   21.425;  170.000;  268.000
266.800;  -10.200;   83.000;   85.000
266.941;  -86.750; -487.000; -478.000
267.082;    9.075;  354.000;   99.000
267.223;  -57.075; -344.000; -273.000
267.364; -109.650; -892.000; -686.000
267.504;  -19.550;    3.000;  135.000
267.645;  -21.575;  160.000;   67.000
267.786;  -41.575; -147.000;  -86.000
267.927;  -81.625; -473.000; -379.000
268.068;  -37.025; -186.000;  -61.000
268.209;  -54.725; -175.000; -413.000
268.350;  -75.450; -388.000; -532.000
268.490;  -75.850; -648.000; -521.000
268.631;   28.675;  127.000;  225.000
268.772;  -98.725; -874.000; -647.000
268.913;  -53.125; -328.000; -476.000
269.054;  -20.525; -117.000;   12.000
269.194;  -57.650; -418.000; -402.000
269.335; -154.600;-1137.000;-1074.000
269.476;  -31.225;   33.000;  -35.000
269.617;  -51.150; -347.000; -392.000
269.757; -101.975; -713.000; -646.000
269.898; -102.350; -856.000; -613.000
270.039;  -65.375; -415.000; -405.000
270.180; -126.050; -952.000; -816.000
270.320;  -32.350; -190.000; -250.000
270.461;  -49.200; -277.000; -249.000
270.602;  -31.100; -186.000; -156.000
270.742; -118.350; -868.000; -943.000
270.883;  -69.050; -442.000; -390.000
271.023;  -55.375; -358.000; -357.000
271.164;  -77.125; -607.000; -528.000
271.305; -105.150; -666.000; -654.000
271.445;  -96.300; -722.000; -683.000
271.586;  -66.175; -462.000; -283.000
271.726;  -53.675; -397.000; -322.000
271.867;  -69.475; -594.000; -534.000
272.008;   39.550; -473.000; -285.000
272.148;   64.600;  462.000;  468.000
272.289;   -9.750; -113.000; -181.000
272.429;   -2.075;   19.000;  185.000
272.570; -106.225; -633.000; -737.000
272.710; -108.100; -825.000; -775.000
272.851;  -33.300;  113.000; -130.000
272.991; -169.275;-1173.000;-1077.000
273.131;  -72.750; -419.000; -459.000
273.272;  -99.225; -683.000; -723.000
273.412;  -17.725; -143.000;  -31.000
273.553;  -68.625; -488.000; -507.000
273.693;  102.625;  913.000;  858.000
273.834; -112.150; -894.000; -692.000
273.974;  -71.225; -664.000; -615.000
274.114; -101.925; -772.000; -560.000
274.255;   43.550;  414.000;  373.000
274.395;  -34.900; -180.000; -125.000
274.535;   27.650;  199.000;  350.000
274.676;    7.200;  225.000;   94.000
274.816;   -5.350;  110.000;   34.000
274.956;  -85.725; -624.000; -690.000
275.097; -106.350;-1014.000; -922.000
275.237; -115.225; -913.000; -803.000
275.377;  -96.900; -778.000; -689.000
275.517; -139.075; -878.000; -937.000
275.658;  -79.800; -590.000; -555.000
275.798;  -86.150; -606.000; -413.000
275.938;    9.200;  215.000;  323.000
276.078;  -83.600; -626.000; -395.000
276.218;   -7.925;   99.000;  104.000
276.359; -131.575;-1026.000;-1024.000
276.499;  -86.525; -605.000; -446.000
276.639;  -36.625; -305.000; -151.000
276.779;  -65.575; -475.000; -357.000
276.919; -111.375; -783.000; -624.000
277.059;  -28.975; -261.000; -212.000
277.199;  -54.900; -357.000; -259.000
277.340;   34.575;  287.000;  175.000
277.480; -107.225; -840.000; -693.000
277.620;   15.850;  192.000;   16.000
277.760; -201.400;-1533.000;-1294.000
277.900;  -10.675;  113.000;   33.000
278.040;   -7.575;  137.000;  159.000
278.180;   13.225;  270.000;  170.000
278.320;   -2.175;   21.000;   56.000
278.460;  -75.000; -443.000; -469.000
278.600;  -79.175; -708.000; -598.000
278.740;   43.700;  448.000;  224.000
278.880; -111.600; -768.000; -791.000
279.020;  -21.350; -194.000; -144.000
279.160;  -89.600; -672.000; -595.000
279.300; -125.600; -926.000; -873.000
279.440; -108.825; -709.000; -622.000
279.579;  -81.900;-1014.000; -929.000
279.719;  -65.950; -410.000; -394.000
279.859;   44.675;   -4.000;   41.000
279.999;  -10.550; -208.000;  101.000
280.139;  -55.075; -435.000; -387.000
280.279;  -92.225; -708.000; -745.000
280.419;  -31.925; -229.000; -147.000
280.559;  -32.450; -259.000; -180.000
280.698;  -96.375; -790.000; -639.000
280.838; -108.975; -778.000; -800.000
280.978; -104.025; -846.000; -790.000
281.118; -122.925; -811.000; -704.000
281.257;  -14.750;   24.000;    6.000
281.397; -134.700;-1094.000; -960.000
281.537; -101.950; -599.000; -712.000
281.677;  -15.350; -150.000; -101.000
281.816;  -97.100; -700.000; -630.000
281.956;  -44.550; -193.000; -257.000
282.096;  -68.300; -539.000; -396.000
282.235; -108.200; -672.000; -638.000
282.375;  -32.075; -243.000;  -98.000
282.515; -104.325; -715.000; -707.000
282.654;    4.125;   29.000;  106.000
282.794;   23.600;  388.000;  244.000
282.934;  -60.725; -530.000; -491.000
283.073; -134.900;-1030.000; -857.000
283.213;  -65.600; -460.000; -467.000
283.353;  -61.950; -408.000; -349.000
283.492;  -33.250; -264.000; -296.000
283.632;  -36.775; -254.000; -168.000
283.771;  -93.575; -859.000; -730.000
283.911;  -57.750; -369.000; -260.000
284.050; -113.950; -794.000; -748.000
284.190; -156.500;-1229.000;-1096.000
284.329; -135.750;-1055.000; -964.000
284.469;  -93.275; -516.000; -591.000
284.608;  -52.150; -559.000; -598.000
284.748;  -85.700; -614.000; -570.000
284.887;  -21.825;  -87.000;  -20.000
285.027; -129.700; -844.000; -892.000
285.166;  -47.675; -192.000; -249.000
285.306;   -9.600; -116.000;  -33.000
285.445;  -43.500; -229.000; -343.000
285.584;  -91.775; -630.000; -494.000
285.724;  -50.200; -282.000; -322.000
285.863; -112.175; -857.000; -507.000
286.002;  -45.875; -366.000; -276.000
286.142;  -96.375; -715.000; -622.000
286.281;  -82.575; -525.000; -493.000
286.420;  -72.475; -554.000; -417.000
286.560;   77.575;  653.000;  623.000
286.699; -134.275; -958.000; -912.000
286.838;  -88.100; -590.000; -591.000
286.978;  -99.150; -533.000; -537.000
287.117; -139.150;-1085.000; -950.000
287.256;  -39.075; -228.000; -211.000
287.395;  -57.225; -197.000; -378.000
287.535;  -56.425; -370.000; -298.000
287.674;  -91.875; -509.000; -484.000
287.813;   40.850;  661.000;  533.000
287.952; -128.175;-1010.000; -871.000
288.091; -144.600;-1049.000; -915.000
288.231;  -17.500;   13.000;   15.000
288.370; -169.075;-1217.000;-1200.000
288.509; -101.125; -728.000; -645.000
288.648;  -94.350; -770.000; -548.000
288.787;  -43.275; -243.000;  -87.000
288.926;  -66.625; -454.000; -475.000
289.065;   78.825;  859.000;  672.000
289.204;  -61.725; -377.000; -217.000
289.344;  -99.475; -791.000; -690.000
289.483;   13.850;  416.000;  304.000
289.622;  -46.825; -291.000; -149.000
289.761;  -20.400; -309.000; -166.000
289.900; -108.100; -785.000; -626.000
290.039;  -23.525;  -12.000;  -95.000
290.178;  -55.650; -274.000; -180.000
290.317;  -87.325; -618.000; -479.000
290.456;  -66.100; -463.000; -451.000
290.595; -130.425; -961.000; -833.000
290.734; -145.275; -904.000; -891.000
290.873;  -74.475; -456.000; -420.000
291.011; -114.375; -833.000; -843.000
291.150; -113.875; -770.000; -682.000
291.289;  -51.425; -343.000; -110.000
291.428;  -99.600; -599.000; -480.000
291.567;  -62.350; -370.000; -442.000
291.706;    0.850;  109.000;  154.000
291.845;  -91.825; -597.000; -505.000
291.984; -157.800;-1234.000;-1061.000
292.122;   47.200;  602.000;  582.000
292.261;   43.800;  620.000;  463.000
292.400;   -8.325; -144.000;  211.000
292.539; -123.025; -959.000; -813.000
292.678;  -43.125; -325.000; -300.000
292.816; -154.925;-1136.000; -965.000
292.955;  -98.975; -844.000; -684.000
293.094;  -46.000; -173.000; -337.000
293.233;  -56.125; -556.000; -400.000
293.371;  -27.725; -225.000;  -84.000
293.510; -106.500; -866.000; -780.000
293.649; -122.075; -959.000; -924.000
293.787; -128.525;-1083.000;-1012.000
293.926;  -11.925; -113.000;  -32.000
294.065;  -52.775; -379.000; -290.000
294.203;   33.150;  298.000;  406.000
294.342;   14.475;   74.000;  156.000
294.481; 5939.975;51180.000; -836.000
294.619;  -34.300; -425.000; -582.000
294.758; -149.975;-1230.000;-1137.000
294.896;    3.700; -125.000;    5.000
295.035; -139.050;-1040.000;-1006.000
295.174; -143.425;-1082.000; -954.000
295.312;  -51.975; -323.000; -203.000
295.451;  -46.450; -307.000; -428.000
295.589;  -63.675; -389.000; -518.000
295.728;   -7.100; -292.000; -165.000
295.866;  -10.150;  -36.000;  -51.000
296.005;  -68.275; -584.000; -341.000
296.143;  -89.675; -558.000; -596.000
296.282; -111.425; -957.000; -881.000
296.420;  -89.300; -657.000; -557.000
296.559;  -94.175; -892.000; -633.000
296.697;  -60.450; -847.000; -665.000
296.835;  -93.075;-1141.000;-1002.000
296.974;    9.725;  -23.000;   39.000
297.112;  -57.575; -443.000; -504.000
297.251;  -93.525; -815.000; -755.000
297.389;  -18.375; -576.000; -438.000
297.527;    2.850; -145.000;  -83.000
297.666;  -81.375; -486.000; -438.000
297.804;  -53.900; -404.000; -264.000
297.942;  -19.100; -136.000; -161.000
298.081;  -21.300; -183.000;   63.000
298.219;    1.075;  -17.000;  -19.000
298.357;   -1.475; -144.000;  -71.000
298.495;  -77.125; -810.000; -812.000
298.634;   12.000;  245.000;  219.000
298.772;  -36.550; -220.000; -338.000
298.910;  -59.900; -309.000; -182.000
299.048;  -29.675; -130.000; -153.000
299.187;  -48.675; -350.000; -250.000
299.325;   -8.900;   52.000;  122.000
299.463;  -29.325; -389.000; -299.000
299.601;    5.475; -327.000; -271.000
299.739; -125.675; -908.000; -883.000
299.877; -101.950; -791.000; -703.000
300.016;  -88.900;-1095.000; -935.000
300.154;   52.750;  -19.000; -161.000
300.292;  -45.450; -428.000; -348.000
300.430;  -38.225; -408.000; -291.000
300.568; -115.425; -940.000; -874.000
300.706;  -57.425; -366.000; -469.000
300.844; -118.975;-1108.000; -979.000
300.982;   59.625;  246.000;  282.000
301.120; -133.025; -965.000; -866.000
301.258; -111.550; -812.000; -705.000
301.396;   -5.525;  104.000;  -41.000
301.534;  -28.250; -218.000; -293.000
301.672;  -59.175; -664.000; -521.000
301.810;  -65.100; -613.000; -545.000
301.948;   27.725;   53.000;  149.000
302.086;  237.800; -250.000;  -32.000
302.224;  280.375; -610.000; -585.000
302.362;  -58.275; -558.000; -622.000
302.500;  -96.550; -923.000; -893.000
302.638;   30.925;  128.000;  245.000
302.776;  -27.925; -352.000; -408.000
302.913;    9.200;  447.000;  236.000
303.051;  -55.325;  -86.000;  -23.000
303.189;   10.700;   90.000;  118.000
303.327;  -57.850; -341.000; -256.000
303.465;  -90.700; -832.000; -588.000
303.603; -100.375; -805.000; -604.000
303.740;   38.550;  417.000;  241.000
303.878;  -58.700; -800.000; -759.000
304.016; -108.175; -915.000; -790.000
304.154; -145.350;-1123.000;-1152.000
304.291;  -71.400; -505.000; -554.000
304.429;   -3.350;  102.000;   74.000
304.567; -130.850; -908.000; -893.000
304.705;  -65.075; -408.000; -515.000
304.842;  -23.950; -616.000; -540.000
304.980;   14.725;  215.000;   35.000
305.118;  -18.950; -367.000; -365.000
305.255; -123.575; -945.000; -927.000
305.393;   27.425;  178.000;  239.000
305.531; -146.950;-1173.000; -956.000
305.668;  -77.825; -663.000; -582.000
305.806;    5.000; -358.000; -439.000
305.943;  -16.275; -629.000; -637.000
306.081;   -8.400; -378.000; -267.000
306.219; -108.950; -863.000; -748.000
306.356;   10.700;  158.000;   27.000
306.494;  116.050;  981.000;  761.000
306.631;   -3.175;  -11.000;  -55.000
306.769;  -37.375; -613.000; -485.000
306.906;  -32.100; -284.000; -258.000
307.044;  -73.275; -473.000; -488.000
307.181;  -63.900; -410.000; -332.000
307.319;    7.225;  112.000;   87.000
307.456; -170.575;-1191.000;-1153.000
307.594; -107.825; -980.000; -727.000
307.731;  -38.075; -371.000; -164.000
307.868;   -7.875;  -15.000;   20.000
308.006; -135.225; -961.000; -847.000
308.143;  -73.500; -618.000; -330.000
308.281;   39.775;  -37.000; -254.000
308.418;  -67.825; -748.000; -640.000
308.555;  -87.600; -400.000; -250.000
308.693;  -66.775; -577.000; -573.000
308.830;  -94.875; -712.000; -657.000
308.967;  -15.450; -215.000;  -95.000
309.105;  -40.725; -507.000; -396.000
309.242;   -9.125; -468.000; -367.000
309.379;   62.175; -577.000; -655.000
309.517; -114.275; -936.000; -948.000
309.654; -102.875; -910.000; -734.000
309.791;  -79.050; -662.000; -580.000
309.928; -124.800; -977.000; -914.000
310.065;  127.225;  819.000;  697.000
310.203;  -79.925; -825.000; -850.000
310.340;  -51.500; -465.000; -321.000
310.477;  -78.450; -412.000; -516.000
310.614;  -61.300; -383.000; -473.000
310.751;  -71.900; -427.000; -518.000
310.889;  -23.475;    1.000;   11.000
311.026; -148.050;-1161.000; -939.000
311.163;  -51.750; -386.000; -380.000
311.300;  -65.850; -512.000; -479.000
311.437;  -90.825; -658.000; -619.000
311.574; -139.400;-1226.000; -985.000
311.711;  -73.125; -595.000; -433.000
311.848;  -24.500; -380.000; -388.000
311.985;   -1.475;  270.000;   93.000
312.122; -117.750; -932.000; -762.000
312.259; -110.325; -941.000; -994.000
312.396;  -86.025; -508.000; -551.000
312.533;  -90.775; -812.000; -790.000
312.670; -135.050;-1070.000; -898.000
312.807;  -46.050; -352.000; -367.000
312.944;  -79.225; -513.000; -611.000
313.081;  -26.325; -150.000; -415.000
313.218;  -92.375;-1111.000; -867.000
313.355;  -19.875; -531.000; -449.000
313.492;  -12.675; -455.000; -292.000
313.629;  121.000;  815.000;  735.000
313.766; -160.600;-1176.000;-1008.000
313.902;  -40.800; -186.000;   21.000
314.039;  -48.700; -372.000; -289.000
314.176;   14.675;  286.000;  192.000
314.313;  -64.425; -569.000; -473.000
314.450;  -92.650; -788.000; -684.000
314.587;  -50.850; -468.000; -480.000
314.723;    1.150;  -78.000;  130.000
314.860;   33.975;  318.000;  332.000
314.997;   24.200;  223.000;  142.000
315.134;  -36.625; -385.000; -368.000
315.270;  -35.400; -480.000; -496.000
315.407; -106.550;-1094.000; -967.000
315.544;  -55.000; -657.000; -538.000
315.681;  -55.825; -681.000; -565.000
315.817;   27.900; -133.000; -176.000
315.954;   49.500; -613.000; -392.000
316.091; -125.050;-1045.000;-1023.000
316.227;  -31.725;  -71.000; -179.000
316.364;  -12.275;   23.000;    6.000
316.500;  -46.950; -113.000; -300.000
316.637;  -47.750; -181.000; -302.000
316.774;  -84.825; -625.000; -358.000
316.910;  -89.450; -598.000; -629.000
317.047;  -81.850; -487.000; -351.000
317.183;  -57.300; -435.000; -566.000
317.320;   22.725; -367.000; -321.000
317.456;  -43.725; -733.000; -805.000
317.593;  -91.275; -598.000; -641.000
317.729;   -5.350;  168.000;  -67.000
317.866; -204.875;-1434.000;-1285.000
318.002;  -85.025; -708.000; -948.000
318.139; -104.325; -883.000; -867.000
318.275; -120.650;-1003.000; -738.000
318.412;  -72.750; -517.000; -336.000
318.548;  -83.200; -751.000; -720.000
318.685; -115.125; -985.000; -888.000
318.821;  -92.925; -762.000; -735.000
318.957;  -30.900;   34.000;  -23.000
319.094;   38.150;  297.000;  154.000
319.230;  -87.875; -756.000; -742.000
319.367;    4.800; -471.000; -520.000
319.503;  -23.200; -538.000; -436.000
319.639; -102.900; -877.000; -793.000
319.775;  -95.350; -750.000; -685.000
319.912;  -63.375; -424.000; -519.000
320.048;  -95.050;-1184.000;-1184.000
320.184;   86.850;   59.000;   70.000
320.321;  -55.975; -497.000; -467.000
320.457;   60.950;  475.000;  662.000
320.593;  -75.025; -375.000; -382.000
320.729; -105.050; -732.000; -734.000
320.866;  -67.800; -577.000; -635.000
321.002; -105.025; -759.000; -809.000
321.138;  -42.775; -135.000; -211.000
321.274;   10.150; -148.000; -115.000
321.410;  -51.375; -585.000; -353.000
321.546; -107.100;-1011.000; -911.000
321.683;   18.725;  400.000;  185.000
321.819;  -27.250;  -48.000; -117.000
321.955; -114.800; -743.000; -722.000
322.091;  -76.400; -585.000; -540.000
322.227;  -25.500; -382.000; -202.000
322.363;  -58.425; -320.000; -215.000
322.499;  -63.250; -343.000; -331.000
322.635;   99.050;  636.000;  443.000
322.771;  -12.450; -139.000;   12.000
322.907;   35.100;  129.000;  327.000
323.043;  -27.900; -115.000; -206.000
323.179;  -55.475; -394.000; -363.000
323.315;  -45.050; -401.000; -371.000
323.451;   11.075; -328.000; -236.000
323.587;   52.425;  -60.000;  -77.000
323.723;  -59.050; -682.000; -601.000
323.859;  -33.200; -258.000;  -76.000
323.995;  -54.075; -467.000; -409.000
324.131; -131.125; -967.000; -892.000
324.267;  -54.725; -254.000; -276.000
324.402; -135.050; -960.000; -983.000
324.538;  -29.300; -279.000; -104.000
324.674;    2.425;  164.000;   77.000
324.810;   40.350;  226.000;  308.000
324.946;  -39.050; -810.000; -658.000
325.082;  -81.600; -568.000; -475.000
325.217;  -20.800;  -62.000;   16.000
325.353; -121.500; -764.000; -659.000
325.489;  -93.050; -540.000; -506.000
325.625;  -86.275; -579.000; -525.000
325.760;   79.225;  517.000;  376.000
325.896;    0.125; -515.000; -702.000
326.032;  -62.200; -403.000; -352.000
326.168;  -66.900; -462.000; -369.000
326.303;  -70.600; -352.000; -461.000
326.439;  -17.950; -336.000; -276.000
326.575;   -8.950; -190.000;  -29.000
326.710;  -29.025; -156.000;  -30.000
326.846;  -10.375;  146.000;  103.000
326.982; -100.075; -530.000; -548.000
327.117;  -72.525; -481.000; -442.000
327.253;  -86.000; -745.000; -742.000
327.388; -152.375;-1137.000;-1153.000
327.524;  -90.550; -811.000; -578.000
327.659;  -36.600;  -58.000;  -22.000
327.795;  -25.075;   69.000;   45.000
327.931;  -77.250; -723.000; -499.000
328.066;  -35.200; -417.000; -276.000
328.202;  -13.350;   12.000; -129.000
328.337;   73.875;  957.000;  713.000
328.473;   19.450;  -12.000;  -74.000
328.608;  -33.500; -256.000; -267.000
328.743; -106.225; -799.000; -664.000
328.879;    0.700;  214.000;  114.000
329.014;  -40.625; -102.000; -122.000
329.150;  -76.650; -358.000; -483.000
329.285;  -79.175; -465.000; -466.000
329.421;  -58.725; -548.000; -246.000
329.556;  -39.200;  -36.000;   85.000
329.691; -108.050; -633.000; -615.000
329.827;  -81.575; -626.000; -480.000
329.962;  -55.350;  131.000; -301.000
330.097;  -86.450; -673.000; -585.000
330.233;  -62.700; -410.000; -223.000
330.368; -136.550; -839.000; -628.000
330.503;  -28.950;    3.000;   98.000
330.638;  -15.250;  -93.000; -125.000
330.774;  -87.425; -609.000; -530.000
330.909;  -53.450; -434.000; -244.000
331.044;  -98.775; -714.000; -708.000
331.179; -164.875;-1217.000;-1109.000
331.315;  -11.250;   77.000;   20.000
331.450;    9.000;  157.000;  285.000
331.585;  -96.975; -805.000; -706.000
331.720;  -70.150; -510.000; -460.000
331.855;  -22.575;  -35.000; -102.000
331.990;  407.275;   62.000;  138.000
332.126;  206.100; -110.000;   71.000
332.261;    7.325; -379.000; -265.000
332.396;   -6.875; -135.000; -242.000
332.531;  -66.350;-1074.000;-1031.000
332.666;   79.000; -519.000; -363.000
332.801;  -97.600; -726.000; -807.000
332.936;  -30.825; -192.000; -122.000
333.071; -146.300; -870.000; -817.000
333.206;    9.650;  307.000;  379.000
333.341;   15.350;  344.000;  418.000
333.476;  -88.425; -627.000; -623.000
333.611;  -41.250; -251.000; -173.000
333.746;  -68.000; -381.000; -464.000
333.881; -126.000; -973.000; -935.000
334.016; -137.100; -936.000; -917.000
334.151; -130.450; -746.000; -702.000
334.286;    6.925;  152.000;  186.000
334.421;  -13.575; -125.000; -178.000
334.556;  -83.425; -611.000; -567.000
334.690;  -96.300; -631.000; -577.000
334.825;   60.300;  381.000;   83.000
334.960;  -56.550; -285.000; -413.000
335.095;    3.375;  135.000;  -91.000
335.230;  -84.250; -722.000; -738.000
335.365; -125.425;-1084.000; -990.000
335.499; -126.000;-1108.000;-1037.000
335.634;   27.900;    9.000;  534.000
335.769;  -95.975; -755.000; -720.000
335.904;  -50.900; -603.000; -561.000
336.038;  -29.050; -735.000; -657.000
336.173; -104.475;-1206.000;-1194.000
336.308;   31.325; -116.000; -189.000
336.443;   67.400; -544.000; -634.000
336.577;  -35.850; -936.000; -787.000
336.712;   83.775;   -4.000;  -12.000
336.847;    4.725; -724.000; -607.000
336.981;   55.975; -272.000; -208.000
337.116;  339.500;  615.000;  501.000
337.250;  141.300; -434.000; -421.000
337.385;  472.675; -297.000; -208.000
337.520;  213.850; -632.000; -603.000
337.654;  -27.625; -215.000; -126.000
337.789; -133.150; -989.000; -933.000
337.923;  -45.125; -104.000; -205.000
338.058; -113.850; -673.000; -738.000
338.192;  -60.750; -611.000; -488.000
338.327;  -15.800;  -18.000; -155.000
338.461;  -59.725; -299.000; -469.000
338.596;  -95.075; -780.000; -638.000
338.730;  -96.700; -767.000; -803.000
338.865;  154.475;  -46.000; -140.000
338.999;    5.800; -846.000; -702.000
339.134;    5.875; -634.000; -536.000
339.268;   43.125; -741.000; -603.000
339.403;  563.325; -740.000; -775.000
339.537;  263.225; -894.000; -820.000
339.671; -100.275; -829.000; -813.000
339.806;  -29.275; -556.000; -512.000
339.940;   26.050; -261.000; -235.000
340.074;  -94.875; -685.000; -510.000
340.209;  -63.400; -351.000; -230.000
340.343;  -87.600; -517.000; -573.000
340.477;  108.675;  998.000; 1036.000
340.612;    5.525;-1033.000; -900.000
340.746;  213.300; -199.000; -243.000
340.880; -104.575; -924.000; -785.000
341.014;  -27.300;  -45.000; -154.000
341.149; -124.250; -756.000; -718.000
341.283; -129.600; -839.000; -754.000
341.417; -134.025;-1124.000; -938.000
341.551;  -19.850; -768.000; -708.000
341.685;  -61.650; -633.000; -611.000
341.820;  -38.925; -562.000; -493.000
341.954;  -50.025; -218.000; -349.000
342.088; -147.750;-1102.000;-1019.000
342.222;   39.500;  565.000;  618.000
342.356;  -84.900; -395.000; -335.000
342.490; -112.550; -880.000; -841.000
342.624;  -51.075; -339.000; -242.000
342.758;  -58.250; -364.000; -312.000
342.892; -113.550; -710.000; -585.000
343.026;  -48.350;  -58.000; -116.000
343.160;  -76.300; -426.000; -376.000
343.294;  -82.100; -474.000; -337.000
343.428;  -75.525; -488.000; -448.000
343.562;  -35.675; -172.000;  -23.000
343.696;  -47.025; -385.000; -314.000
343.830;  -42.300; -362.000; -356.000
343.964;  -20.450; -231.000; -168.000
344.098;  335.550;  199.000;   70.000
344.232;  267.650; -266.000; -127.000
344.366;   71.875; -567.000; -453.000
344.500;  -39.475; -665.000; -744.000
344.634;  -32.650; -324.000; -164.000
344.768;  -59.675; -531.000; -341.000
344.902;   22.875;  278.000;  256.000
345.035;  -78.925; -556.000; -496.000
345.169; -140.025; -933.000; -656.000
345.303;  -61.850; -308.000; -482.000
345.437; -108.850; -826.000; -717.000
345.571;  -75.450; -675.000; -594.000
345.704;  -57.450; -309.000; -532.000
345.838;  -33.475; -331.000; -284.000
345.972;  -49.325; -543.000; -495.000
346.106;  229.925; -179.000; -190.000
346.239;  493.250; -312.000; -243.000
346.373;  -22.300; -343.000; -302.000
346.507; -136.325; -950.000; -962.000
346.640;   25.900;  -30.000;   13.000
346.774;  -93.325; -650.000; -797.000
346.908;  -33.350; -138.000;  -11.000
347.041; -101.175; -646.000; -593.000
347.175;  -23.825;  259.000;   27.000
347.309; -103.325; -698.000; -628.000
347.442; -128.500; -883.000; -732.000
347.576;  126.900;  670.000;  668.000
347.709;   58.025; -123.000;  -52.000
347.843; -116.150; -933.000; -825.000
347.976;    8.650;  235.000;  294.000
348.110; -176.900;-1268.000;-1186.000
348.243; -102.400; -679.000; -772.000
348.377;    8.075;  -26.000;   60.000
348.510;   20.900;  403.000;  540.000
348.644;  -41.000;  -37.000; -159.000
348.777;   -7.900;  180.000;  191.000
348.911;  -52.475; -142.000; -112.000
349.044;   89.000;  471.000;  448.000
349.178;  -16.625;-1069.000;-1006.000
349.311;   94.650;  141.000;  255.000
349.444;   26.950; -927.000; -813.000
349.578;  -38.875; -347.000; -200.000
349.711; -131.375; -959.000; -862.000
349.845;  -67.150; -661.000; -591.000
349.978; -165.675;-1224.000;-1137.000
350.111;  -86.425; -546.000; -612.000
350.244; -112.175; -596.000; -700.000
350.378;  -53.450; -392.000; -393.000
350.511;  -75.625; -393.000; -426.000
350.644; -107.475; -808.000; -806.000
350.778;    6.350;  168.000;  104.000
350.911;   -0.925;  134.000;  140.000
351.044;  -93.675; -685.000; -615.000
351.177;  -55.175; -321.000; -281.000
351.310;  -33.225;    3.000; -131.000
351.444; -114.675; -888.000; -788.000
351.577;   32.900;  140.000;   90.000
351.710;   64.200;  593.000;  417.000
351.843;  -39.025; -165.000;  -77.000
351.976;  -26.075;  149.000;  -79.000
352.109; -112.475; -621.000; -612.000
352.242;  -60.200; -464.000; -419.000
352.376;  -73.850; -580.000; -636.000
352.509;   11.475; -437.000; -356.000
352.642;  -95.025; -654.000; -604.000
352.775;    3.375; -141.000;  -98.000
352.908; -104.050; -933.000; -904.000
353.041; -103.975; -814.000; -824.000
353.174;  -68.325; -551.000; -424.000
353.307; -107.250; -753.000; -764.000
353.440;   57.650;  541.000;  453.000
353.573; -117.075; -957.000;-1008.000
353.706;  -38.800; -384.000; -558.000
353.839;  -44.775; -264.000; -220.000
353.971;  -83.800; -657.000; -512.000
354.104; -106.450; -896.000; -835.000
354.237;  -82.000; -627.000; -662.000
354.370; -109.725; -846.000; -879.000
354.503; -176.075;-1231.000;-1308.000
354.636;  -39.050; -529.000; -348.000
354.769; -112.550; -937.000; -860.000
354.902;  -26.350; -230.000; -139.000
355.034;  -16.175; -164.000; -220.000
355.167;   -4.750; -262.000; -162.000
355.300;  -66.725;-1061.000; -880.000
355.433; 1421.025;  -71.000;  -14.000
355.565; 2269.025; -402.000; -384.000
355.698;  577.700; -356.000; -296.000
355.831;   17.225; -882.000; -801.000
355.964;   16.475; -285.000; -170.000
356.096;  -73.100; -856.000; -843.000
356.229;   -7.225; -523.000; -530.000
356.362;  528.225; -373.000; -266.000
356.494;  915.975; -229.000; -162.000
356.627;  344.300;  269.000;  377.000
356.760;  881.400;  120.000;   53.000
356.892; 1491.075; -286.000; -601.000
357.025;  372.075;  403.000;  389.000
357.157;  242.725; -167.000; -179.000
357.290; 1159.900; -856.000; -713.000
357.423;  394.175; -667.000; -556.000
357.555;  116.775; -217.000; -228.000
357.688;  156.025; -483.000; -364.000
357.820;  202.700; -870.000; -877.000
357.953; 1693.375; -563.000; -589.000
358.085;  280.275; -632.000; -612.000
358.218;  147.125;-1131.000; -932.000
358.350;   52.875;  -58.000;  312.000
358.483; -159.875;-1300.000;-1187.000
358.615; -125.850;-1182.000;-1078.000
358.747; -149.050;-1187.000;-1058.000
358.880;  -59.325; -810.000; -744.000
359.012;  -26.150; -376.000; -202.000
359.145;  -69.125; -480.000; -511.000
359.277;  -59.450; -962.000; -913.000
359.409; 1437.450;  536.000;  231.000
359.542;  335.225; -738.000; -688.000
359.674;   20.900;   46.000;   13.000
359.806;  -78.050; -565.000; -438.000
359.939;  -41.450; -617.000; -516.000
360.071;   16.775; -583.000; -579.000
360.203;  -36.250; -411.000; -364.000
360.335;   26.850;  164.000;  -16.000
360.468;   95.025; -249.000; -307.000
360.600; 1455.225; -547.000; -454.000
360.732; 4176.350; -546.000; -423.000
360.864;  658.900;-1216.000;-1044.000
360.996;   63.275; -516.000; -554.000
361.129;  -43.575; -389.000; -598.000
361.261;  -10.425;  110.000; -113.000
361.393;  -53.950; -252.000; -214.000
361.525;   -2.600;   94.000;  244.000
361.657;  -99.825; -821.000; -703.000
361.789;  -39.775; -139.000; -155.000
361.921;  -14.100; -642.000; -593.000
362.053;  100.400;  524.000;  541.000
362.185;    4.825;  288.000;   72.000
362.318; -110.825; -709.000; -705.000
362.450;   25.200;  294.000;  444.000
362.582;  -93.825; -913.000; -870.000
362.714;  -56.850; -353.000; -332.000
362.846; -101.950; -606.000; -490.000
362.978; -144.925; -941.000; -811.000
363.109;  -22.675; -161.000; -260.000
363.241;  159.000; -739.000; -749.000
363.373;  631.075; -649.000; -564.000
363.505; 1024.875; -186.000;  -91.000
363.637;  237.075; -787.000; -601.000
363.769; -131.325;-1067.000;-1080.000
363.901;  -74.375; -596.000; -654.000
364.033; -150.525;-1103.000;-1062.000
364.165;  -50.550; -283.000; -283.000
364.296;   79.925; -316.000; -177.000
364.428;  185.900;-1344.000;-1220.000
364.560;  -67.100; -679.000; -661.000
364.692;  -99.350; -738.000; -835.000
364.824;   -6.350; -588.000; -456.000
364.955;  500.950; -402.000; -564.000
365.087; 1649.550;-1097.000; -852.000
365.219;   92.050; -686.000; -816.000
365.351;  -78.550; -526.000; -572.000
365.482;   35.875;  300.000;  240.000
365.614;  -65.075; -402.000; -314.000
365.746; -115.525; -729.000; -752.000
365.877; -106.000; -706.000; -672.000
366.009;  412.200;  -35.000;  -62.000
366.141;  -37.550;-1249.000;-1134.000
366.272; -104.575; -803.000; -719.000
366.404; -120.000;-1005.000; -874.000
366.535;  -11.550; -139.000;  -12.000
366.667; -109.850; -644.000; -649.000
366.799;   14.475;  353.000;  203.000
366.930; -143.050; -862.000; -996.000
367.062;  168.450; -639.000; -613.000
367.193;  351.050; -872.000; -842.000
367.325;  -39.650; -580.000; -684.000
367.456;    8.700; -246.000;   31.000
367.588;  264.700; -371.000; -318.000
367.719;   34.300;  -44.000;  -45.000
367.851;  -46.275; -222.000; -241.000
367.982; -100.000; -875.000; -732.000
368.113;  -25.575; -475.000; -358.000
368.245; -146.000; -960.000; -841.000
368.376;  -57.600; -254.000; -302.000
368.508;  -70.625; -188.000; -263.000
368.639; -168.500;-1166.000;-1034.000
368.770;  -88.025; -670.000; -589.000
368.902; -115.500; -836.000; -926.000
369.033; -129.425; -906.000; -855.000
369.164;  -46.850; -720.000; -653.000
369.296; -110.750; -452.000; -601.000
369.427;  -53.475; -209.000; -144.000
369.558;  -87.175; -593.000; -377.000
369.689;  -95.500; -721.000; -569.000
369.821; -129.800; -951.000; -845.000
369.952;  -25.975;   42.000; -108.000
370.083;  -57.525; -229.000; -108.000
370.214; -106.675; -735.000; -650.000
370.345;  -23.150;   65.000;   81.000
370.477; -119.625; -810.000; -790.000
370.608;   35.100; -328.000; -264.000
370.739; -127.600;-1233.000;-1292.000
370.870; -117.050;-1102.000; -923.000
371.001;  -27.550; -378.000; -467.000
371.132;  -95.325; -754.000; -735.000
371.263;  -30.775;  -42.000; -148.000
371.394; -127.900; -841.000; -748.000
371.525;   13.075;  345.000;  225.000
371.657; -130.475; -808.000; -670.000
371.788;   24.150;  103.000;  199.000
371.919;   28.575; -384.000; -304.000
372.050; 1437.200;  -91.000; -156.000
372.181;  447.700; -188.000; -294.000
372.311;   95.925;   42.000; -127.000
372.442;  -52.475; -457.000; -451.000
372.573;  -47.925; -444.000; -340.000
372.704; -143.375;-1008.000; -980.000
372.835;  -28.325; -228.000; -289.000
372.966;  -86.075; -646.000; -554.000
373.097;  -96.250; -575.000; -711.000
373.228;  -95.925; -717.000; -542.000
373.359;  -48.825; -824.000; -536.000
373.490;  203.825; -881.000; -727.000
373.620;  293.325;-1001.000; -803.000
373.751;  620.325; -332.000; -396.000
373.882;  258.675; -663.000; -733.000
374.013;  -23.575; -449.000; -262.000
374.143;  -88.250; -581.000; -659.000
374.274; -128.650; -987.000; -908.000
374.405;   61.925; -388.000; -276.000
374.536;  134.850; -526.000; -387.000
374.666;  323.775; -759.000; -807.000
374.797;   -0.750; -817.000; -868.000
374.928;  203.500; -710.000; -560.000
375.058;  213.700; -535.000; -500.000
375.189;   -8.975;  -59.000;  -93.000
375.320; -124.725; -928.000;-1034.000
375.450;  -67.100; -625.000; -616.000
375.581;  -47.700; -526.000; -436.000
375.712;  -43.425; -574.000; -250.000
375.842;   23.200; -438.000; -415.000
375.973;   -9.000; -554.000; -513.000
376.103; -106.200; -665.000; -648.000
376.234; -100.225; -531.000; -552.000
376.364; -111.325; -944.000; -867.000
376.495;  146.725;  925.000;  529.000
376.625;  -64.800; -472.000; -485.000
376.756;  -65.675; -709.000; -678.000
376.886; -143.800;-1178.000;-1026.000
377.017;  144.600;-1048.000;-1061.000
377.147;  647.875; -786.000; -782.000
377.278;   96.925;  174.000;  228.000
377.408; -131.650; -801.000; -815.000
377.538; -104.300; -707.000; -693.000
377.669;  -94.825; -537.000; -613.000
377.799; -105.725; -645.000; -635.000
377.929;  -98.975; -610.000; -428.000
378.060; -143.600; -781.000; -847.000
378.190;  -47.825; -726.000; -531.000
378.320;  -49.925; -401.000; -406.000
378.451;  -34.025; -131.000;  -22.000
378.581;  -23.125;  -67.000; -110.000
378.711;   94.300; 1035.000;  866.000
378.841;  -74.825; -533.000; -675.000
378.972; -111.225; -871.000; -751.000
379.102;  -87.550; -652.000; -579.000
379.232;  -35.625; -126.000;  -73.000
379.362; -124.850;-1001.000; -885.000
379.492;  -54.575; -373.000; -424.000
379.623;   31.575;    0.000;  111.000
379.753; -111.575;-1107.000; -974.000
379.883;   82.825;   59.000;  156.000
380.013;  -95.900;-1081.000;-1017.000
380.143; -125.500;-1097.000;-1056.000
380.273; -114.200; -985.000; -861.000
380.403;    7.450; -344.000; -257.000
380.533;  -52.150; -651.000; -664.000
380.663;   17.850;  173.000;  128.000
380.793; -137.725;-1027.000;-1074.000
380.923;  -50.100; -103.000;  -34.000
381.053; -110.900; -613.000; -623.000
381.183;  -43.775; -106.000; -248.000
381.313;  -56.475; -656.000; -470.000
381.443;  -57.425; -692.000; -473.000
381.573;  -32.625; -402.000; -409.000
381.703;  -71.225;-1249.000;-1095.000
381.833; -178.600;-1454.000;-1336.000
381.963;   17.025; -134.000;  -87.000
382.093;  432.050; -925.000; -909.000
382.223;  119.450; -713.000; -602.000
382.353;  -98.975; -801.000; -608.000
382.482;   17.075;-1091.000; -964.000
382.612;  208.175; -872.000; -644.000
382.742;  106.775; -695.000; -622.000
382.872;  -13.675; -565.000; -551.000
383.002;   12.750;  347.000; -132.000
383.131;  -38.675; -226.000; -160.000
383.261;  -36.575; -706.000; -768.000
383.391;  312.200; -552.000; -377.000
383.521; 5009.975;  451.000;  263.000
383.650; 1464.925; -947.000; -904.000
383.780;   27.575; -783.000; -656.000
383.910;   82.750;  880.000;  802.000
384.039;  -93.375; -794.000; -656.000
384.169;  -77.325;-1205.000;-1017.000
384.299;  -86.900; -650.000; -662.000
384.428; -113.850; -764.000; -680.000
384.558;  -72.475; -308.000; -275.000
384.687;  -72.125; -414.000; -334.000
384.817;  -21.475;   75.000;   -2.000
384.947;  -52.625; -234.000; -141.000
385.076;  149.625;  982.000;  912.000
385.206;   45.650;  369.000;  480.000
385.335;  -75.500; -549.000; -417.000
385.465; -105.825; -655.000; -663.000
385.594;    4.175;  -53.000;  -44.000
385.724;   67.350; -868.000; -838.000
385.853;  -11.050; -296.000; -270.000
385.982;  403.900; -743.000; -787.000
386.112;  741.225;-1052.000; -871.000
386.241;   10.550; -307.000; -312.000
386.371;  -23.225; -174.000;  -87.000
386.500;  -50.300; -825.000; -789.000
386.629;  -11.050; -874.000; -817.000
386.759;   89.375;  -43.000;   68.000
386.888;  -36.475; -170.000; -250.000
387.017; -100.400; -648.000; -620.000
387.147; -135.375; -771.000; -798.000
387.276;  -64.325; -410.000; -397.000
387.405;  -44.075; -398.000; -342.000
387.535;  -64.525; -452.000; -361.000
387.664;  -69.850; -692.000; -620.000
387.793;   -2.000; -198.000; -113.000
387.922;  167.625;  255.000;  200.000
388.052;  -58.375; -576.000; -423.000
388.181;  -68.800; -342.000; -472.000
388.310; -111.100; -889.000; -710.000
388.439; -113.350; -749.000; -742.000
388.568;   42.850;  365.000;  244.000
388.697;  283.900; -756.000; -653.000
388.826;   -3.425; -768.000; -666.000
388.956;  -35.600; -285.000; -307.000
389.085;  -66.550; -347.000; -287.000
389.214; -126.300; -842.000; -872.000
389.343;  -76.675; -645.000; -413.000
389.472;  537.575;  126.000;  149.000
389.601;  649.700;   91.000;    0.000
389.730;  -31.200; -568.000; -687.000
389.859;   24.750;  226.000;   46.000
389.988;   16.775; -423.000; -408.000
390.117;   28.550; -168.000; -146.000
390.246;  -56.550; -331.000; -320.000
390.375;  -62.050; -673.000; -626.000
390.504; -106.450; -703.000; -621.000
390.633; -121.925; -672.000; -726.000
390.761; -110.175; -732.000; -645.000
390.890;  -35.625;   -4.000; -130.000
391.019;  -96.425; -421.000; -441.000
391.148; -130.825; -826.000; -855.000
391.277; -103.150; -576.000; -493.000
391.406; -117.550; -821.000; -805.000
391.534;   -9.375;  574.000; -301.000
391.663; -102.125; -583.000; -645.000
391.792; -115.475; -673.000; -701.000
391.921;   -1.800;   -3.000;   15.000
392.050;   12.350; -287.000; -228.000
392.178; -136.325;-1206.000;-1061.000
392.307;  -27.000; -758.000; -712.000
392.436;  -46.850; -427.000; -641.000
392.564;   -4.650;  166.000;   -6.000
392.693; -110.325; -860.000; -682.000
392.822;   -2.750; -529.000; -534.000
392.950;  -55.050; -880.000; -714.000
393.079;   63.075; -188.000; -328.000
393.208;  -54.275; -488.000; -511.000
393.336;  -34.325; -170.000; -145.000
393.465;  -55.875; -317.000; -199.000
393.593;  -10.000;   62.000;   79.000
393.722; -154.975;-1121.000; -916.000
393.850;  -41.525; -188.000;  -61.000
393.979; -146.400; -926.000; -805.000
394.107;  -71.950; -517.000; -537.000
394.236;  -61.975; -570.000; -507.000
394.364;  115.575;  383.000;  206.000
394.493;   89.575; -911.000; -767.000
394.621;  -13.800; -955.000; -916.000
394.750; 1138.925; -873.000; -923.000
394.878; 4437.200; -247.000; -149.000
395.007; 6473.850; -721.000; -807.000
395.135;  571.275; -790.000; -721.000
395.263;  -55.800;-1038.000;-1040.000
395.392;    1.750;  -25.000; -107.000
395.520; -133.475; -818.000; -679.000
395.648; -126.225; -865.000; -915.000
395.777;  -74.450; -366.000; -405.000
395.905;  -87.325; -449.000; -564.000
396.033;  -17.225;  217.000;  172.000
396.162;  141.700; -399.000; -453.000
396.290;  140.750;  -17.000;   -2.000
396.418;  -47.350; -555.000; -514.000
396.546;  -91.100; -571.000; -466.000
396.674; -135.775; -850.000; -878.000
396.803;  -35.550;  -72.000;  -23.000
396.931;  -37.550; -179.000; -199.000
397.059; -111.450;-1026.000; -989.000
397.187; -134.200;-1026.000; -975.000
397.315; -142.475; -884.000; -649.000
397.443; -108.000; -592.000; -443.000
397.572; -100.200; -578.000; -424.000
397.700;  -93.050; -607.000; -614.000
397.828;  -19.250;  120.000;  -90.000
397.956;  -47.225; -508.000; -478.000
398.084;  -25.900; -767.000; -626.000
398.212;    4.325;  137.000;  124.000
398.340;  -16.850;  -56.000;  159.000
398.468;  -60.900; -390.000; -169.000
398.596; -150.200; -993.000; -953.000
398.724; -130.975; -762.000; -767.000
398.852; -155.550;-1024.000; -976.000
398.980;  -81.775; -560.000; -560.000
399.108; -104.725; -982.000; -735.000
399.236;  -15.100;   13.000;    8.000
399.363;   -6.300;  222.000;  196.000
399.491;  -55.050; -404.000; -398.000
399.619; -115.200; -829.000; -800.000
399.747; -120.725; -859.000; -771.000
399.875;   46.475;  220.000;  234.000
400.003;  -78.025; -359.000; -284.000
400.130;  -94.675; -421.000; -341.000
400.258;  -45.425;  -83.000;   38.000
400.386;  -73.850; -352.000; -168.000
400.514;  -90.050; -526.000; -587.000
400.641; -139.650; -928.000; -802.000
400.769; -157.150; -979.000; -888.000
400.897; -129.150; -838.000; -793.000
401.025;  -50.200; -166.000; -152.000
401.152;  -20.225;  220.000;   38.000
401.280;  -94.425; -430.000; -429.000
401.408; -113.125; -712.000; -576.000
401.535; -113.700; -735.000; -758.000
401.663; -191.600;-1134.000;-1054.000
401.790; -110.900; -514.000; -525.000
401.918;   21.400;  436.000;  405.000
402.046;  -30.025;  134.000;  122.000
402.173;  -48.975;  -18.000;    7.000
402.301;  -95.700; -519.000; -397.000
402.428;   11.700;  528.000;  383.000
402.556; -147.000;-1188.000; -913.000
402.683;  -30.525;  -20.000;   -1.000
402.811;  -40.300;  -37.000; -206.000
402.938;  -37.200;   20.000;   27.000
403.066;   -2.825; -574.000; -558.000
403.193;  105.725;  299.000;  239.000
403.321;   54.850; -396.000; -574.000
403.448;  127.075;   83.000;   27.000
403.575;   36.775;  -90.000;  -46.000
403.703;  -97.350; -732.000; -557.000
403.830;  -78.075; -531.000; -496.000
403.957; -120.275;-1117.000;-1023.000
404.085;    2.600;  -61.000; -172.000
404.212;   99.925;  -50.000;   63.000
404.339;  427.500; -566.000; -306.000
404.467; 8909.475; -612.000; -524.000
404.594; 5420.500; -287.000; -227.000
404.721;  928.900; -869.000; -764.000
404.848;   93.750; -113.000; -202.000
404.976;  -91.475; -856.000; -783.000
405.103;  -23.925;  -14.000;  -82.000
405.230;   -4.575;  190.000;  226.000
405.357;   36.150;  117.000;   44.000
405.484;  415.575;  -49.000;    5.000
405.612;  105.175; -548.000; -563.000
405.739;  -60.650; -488.000; -243.000
405.866;   58.925;  669.000;  385.000
405.993;  -51.225; -398.000; -102.000
406.120; -136.525; -801.000; -887.000
406.247;  -85.150; -323.000; -342.000
406.374;  108.625;  540.000;  629.000
406.501;  -89.400; -632.000; -702.000
406.628; -102.925; -621.000; -589.000
406.755; -126.400; -803.000; -620.000
406.882;  -71.575; -228.000; -277.000
407.009; -112.450; -719.000; -628.000
407.136;  -63.600; -480.000; -401.000
407.263;  -75.725; -939.000; -829.000
407.390; -100.500; -692.000; -614.000
407.517; -184.450;-1139.000;-1187.000
407.644;  -79.800; -332.000; -256.000
407.771;  -81.325; -249.000; -287.000
407.898;  -20.600;  168.000;  328.000
408.025;  -74.125; -421.000; -313.000
408.151;  -13.500;   82.000;  153.000
408.278;  -83.450; -267.000; -216.000
408.405; -142.275; -931.000; -899.000
408.532;  -97.150; -549.000; -542.000
408.659; -128.675; -677.000; -648.000
408.785; -208.900;-1298.000;-1170.000
408.912;  -78.850; -412.000; -296.000
409.039; -127.375; -610.000; -686.000
409.166; -102.775; -591.000; -555.000
409.292; -116.075; -571.000; -534.000
409.419; -130.250; -665.000; -649.000
409.546;  -77.825; -431.000; -192.000
409.672; -129.300; -713.000; -545.000
409.799;  -44.925;  -36.000;   34.000
409.926;  -51.875; -180.000; -179.000
410.052; -182.550;-1127.000;-1091.000
410.179;  -83.225; -368.000; -392.000
410.305;  -86.850; -375.000; -493.000
410.432;  -56.700; -220.000; -333.000
410.558; -100.025; -305.000; -380.000
410.685; -117.825; -688.000; -431.000
410.812; -109.475; -409.000; -588.000
410.938; -150.300; -964.000; -808.000
411.065; -120.200; -671.000; -645.000
411.191;  -55.975; -189.000; -174.000
411.317; -142.000; -823.000; -742.000
411.444;  -79.300; -317.000; -246.000
411.570;  -66.175; -339.000; -294.000
411.697; -133.775; -758.000; -752.000
411.823; -184.400; -989.000; -999.000
411.949;  -63.050;  -56.000;   17.000
412.076; -110.525; -539.000; -519.000
412.202; -136.400; -758.000; -757.000
412.329; -137.750; -798.000; -752.000
412.455; -123.600; -821.000; -657.000
412.581;  -37.825;  -15.000;  172.000
412.707; -100.625; -540.000; -457.000
412.834;   -7.350;  156.000;  219.000
412.960; -104.775; -785.000; -784.000
413.086; -124.575; -743.000; -701.000
413.212;   90.125;  604.000;  578.000
413.339;  -88.900; -685.000; -701.000
413.465;  -67.550; -364.000; -310.000
413.591; -119.925; -757.000; -474.000
413.717;  -56.150; -358.000; -366.000
413.843; -130.625; -839.000; -861.000
413.969;  -65.525;  -47.000; -292.000
414.096; -103.350; -679.000; -679.000
414.222;  -11.875;  -33.000;   85.000
414.348;  -76.200; -652.000; -385.000
414.474;   -0.600;   38.000;  -52.000
414.600;  -25.900; -126.000; -144.000
414.726;  -24.000;  -96.000;  -55.000
414.852;  -53.450; -365.000; -342.000
414.978;   12.975;  104.000;  -18.000
415.104;   44.950;   38.000;   80.000
415.230;   25.500; -329.000; -330.000
415.356;   55.425; -409.000; -514.000
415.482;  230.650;   13.000;  -35.000
415.608;  396.550; -247.000; -323.000
415.734; 1319.625;   67.000;   38.000
415.860;27561.450; -875.000; -767.000
415.986;22472.700; -685.000; -607.000
416.111; 2090.025; -798.000; -652.000
416.237;  472.850; -424.000; -571.000
416.363; 1697.250; -765.000; -733.000
416.489; 6669.725; -324.000; -251.000
416.615;  875.375; -707.000; -742.000
416.741;   52.725; -677.000; -784.000
416.866;  -64.000; -673.000; -736.000
416.992; -107.675; -801.000; -818.000
417.118;  -25.825;  -41.000;  -80.000
417.244;  -76.875; -798.000; -531.000
417.369;  -92.625; -801.000; -612.000
417.495;  -26.675; -325.000; -254.000
417.621;  -79.400;-1015.000; -803.000
417.746;   -8.200; -579.000; -572.000
417.872;   67.050; -254.000; -144.000
417.998;  127.875; -515.000; -530.000
418.123; 1543.100;-1073.000; -845.000
418.249; 8480.825; -512.000; -601.000
418.374; 1436.050; -916.000; -824.000
418.500;  219.975; -383.000; -482.000
418.626;  155.600;   70.000;  -59.000
418.751;  141.825; -549.000; -448.000
418.877;  300.050; -637.000; -643.000
419.002; 2546.675; -688.000; -560.000
419.128;19331.900; -930.000; -721.000
419.253; 5414.225; -967.000; -837.000
419.379;  743.075; -391.000; -338.000
419.504;  589.350;  325.000;  415.000
419.629;  834.925; -393.000; -212.000
419.755; 5345.225; -317.000; -254.000
419.880;34399.450;  -98.000;   67.000
420.006;17366.500; -280.000; -221.000
420.131;43101.300; -662.000; -775.000
420.256; 6897.375; -315.000; -316.000
420.382;  943.525; -665.000; -687.000
420.507;  160.650; -649.000; -778.000
420.632;   42.525; -337.000; -339.000
420.758;   44.900; -251.000; -425.000
420.883; -104.450; -876.000; -672.000
421.008; -109.100; -775.000; -619.000
421.133;  -99.975; -509.000; -467.000
421.259;  -55.650; -325.000; -259.000
421.384; -126.975; -834.000; -693.000
421.509; -133.100;-1052.000; -862.000
421.634;  218.775; -936.000; -820.000
421.759;  102.900; -359.000; -327.000
421.885; -103.025; -717.000; -656.000
422.010;  -99.750; -673.000; -542.000
422.135; -135.450; -695.000; -727.000
422.260;   27.575;  340.000;  280.000
422.385;  -49.500;   12.000;  -98.000
422.510;  -21.375;  151.000;  -26.000
422.635;  -17.150;  -87.000;  -43.000
422.760;   -7.350; -766.000; -791.000
422.885;   27.475;  -57.000;  -80.000
423.010;  -44.700; -112.000; -169.000
423.135;  -93.825; -481.000; -561.000
423.260;  -49.025; -150.000; -245.000
423.385;   25.600;  476.000;  222.000
423.510;   -8.100;   71.000;  -22.000
423.635;    2.000;  133.000;   45.000
423.760;   32.400;  383.000;  328.000
423.885;   23.375;  336.000;  391.000
424.010;  -31.125;  -68.000;  -13.000
424.135;  -14.275;    5.000;  -33.000
424.259;  -86.600; -654.000; -457.000
424.384;  -55.975; -279.000; -272.000
424.509;  -29.300; -260.000; -186.000
424.634; -102.775; -761.000; -623.000
424.759;  -30.300; -688.000; -544.000
424.883;    2.150; -506.000; -527.000
425.008;  186.575; -502.000; -410.000
425.133; 2870.250; -679.000; -653.000
425.258; 1532.750; -517.000; -381.000
425.382;  545.725; -867.000; -774.000
425.507; 1300.475; -487.000; -543.000
425.632;  397.600; -802.000; -663.000
425.756;  685.275; -256.000; -146.000
425.881; 9996.675; -831.000; -857.000
426.006;30592.425; -604.000; -355.000
426.130; 5002.050; -696.000; -508.000
426.255;  673.650; -611.000; -491.000
426.379;  280.725; -189.000; -577.000
426.504;  495.125;  660.000;  544.000
426.629; 5672.325; -519.000; -466.000
426.753; 4396.300;   64.000;  -46.000
426.878;  530.775; -252.000; -288.000
427.002;  309.600; -651.000; -668.000
427.127; 2079.100;  -35.000; -158.000
427.251;17160.450;  372.000;  401.000
427.375; 5535.675; -191.000; -173.000
427.500; 1395.550; -616.000; -610.000
427.624;  443.750; -234.000; -400.000
427.749;   72.125; -216.000; -225.000
427.873;  -33.900; -499.000; -412.000
427.997;  -44.175; -222.000; -230.000
428.122;   68.350;  795.000;  703.000
428.246;   32.800;  433.000;  434.000
428.371; -137.800; -869.000; -773.000
428.495; -118.175; -624.000; -646.000
428.619;  -49.600; -186.000; -117.000
428.743;    4.250;   65.000;  132.000
428.868;  -76.275; -732.000; -643.000
428.992;  544.750; -219.000; -326.000
429.116;  204.200; -329.000; -357.000
429.240;  110.450;  419.000;  426.000
429.365;  -49.675; -454.000; -574.000
429.489;  -65.200; -638.000; -647.000
429.613;   40.150; -236.000; -177.000
429.737;   57.150; -563.000; -432.000
429.861;  363.450; -247.000; -133.000
429.985; 7939.550; -425.000; -305.000
430.109; 9941.325; -770.000; -908.000
430.234; 1230.175;   76.000;  -50.000
430.358;  143.300; -250.000; -160.000
430.482;  -44.275; -672.000; -564.000
430.606;  -75.000; -655.000; -375.000
430.730;  -61.800; -437.000; -388.000
430.854;  -88.125; -909.000; -835.000
430.978;  -98.925; -795.000; -764.000
431.102;  -99.525; -499.000; -422.000
431.226; -136.300; -874.000; -815.000
431.350;    3.900;  345.000;  422.000
431.474;  -87.475; -661.000; -373.000
431.597; -161.300;-1060.000; -848.000
431.721;  -66.075; -276.000; -267.000
431.845; -141.550; -704.000; -472.000
431.969;  -92.550; -304.000; -349.000
432.093;  -88.575; -395.000; -317.000
432.217;  -21.175;   32.000;   82.000
432.341;  -88.350; -523.000; -518.000
432.464;  -30.200;   96.000;   40.000
432.588;   -9.250; -401.000; -329.000
432.712;   15.575;  -52.000;  -52.000
432.836;   39.225;  213.000;  263.000
432.959;   10.750; -372.000; -311.000
433.083;  155.250;   11.000;    2.000
433.207;  568.375;  285.000;  930.000
433.330; 7608.425; -391.000; -200.000
433.454;10471.975; -654.000; -638.000
433.578; 5760.850;  583.000;  278.000
433.701; 1213.800; -623.000; -675.000
433.825;  156.125; -292.000; -299.000
433.949;   34.050;   28.000;  -72.000
434.072;  -16.475; -410.000; -323.000
434.196;   -8.275; -309.000; -117.000
434.319; 3514.850;25482.000;25124.000
434.443;  856.000; -656.000; -603.000
434.566; 4071.375;  281.000;   62.000
434.690;  863.025; -637.000; -383.000
434.813;  131.000; -251.000; -173.000
434.937;  -64.300; -569.000; -696.000
435.060;  -77.550; -423.000; -332.000
435.184;  -10.750; -492.000; -217.000
435.307;   17.975;  159.000;  102.000
435.431;  -46.150;  -40.000;   24.000
435.554;  -64.975; -399.000; -240.000
435.677; -103.675; -350.000; -258.000
435.801;  -53.525;  -25.000;   49.000
435.924;  -53.425;    1.000;  -67.000
436.048; -161.075;-1019.000; -732.000
436.171;  -88.550; -240.000;  -66.000
436.294;  -16.825; -248.000; -229.000
436.417;  209.900; -963.000; -849.000
436.541;  -25.950; -814.000; -840.000
436.664;  -65.975; -242.000; -316.000
436.787;  -32.775;   13.000;  113.000
436.910; -133.775; -792.000; -422.000
437.034;  -12.800;  142.000;  143.000
437.157;   -0.500;  -11.000;    0.000
437.280;  -88.500; -392.000; -292.000
437.403; -140.300; -982.000; -869.000
437.526;   18.800; -903.000; -865.000
437.649;  542.000; -505.000; -332.000
437.772;    8.125; -692.000; -540.000
437.896;   44.275;  700.000;  544.000
438.019; -103.325; -758.000; -503.000
438.142; -102.575; -596.000; -506.000
438.265; -123.775; -639.000; -670.000
438.388;   27.275; -520.000; -410.000
438.511;  -77.725; -597.000; -394.000
438.634;  -91.575; -247.000; -125.000
438.757; -147.050; -693.000; -619.000
438.880;  -61.850;  -34.000;  -57.000
439.003; -113.200; -417.000; -437.000
439.126;  -82.450; -287.000; -167.000
439.248;  -61.000;  -98.000; -139.000
439.371;  -57.975;    9.000;  -53.000
439.494;   14.625;  510.000;  439.000
439.617;  -76.100;   65.000;  -88.000
439.740; -183.425; -968.000; -816.000
439.863; -155.450; -755.000; -595.000
439.986; -108.275; -476.000; -431.000
440.108;  -57.075; -161.000; -112.000
440.231; -165.450; -950.000; -836.000
440.354;  -68.725;  -64.000; -150.000
440.477; -102.875; -566.000; -542.000
440.599;  -90.700; -200.000; -225.000
440.722; -148.275; -709.000; -586.000
440.845;   39.425;  751.000;  928.000
440.968; -122.750; -415.000; -311.000
441.090;  -76.075; -199.000;  -33.000
441.213; -172.850;-1021.000; -825.000
441.336;  -65.125; -159.000;   -5.000
441.458; -110.075; -549.000; -396.000
441.581; -141.750; -628.000; -629.000
441.703;  -86.125; -152.000;   13.000
441.826; -110.625; -557.000; -400.000
441.948;  -52.950;   56.000;   51.000
442.071;    6.600;  555.000;  424.000
442.193; -130.725; -531.000; -485.000
442.316;   -9.775;  152.000;   97.000
442.438;   79.200; -233.000;  -10.000
442.561;   54.900;  272.000;  262.000
442.683;   60.075; -809.000; -522.000
442.806;  281.125;   -8.000;   74.000
442.928;  -96.550; -859.000; -604.000
443.051;  -97.825; -577.000; -373.000
443.173; -102.200; -341.000; -339.000
443.295;  -92.725; -263.000; -371.000
443.418;  -94.450; -321.000;  -29.000
443.540;  -48.175; -106.000;   -4.000
443.662; -136.450; -563.000; -465.000
443.785;  -21.375;  335.000;  199.000
443.907; -108.425; -362.000; -208.000
444.029; -123.950; -767.000; -494.000
444.152; -145.750; -644.000; -554.000
444.274;  -65.375;  -18.000;  -24.000
444.396; -121.650; -461.000; -221.000
444.518; -142.725; -691.000; -454.000
444.640;  -98.750; -268.000; -111.000
444.763;  -40.900;  388.000;  249.000
444.885; -124.200; -432.000; -392.000
445.007;  -49.850;   35.000;   86.000
445.129; -133.200; -610.000; -515.000
445.251; -110.400; -372.000; -439.000
445.373; -145.850; -537.000; -386.000
445.495;  -32.600;  242.000;  350.000
445.617;   43.700;  853.000;  753.000
445.739;  -87.825; -215.000;  -97.000
445.861;  -69.525; -245.000; -112.000
445.984;  -84.000; -267.000; -101.000
446.105;  -16.225; -418.000; -251.000
446.227;  121.050; -176.000;  -19.000
446.349;  -78.075; -358.000; -249.000
446.471; -134.400; -615.000; -448.000
446.593;  -90.400; -316.000;   19.000
446.715;  -54.325;  -67.000;   41.000
446.837;   41.575;  697.000;  832.000
446.959; -113.475; -457.000; -478.000
447.081; -150.650; -628.000; -518.000
447.203;   15.300;  862.000;  834.000
447.325;  -87.525; -270.000;   42.000
447.446;  -26.875;  286.000;  530.000
447.568; -151.925; -921.000; -803.000
447.690; -102.775; -236.000; -245.000
447.812; -124.000; -798.000; -519.000
447.933;  -48.025;  155.000;  127.000
448.055;  -72.050; -306.000; -261.000
448.177;   18.525;   31.000;   79.000
448.299;  -88.800; -935.000; -727.000
448.420;  -31.200;  -25.000;  159.000
448.542;  -52.975;   -3.000;   33.000
448.664;  -36.525;  109.000;  322.000
448.785;  -34.550;  265.000;   83.000
448.907; -118.650; -614.000; -353.000
449.028; -111.025; -771.000; -471.000
449.150;   28.500;  492.000;  589.000
449.272; -178.900;-1044.000; -913.000
449.393;   17.175;  612.000;  694.000
449.515; -147.125; -634.000; -581.000
449.636;  -85.350; -264.000; -155.000
449.758;   33.175;  763.000;  622.000
449.879; -106.900; -498.000; -396.000
450.001;  -74.250; -149.000;  -49.000
450.122;  -30.350;  -95.000;  162.000
450.244;  -40.775;   37.000;  364.000
450.365;  -80.275; -495.000; -301.000
450.486;  -20.225;   80.000;  268.000
450.608;   51.675;  393.000;  326.000
450.729;  105.075;  578.000;  645.000
450.850;   97.150; -574.000; -466.000
450.972; 1217.725; -552.000; -389.000
451.093; 7911.725;  190.000;  588.000
451.214; 4047.550; -516.000; -337.000
451.336;  684.800;  773.000;  579.000
451.457;   91.950;  264.000;  393.000
451.578;  -35.950; -118.000;  -74.000
451.699; -102.700; -546.000; -540.000
451.821;  -58.725; -284.000;  -50.000
451.942;   10.300;  278.000;  285.000
452.063;   46.375;  228.000;  419.000
452.184;  807.675;  -54.000;  -49.000
452.305; 1711.675;  103.000;  170.000
452.427;  332.950; -549.000; -301.000
452.548;   -2.150;   23.000;   79.000
452.669;  -71.250; -257.000;  -89.000
452.790;  -67.200;    3.000;  -18.000
452.911;  -18.525;  195.000;  259.000
453.032;  -79.600; -289.000;  -60.000
453.153;  -59.975;  -29.000;   81.000
453.274;   16.275;  737.000;  868.000
453.395;  -68.650;  -51.000;  175.000
453.516;   93.750; 1317.000; 1388.000
453.637;  -87.650; -205.000; -150.000
453.758;  -71.375;   15.000;   69.000
453.879; -125.950; -462.000; -250.000
454.000;   55.350; 1086.000;  948.000
454.121; -128.825; -554.000; -326.000
454.242; -122.125; -599.000; -383.000
454.362;  -56.150;  -99.000;  114.000
454.483;  -35.600; -309.000; -229.000
454.604;   60.550;  512.000;  580.000
454.725; -143.350; -627.000; -555.000
454.846; -130.200; -474.000; -406.000
454.967;  -34.600;  230.000;  539.000
455.087;  -56.725;  179.000;  153.000
455.208;   -3.850;  554.000;  856.000
455.329;  -62.325;  -22.000;   82.000
455.450;   55.425;  473.000;  633.000
455.570;  -68.875; -234.000; -211.000
455.691;  -51.825;  201.000;  407.000
455.812;  -93.775; -270.000;  -92.000
455.932;  -74.975;  107.000;  -97.000
456.053;  -87.450;   36.000;   24.000
456.173; -108.000; -433.000; -355.000
456.294; -130.925; -476.000; -303.000
456.415;  -69.250;  -73.000;   70.000
456.535;  -30.250;  297.000;  273.000
456.656;  -43.175;  132.000;  240.000
456.776;  -66.050;    3.000;  298.000
456.897;   -8.650;  308.000;  513.000
457.017;  -78.650; -153.000;   -3.000
457.138; -101.850; -402.000; -249.000
457.258;  -30.675;  263.000;  224.000
457.379;  -16.125;  509.000;  521.000
457.499;  -30.550;  443.000;  432.000
457.620; -118.075; -407.000; -231.000
457.740;  -97.725; -132.000;  -11.000
457.860;  -55.525;   87.000;   44.000
457.981;  -52.525;  132.000;  124.000
458.101;  -85.325;  -89.000;   40.000
458.221;  -18.025;  336.000;  402.000
458.342;  -68.575;   -4.000;  -37.000
458.462;   33.100;  617.000;  352.000
458.582;   18.625; -302.000; -294.000
458.703;   48.925;  303.000;  154.000
458.823;   -5.700;   22.000;  163.000
458.943;   48.500;  341.000;  467.000
459.063;   10.025; 1124.000;  192.000
459.183;  -23.050;  328.000;  313.000
459.304;   -2.925;  315.000;  517.000
459.424;  -54.650; -246.000;  -89.000
459.544;  458.425;  388.000;  764.000
459.664; 1288.725;  499.000;  506.000
459.784;  516.475; 1004.000; 1175.000
459.904;   78.575;  867.000;  744.000
460.024;   47.750;  867.000;  684.000
460.144;   -9.750;  449.000;  554.000
460.264;  -12.675;  515.000;  327.000
460.385; -105.650; -145.000; -119.000
460.505;   15.050;  905.000;  858.000
460.625; -103.100;  -17.000;  -68.000
460.745;  -18.525;  396.000;  541.000
460.864;  -53.300;  153.000;  469.000
460.984;   45.175;  499.000;  573.000
461.104;  140.275; 1656.000; 1775.000
461.224;   14.875;  657.000;  650.000
461.344;  -54.050;  431.000;  360.000
461.464;  -54.875;  258.000;  513.000
461.584;  -38.075;  283.000;  466.000
461.704;  -78.525;   58.000;  108.000
461.824;  -50.050;  238.000;  259.000
461.943;  -54.250;  191.000;  130.000
462.063;  -74.525;    2.000;  324.000
462.183;   19.450;  639.000;  717.000
462.303;   88.650; 1678.000; 1230.000
462.422;   28.050;  781.000;  840.000
462.542;  -34.050;  271.000;  391.000
462.662;   47.300;  353.000;  380.000
462.782;  330.675;  833.000;  572.000
462.901;  717.625;  545.000;  717.000
463.021;  402.300; 1702.000; 1638.000
463.141;   -4.825;  337.000;  770.000
463.260;  -15.225;  614.000;  474.000
463.380;    7.950;  902.000;  884.000
463.499;  -44.750;  342.000;  332.000
463.619;  -45.950;  581.000;  559.000
463.738;   96.000; 1644.000;  903.000
463.858;   10.350;  657.000;  811.000
463.978;  -28.225;  542.000;  396.000
464.097;   30.025;  921.000; 1114.000
464.217;  143.650; 1196.000; 1143.000
464.336;  136.800; 1068.000; 1130.000
464.455;  -24.225;  328.000;  659.000
464.575;    3.550;  597.000;  602.000
464.694;  127.100; 1204.000; 1179.000
464.814;  152.925; 1190.000; 1138.000
464.933;   70.250; 1095.000; 1027.000
465.052;   91.050; 1412.000; 1054.000
465.172;   62.350;  922.000;  799.000
465.291;   92.025; 1376.000; 1320.000
465.410;   12.125;  462.000;  735.000
465.530;   70.650; 1355.000; 1310.000
465.649;   55.000; 1209.000; 1273.000
465.768;  135.625; 1673.000; 1508.000
465.888;   53.100;  941.000; 1174.000
466.007;   93.625; 1335.000; 1440.000
466.126;   13.925;  721.000;  641.000
466.245;   38.450; 1176.000; 1187.000
466.364;   27.200;  950.000; 1060.000
466.484;   48.675; 1024.000; 1213.000
466.603;   47.775; 1101.000; 1222.000
466.722;  103.300; 1490.000; 1769.000
466.841;   58.850; 1151.000; 1401.000
466.960;   36.000; 1069.000;  972.000
467.079;  128.850; 1971.000; 1786.000
467.198;   35.575; 1238.000; 1181.000
467.317;   77.200; 1768.000; 1162.000
467.436;   67.775; 1709.000; 1261.000
467.555;  111.950; 1796.000; 1746.000
467.674;   60.175; 1227.000; 1329.000
467.793;   41.925; 1376.000; 1374.000
467.912;   71.500; 1658.000; 1539.000
468.031;  125.175; 2038.000; 1930.000
468.150;  129.375; 1842.000; 1837.000
468.269;  178.975; 2313.000; 2090.000
468.388;  169.825; 2168.000; 2339.000
468.507;  240.450; 2884.000; 2903.000
468.626;  244.500; 2555.000; 2541.000
468.744;  135.350; 2018.000; 2174.000
468.863;  188.275; 2312.000; 2523.000
468.982;   91.275; 1503.000; 1555.000
469.101;  209.275; 2788.000; 2692.000
469.220;  159.425; 2333.000; 2176.000
469.338;  236.775; 2935.000; 3051.000
469.457;  196.175; 2719.000; 2545.000
469.576;  333.550; 3953.000; 3784.000
469.695;  235.600; 2877.000; 3066.000
469.813;  410.000; 4148.000; 4192.000
469.932;  399.800; 4255.000; 4485.000
470.051;  438.750; 4075.000; 4161.000
470.169; 1031.625; 4470.000; 4338.000
470.288; 2028.400; 4700.000; 4809.000
470.406; 1159.700; 5059.000; 5194.000
470.525;  673.525; 6101.000; 5787.000
470.644;  638.250; 6847.000; 6794.000
470.762;  803.975; 8397.000; 7873.000
470.881;  925.075; 8651.000; 8464.000
470.999; 1052.675; 9685.000; 9151.000
471.118; 1116.675;11174.000;10711.000

